CollectionTime,7/9/2024 12:18:14 PM
ExposureUsed,3
CalibratedSpectrum
-962.7078968117929,498
-959.9714848408522,528
-957.2358232597828,539
-954.5009119013725,549
-951.7667505983302,559
-949.0333391832855,568
-946.3006774887896,541
-943.5687653473143,548
-940.837602591253,575
-938.1071890529199,558
-935.3775245645503,530
-932.6486089583007,562
-929.9204420662485,545
-927.1930237203925,552
-924.4663537526524,543
-921.7404319948689,528
-919.0152582788041,541
-916.2908324361409,591
-913.5671542984834,566
-910.8442236973568,556
-908.1220404642074,561
-905.4006044304027,559
-902.679915427231,548
-899.959973285902,575
-897.2407778375464,540
-894.5223289132158,553
-891.8046263438832,555
-889.0876699604426,539
-886.3714595937089,558
-883.6559950744183,504
-880.9412762332282,556
-878.2273029007168,539
-875.5140749073835,541
-872.8015920836489,511
-870.0898542598545,538
-867.3788612662631,534
-864.6686129330585,543
-861.9591090903457,533
-859.2503495681506,543
-856.5423341964203,547
-853.8350628050229,539
-851.1285352237478,550
-848.4227512823054,552
-845.7177108103272,523
-843.0134136373656,532
-840.3098595928943,545
-837.6070485063082,550
-834.9049802069229,595
-832.2036545239757,565
-829.5030712866244,570
-826.8032303239481,544
-824.1041314649472,551
-821.4057745385428,545
-818.7081593735775,552
-816.0112857988148,563
-813.3151536429393,535
-810.6197627345566,539
-807.9251129021936,558
-805.2312039742981,558
-802.5380357792392,555
-799.8456081453069,596
-797.1539209007124,555
-794.462973873588,562
-791.772766891987,596
-789.083299783884,592
-786.3945723771743,567
-783.7065844996748,548
-781.0193359791231,547
-778.3328266431781,566
-775.6470563194197,552
-772.9620248353489,536
-770.2777320183878,592
-767.5941776958798,563
-764.9113616950891,573
-762.2292838432011,588
-759.5479439673222,559
-756.8673418944801,580
-754.1874774516235,562
-751.5083504656222,590
-748.8299607632671,584
-746.15230817127,564
-743.475392516264,579
-740.7992136248035,593
-738.1237713233636,560
-735.4490654383407,591
-732.7750957960521,581
-730.1018622227365,627
-727.4293645445534,584
-724.7576025875837,619
-722.0865761778291,594
-719.4162851412126,614
-716.7467293035781,615
-714.0779084906909,604
-711.409822528237,626
-708.7424712418238,622
-706.0758544569796,609
-703.4099719991541,603
-700.7448236937178,589
-698.0804093659622,656
-695.4167288411002,620
-692.7537819442656,617
-690.0915685005134,614
-687.4300883348199,624
-684.7693412720819,627
-682.1093271371178,652
-679.4500457546669,649
-676.7914969493897,612
-674.1336805458676,623
-671.4765963686034,629
-668.8202442420206,629
-666.1646239904642,668
-663.5097354382001,640
-660.8555784094151,655
-658.2021527282176,638
-655.5494582186366,682
-652.8974947046223,640
-650.2462620100463,625
-647.5957599587009,617
-644.9459883742998,649
-642.2969470804776,636
-639.6486359007902,617
-637.0010546587141,638
-634.3542031776476,649
-631.7080812809096,667
-629.0626887917401,676
-626.4180255333008,634
-623.7740913286734,639
-621.1308860008619,652
-618.4884093727904,634
-615.8466612673046,639
-613.2056415071715,658
-610.5653499150785,634
-607.9257863136347,637
-605.28695052537,670
-602.6488423727357,662
-600.0114616781036,636
-597.3748082637674,675
-594.7388819519412,646
-592.1036825647604,667
-589.4692099242818,652
-586.8354638524829,663
-584.2024441712624,661
-581.5701507024403,695
-578.9385832677575,674
-576.3077416888759,703
-573.6776257873787,702
-571.0482353847704,670
-568.4195703024757,671
-565.7916303618415,643
-563.164415384135,714
-560.5379251905453,652
-557.9121596021815,676
-555.2871184400748,714
-552.6628015251767,688
-550.0392086783606,685
-547.4163397204204,696
-544.794194472071,724
-542.1727727539491,701
-539.5520743866118,729
-536.9320991905377,713
-534.3128469861261,742
-531.6943175936979,824
-529.0765108334947,797
-526.4594265256793,786
-523.8430644903358,883
-521.2274245474689,1005
-518.612506517005,1049
-515.9983102187913,996
-513.3848354725959,1022
-510.77208209810846,1000
-508.16004991493924,1101
-505.5487387426199,1228
-502.9381484006032,1279
-500.3282787082628,1336
-497.71912948489364,1284
-495.1107005497117,1171
-492.5029917218539,1038
-489.8960028203786,960
-487.28973366426493,894
-484.68418407241325,876
-482.07935386364494,848
-479.47524285670266,830
-476.87185087025,852
-474.2691777228715,811
-471.66722323307334,835
-469.0659872192821,851
-466.4654694998459,861
-463.86566989303384,831
-461.26658821703614,864
-458.66822428996414,817
-456.07057792985,838
-453.4736489546475,811
-450.877437182231,829
-448.28194243039627,797
-445.68716451686,808
-443.09310325926003,822
-440.49975847515555,853
-437.9071299820263,816
-435.31521759727354,833
-432.72402113821954,872
-430.13354042210767,878
-427.5437752661022,883
-424.95472548728867,871
-422.36639090267386,882
-419.7787713291855,900
-417.1918665836721,893
-414.60567648290385,915
-412.0202008435715,915
-409.4354394822874,886
-406.8513922155845,945
-404.26805885991723,945
-401.685439231661,908
-399.103533147112,931
-396.522340422488,937
-393.9418608739278,895
-391.3620943174908,877
-388.7830405691583,840
-386.2046994448317,808
-383.6270707603344,817
-381.05015433141045,770
-378.473949973725,735
-375.8984575028645,740
-373.32367673433623,648
-370.74960748356875,601
-368.1762495659117,620
-365.60360279663576,541
-363.03166699093265,517
-360.4604419639154,509
-357.8899275306178,504
-355.32012350599507,466
-352.7510297049233,466
-350.1826459421999,439
-347.61497203254316,421
-345.04800779059235,420
-342.4817530309082,424
-339.91620756797226,424
-337.35137121618743,418
-334.7872437898774,415
-332.22382510328725,408
-329.66111497058273,440
-327.09911320585127,432
-324.53781962310075,455
-321.9772340362607,451
-319.4173562591816,429
-316.8581861056348,423
-314.2997233893127,433
-311.7419679238294,422
-309.1849195227194,443
-306.62857799943856,443
-304.0729431673641,484
-301.51801483979375,467
-298.963792829947,483
-296.41027695096386,464
-293.85746701590574,469
-291.3053628377552,480
-288.7539642294155,482
-286.2032710037115,470
-283.65328297338897,463
-281.1039999511146,476
-278.5554217494762,516
-276.007548180983,496
-273.4603790580651,501
-270.9139141930734,476
-268.3681533982807,479
-265.8230964858798,519
-263.27874326798565,515
-260.7350935566336,546
-258.1921471637804,530
-255.6499039013039,509
-253.10836358100266,511
-250.56752601459698,490
-248.02739101372765,504
-245.48795838995704,521
-242.94922795476816,518
-240.41119951956557,484
-237.8738728956746,532
-235.33724789434166,586
-232.80132432673452,557
-230.2661020039418,547
-227.73158073697357,543
-225.19776033676033,549
-222.66464061415422,585
-220.1322213799284,556
-217.60050244477725,529
-215.06948361931552,563
-212.53916471408013,564
-210.00954553952818,571
-207.48062590603843,553
-204.9524056239104,543
-202.4248845033651,574
-199.8980623545441,603
-197.37193898751036,546
-194.84651421224817,559
-192.32178783866232,565
-189.79775967657952,614
-187.27442953574644,610
-184.7517972258321,622
-182.2298625564256,573
-179.7086253370378,630
-177.18808537710026,606
-174.66824248596583,619
-172.14909647290835,658
-169.6306471471229,668
-167.11289431772548,700
-164.59583779375328,709
-162.07947738416453,668
-159.5638128978386,689
-157.04884414357605,737
-154.53457093009854,758
-152.02099306604828,755
-149.50811035998936,638
-146.99592262040665,655
-144.48442965570587,733
-141.97363127421409,755
-139.46352728417958,800
-136.95411749377126,819
-134.44540171107985,836
-131.93737974411636,728
-129.43005140081357,676
-126.92341648902493,769
-124.41747481652521,962
-121.91222619101006,1250
-119.40767042009657,1474
-116.90380731132257,1557
-114.40063667214702,1521
-111.8981583099503,1590
-109.3963720320337,1580
-106.89527764561933,1381
-104.39487495785067,1310
-101.89516377579241,1556
-99.39614390642998,2230
-96.89781515667039,2750
-94.40017733334128,2967
-91.90323024319173,3022
-89.40697369289148,2669
-86.91140748903172,2455
-84.41653143812482,2801
-81.92234534660395,2820
-79.42884902082358,2600
-76.93604226705907,2629
-74.4439248915071,3028
-71.95249670028534,4053
-69.46175749943245,4708
-66.97170709490854,5063
-64.48234529259423,4953
-61.99367189829195,4791
-59.50568671772464,4193
-57.01838955653636,3927
-54.53178022029283,4088
-52.045858514480074,4737
-49.560624244506016,5875
-47.07607721569923,7852
-44.59221723330904,9444
-42.10904410250669,9875
-39.62655762838392,8801
-37.14475761595372,7756
-34.66364387015028,7490
-32.18321619582866,7079
-29.70347439776515,7715
-27.224418280657005,8363
-24.74604764912317,9219
-22.26836230770266,11466
-19.7913620608565,17321
-17.315046712966478,27791
-14.83941606833514,35588
-12.36446993118659,44938
-9.89020810566592,65040
-7.416630395839093,65040
-4.94373660569363,65040
-2.471526539137585,65040
-6.821210263296962E-13,65040
2.47084320796705,65040
4.941003281093458,65040
7.410480415786196,65040
9.879274808531363,65040
12.347386655893956,65040
14.814816154518212,65040
17.28156350112681,65040
19.74762889252179,65040
22.21301252558385,20564
24.67771459727237,3594
27.141735304626195,2050
29.605074844762612,1592
32.06773341487792,1264
34.52971121224755,1211
36.99100843422559,1331
39.45162527824516,1339
41.91156194181792,1273
44.370818622535126,1264
46.82939551806646,988
49.287292826160524,986
51.74451074464503,1014
54.201049471426245,916
56.65690920448981,916
59.112090141899785,870
61.56659248179983,864
64.02041642241159,846
66.4735621620365,828
68.92602989905402,840
71.37781983192338,834
73.82893215918205,819
76.27936707944684,925
78.72912479141326,1014
81.17820549385567,937
83.62660938562783,873
86.07433666566146,824
88.5213875329681,689
90.96776218663751,711
93.41346082583925,695
95.85848364982041,771
98.30283085790859,818
100.7465026495089,838
103.18949922410604,819
105.63182078126385,760
108.07346752062438,788
110.51443964190923,784
112.95473734491827,739
115.39436082953114,760
117.83331029570547,789
120.27158594347827,793
122.7091879729652,761
125.1461165843615,823
127.58237197794062,837
130.01795435405518,786
132.4528639131364,737
134.88710085569494,704
137.32066538231982,694
139.75355769367923,682
142.1857779905207,678
144.61732647366978,647
147.04820334403132,708
149.47840880258934,748
151.90794305040674,781
154.33680628862487,850
156.76499871846443,948
159.19252054122433,1120
161.61937195828352,1289
164.04555317109896,1363
166.47106438120693,1549
168.89590579022217,1690
171.320077599839,1825
173.7435800118302,1882
176.16641322804742,1862
178.58857745042144,1981
181.01007288096173,2120
183.43089972175687,2052
185.85105817497413,1994
188.27054844285988,2081
190.6893707277394,2128
193.10752523201643,2116
195.5250121581745,2244
197.9418317087751,2284
200.3579840864594,2399
202.7734694939469,2319
205.18828813403627,2334
207.6024402096051,2383
210.01592592360964,2391
212.42874547908548,2449
214.84089907914665,2459
217.2523869269868,2384
219.66320922587727,2446
222.0733661791695,2441
224.48285799029293,2378
226.8916848627572,2493
229.29984700014882,2519
231.7073446061355,2653
234.11417788446204,2552
236.520347038953,2677
238.92585227351185,2625
241.33069379212054,2834
243.73487179884035,2924
246.1383864978112,2822
248.541238093252,2884
250.9434267894609,2864
253.34495279081432,2876
255.74581630176783,2964
258.1460175268563,3047
260.54555667069314,3049
262.9444339379703,2999
265.3426495334594,2919
267.7402036620107,2833
270.1370965285529,2675
272.53332833809407,2647
274.9288992957214,2550
277.32380960660055,2419
279.718059475976,2425
282.1116491091717,2424
284.5045787115897,2306
286.89684848871195,2339
289.2884586460981,2373
291.67940938938807,2435
294.0697009242996,2355
296.4593334566299,2411
298.84830719225477,2358
301.23662233712923,2380
303.6242790972866,2349
306.01127767884,2244
308.39761828798066,2298
310.78330113097934,2237
313.16832641418534,2144
315.5526943440269,2138
317.9364051270112,2075
320.3194589697242,2152
322.70185607883093,2133
325.0835966610754,2011
327.4646809232805,2033
329.8451090723478,2040
332.2248813152577,1995
334.6039978590701,2017
336.9824589109231,2006
339.36026467803447,2100
341.7374153677,1970
344.113911187295,1992
346.48975234427337,2004
348.8649390461686,1899
351.2394715005918,2030
353.61334991523415,1986
355.9865744978655,2015
358.35914545633375,1951
360.73106299856715,1990
363.10232733257146,1923
365.47293866643247,2073
367.84289720831396,1949
370.2122031664593,1919
372.5808567491905,1921
374.9488581649083,1911
377.31620762209275,1904
379.6829053293021,1866
382.0489514951745,1849
384.4143463284262,1875
386.7790900378528,1865
389.14318283232853,1881
391.50662492080653,1892
393.86941651231916,1899
396.23155781597745,1906
398.5930490409713,1868
400.9538903965696,1885
403.3140820921202,1872
405.6736243370498,1808
408.03251734086336,1823
410.3907613131465,1808
412.74835646356166,1794
415.10530300185144,1827
417.4616011378372,1823
419.81725108141893,1827
422.1722530425758,1792
424.5266072313656,1799
426.880313857925,1785
429.2333731324701,1866
431.58578526529516,1819
433.9375504667738,1795
436.2886689473588,1740
438.63914091758113,1793
440.9889665880513,1779
443.33814616945835,1780
445.68667987257015,1838
448.03456790823395,1716
450.3818104873759,1765
452.72840782100013,1785
455.07436012019105,1791
457.41966759611057,1769
459.7643304600007,1747
462.10834892318155,1838
464.4517231970525,1776
466.79445349309174,1801
469.1365400228566,1731
471.4779829979826,1789
473.81878263018564,1747
476.15893913125876,1759
478.4984527130747,1792
480.8373235875855,1842
483.17555196682144,1882
485.5131380628919,1883
487.8500820879857,2014
490.1863842543697,2007
492.52204477439034,2071
494.8570638604725,2197
497.1914417251204,2332
499.52517858091653,2541
501.85827464052306,2915
504.19073011668036,2939
506.5225452222086,3002
508.85372017000566,2953
511.18425517304956,3025
513.514150444396,3038
515.8434061971808,3573
518.1720226446176,4341
520.4999999999999,4569
522.8273384766991,4362
525.1540382881666,3809
527.480099647932,3377
529.8055227696037,2961
532.1303078668694,2329
534.454455153496,2055
536.777964843328,1937
539.1008371502907,1933
541.4230722883866,1842
543.744670471698,1849
546.0656319143858,1836
548.3859568306899,1817
550.7056454349294,1775
553.0246979415016,1830
555.3431145648834,1730
557.6608955196306,1833
559.978041020377,1738
562.2945512818363,1832
564.6104265188006,1812
566.9256669461412,1870
569.2402727788082,1778
571.5542442318302,1847
573.8675815203156,1825
576.1802848594508,1811
578.4923544645015,1837
580.8037905508126,1883
583.114593333807,1826
585.4247630289875,1882
587.7342998519354,1819
590.0432040183106,1742
592.3514757438526,1850
594.6591152443794,1772
596.9661227357875,1837
599.2724984340531,1784
601.578242555231,1779
603.8833553154542,1874
606.1878369309362,1854
608.4916876179676,1883
610.7949075929192,1843
613.0974970722403,1815
615.3994562724587,1815
617.7007854101818,1862
620.0014847020951,1907
622.3015543649641,1776
624.6009946156324,1857
626.8998056710224,1856
629.1979877481361,1832
631.4955410640538,1858
633.7924658359349,1827
636.0887622810175,1865
638.3844306166192,1876
640.6794710601358,1877
642.9738838290426,1886
645.2676691408932,1908
647.5608272133207,1870
649.853358264037,1943
652.1452625108324,1868
654.4365401715764,1859
656.7271914642178,1868
659.0172166067838,1875
661.3066158173809,1948
663.5953893141935,1897
665.8835373154867,1868
668.1710600396028,1854
670.4579577049639,1881
672.7442305300709,1879
675.0298787335033,1834
677.3149025339197,1862
679.599302150058,1858
681.8830778007342,1870
684.1662297048437,1888
686.4487580813608,1868
688.7306631493387,1946
691.0119451279091,1890
693.2926042362834,1893
695.5726406937516,1907
697.8520547196814,1917
700.1308465335215,1903
702.4090163547982,1780
704.6865644031171,1880
706.9634908981619,1880
709.2397960596965,1842
711.5154801075631,1883
713.7905432616823,1856
716.0649857420548,1869
718.3388077687592,1851
720.612009561953,1885
722.8845913418733,1871
725.1565533288352,1889
727.427895743234,1924
729.6986188055427,1878
731.9687227363137,1852
734.238207756178,1862
736.5070740858458,1872
738.7753219461066,1809
741.0429515578281,1831
743.3099631419569,1840
745.5763569195191,1849
747.8421331116193,1909
750.1072919394409,1859
752.3718336242467,1914
754.6357583873777,1912
756.8990664502545,1927
759.1617580343765,1823
761.423833361321,1863
763.6852926527457,1844
765.9461361303862,1889
768.206364016058,1802
770.4659765316536,1830
772.7249738991469,1853
774.9833563405886,1916
777.2411240781092,1867
779.4982773339183,1921
781.7548163303044,1893
784.010741289634,1862
786.2660524343538,1999
788.5207499869881,1897
790.7748341701416,1830
793.0283052064964,1870
795.2811633188143,1921
797.5334087299362,1917
799.7850416627813,1875
802.0360623403484,1889
804.2864709857143,1923
806.5362678220353,1944
808.7854530725468,1949
811.0340269605625,1876
813.2819897094754,1933
815.5293415427581,1905
817.77608268396,1899
820.0222133567116,1808
822.2677337847211,1885
824.5126441917765,1838
826.7569448017433,1946
829.0006358385675,1870
831.2437175262731,1825
833.4861900889629,1921
835.7280537508192,1865
837.9693087361026,1949
840.2099552691533,1907
842.4499935743896,1908
844.689423876309,1845
846.9282463994886,1873
849.1664613685833,1905
851.4040690083276,1811
853.6410695435349,1843
855.877463199097,1816
858.1132501999847,1887
860.3484307712487,1881
862.5830051380175,1944
864.8169735254988,1929
867.0503361589791,1818
869.2830932638243,1928
871.5152450654786,1907
873.7467917894654,1944
875.9777336613873,1907
878.2080709069252,1966
880.4378037518389,1949
882.666932421968,1956
884.8954571432301,1894
887.1233781416219,1905
889.3506956432192,1945
891.5774098741766,1959
893.803521060728,1900
896.0290294291852,1930
898.2539352059397,1924
900.4782386174619,1930
902.7019398903011,1960
904.925039251085,1953
907.147536926521,1969
909.3694331433943,1965
911.59072812857,1889
913.8114221089921,1966
916.0315153116827,1950
918.2510079637437,1872
920.4699002923547,1918
922.6881925247761,1854
924.905884888345,1889
927.1229776104793,1872
929.3394709186747,1860
931.555365040506,1900
933.7706602036275,1857
935.9853566357709,1893
938.1994545647489,1956
940.4129542184515,1897
942.6258558248488,1845
944.8381596119883,1944
947.0498658079974,1841
949.2609746410825,1932
951.4714863395287,1912
953.6814011316998,1889
955.8907192460387,1954
958.0994409110671,1910
960.3075663553858,1922
962.5150958076741,1866
964.7220294966913,1932
966.928367651274,1812
969.1341105003388,1909
971.3392582728806,1832
973.5438111979742,1790
975.747769504772,1811
977.9511334225061,1799
980.153903180487,1802
982.3560790081052,1765
984.5576611348289,1789
986.7586497902058,1810
988.9590452038618,1745
991.158847605503,1848
993.3580572249133,1740
995.5566742919558,1653
997.7546990365728,1737
999.952131688785,1763
1002.1489724786926,1671
1004.3452216364743,1660
1006.5408793923874,1630
1008.7359459767691,1583
1010.9304216200343,1622
1013.1243065526781,1621
1015.3176010052733,1662
1017.510305208472,1593
1019.7024193930064,1608
1021.8939437896848,1596
1024.0848786293977,1586
1026.2752241431122,1625
1028.4649805618747,1652
1030.6541481168115,1576
1032.842727039127,1626
1035.0307175601051,1529
1037.2181199111074,1573
1039.4049343235752,1551
1041.591161029029,1537
1043.7768002590683,1548
1045.9618522453698,1551
1048.1463172196918,1571
1050.3301954138697,1531
1052.513487059818,1597
1054.69619238953,1508
1056.8783116350783,1591
1059.0598450286152,1533
1061.2407928023704,1541
1063.4211551886528,1545
1065.6009324198508,1565
1067.780124728432,1523
1069.9587323469414,1550
1072.1367555080046,1526
1074.314194444325,1601
1076.4910493886855,1500
1078.667320573947,1555
1080.843008233051,1467
1083.0181125990161,1511
1085.1926339049414,1569
1087.3665723840027,1540
1089.5399282694575,1495
1091.7127017946405,1528
1093.8848931929647,1476
1096.0565026979243,1408
1098.2275305430899,1517
1100.3979769621128,1441
1102.567842188722,1465
1104.737126456726,1463
1106.9058300000124,1437
1109.0739530525475,1416
1111.2414958483764,1501
1113.4084586216231,1502
1115.5748416064907,1460
1117.7406450372605,1434
1119.9058691482942,1469
1122.0705141740304,1501
1124.2345803489884,1450
1126.3980679077658,1503
1128.5609770850388,1463
1130.7233081155623,1438
1132.8850612341707,1441
1135.0462366757774,1438
1137.2068346753745,1465
1139.3668554680326,1453
1141.526299288901,1416
1143.68516637321,1446
1145.8434569562655,1409
1148.001171273455,1461
1150.158309560244,1435
1152.3148720521767,1432
1154.470858984876,1444
1156.626270594044,1446
1158.7811071154629,1456
1160.9353687849912,1409
1163.089055838569,1406
1165.242168512213,1450
1167.3947070420209,1389
1169.5466716641677,1385
1171.6980626149075,1451
1173.8488801305748,1401
1175.9991244475814,1403
1178.1487958024186,1390
1180.2978944316555,1448
1182.4464205719428,1388
1184.5943744600072,1400
1186.7417563326567,1422
1188.8885664267755,1468
1191.0348049793297,1442
1193.1804722273619,1445
1195.325568407995,1430
1197.4700937584303,1445
1199.614048515948,1431
1201.7574329179074,1411
1203.900247201746,1444
1206.042491604982,1401
1208.1841663652099,1433
1210.3252717201053,1356
1212.465807907422,1426
1214.6057751649923,1444
1216.7451737307279,1436
1218.8840038426192,1472
1221.0222657387353,1473
1223.1599596572241,1447
1225.2970858363137,1470
1227.4336445143094,1400
1229.5696359295966,1433
1231.705060320639,1474
1233.8399179259786,1467
1235.9742089842384,1504
1238.107933734118,1500
1240.2410924143974,1511
1242.373685263935,1510
1244.5057125216676,1467
1246.6371744266116,1482
1248.7680712178621,1558
1250.898403134593,1431
1253.028170416058,1511
1255.1573733015875,1478
1257.2860120305932,1475
1259.4140868425648,1527
1261.54159797707,1520
1263.6685456737569,1544
1265.7949301723515,1463
1267.9207517126597,1535
1270.046010534565,1574
1272.1707068780306,1576
1274.2948409830983,1525
1276.4184130898889,1499
1278.541423438603,1525
1280.6638722695184,1496
1282.785759822993,1536
1284.9070863394636,1543
1287.0278520594447,1589
1289.1480572235314,1523
1291.2677020723963,1613
1293.3867868467923,1570
1295.5053117875495,1616
1297.623277135579,1580
1299.740683131868,1631
1301.8575300174857,1666
1303.973818033578,1612
1306.0895474213703,1544
1308.2047184221678,1599
1310.3193312773528,1655
1312.4333862283888,1622
1314.5468835168163,1697
1316.659823384255,1678
1318.7722060724045,1687
1320.8840318230418,1683
1322.9953008780249,1652
1325.1060134792888,1696
1327.2161698688478,1684
1329.3257702887959,1642
1331.4348149813054,1700
1333.5433041886276,1608
1335.6512381530933,1610
1337.7586171171101,1642
1339.8654413231675,1666
1341.9717110138317,1635
1344.0774264317488,1688
1346.1825878196432,1651
1348.2871954203192,1606
1350.3912494766587,1613
1352.4947502316231,1622
1354.5976979282532,1648
1356.7000928096686,1618
1358.8019351190665,1644
1360.9032250997243,1688
1363.0039629949988,1618
1365.1041490483235,1638
1367.2037835032133,1687
1369.3028666032606,1653
1371.401398592137,1623
1373.4993797135926,1643
1375.5968102114575,1624
1377.6936903296396,1612
1379.7900203121262,1644
1381.8858004029835,1628
1383.9810308463561,1641
1386.075711886469,1629
1388.1698437676241,1625
1390.2634267342032,1673
1392.356461030667,1704
1394.4489469015557,1639
1396.5408845914872,1684
1398.6322743451592,1711
1400.7231164073469,1733
1402.813411022907,1715
1404.903158436773,1749
1406.9923588939578,1719
1409.0810126395531,1691
1411.1691199187303,1730
1413.2566809767386,1694
1415.343696058907,1813
1417.4301654106425,1789
1419.5160892774315,1793
1421.6014679048399,1840
1423.6863015385125,1765
1425.7705904241707,1757
1427.8543348076178,1876
1429.9375349347342,1815
1432.0201910514802,1884
1434.102303403894,1860
1436.1838722380944,2018
1438.2648978002767,1948
1440.3453803367174,1894
1442.4253200937692,1901
1444.5047173178677,2064
1446.5835722555234,2060
1448.6618851533285,2022
1450.739656257952,2066
1452.8168858161434,2134
1454.8935740747306,2125
1456.96972128062,2149
1459.045327680797,2265
1461.120393522327,2164
1463.1949190523528,2318
1465.2689045180973,2292
1467.3423501668608,2345
1469.415256246024,2349
1471.4876230030463,2465
1473.559450685465,2434
1475.6307395408976,2497
1477.7014898170391,2435
1479.771701761665,2567
1481.8413756226287,2635
1483.9105116478618,2621
1485.9791100853772,2696
1488.0471711832643,2719
1490.1146951896926,2683
1492.1816823529098,2784
1494.2481329212433,2831
1496.3140471430984,2846
1498.3794252669609,2872
1500.4442675413939,2898
1502.5085742150404,2915
1504.572345536622,2949
1506.6355817549388,2960
1508.6982831188702,3006
1510.7604498773744,2959
1512.8220822794883,3008
1514.8831805743293,2941
1516.9437450110909,2946
1519.003775839048,3045
1521.0632733075522,2990
1523.1222376660367,3050
1525.1806691640113,2996
1527.2385680510652,3164
1529.2959345768668,3163
1531.3527689911643,3228
1533.4090715437833,3148
1535.4648424846291,3260
1537.5200820636855,3180
1539.5747905310159,3278
1541.6289681367616,3312
1543.6826151311434,3313
1545.7357317644614,3372
1547.7883182870937,3384
1549.8403749494987,3384
1551.8919020022113,3513
1553.9428996958477,3593
1555.9933682811015,3707
1558.0433080087469,3731
1560.0927191296346,3806
1562.1416018946961,3789
1564.1899565549415,3832
1566.2377833614592,3801
1568.2850825654164,3825
1570.3318544180606,3627
1572.3780991707158,3664
1574.423817074788,3427
1576.4690083817595,3327
1578.5136733431923,3207
1580.5578122107272,3115
1582.601425236085,3002
1584.6445126710646,2886
1586.6870747675434,2737
1588.7291117774776,2723
1590.7706239529034,2585
1592.8116115459347,2541
1594.8520748087658,2347
1596.8920139936686,2302
1598.9314293529933,2254
1600.9703211391711,2198
1603.008689604711,2201
1605.0465350022005,2012
1607.0838575843068,1958
1609.1206576037753,1930
1611.1569353134305,1883
1613.1926909661765,1883
1615.2279248149953,1813
1617.2626371129481,1830
1619.2968281131757,1802
1621.3304980688963,1753
1623.3636472334088,1774
1625.39627586009,1693
1627.428384202396,1712
1629.459972513861,1675
1631.4910410480993,1650
1633.5215900588028,1665
1635.551619799744,1614
1637.5811305247717,1640
1639.6101224878166,1628
1641.6385959428862,1613
1643.6665511440683,1560
1645.693988345528,1599
1647.7209078015112,1557
1649.7473097663405,1540
1651.7731944944203,1517
1653.7985622402307,1594
1655.823413258333,1602
1657.847747803366,1473
1659.8715661300494,1508
1661.8948684931793,1552
1663.9176551476316,1530
1665.9399263483624,1549
1667.9616823504057,1549
1669.982923408873,1590
1672.0036497789574,1581
1674.0238617159293,1535
1676.043559475138,1449
1678.0627433120121,1513
1680.081413482059,1506
1682.0995702408654,1447
1684.117213844096,1573
1686.134344547495,1467
1688.1509626068864,1517
1690.1670682781705,1489
1692.182661817329,1548
1694.1977434804217,1534
1696.2123135235875,1530
1698.226372203043,1502
1700.2399197750851,1511
1702.2529564960905,1474
1704.2654826225112,1517
1706.277498410882,1487
1708.2890041178139,1429
1710.2999999999988,1460
1712.3104863142066,1456
1714.3204633172854,1464
1716.329931266163,1434
1718.3388904178469,1452
1720.3473410294214,1420
1722.3552833580516,1462
1724.3627176609807,1449
1726.3696441955308,1474
1728.3760632191033,1470
1730.3819749891782,1391
1732.3873797633146,1386
1734.3922777991502,1415
1736.3966693544012,1437
1738.4005546868639,1439
1740.4039340544127,1363
1742.406807715001,1448
1744.4091759266616,1441
1746.4110389475054,1420
1748.4123970357223,1363
1750.413250449582,1384
1752.4135994474318,1386
1754.4134442876993,1408
1756.4127852288902,1443
1758.4116225295893,1401
1760.4099564484595,1427
1762.407787244244,1428
1764.405115175764,1391
1766.4019405019203,1383
1768.3982634816916,1387
1770.3940843741357,1362
1772.3894034383907,1402
1774.3842209336717,1403
1776.378537119274,1381
1778.372352254571,1344
1780.3656665990156,1341
1782.3584804121397,1341
1784.3507939535534,1377
1786.3426074829463,1385
1788.3339212600863,1360
1790.3247355448211,1391
1792.3150505970766,1344
1794.3048666768573,1352
1796.2941840442477,1340
1798.2830029594106,1375
1800.2713236825884,1301
1802.2591464741004,1372
1804.2464715943465,1381
1806.2332993038058,1325
1808.2196298630352,1356
1810.2054635326708,1367
1812.190800573428,1342
1814.175641246101,1269
1816.1599858115628,1300
1818.1438345307652,1321
1820.127187664738,1367
1822.1100454745924,1344
1824.092408221516,1360
1826.0742761667766,1292
1828.055649571721,1315
1830.0365286977735,1374
1832.0169138064398,1322
1833.9968051593014,1318
1835.9762030180214,1329
1837.9551076443408,1358
1839.9335193000788,1351
1841.9114382471344,1347
1843.888864747485,1337
1845.8657990631878,1354
1847.842241456378,1345
1849.8181921892697,1295
1851.7936515241558,1303
1853.7686197234098,1362
1855.7430970494815,1349
1857.7170837649014,1331
1859.6905801322787,1318
1861.6635864143004,1304
1863.6361028737338,1372
1865.608129773424,1363
1867.5796673762961,1319
1869.5507159453537,1391
1871.521275743678,1340
1873.4913470344313,1389
1875.4609300808534,1345
1877.4300251462632,1356
1879.3986324940588,1379
1881.366752387717,1371
1883.3343850907936,1396
1885.3015308669228,1355
1887.268189979819,1415
1889.2343626932739,1399
1891.2000492711595,1370
1893.1652499774254,1358
1895.1299650761011,1439
1897.0941948312952,1369
1899.0579395071945,1366
1901.0211993680641,1374
1902.98397467825,1414
1904.9462657021745,1368
1906.9080727043415,1333
1908.869395949332,1321
1910.8302357018065,1411
1912.790592226504,1377
1914.7504657882428,1348
1916.7098566519212,1355
1918.6687650825133,1384
1920.6271913450764,1397
1922.5851357047422,1379
1924.5425984267245,1373
1926.499579776314,1366
1928.4560800188833,1379
1930.4120994198802,1379
1932.367638244833,1386
1934.32269675935,1333
1936.2772752291175,1345
1938.231373919899,1391
1940.1849930975404,1340
1942.1381330279637,1413
1944.0907939771696,1367
1946.0429762112412,1316
1947.9946799963363,1398
1949.9459055986945,1325
1951.896653284633,1385
1953.8469233205478,1343
1955.7967159729142,1365
1957.7460315082863,1335
1959.6948701932974,1361
1961.6432322946594,1382
1963.5911180791632,1408
1965.5385278136787,1364
1967.4854617651545,1324
1969.4319202006182,1363
1971.377903387176,1424
1973.3234115920136,1313
1975.268445082395,1360
1977.2130041256642,1323
1979.1570889892423,1316
1981.1006999406304,1324
1983.04383724741,1295
1984.986501177238,1317
1986.928691997853,1324
1988.8704099770712,1341
1990.811655382789,1352
1992.7524284829801,1290
1994.692729545698,1316
1996.6325588390755,1316
1998.5719166313224,1260
2000.5108031907307,1321
2002.4492187856677,1353
2004.387163684583,1345
2006.3246381560011,1283
2008.2616424685298,1277
2010.1981768908527,1310
2012.1342416917332,1299
2014.069837140014,1243
2016.0049635046162,1291
2017.9396210545406,1299
2019.8738100588666,1310
2021.8075307867502,1304
2023.740783507431,1259
2025.6735684902228,1304
2027.6058860045214,1279
2029.5377363198004,1290
2031.4691197056118,1257
2033.4000364315875,1324
2035.3304867674374,1305
2037.260470982952,1317
2039.189989347998,1267
2041.1190421325232,1290
2043.047629606554,1265
2044.9757520401945,1245
2046.9034097036288,1244
2048.8306028671195,1299
2050.7573318010086,1274
2052.683596775716,1298
2054.609398061742,1279
2056.5347359296647,1289
2058.4596106501403,1285
2060.384022493906,1213
2062.3079717317764,1228
2064.231458634646,1282
2066.1544834734873,1293
2068.077046519352,1293
2069.99914804337,1180
2071.9207883167524,1266
2073.8419676107865,1291
2075.7626861968406,1275
2077.6829443463607,1261
2079.6027423308715,1235
2081.522080421977,1265
2083.440958891362,1292
2085.359378010786,1268
2087.2773380520907,1286
2089.194839287196,1249
2091.111881988101,1250
2093.0284664268825,1293
2094.9445928756973,1316
2096.86026160678,1256
2098.775472892446,1219
2100.690227005088,1251
2102.604524217178,1320
2104.5183648012676,1288
2106.431749029985,1237
2108.34467717604,1290
2110.2571495122206,1282
2112.169166311393,1262
2114.080727846503,1303
2115.9918343905747,1254
2117.902486216711,1310
2119.8126835980956,1262
2121.722426807987,1300
2123.6317161197285,1284
2125.5405518067364,1331
2127.448934142509,1288
2129.356863400624,1273
2131.264339854737,1357
2133.1713637785815,1272
2135.077935445972,1290
2136.9840551308002,1285
2138.889723107037,1280
2140.7949396487334,1312
2142.699705030018,1322
2144.6040195250994,1295
2146.507883408264,1305
2148.4112969538774,1283
2150.3142604363848,1267
2152.2167741303097,1311
2154.1188383102535,1280
2156.0204532508997,1261
2157.9216192270064,1249
2159.822336513414,1309
2161.7226053850413,1355
2163.622426116884,1301
2165.5217989840185,1304
2167.4207242616,1320
2169.319202224862,1333
2171.2172331491165,1316
2173.1148173097563,1372
2175.0119549822507,1386
2176.90864644215,1318
2178.8048919650823,1390
2180.7006918267534,1323
2182.596046302952,1277
2184.4909556695407,1323
2186.3854202024645,1325
2188.279440177746,1334
2190.173015871487,1324
2192.066147559868,1290
2193.958835519149,1226
2195.851080025667,1350
2197.7428813558417,1347
2199.6342397861667,1349
2201.5251555932186,1312
2203.415629053651,1342
2205.3056604441986,1343
2207.19525004167,1365
2209.084398122958,1334
2210.9731049650327,1343
2212.861370844941,1406
2214.749196039812,1371
2216.636580826851,1294
2218.523525483344,1343
2220.410030286655,1374
2222.296095514226,1376
2224.1817214435805,1351
2226.066908352319,1384
2227.951656518121,1354
2229.835966218746,1321
2231.71983773203,1418
2233.6032713358913,1386
2235.486267308324,1352
2237.3688259274036,1376
2239.2509474712824,1339
2241.132632218193,1336
2243.013880446447,1381
2244.8946924344323,1419
2246.7750684606203,1380
2248.6550088035574,1319
2250.534513741871,1390
2252.413583554265,1339
2254.292218519526,1311
2256.170418916517,1361
2258.0481850241786,1378
2259.925517121534,1378
2261.8024154876825,1361
2263.678880401803,1343
2265.5549121431536,1357
2267.430510991071,1292
2269.305677224971,1329
2271.180411124348,1345
2273.0547129687766,1357
2274.9285830379076,1362
2276.8020216114737,1342
2278.6750289692845,1332
2280.5476053912294,1348
2282.4197511572766,1401
2284.2914665474727,1352
2286.162751841943,1357
2288.0336073208937,1363
2289.904033264608,1334
2291.774029953448,1314
2293.6435976678554,1336
2295.5127366883517,1412
2297.381447295534,1332
2299.2497297700825,1267
2301.1175843927526,1299
2302.9850114443825,1291
2304.852011205885,1247
2306.7185839582553,1250
2308.5847299825664,1209
2310.4504495599676,1253
2312.3157429716925,1222
2314.1806104990483,1256
2316.0450524234247,1236
2317.9090690262888,1174
2319.772660589186,1249
2321.635827393742,1262
2323.498569721661,1184
2325.3608878547248,1226
2327.2227820747967,1210
2329.0842526638157,1200
2330.945299903803,1225
2332.805924076857,1232
2334.6661254651535,1181
2336.525904350951,1209
2338.3852610165827,1232
2340.244195744464,1250
2342.102708817088,1207
2343.9608005170253,1201
2345.8184711269287,1159
2347.675720929526,1250
2349.532550207628,1224
2351.38895924412,1222
2353.24494832197,1225
2355.100517724223,1204
2356.955667734004,1243
2358.810398634514,1267
2360.664710709037,1240
2362.5186042409337,1236
2364.3720795136437,1311
2366.225136810686,1219
2368.0777764156583,1192
2369.929998612237,1243
2371.7818036841777,1214
2373.633191915315,1243
2375.484163589562,1273
2377.3347189909114,1200
2379.184858403434,1202
2381.03458211128,1262
2382.8838903986775,1273
2384.732783549936,1253
2386.5812618494406,1231
2388.4293255816588,1210
2390.2769750311327,1257
2392.1242104824883,1210
2393.971032220427,1276
2395.8174405297295,1239
2397.6634356952563,1245
2399.509018001947,1259
2401.3541877348193,1251
2403.1989451789705,1219
2405.043290619576,1219
2406.8872243418905,1264
2408.730746631247,1244
2410.5738577730594,1240
2412.4165580528183,1257
2414.258847756095,1284
2416.100727168537,1306
2417.9421965758734,1231
2419.783256263912,1262
2421.623906518538,1303
2423.4641476257157,1313
2425.303979871491,1285
2427.143403541984,1307
2428.9824189233977,1305
2430.821026302012,1325
2432.6592259641866,1279
2434.497018196361,1294
2436.33440328505,1277
2438.171381516851,1295
2440.00795317844,1289
2441.844118556569,1286
2443.6798779380724,1309
2445.5152316098606,1357
2447.3501798589255,1320
2449.1847229723357,1325
2451.0188612372403,1303
2452.8525949408663,1265
2454.6859243705203,1316
2456.518849813587,1276
2458.3513715575314,1298
2460.183489889895,1259
2462.015205098301,1263
2463.8465174704493,1330
2465.67742729412,1276
2467.5079348571717,1276
2469.338040447542,1250
2471.1677443532476,1293
2472.9970468623833,1308
2474.825948263123,1342
2476.6544488437207,1358
2478.482548892508,1335
2480.310248697896,1294
2482.137548548374,1314
2483.9644487325118,1304
2485.790949538956,1363
2487.617051256433,1314
2489.44275417375,1307
2491.26805857979,1294
2493.0929647635157,1343
2494.917473013971,1385
2496.741583620276,1314
2498.5652968716304,1378
2500.3886130573137,1333
2502.2115324666834,1348
2504.0340553891765,1349
2505.856182114308,1342
2507.6779129316733,1317
2509.499248130945,1297
2511.3201880018764,1343
2513.140732834298,1328
2514.9608829181198,1398
2516.780638543331,1372
2518.6,1370
2520.418967578273,1323
2522.237541568376,1332
2524.0557222606144,1371
2525.8735099453706,1431
2527.6909049131086,1434
2529.507907454368,1399
2531.32451785977,1405
2533.140736420014,1423
2534.9565634258774,1447
2536.771999168218,1400
2538.5870439379714,1430
2540.4016980261526,1430
2542.2159617238544,1460
2544.02983532225,1397
2545.8433191125914,1462
2547.656413386209,1554
2549.4691184345115,1530
2551.2814345489874,1535
2553.093362021204,1548
2554.904901142808,1480
2556.716052205523,1535
2558.526815501153,1540
2560.3371913215824,1523
2562.147179958771,1543
2563.956781704761,1593
2565.7659968516705,1589
2567.5748256916986,1604
2569.3832685171224,1591
2571.1913256202984,1666
2572.9989972936614,1586
2574.806283829725,1591
2576.613185521084,1661
2578.4197026604074,1628
2580.2258355404483,1673
2582.031584454035,1646
2583.836949694077,1661
2585.6419315535613,1660
2587.4465303255533,1655
2589.2507463032002,1642
2591.0545797797245,1729
2592.8580310484303,1682
2594.6611004026995,1627
2596.463788135992,1699
2598.266094541849,1750
2600.0680199138874,1818
2601.869564545807,1671
2603.670728731383,1678
2605.4715127644704,1662
2607.2719169390048,1707
2609.071941548998,1707
2610.8715868885433,1697
2612.670853251811,1628
2614.469740933052,1613
2616.268250226594,1623
2618.0663814268455,1612
2619.864134828292,1639
2621.6615107255006,1704
2623.458509413115,1641
2625.2551311858597,1557
2627.0513763385347,1664
2628.8472451660223,1618
2630.6427379632833,1617
2632.4378550253564,1558
2634.232596647359,1580
2636.026963124488,1610
2637.8209547520187,1559
2639.6145718253065,1498
2641.407814639785,1565
2643.200683490966,1582
2644.9931786744414,1489
2646.7853004858807,1499
2648.577049221034,1478
2650.3684251757277,1467
2652.1594286458712,1477
2653.9500599274484,1484
2655.740319316525,1464
2657.5302071092437,1421
2659.3197236018286,1451
2661.10886909058,1440
2662.8976438718782,1384
2664.686048242183,1379
2666.4740824980327,1441
2668.2617469360443,1381
2670.0490418529134,1412
2671.8359675454153,1363
2673.622524310403,1394
2675.408712444811,1382
2677.1945322456495,1364
2678.979984010009,1348
2680.76506803506,1386
2682.5497846180497,1357
2684.334134056306,1357
2686.1181166472343,1352
2687.9017326883213,1302
2689.6849824771293,1299
2691.4678663113013,1340
2693.2503844885596,1306
2695.032537306705,1384
2696.8143250636167,1332
2698.5957480572542,1249
2700.3768065856534,1224
2702.1575009469316,1304
2703.937831439283,1300
2705.717798360982,1278
2707.4974020103837,1264
2709.276642685917,1237
2711.055520686095,1306
2712.834036309506,1246
2714.612189854819,1271
2716.389981620782,1259
2718.1674119062204,1280
2719.944481010041,1220
2721.721189231226,1192
2723.4975368688415,1218
2725.273524222027,1206
2727.0491515900053,1183
2728.824419272075,1218
2730.5993275676146,1219
2732.3738767760838,1203
2734.148067197016,1273
2735.921899130031,1243
2737.6953728748194,1213
2739.468488731156,1259
2741.2412469988926,1196
2743.0136479779617,1229
2744.785691968372,1156
2746.5573792702116,1240
2748.3287101836504,1175
2750.099685008934,1225
2751.870304046388,1182
2753.640567596418,1193
2755.4104759595057,1226
2757.1800294362156,1243
2758.949228327187,1168
2760.7180729331412,1176
2762.486563554877,1200
2764.254700493272,1242
2766.022484049284,1170
2767.789914523947,1182
2769.5569922183786,1195
2771.3237174337705,1182
2773.090090471394,1226
2774.8561116326036,1203
2776.6217812188274,1236
2778.3870995315756,1226
2780.1520668724356,1244
2781.9166835430747,1262
2783.6809498452394,1201
2785.444866080754,1208
2787.2084325515225,1172
2788.971649559527,1170
2790.73451740683,1187
2792.4970363955713,1215
2794.2592068279705,1183
2796.0210290063264,1196
2797.7825032330147,1180
2799.543629810493,1214
2801.304409041296,1199
2803.0648412280366,1198
2804.8249266734088,1205
2806.5846656801846,1192
2808.344058551212,1224
2810.1031055894246,1231
2811.8618070978273,1255
2813.6201633795085,1206
2815.378174737636,1225
2817.1358414754536,1205
2818.893163896285,1237
2820.6501423035334,1190
2822.4067770006814,1155
2824.1630682912883,1183
2825.9190164789957,1215
2827.6746218675207,1232
2829.429884760661,1224
2831.184805462294,1197
2832.9393842763743,1190
2834.693621506936,1215
2836.4475174580916,1178
2838.201072434034,1187
2839.954286739034,1211
2841.707160677441,1172
2843.459694553685,1160
2845.2118886722724,1198
2846.96374333779,1176
2848.7152588549034,1174
2850.4664355283567,1165
2852.217273662973,1163
2853.9677735636546,1218
2855.7179355353833,1205
2857.4677598832186,1154
2859.217246912299,1196
2860.9663969278427,1162
2862.715210235146,1185
2864.4636871395846,1181
2866.211827946614,1141
2867.9596329617652,1192
2869.7071024906536,1181
2871.4542368389684,1192
2873.20103631248,1237
2874.947501217038,1195
2876.6936318585695,1205
2878.4394285430812,1195
2880.1848915766604,1155
2881.9300212654707,1192
2883.6748179157553,1235
2885.4192818338374,1153
2887.1634133261173,1217
2888.907212699077,1199
2890.6506802592744,1178
2892.393816313348,1272
2894.1366211680142,1215
2895.8790951300693,1165
2897.621238506388,1180
2899.363051603925,1176
2901.1045347297118,1165
2902.8456881908596,1190
2904.58651229456,1214
2906.327007348081,1165
2908.067173658772,1181
2909.8070115340597,1190
2911.5465212814497,1192
2913.285703208527,1192
2915.0245576229563,1174
2916.7630848324807,1140
2918.5012851449196,1176
2920.2391588681758,1113
2921.976706310227,1205
2923.7139277791334,1151
2925.4508235830313,1201
2927.187394030137,1199
2928.923639428745,1217
2930.6595600872306,1155
2932.395156314046,1199
2934.1304284177218,1174
2935.8653767068713,1180
2937.6000014901815,1199
2939.3343030764227,1137
2941.068281774442,1157
2942.8019378931644,1171
2944.5352717415976,1178
2946.2682836288236,1136
2948.0009738640065,1224
2949.7333427563885,1236
2951.465390615289,1211
2953.1971177501086,1162
2954.9285244703265,1155
2956.6596110855,1178
2958.3903779052657,1189
2960.1208252393385,1203
2961.8509533975125,1196
2963.5807626896617,1207
2965.3102534257378,1204
2967.0394259157715,1150
2968.768280469873,1160
2970.496817398232,1205
2972.2250370111146,1178
2973.952939618869,1189
2975.6805255319196,1140
2977.4077950607707,1193
2979.134748516006,1135
2980.861386208289,1209
2982.587708448359,1198
2984.313715547037,1204
2986.039407815222,1201
2987.764785563891,1165
2989.489849104102,1171
2991.2145987469908,1237
2992.9390348037705,1167
2994.6631575857346,1161
2996.3869674042576,1134
2998.1104645707887,1128
2999.83364939686,1145
3001.5565221940783,1192
3003.2790832741334,1156
3005.0013329487924,1100
3006.7232715298996,1145
3008.4448993293804,1240
3010.166216659239,1187
3011.887223831558,1138
3013.607921158498,1135
3015.3283089522993,1167
3017.0483875252826,1188
3018.7681571898443,1176
3020.4876182584626,1191
3022.2067710436927,1160
3023.9256158581707,1145
3025.644153014609,1187
3027.362382825801,1161
3029.0803056046193,1205
3030.797921664012,1236
3032.5152313170106,1113
3034.2322348767225,1132
3035.9489326563353,1170
3037.665324969115,1147
3039.3814121284063,1147
3041.097194447633,1135
3042.812672240299,1184
3044.5278458199855,1175
3046.2427155003525,1224
3047.9572815951406,1179
3049.671544418167,1162
3051.38550428333,1175
3053.0991615046073,1176
3054.812516396051,1195
3056.5255692717974,1159
3058.2383204460575,1142
3059.9507702331257,1159
3061.662918947372,1153
3063.3747669032446,1159
3065.0863144152736,1190
3066.7975617980674,1168
3068.508509366309,1121
3070.219157434767,1180
3071.9295063182844,1182
3073.639556331785,1167
3075.3493077902704,1159
3077.058761008821,1162
3078.7679163025964,1148
3080.476773986837,1194
3082.1853343768594,1239
3083.89359778806,1255
3085.6015645359153,1163
3087.3092349359786,1169
3089.016609303884,1142
3090.7236879553434,1169
3092.4304712061476,1173
3094.136959372166,1157
3095.843152769349,1167
3097.5490517137237,1198
3099.2546565213966,1164
3100.959967508554,1220
3102.66498499146,1164
3104.3697092864577,1209
3106.0741407099695,1176
3107.778279578498,1173
3109.482126208622,1155
3111.1856809170004,1143
3112.8889440203716,1243
3114.5919158355528,1182
3116.294596679439,1215
3117.996986869006,1197
3119.6990867213062,1144
3121.4008965534726,1181
3123.102416682717,1212
3124.803647426329,1159
3126.5045891016784,1164
3128.205242026213,1174
3129.90560651746,1169
3131.605682893025,1199
3133.3054714705922,1176
3135.0049725679282,1148
3136.7041865028714,1208
3138.4031135933465,1191
3140.101754157353,1234
3141.800108512971,1168
3143.498176978357,1220
3145.1959598717494,1182
3146.8934575114636,1173
3148.5906702158954,1172
3150.2875983035183,1209
3151.9842420928853,1172
3153.680601902627,1170
3155.376678051456,1209
3157.07247085816,1228
3158.767980641609,1151
3160.463207720748,1192
3162.158152414606,1172
3163.8528150422862,1157
3165.5471959229726,1182
3167.2412953759303,1169
3168.9351137204976,1164
3170.628651276098,1147
3172.3219083622307,1189
3174.014885298474,1169
3175.707582404485,1161
3177.4000000000005,1177
3179.092138404835,1195
3180.7839979388846,1148
3182.47557892212,1203
3184.166881674594,1164
3185.8579065164386,1166
3187.5486537678626,1132
3189.2391237491547,1151
3190.9293167806827,1160
3192.6192331828934,1161
3194.3088732763117,1173
3195.998237381542,1191
3197.687325819268,1151
3199.376138910251,1160
3201.064676975334,1121
3202.7529403354347,1165
3204.4409293115523,1163
3206.1286442247647,1158
3207.816085396229,1165
3209.5032531471825,1183
3211.190147798936,1134
3212.8767696728846,1184
3214.5631190905015,1172
3216.2491963733373,1092
3217.9350018430214,1108
3219.6205358212637,1151
3221.305798629851,1139
3222.990790590651,1201
3224.6755120256103,1132
3226.359963256751,1135
3228.0441446061795,1123
3229.7280563960758,1082
3231.411698948703,1132
3233.0950725863995,1128
3234.778177631587,1170
3236.461014406761,1149
3238.1435832345005,1169
3239.8258844374595,1169
3241.507918338374,1137
3243.1896852600576,1113
3244.8711855254023,1141
3246.552419457381,1168
3248.233387379042,1212
3249.914089613516,1139
3251.59452648401,1144
3253.274698313813,1176
3254.95460542629,1165
3256.6342481448855,1137
3258.313626793125,1135
3259.9927416946084,1108
3261.6715931730196,1099
3263.3501815521176,1118
3265.0285071557437,1143
3266.706570307815,1120
3268.3843713323286,1131
3270.0619105533615,1105
3271.739188295068,1140
3273.4162048816834,1121
3275.0929606375184,1130
3276.769455886966,1143
3278.445690954498,1202
3280.1216661646613,1146
3281.797381842087,1142
3283.4728383114807,1156
3285.1480358976296,1125
3286.8229749253996,1151
3288.4976557197333,1150
3290.172078605655,1140
3291.846243908266,1176
3293.5201519527463,1109
3295.193803064357,1134
3296.8671975684374,1140
3298.5403357904024,1158
3300.21321805575,1146
3301.8858446900567,1148
3303.558216018975,1181
3305.23033236824,1126
3306.9021940636603,1167
3308.57380143113,1144
3310.2451547966184,1159
3311.916254486174,1127
3313.5871008259246,1154
3315.2576941420766,1133
3316.9280347609147,1151
3318.5981230088046,1122
3320.2679592121895,1121
3321.9375436975924,1132
3323.606876791612,1144
3325.27595882093,1155
3326.944790112305,1147
3328.6133709925753,1150
3330.2817017886573,1121
3331.949782827547,1098
3333.617614436319,1116
3335.2851969421245,1183
3336.952530672199,1165
3338.619615953853,1135
3340.286453114475,1143
3341.9530424815357,1121
3343.619384382583,1178
3345.2854791452437,1144
3346.951327097224,1140
3348.6169285663073,1141
3350.2822838803577,1157
3351.947393367319,1184
3353.61225735521,1168
3355.2768761721345,1171
3356.9412501462693,1151
3358.605379605873,1124
3360.2692648792827,1150
3361.9329062949146,1107
3363.596304181263,1084
