CollectionTime,7/9/2024 12:18:31 PM
ExposureUsed,3
CalibratedSpectrum
-962.7078968117929,493
-959.9714848408522,507
-957.2358232597828,552
-954.5009119013725,544
-951.7667505983302,540
-949.0333391832855,521
-946.3006774887896,531
-943.5687653473143,560
-940.837602591253,555
-938.1071890529199,558
-935.3775245645503,542
-932.6486089583007,532
-929.9204420662485,532
-927.1930237203925,530
-924.4663537526524,531
-921.7404319948689,545
-919.0152582788041,578
-916.2908324361409,600
-913.5671542984834,552
-910.8442236973568,552
-908.1220404642074,560
-905.4006044304027,567
-902.679915427231,530
-899.959973285902,513
-897.2407778375464,538
-894.5223289132158,528
-891.8046263438832,520
-889.0876699604426,534
-886.3714595937089,538
-883.6559950744183,517
-880.9412762332282,550
-878.2273029007168,530
-875.5140749073835,520
-872.8015920836489,517
-870.0898542598545,533
-867.3788612662631,542
-864.6686129330585,530
-861.9591090903457,569
-859.2503495681506,547
-856.5423341964203,544
-853.8350628050229,535
-851.1285352237478,510
-848.4227512823054,543
-845.7177108103272,537
-843.0134136373656,552
-840.3098595928943,524
-837.6070485063082,556
-834.9049802069229,579
-832.2036545239757,555
-829.5030712866244,548
-826.8032303239481,539
-824.1041314649472,534
-821.4057745385428,531
-818.7081593735775,546
-816.0112857988148,548
-813.3151536429393,555
-810.6197627345566,556
-807.9251129021936,560
-805.2312039742981,545
-802.5380357792392,568
-799.8456081453069,593
-797.1539209007124,567
-794.462973873588,564
-791.772766891987,598
-789.083299783884,566
-786.3945723771743,561
-783.7065844996748,559
-781.0193359791231,535
-778.3328266431781,546
-775.6470563194197,571
-772.9620248353489,550
-770.2777320183878,566
-767.5941776958798,569
-764.9113616950891,543
-762.2292838432011,563
-759.5479439673222,541
-756.8673418944801,568
-754.1874774516235,589
-751.5083504656222,568
-748.8299607632671,595
-746.15230817127,563
-743.475392516264,577
-740.7992136248035,609
-738.1237713233636,568
-735.4490654383407,576
-732.7750957960521,597
-730.1018622227365,608
-727.4293645445534,580
-724.7576025875837,579
-722.0865761778291,555
-719.4162851412126,596
-716.7467293035781,595
-714.0779084906909,620
-711.409822528237,594
-708.7424712418238,602
-706.0758544569796,602
-703.4099719991541,616
-700.7448236937178,633
-698.0804093659622,617
-695.4167288411002,632
-692.7537819442656,644
-690.0915685005134,633
-687.4300883348199,624
-684.7693412720819,595
-682.1093271371178,652
-679.4500457546669,587
-676.7914969493897,636
-674.1336805458676,601
-671.4765963686034,630
-668.8202442420206,652
-666.1646239904642,618
-663.5097354382001,634
-660.8555784094151,654
-658.2021527282176,647
-655.5494582186366,644
-652.8974947046223,645
-650.2462620100463,644
-647.5957599587009,662
-644.9459883742998,669
-642.2969470804776,659
-639.6486359007902,676
-637.0010546587141,705
-634.3542031776476,680
-631.7080812809096,667
-629.0626887917401,660
-626.4180255333008,690
-623.7740913286734,628
-621.1308860008619,645
-618.4884093727904,653
-615.8466612673046,659
-613.2056415071715,636
-610.5653499150785,642
-607.9257863136347,667
-605.28695052537,656
-602.6488423727357,667
-600.0114616781036,652
-597.3748082637674,662
-594.7388819519412,675
-592.1036825647604,689
-589.4692099242818,660
-586.8354638524829,693
-584.2024441712624,686
-581.5701507024403,673
-578.9385832677575,668
-576.3077416888759,665
-573.6776257873787,636
-571.0482353847704,659
-568.4195703024757,661
-565.7916303618415,668
-563.164415384135,671
-560.5379251905453,649
-557.9121596021815,667
-555.2871184400748,674
-552.6628015251767,657
-550.0392086783606,667
-547.4163397204204,669
-544.794194472071,689
-542.1727727539491,681
-539.5520743866118,687
-536.9320991905377,721
-534.3128469861261,736
-531.6943175936979,733
-529.0765108334947,777
-526.4594265256793,785
-523.8430644903358,886
-521.2274245474689,929
-518.612506517005,1035
-515.9983102187913,999
-513.3848354725959,1002
-510.77208209810846,1027
-508.16004991493924,1082
-505.5487387426199,1230
-502.9381484006032,1257
-500.3282787082628,1343
-497.71912948489364,1230
-495.1107005497117,1118
-492.5029917218539,1018
-489.8960028203786,963
-487.28973366426493,925
-484.68418407241325,816
-482.07935386364494,835
-479.47524285670266,809
-476.87185087025,838
-474.2691777228715,869
-471.66722323307334,821
-469.0659872192821,827
-466.4654694998459,847
-463.86566989303384,854
-461.26658821703614,820
-458.66822428996414,856
-456.07057792985,861
-453.4736489546475,828
-450.877437182231,862
-448.28194243039627,829
-445.68716451686,845
-443.09310325926003,791
-440.49975847515555,802
-437.9071299820263,854
-435.31521759727354,850
-432.72402113821954,878
-430.13354042210767,869
-427.5437752661022,827
-424.95472548728867,869
-422.36639090267386,829
-419.7787713291855,831
-417.1918665836721,888
-414.60567648290385,914
-412.0202008435715,873
-409.4354394822874,861
-406.8513922155845,899
-404.26805885991723,911
-401.685439231661,901
-399.103533147112,884
-396.522340422488,884
-393.9418608739278,947
-391.3620943174908,856
-388.7830405691583,871
-386.2046994448317,845
-383.6270707603344,782
-381.05015433141045,788
-378.473949973725,744
-375.8984575028645,717
-373.32367673433623,644
-370.74960748356875,625
-368.1762495659117,576
-365.60360279663576,592
-363.03166699093265,572
-360.4604419639154,507
-357.8899275306178,465
-355.32012350599507,471
-352.7510297049233,461
-350.1826459421999,452
-347.61497203254316,430
-345.04800779059235,441
-342.4817530309082,418
-339.91620756797226,424
-337.35137121618743,447
-334.7872437898774,423
-332.22382510328725,434
-329.66111497058273,439
-327.09911320585127,427
-324.53781962310075,449
-321.9772340362607,464
-319.4173562591816,436
-316.8581861056348,435
-314.2997233893127,446
-311.7419679238294,446
-309.1849195227194,424
-306.62857799943856,477
-304.0729431673641,449
-301.51801483979375,441
-298.963792829947,439
-296.41027695096386,472
-293.85746701590574,492
-291.3053628377552,490
-288.7539642294155,494
-286.2032710037115,463
-283.65328297338897,456
-281.1039999511146,477
-278.5554217494762,488
-276.007548180983,488
-273.4603790580651,497
-270.9139141930734,491
-268.3681533982807,486
-265.8230964858798,513
-263.27874326798565,524
-260.7350935566336,521
-258.1921471637804,507
-255.6499039013039,527
-253.10836358100266,533
-250.56752601459698,544
-248.02739101372765,536
-245.48795838995704,484
-242.94922795476816,480
-240.41119951956557,496
-237.8738728956746,523
-235.33724789434166,557
-232.80132432673452,530
-230.2661020039418,493
-227.73158073697357,526
-225.19776033676033,592
-222.66464061415422,593
-220.1322213799284,574
-217.60050244477725,532
-215.06948361931552,540
-212.53916471408013,566
-210.00954553952818,586
-207.48062590603843,511
-204.9524056239104,531
-202.4248845033651,590
-199.8980623545441,579
-197.37193898751036,545
-194.84651421224817,588
-192.32178783866232,598
-189.79775967657952,582
-187.27442953574644,663
-184.7517972258321,656
-182.2298625564256,630
-179.7086253370378,589
-177.18808537710026,566
-174.66824248596583,593
-172.14909647290835,641
-169.6306471471229,644
-167.11289431772548,663
-164.59583779375328,659
-162.07947738416453,657
-159.5638128978386,694
-157.04884414357605,718
-154.53457093009854,751
-152.02099306604828,764
-149.50811035998936,636
-146.99592262040665,690
-144.48442965570587,658
-141.97363127421409,712
-139.46352728417958,777
-136.95411749377126,824
-134.44540171107985,819
-131.93737974411636,729
-129.43005140081357,695
-126.92341648902493,766
-124.41747481652521,1029
-121.91222619101006,1193
-119.40767042009657,1430
-116.90380731132257,1405
-114.40063667214702,1424
-111.8981583099503,1567
-109.3963720320337,1573
-106.89527764561933,1320
-104.39487495785067,1246
-101.89516377579241,1487
-99.39614390642998,2253
-96.89781515667039,2770
-94.40017733334128,3021
-91.90323024319173,3075
-89.40697369289148,2904
-86.91140748903172,2534
-84.41653143812482,2630
-81.92234534660395,2777
-79.42884902082358,2447
-76.93604226705907,2536
-74.4439248915071,3004
-71.95249670028534,3941
-69.46175749943245,4453
-66.97170709490854,4866
-64.48234529259423,5067
-61.99367189829195,4854
-59.50568671772464,4556
-57.01838955653636,4307
-54.53178022029283,4777
-52.045858514480074,5805
-49.560624244506016,7408
-47.07607721569923,9595
-44.59221723330904,10956
-42.10904410250669,11137
-39.62655762838392,9476
-37.14475761595372,8045
-34.66364387015028,7316
-32.18321619582866,6790
-29.70347439776515,7132
-27.224418280657005,7611
-24.74604764912317,8284
-22.26836230770266,10204
-19.7913620608565,15455
-17.315046712966478,26921
-14.83941606833514,37605
-12.36446993118659,45720
-9.89020810566592,65040
-7.416630395839093,65040
-4.94373660569363,65040
-2.471526539137585,65040
-6.821210263296962E-13,65040
2.47084320796705,65040
4.941003281093458,65040
7.410480415786196,65040
9.879274808531363,65040
12.347386655893956,65040
14.814816154518212,65040
17.28156350112681,65040
19.74762889252179,65040
22.21301252558385,20809
24.67771459727237,3690
27.141735304626195,2155
29.605074844762612,1648
32.06773341487792,1315
34.52971121224755,1227
36.99100843422559,1358
39.45162527824516,1304
41.91156194181792,1261
44.370818622535126,1327
46.82939551806646,1023
49.287292826160524,985
51.74451074464503,946
54.201049471426245,923
56.65690920448981,877
59.112090141899785,813
61.56659248179983,850
64.02041642241159,788
66.4735621620365,764
68.92602989905402,801
71.37781983192338,762
73.82893215918205,810
76.27936707944684,887
78.72912479141326,946
81.17820549385567,829
83.62660938562783,817
86.07433666566146,829
88.5213875329681,740
90.96776218663751,643
93.41346082583925,679
95.85848364982041,700
98.30283085790859,827
100.7465026495089,802
103.18949922410604,805
105.63182078126385,772
108.07346752062438,747
110.51443964190923,740
112.95473734491827,755
115.39436082953114,774
117.83331029570547,766
120.27158594347827,733
122.7091879729652,768
125.1461165843615,791
127.58237197794062,808
130.01795435405518,767
132.4528639131364,733
134.88710085569494,745
137.32066538231982,675
139.75355769367923,680
142.1857779905207,655
144.61732647366978,683
147.04820334403132,701
149.47840880258934,757
151.90794305040674,793
154.33680628862487,828
156.76499871846443,960
159.19252054122433,1150
161.61937195828352,1256
164.04555317109896,1374
166.47106438120693,1522
168.89590579022217,1700
171.320077599839,1850
173.7435800118302,1816
176.16641322804742,1917
178.58857745042144,1929
181.01007288096173,2045
183.43089972175687,2082
185.85105817497413,2009
188.27054844285988,2056
190.6893707277394,2142
193.10752523201643,2216
195.5250121581745,2282
197.9418317087751,2332
200.3579840864594,2357
202.7734694939469,2427
205.18828813403627,2369
207.6024402096051,2508
210.01592592360964,2318
212.42874547908548,2327
214.84089907914665,2406
217.2523869269868,2463
219.66320922587727,2391
222.0733661791695,2371
224.48285799029293,2404
226.8916848627572,2430
229.29984700014882,2538
231.7073446061355,2602
234.11417788446204,2551
236.520347038953,2546
238.92585227351185,2753
241.33069379212054,2767
243.73487179884035,2824
246.1383864978112,2856
248.541238093252,2817
250.9434267894609,2847
253.34495279081432,2903
255.74581630176783,3004
258.1460175268563,2952
260.54555667069314,3026
262.9444339379703,3026
265.3426495334594,2996
267.7402036620107,2859
270.1370965285529,2754
272.53332833809407,2659
274.9288992957214,2560
277.32380960660055,2465
279.718059475976,2406
282.1116491091717,2339
284.5045787115897,2415
286.89684848871195,2311
289.2884586460981,2329
291.67940938938807,2303
294.0697009242996,2376
296.4593334566299,2366
298.84830719225477,2324
301.23662233712923,2337
303.6242790972866,2333
306.01127767884,2303
308.39761828798066,2257
310.78330113097934,2299
313.16832641418534,2196
315.5526943440269,2117
317.9364051270112,2101
320.3194589697242,2181
322.70185607883093,2047
325.0835966610754,2065
327.4646809232805,2084
329.8451090723478,1974
332.2248813152577,2048
334.6039978590701,2036
336.9824589109231,2026
339.36026467803447,2033
341.7374153677,2010
344.113911187295,1980
346.48975234427337,1991
348.8649390461686,2075
351.2394715005918,1905
353.61334991523415,1986
355.9865744978655,1949
358.35914545633375,2026
360.73106299856715,1867
363.10232733257146,1881
365.47293866643247,1943
367.84289720831396,1900
370.2122031664593,1947
372.5808567491905,1868
374.9488581649083,1919
377.31620762209275,1831
379.6829053293021,1861
382.0489514951745,1878
384.4143463284262,1812
386.7790900378528,1835
389.14318283232853,1813
391.50662492080653,1844
393.86941651231916,1933
396.23155781597745,1918
398.5930490409713,1900
400.9538903965696,1859
403.3140820921202,1784
405.6736243370498,1864
408.03251734086336,1795
410.3907613131465,1847
412.74835646356166,1771
415.10530300185144,1809
417.4616011378372,1831
419.81725108141893,1842
422.1722530425758,1851
424.5266072313656,1833
426.880313857925,1806
429.2333731324701,1830
431.58578526529516,1834
433.9375504667738,1837
436.2886689473588,1853
438.63914091758113,1777
440.9889665880513,1772
443.33814616945835,1736
445.68667987257015,1728
448.03456790823395,1728
450.3818104873759,1711
452.72840782100013,1760
455.07436012019105,1745
457.41966759611057,1776
459.7643304600007,1794
462.10834892318155,1826
464.4517231970525,1717
466.79445349309174,1790
469.1365400228566,1831
471.4779829979826,1750
473.81878263018564,1732
476.15893913125876,1784
478.4984527130747,1772
480.8373235875855,1803
483.17555196682144,1881
485.5131380628919,1868
487.8500820879857,1935
490.1863842543697,1960
492.52204477439034,2088
494.8570638604725,2285
497.1914417251204,2383
499.52517858091653,2591
501.85827464052306,2910
504.19073011668036,2997
506.5225452222086,2914
508.85372017000566,2939
511.18425517304956,2869
513.514150444396,2993
515.8434061971808,3519
518.1720226446176,4245
520.4999999999999,4547
522.8273384766991,4223
525.1540382881666,3864
527.480099647932,3364
529.8055227696037,2860
532.1303078668694,2323
534.454455153496,2035
536.777964843328,1956
539.1008371502907,1896
541.4230722883866,1898
543.744670471698,1739
546.0656319143858,1811
548.3859568306899,1840
550.7056454349294,1724
553.0246979415016,1740
555.3431145648834,1758
557.6608955196306,1706
559.978041020377,1746
562.2945512818363,1741
564.6104265188006,1749
566.9256669461412,1822
569.2402727788082,1766
571.5542442318302,1822
573.8675815203156,1778
576.1802848594508,1824
578.4923544645015,1808
580.8037905508126,1816
583.114593333807,1812
585.4247630289875,1742
587.7342998519354,1739
590.0432040183106,1787
592.3514757438526,1836
594.6591152443794,1730
596.9661227357875,1780
599.2724984340531,1787
601.578242555231,1791
603.8833553154542,1782
606.1878369309362,1778
608.4916876179676,1777
610.7949075929192,1740
613.0974970722403,1874
615.3994562724587,1837
617.7007854101818,1805
620.0014847020951,1808
622.3015543649641,1765
624.6009946156324,1821
626.8998056710224,1885
629.1979877481361,1827
631.4955410640538,1786
633.7924658359349,1819
636.0887622810175,1843
638.3844306166192,1877
640.6794710601358,1809
642.9738838290426,1841
645.2676691408932,1901
647.5608272133207,1813
649.853358264037,1913
652.1452625108324,1887
654.4365401715764,1814
656.7271914642178,1866
659.0172166067838,1930
661.3066158173809,1877
663.5953893141935,1914
665.8835373154867,1925
668.1710600396028,1869
670.4579577049639,1825
672.7442305300709,1832
675.0298787335033,1897
677.3149025339197,1832
679.599302150058,1878
681.8830778007342,1875
684.1662297048437,1861
686.4487580813608,1881
688.7306631493387,1962
691.0119451279091,1890
693.2926042362834,1816
695.5726406937516,1925
697.8520547196814,1865
700.1308465335215,1862
702.4090163547982,1817
704.6865644031171,1844
706.9634908981619,1905
709.2397960596965,1866
711.5154801075631,1875
713.7905432616823,1890
716.0649857420548,1878
718.3388077687592,1793
720.612009561953,1853
722.8845913418733,1829
725.1565533288352,1864
727.427895743234,1797
729.6986188055427,1849
731.9687227363137,1836
734.238207756178,1855
736.5070740858458,1824
738.7753219461066,1833
741.0429515578281,1837
743.3099631419569,1863
745.5763569195191,1794
747.8421331116193,1775
750.1072919394409,1795
752.3718336242467,1753
754.6357583873777,1858
756.8990664502545,1816
759.1617580343765,1787
761.423833361321,1840
763.6852926527457,1789
765.9461361303862,1863
768.206364016058,1840
770.4659765316536,1860
772.7249738991469,1813
774.9833563405886,1897
777.2411240781092,1872
779.4982773339183,1869
781.7548163303044,1895
784.010741289634,1813
786.2660524343538,1928
788.5207499869881,1899
790.7748341701416,1845
793.0283052064964,1846
795.2811633188143,1855
797.5334087299362,1854
799.7850416627813,1834
802.0360623403484,1834
804.2864709857143,1919
806.5362678220353,1919
808.7854530725468,1901
811.0340269605625,1904
813.2819897094754,1869
815.5293415427581,1892
817.77608268396,1859
820.0222133567116,1871
822.2677337847211,1883
824.5126441917765,1895
826.7569448017433,1896
829.0006358385675,1852
831.2437175262731,1836
833.4861900889629,1857
835.7280537508192,1816
837.9693087361026,1880
840.2099552691533,1896
842.4499935743896,1956
844.689423876309,1896
846.9282463994886,1817
849.1664613685833,1882
851.4040690083276,1870
853.6410695435349,1865
855.877463199097,1841
858.1132501999847,1871
860.3484307712487,1840
862.5830051380175,1891
864.8169735254988,1892
867.0503361589791,1898
869.2830932638243,1867
871.5152450654786,1878
873.7467917894654,1894
875.9777336613873,1955
878.2080709069252,1883
880.4378037518389,1960
882.666932421968,1909
884.8954571432301,1939
887.1233781416219,1965
889.3506956432192,1964
891.5774098741766,1973
893.803521060728,1877
896.0290294291852,1979
898.2539352059397,1947
900.4782386174619,1908
902.7019398903011,1903
904.925039251085,1930
907.147536926521,1874
909.3694331433943,1886
911.59072812857,1996
913.8114221089921,1930
916.0315153116827,1879
918.2510079637437,1889
920.4699002923547,1886
922.6881925247761,1874
924.905884888345,1909
927.1229776104793,1901
929.3394709186747,1886
931.555365040506,1860
933.7706602036275,1809
935.9853566357709,1882
938.1994545647489,1938
940.4129542184515,1908
942.6258558248488,1898
944.8381596119883,1933
947.0498658079974,1854
949.2609746410825,1931
951.4714863395287,1934
953.6814011316998,1908
955.8907192460387,1830
958.0994409110671,1886
960.3075663553858,1908
962.5150958076741,1889
964.7220294966913,1819
966.928367651274,1854
969.1341105003388,1839
971.3392582728806,1820
973.5438111979742,1757
975.747769504772,1863
977.9511334225061,1831
980.153903180487,1845
982.3560790081052,1767
984.5576611348289,1839
986.7586497902058,1769
988.9590452038618,1779
991.158847605503,1772
993.3580572249133,1742
995.5566742919558,1701
997.7546990365728,1605
999.952131688785,1681
1002.1489724786926,1651
1004.3452216364743,1644
1006.5408793923874,1718
1008.7359459767691,1645
1010.9304216200343,1592
1013.1243065526781,1618
1015.3176010052733,1613
1017.510305208472,1589
1019.7024193930064,1542
1021.8939437896848,1617
1024.0848786293977,1563
1026.2752241431122,1562
1028.4649805618747,1611
1030.6541481168115,1594
1032.842727039127,1655
1035.0307175601051,1516
1037.2181199111074,1571
1039.4049343235752,1546
1041.591161029029,1536
1043.7768002590683,1602
1045.9618522453698,1515
1048.1463172196918,1524
1050.3301954138697,1569
1052.513487059818,1572
1054.69619238953,1591
1056.8783116350783,1544
1059.0598450286152,1580
1061.2407928023704,1575
1063.4211551886528,1570
1065.6009324198508,1493
1067.780124728432,1509
1069.9587323469414,1560
1072.1367555080046,1533
1074.314194444325,1578
1076.4910493886855,1580
1078.667320573947,1484
1080.843008233051,1505
1083.0181125990161,1503
1085.1926339049414,1487
1087.3665723840027,1530
1089.5399282694575,1447
1091.7127017946405,1503
1093.8848931929647,1518
1096.0565026979243,1494
1098.2275305430899,1441
1100.3979769621128,1497
1102.567842188722,1406
1104.737126456726,1456
1106.9058300000124,1456
1109.0739530525475,1465
1111.2414958483764,1486
1113.4084586216231,1478
1115.5748416064907,1464
1117.7406450372605,1479
1119.9058691482942,1510
1122.0705141740304,1388
1124.2345803489884,1429
1126.3980679077658,1423
1128.5609770850388,1401
1130.7233081155623,1477
1132.8850612341707,1388
1135.0462366757774,1486
1137.2068346753745,1451
1139.3668554680326,1445
1141.526299288901,1450
1143.68516637321,1444
1145.8434569562655,1433
1148.001171273455,1420
1150.158309560244,1455
1152.3148720521767,1421
1154.470858984876,1422
1156.626270594044,1482
1158.7811071154629,1453
1160.9353687849912,1433
1163.089055838569,1396
1165.242168512213,1400
1167.3947070420209,1435
1169.5466716641677,1369
1171.6980626149075,1379
1173.8488801305748,1419
1175.9991244475814,1422
1178.1487958024186,1407
1180.2978944316555,1427
1182.4464205719428,1486
1184.5943744600072,1412
1186.7417563326567,1384
1188.8885664267755,1390
1191.0348049793297,1443
1193.1804722273619,1443
1195.325568407995,1438
1197.4700937584303,1414
1199.614048515948,1373
1201.7574329179074,1472
1203.900247201746,1441
1206.042491604982,1396
1208.1841663652099,1437
1210.3252717201053,1386
1212.465807907422,1402
1214.6057751649923,1406
1216.7451737307279,1377
1218.8840038426192,1428
1221.0222657387353,1474
1223.1599596572241,1478
1225.2970858363137,1428
1227.4336445143094,1414
1229.5696359295966,1511
1231.705060320639,1495
1233.8399179259786,1456
1235.9742089842384,1461
1238.107933734118,1451
1240.2410924143974,1500
1242.373685263935,1490
1244.5057125216676,1436
1246.6371744266116,1471
1248.7680712178621,1409
1250.898403134593,1529
1253.028170416058,1483
1255.1573733015875,1466
1257.2860120305932,1486
1259.4140868425648,1498
1261.54159797707,1538
1263.6685456737569,1557
1265.7949301723515,1507
1267.9207517126597,1525
1270.046010534565,1460
1272.1707068780306,1481
1274.2948409830983,1527
1276.4184130898889,1551
1278.541423438603,1570
1280.6638722695184,1541
1282.785759822993,1540
1284.9070863394636,1552
1287.0278520594447,1512
1289.1480572235314,1576
1291.2677020723963,1592
1293.3867868467923,1632
1295.5053117875495,1586
1297.623277135579,1565
1299.740683131868,1612
1301.8575300174857,1563
1303.973818033578,1645
1306.0895474213703,1637
1308.2047184221678,1674
1310.3193312773528,1626
1312.4333862283888,1644
1314.5468835168163,1614
1316.659823384255,1661
1318.7722060724045,1704
1320.8840318230418,1695
1322.9953008780249,1627
1325.1060134792888,1599
1327.2161698688478,1650
1329.3257702887959,1700
1331.4348149813054,1616
1333.5433041886276,1602
1335.6512381530933,1651
1337.7586171171101,1643
1339.8654413231675,1693
1341.9717110138317,1597
1344.0774264317488,1706
1346.1825878196432,1666
1348.2871954203192,1657
1350.3912494766587,1656
1352.4947502316231,1769
1354.5976979282532,1654
1356.7000928096686,1671
1358.8019351190665,1642
1360.9032250997243,1661
1363.0039629949988,1703
1365.1041490483235,1645
1367.2037835032133,1584
1369.3028666032606,1602
1371.401398592137,1561
1373.4993797135926,1554
1375.5968102114575,1678
1377.6936903296396,1626
1379.7900203121262,1628
1381.8858004029835,1674
1383.9810308463561,1646
1386.075711886469,1664
1388.1698437676241,1647
1390.2634267342032,1676
1392.356461030667,1664
1394.4489469015557,1673
1396.5408845914872,1681
1398.6322743451592,1724
1400.7231164073469,1746
1402.813411022907,1686
1404.903158436773,1753
1406.9923588939578,1759
1409.0810126395531,1708
1411.1691199187303,1796
1413.2566809767386,1754
1415.343696058907,1695
1417.4301654106425,1727
1419.5160892774315,1796
1421.6014679048399,1756
1423.6863015385125,1782
1425.7705904241707,1760
1427.8543348076178,1822
1429.9375349347342,1861
1432.0201910514802,1869
1434.102303403894,1827
1436.1838722380944,1913
1438.2648978002767,1959
1440.3453803367174,1822
1442.4253200937692,1934
1444.5047173178677,1944
1446.5835722555234,2001
1448.6618851533285,2053
1450.739656257952,2035
1452.8168858161434,2095
1454.8935740747306,2162
1456.96972128062,2187
1459.045327680797,2228
1461.120393522327,2242
1463.1949190523528,2246
1465.2689045180973,2273
1467.3423501668608,2278
1469.415256246024,2353
1471.4876230030463,2496
1473.559450685465,2459
1475.6307395408976,2388
1477.7014898170391,2507
1479.771701761665,2498
1481.8413756226287,2569
1483.9105116478618,2714
1485.9791100853772,2693
1488.0471711832643,2735
1490.1146951896926,2774
1492.1816823529098,2730
1494.2481329212433,2859
1496.3140471430984,2897
1498.3794252669609,2941
1500.4442675413939,2845
1502.5085742150404,2920
1504.572345536622,2943
1506.6355817549388,2960
1508.6982831188702,2967
1510.7604498773744,2903
1512.8220822794883,3012
1514.8831805743293,2964
1516.9437450110909,3028
1519.003775839048,3029
1521.0632733075522,3012
1523.1222376660367,3007
1525.1806691640113,3226
1527.2385680510652,3147
1529.2959345768668,3117
1531.3527689911643,3172
1533.4090715437833,3138
1535.4648424846291,3159
1537.5200820636855,3212
1539.5747905310159,3322
1541.6289681367616,3322
1543.6826151311434,3299
1545.7357317644614,3406
1547.7883182870937,3439
1549.8403749494987,3494
1551.8919020022113,3670
1553.9428996958477,3659
1555.9933682811015,3677
1558.0433080087469,3749
1560.0927191296346,3788
1562.1416018946961,3786
1564.1899565549415,3857
1566.2377833614592,3872
1568.2850825654164,3696
1570.3318544180606,3730
1572.3780991707158,3516
1574.423817074788,3503
1576.4690083817595,3407
1578.5136733431923,3221
1580.5578122107272,3089
1582.601425236085,3004
1584.6445126710646,2923
1586.6870747675434,2888
1588.7291117774776,2692
1590.7706239529034,2605
1592.8116115459347,2469
1594.8520748087658,2401
1596.8920139936686,2379
1598.9314293529933,2326
1600.9703211391711,2250
1603.008689604711,2116
1605.0465350022005,2063
1607.0838575843068,1995
1609.1206576037753,1900
1611.1569353134305,1942
1613.1926909661765,1769
1615.2279248149953,1839
1617.2626371129481,1884
1619.2968281131757,1799
1621.3304980688963,1759
1623.3636472334088,1759
1625.39627586009,1752
1627.428384202396,1705
1629.459972513861,1743
1631.4910410480993,1688
1633.5215900588028,1641
1635.551619799744,1676
1637.5811305247717,1589
1639.6101224878166,1645
1641.6385959428862,1604
1643.6665511440683,1605
1645.693988345528,1588
1647.7209078015112,1625
1649.7473097663405,1596
1651.7731944944203,1530
1653.7985622402307,1639
1655.823413258333,1560
1657.847747803366,1564
1659.8715661300494,1487
1661.8948684931793,1544
1663.9176551476316,1526
1665.9399263483624,1534
1667.9616823504057,1566
1669.982923408873,1549
1672.0036497789574,1558
1674.0238617159293,1527
1676.043559475138,1521
1678.0627433120121,1511
1680.081413482059,1526
1682.0995702408654,1572
1684.117213844096,1520
1686.134344547495,1479
1688.1509626068864,1553
1690.1670682781705,1525
1692.182661817329,1521
1694.1977434804217,1487
1696.2123135235875,1553
1698.226372203043,1505
1700.2399197750851,1507
1702.2529564960905,1480
1704.2654826225112,1507
1706.277498410882,1497
1708.2890041178139,1501
1710.2999999999988,1480
1712.3104863142066,1436
1714.3204633172854,1478
1716.329931266163,1499
1718.3388904178469,1529
1720.3473410294214,1450
1722.3552833580516,1566
1724.3627176609807,1534
1726.3696441955308,1446
1728.3760632191033,1435
1730.3819749891782,1407
1732.3873797633146,1476
1734.3922777991502,1424
1736.3966693544012,1415
1738.4005546868639,1447
1740.4039340544127,1389
1742.406807715001,1377
1744.4091759266616,1396
1746.4110389475054,1459
1748.4123970357223,1415
1750.413250449582,1436
1752.4135994474318,1418
1754.4134442876993,1417
1756.4127852288902,1439
1758.4116225295893,1415
1760.4099564484595,1329
1762.407787244244,1342
1764.405115175764,1427
1766.4019405019203,1426
1768.3982634816916,1396
1770.3940843741357,1395
1772.3894034383907,1330
1774.3842209336717,1349
1776.378537119274,1372
1778.372352254571,1347
1780.3656665990156,1361
1782.3584804121397,1392
1784.3507939535534,1348
1786.3426074829463,1362
1788.3339212600863,1305
1790.3247355448211,1351
1792.3150505970766,1380
1794.3048666768573,1331
1796.2941840442477,1359
1798.2830029594106,1385
1800.2713236825884,1380
1802.2591464741004,1376
1804.2464715943465,1353
1806.2332993038058,1369
1808.2196298630352,1366
1810.2054635326708,1330
1812.190800573428,1353
1814.175641246101,1353
1816.1599858115628,1336
1818.1438345307652,1338
1820.127187664738,1358
1822.1100454745924,1357
1824.092408221516,1318
1826.0742761667766,1364
1828.055649571721,1360
1830.0365286977735,1366
1832.0169138064398,1381
1833.9968051593014,1365
1835.9762030180214,1317
1837.9551076443408,1386
1839.9335193000788,1321
1841.9114382471344,1315
1843.888864747485,1348
1845.8657990631878,1377
1847.842241456378,1368
1849.8181921892697,1381
1851.7936515241558,1338
1853.7686197234098,1344
1855.7430970494815,1349
1857.7170837649014,1322
1859.6905801322787,1308
1861.6635864143004,1358
1863.6361028737338,1313
1865.608129773424,1372
1867.5796673762961,1299
1869.5507159453537,1433
1871.521275743678,1361
1873.4913470344313,1348
1875.4609300808534,1341
1877.4300251462632,1378
1879.3986324940588,1343
1881.366752387717,1329
1883.3343850907936,1327
1885.3015308669228,1381
1887.268189979819,1398
1889.2343626932739,1351
1891.2000492711595,1414
1893.1652499774254,1325
1895.1299650761011,1356
1897.0941948312952,1424
1899.0579395071945,1315
1901.0211993680641,1356
1902.98397467825,1374
1904.9462657021745,1326
1906.9080727043415,1390
1908.869395949332,1340
1910.8302357018065,1426
1912.790592226504,1329
1914.7504657882428,1350
1916.7098566519212,1356
1918.6687650825133,1358
1920.6271913450764,1376
1922.5851357047422,1370
1924.5425984267245,1414
1926.499579776314,1359
1928.4560800188833,1337
1930.4120994198802,1359
1932.367638244833,1413
1934.32269675935,1374
1936.2772752291175,1308
1938.231373919899,1360
1940.1849930975404,1368
1942.1381330279637,1342
1944.0907939771696,1356
1946.0429762112412,1370
1947.9946799963363,1351
1949.9459055986945,1348
1951.896653284633,1399
1953.8469233205478,1349
1955.7967159729142,1329
1957.7460315082863,1362
1959.6948701932974,1288
1961.6432322946594,1320
1963.5911180791632,1292
1965.5385278136787,1416
1967.4854617651545,1388
1969.4319202006182,1332
1971.377903387176,1348
1973.3234115920136,1367
1975.268445082395,1284
1977.2130041256642,1306
1979.1570889892423,1321
1981.1006999406304,1358
1983.04383724741,1342
1984.986501177238,1323
1986.928691997853,1280
1988.8704099770712,1297
1990.811655382789,1299
1992.7524284829801,1342
1994.692729545698,1351
1996.6325588390755,1320
1998.5719166313224,1288
2000.5108031907307,1324
2002.4492187856677,1350
2004.387163684583,1393
2006.3246381560011,1283
2008.2616424685298,1310
2010.1981768908527,1324
2012.1342416917332,1318
2014.069837140014,1311
2016.0049635046162,1284
2017.9396210545406,1263
2019.8738100588666,1322
2021.8075307867502,1257
2023.740783507431,1312
2025.6735684902228,1297
2027.6058860045214,1302
2029.5377363198004,1294
2031.4691197056118,1256
2033.4000364315875,1287
2035.3304867674374,1228
2037.260470982952,1280
2039.189989347998,1302
2041.1190421325232,1306
2043.047629606554,1234
2044.9757520401945,1280
2046.9034097036288,1229
2048.8306028671195,1220
2050.7573318010086,1280
2052.683596775716,1284
2054.609398061742,1261
2056.5347359296647,1284
2058.4596106501403,1272
2060.384022493906,1228
2062.3079717317764,1226
2064.231458634646,1265
2066.1544834734873,1300
2068.077046519352,1275
2069.99914804337,1258
2071.9207883167524,1306
2073.8419676107865,1271
2075.7626861968406,1279
2077.6829443463607,1291
2079.6027423308715,1256
2081.522080421977,1267
2083.440958891362,1307
2085.359378010786,1276
2087.2773380520907,1287
2089.194839287196,1342
2091.111881988101,1276
2093.0284664268825,1265
2094.9445928756973,1284
2096.86026160678,1254
2098.775472892446,1276
2100.690227005088,1268
2102.604524217178,1287
2104.5183648012676,1279
2106.431749029985,1319
2108.34467717604,1252
2110.2571495122206,1281
2112.169166311393,1307
2114.080727846503,1246
2115.9918343905747,1262
2117.902486216711,1290
2119.8126835980956,1273
2121.722426807987,1322
2123.6317161197285,1277
2125.5405518067364,1307
2127.448934142509,1329
2129.356863400624,1247
2131.264339854737,1275
2133.1713637785815,1268
2135.077935445972,1262
2136.9840551308002,1256
2138.889723107037,1297
2140.7949396487334,1269
2142.699705030018,1318
2144.6040195250994,1341
2146.507883408264,1341
2148.4112969538774,1252
2150.3142604363848,1317
2152.2167741303097,1301
2154.1188383102535,1312
2156.0204532508997,1300
2157.9216192270064,1306
2159.822336513414,1338
2161.7226053850413,1252
2163.622426116884,1296
2165.5217989840185,1319
2167.4207242616,1373
2169.319202224862,1300
2171.2172331491165,1325
2173.1148173097563,1360
2175.0119549822507,1356
2176.90864644215,1270
2178.8048919650823,1308
2180.7006918267534,1263
2182.596046302952,1323
2184.4909556695407,1319
2186.3854202024645,1317
2188.279440177746,1350
2190.173015871487,1294
2192.066147559868,1320
2193.958835519149,1294
2195.851080025667,1303
2197.7428813558417,1325
2199.6342397861667,1378
2201.5251555932186,1349
2203.415629053651,1369
2205.3056604441986,1375
2207.19525004167,1357
2209.084398122958,1332
2210.9731049650327,1397
2212.861370844941,1294
2214.749196039812,1338
2216.636580826851,1359
2218.523525483344,1321
2220.410030286655,1317
2222.296095514226,1307
2224.1817214435805,1290
2226.066908352319,1356
2227.951656518121,1356
2229.835966218746,1346
2231.71983773203,1383
2233.6032713358913,1300
2235.486267308324,1358
2237.3688259274036,1354
2239.2509474712824,1382
2241.132632218193,1327
2243.013880446447,1400
2244.8946924344323,1338
2246.7750684606203,1336
2248.6550088035574,1337
2250.534513741871,1353
2252.413583554265,1333
2254.292218519526,1320
2256.170418916517,1307
2258.0481850241786,1357
2259.925517121534,1299
2261.8024154876825,1368
2263.678880401803,1341
2265.5549121431536,1386
2267.430510991071,1346
2269.305677224971,1376
2271.180411124348,1337
2273.0547129687766,1332
2274.9285830379076,1396
2276.8020216114737,1317
2278.6750289692845,1380
2280.5476053912294,1393
2282.4197511572766,1323
2284.2914665474727,1373
2286.162751841943,1365
2288.0336073208937,1378
2289.904033264608,1363
2291.774029953448,1332
2293.6435976678554,1330
2295.5127366883517,1367
2297.381447295534,1288
2299.2497297700825,1256
2301.1175843927526,1264
2302.9850114443825,1245
2304.852011205885,1261
2306.7185839582553,1264
2308.5847299825664,1249
2310.4504495599676,1249
2312.3157429716925,1233
2314.1806104990483,1189
2316.0450524234247,1238
2317.9090690262888,1221
2319.772660589186,1226
2321.635827393742,1226
2323.498569721661,1210
2325.3608878547248,1228
2327.2227820747967,1292
2329.0842526638157,1225
2330.945299903803,1248
2332.805924076857,1180
2334.6661254651535,1234
2336.525904350951,1193
2338.3852610165827,1148
2340.244195744464,1260
2342.102708817088,1240
2343.9608005170253,1276
2345.8184711269287,1264
2347.675720929526,1232
2349.532550207628,1204
2351.38895924412,1189
2353.24494832197,1277
2355.100517724223,1248
2356.955667734004,1217
2358.810398634514,1270
2360.664710709037,1223
2362.5186042409337,1269
2364.3720795136437,1240
2366.225136810686,1248
2368.0777764156583,1213
2369.929998612237,1231
2371.7818036841777,1262
2373.633191915315,1271
2375.484163589562,1235
2377.3347189909114,1264
2379.184858403434,1280
2381.03458211128,1255
2382.8838903986775,1225
2384.732783549936,1260
2386.5812618494406,1337
2388.4293255816588,1292
2390.2769750311327,1308
2392.1242104824883,1207
2393.971032220427,1228
2395.8174405297295,1242
2397.6634356952563,1336
2399.509018001947,1277
2401.3541877348193,1276
2403.1989451789705,1242
2405.043290619576,1264
2406.8872243418905,1277
2408.730746631247,1260
2410.5738577730594,1260
2412.4165580528183,1284
2414.258847756095,1257
2416.100727168537,1291
2417.9421965758734,1341
2419.783256263912,1304
2421.623906518538,1298
2423.4641476257157,1305
2425.303979871491,1291
2427.143403541984,1259
2428.9824189233977,1314
2430.821026302012,1272
2432.6592259641866,1305
2434.497018196361,1270
2436.33440328505,1302
2438.171381516851,1316
2440.00795317844,1293
2441.844118556569,1311
2443.6798779380724,1223
2445.5152316098606,1325
2447.3501798589255,1328
2449.1847229723357,1269
2451.0188612372403,1310
2452.8525949408663,1245
2454.6859243705203,1356
2456.518849813587,1358
2458.3513715575314,1315
2460.183489889895,1258
2462.015205098301,1349
2463.8465174704493,1322
2465.67742729412,1316
2467.5079348571717,1317
2469.338040447542,1345
2471.1677443532476,1304
2472.9970468623833,1332
2474.825948263123,1331
2476.6544488437207,1313
2478.482548892508,1324
2480.310248697896,1342
2482.137548548374,1287
2483.9644487325118,1316
2485.790949538956,1326
2487.617051256433,1305
2489.44275417375,1339
2491.26805857979,1399
2493.0929647635157,1339
2494.917473013971,1325
2496.741583620276,1336
2498.5652968716304,1282
2500.3886130573137,1349
2502.2115324666834,1332
2504.0340553891765,1327
2505.856182114308,1325
2507.6779129316733,1391
2509.499248130945,1363
2511.3201880018764,1370
2513.140732834298,1377
2514.9608829181198,1374
2516.780638543331,1420
2518.6,1351
2520.418967578273,1381
2522.237541568376,1390
2524.0557222606144,1371
2525.8735099453706,1397
2527.6909049131086,1346
2529.507907454368,1395
2531.32451785977,1402
2533.140736420014,1391
2534.9565634258774,1379
2536.771999168218,1432
2538.5870439379714,1453
2540.4016980261526,1462
2542.2159617238544,1489
2544.02983532225,1475
2545.8433191125914,1456
2547.656413386209,1488
2549.4691184345115,1532
2551.2814345489874,1477
2553.093362021204,1525
2554.904901142808,1502
2556.716052205523,1529
2558.526815501153,1576
2560.3371913215824,1517
2562.147179958771,1600
2563.956781704761,1551
2565.7659968516705,1569
2567.5748256916986,1606
2569.3832685171224,1536
2571.1913256202984,1608
2572.9989972936614,1555
2574.806283829725,1597
2576.613185521084,1662
2578.4197026604074,1616
2580.2258355404483,1632
2582.031584454035,1637
2583.836949694077,1677
2585.6419315535613,1633
2587.4465303255533,1669
2589.2507463032002,1719
2591.0545797797245,1691
2592.8580310484303,1683
2594.6611004026995,1669
2596.463788135992,1756
2598.266094541849,1734
2600.0680199138874,1710
2601.869564545807,1643
2603.670728731383,1644
2605.4715127644704,1706
2607.2719169390048,1697
2609.071941548998,1671
2610.8715868885433,1607
2612.670853251811,1712
2614.469740933052,1677
2616.268250226594,1621
2618.0663814268455,1669
2619.864134828292,1612
2621.6615107255006,1626
2623.458509413115,1689
2625.2551311858597,1655
2627.0513763385347,1636
2628.8472451660223,1602
2630.6427379632833,1579
2632.4378550253564,1565
2634.232596647359,1622
2636.026963124488,1630
2637.8209547520187,1587
2639.6145718253065,1548
2641.407814639785,1495
2643.200683490966,1557
2644.9931786744414,1521
2646.7853004858807,1478
2648.577049221034,1479
2650.3684251757277,1507
2652.1594286458712,1429
2653.9500599274484,1465
2655.740319316525,1451
2657.5302071092437,1443
2659.3197236018286,1393
2661.10886909058,1416
2662.8976438718782,1479
2664.686048242183,1404
2666.4740824980327,1419
2668.2617469360443,1392
2670.0490418529134,1348
2671.8359675454153,1414
2673.622524310403,1392
2675.408712444811,1429
2677.1945322456495,1381
2678.979984010009,1335
2680.76506803506,1332
2682.5497846180497,1357
2684.334134056306,1316
2686.1181166472343,1347
2687.9017326883213,1341
2689.6849824771293,1359
2691.4678663113013,1326
2693.2503844885596,1309
2695.032537306705,1330
2696.8143250636167,1300
2698.5957480572542,1354
2700.3768065856534,1310
2702.1575009469316,1286
2703.937831439283,1270
2705.717798360982,1286
2707.4974020103837,1309
2709.276642685917,1264
2711.055520686095,1262
2712.834036309506,1232
2714.612189854819,1205
2716.389981620782,1208
2718.1674119062204,1200
2719.944481010041,1210
2721.721189231226,1245
2723.4975368688415,1240
2725.273524222027,1259
2727.0491515900053,1253
2728.824419272075,1254
2730.5993275676146,1215
2732.3738767760838,1238
2734.148067197016,1178
2735.921899130031,1202
2737.6953728748194,1257
2739.468488731156,1239
2741.2412469988926,1176
2743.0136479779617,1183
2744.785691968372,1197
2746.5573792702116,1236
2748.3287101836504,1209
2750.099685008934,1189
2751.870304046388,1211
2753.640567596418,1189
2755.4104759595057,1178
2757.1800294362156,1191
2758.949228327187,1213
2760.7180729331412,1193
2762.486563554877,1147
2764.254700493272,1191
2766.022484049284,1190
2767.789914523947,1208
2769.5569922183786,1200
2771.3237174337705,1188
2773.090090471394,1230
2774.8561116326036,1211
2776.6217812188274,1212
2778.3870995315756,1194
2780.1520668724356,1196
2781.9166835430747,1203
2783.6809498452394,1211
2785.444866080754,1236
2787.2084325515225,1221
2788.971649559527,1192
2790.73451740683,1204
2792.4970363955713,1226
2794.2592068279705,1218
2796.0210290063264,1198
2797.7825032330147,1173
2799.543629810493,1209
2801.304409041296,1189
2803.0648412280366,1249
2804.8249266734088,1196
2806.5846656801846,1182
2808.344058551212,1172
2810.1031055894246,1173
2811.8618070978273,1195
2813.6201633795085,1218
2815.378174737636,1181
2817.1358414754536,1227
2818.893163896285,1170
2820.6501423035334,1188
2822.4067770006814,1159
2824.1630682912883,1228
2825.9190164789957,1211
2827.6746218675207,1188
2829.429884760661,1192
2831.184805462294,1143
2832.9393842763743,1233
2834.693621506936,1200
2836.4475174580916,1199
2838.201072434034,1159
2839.954286739034,1217
2841.707160677441,1195
2843.459694553685,1167
2845.2118886722724,1197
2846.96374333779,1188
2848.7152588549034,1165
2850.4664355283567,1143
2852.217273662973,1200
2853.9677735636546,1221
2855.7179355353833,1185
2857.4677598832186,1222
2859.217246912299,1176
2860.9663969278427,1183
2862.715210235146,1194
2864.4636871395846,1223
2866.211827946614,1164
2867.9596329617652,1212
2869.7071024906536,1185
2871.4542368389684,1197
2873.20103631248,1139
2874.947501217038,1190
2876.6936318585695,1167
2878.4394285430812,1139
2880.1848915766604,1170
2881.9300212654707,1160
2883.6748179157553,1187
2885.4192818338374,1142
2887.1634133261173,1196
2888.907212699077,1219
2890.6506802592744,1184
2892.393816313348,1195
2894.1366211680142,1196
2895.8790951300693,1244
2897.621238506388,1196
2899.363051603925,1206
2901.1045347297118,1226
2902.8456881908596,1134
2904.58651229456,1183
2906.327007348081,1187
2908.067173658772,1169
2909.8070115340597,1249
2911.5465212814497,1217
2913.285703208527,1243
2915.0245576229563,1168
2916.7630848324807,1169
2918.5012851449196,1213
2920.2391588681758,1152
2921.976706310227,1169
2923.7139277791334,1124
2925.4508235830313,1148
2927.187394030137,1152
2928.923639428745,1223
2930.6595600872306,1169
2932.395156314046,1174
2934.1304284177218,1168
2935.8653767068713,1191
2937.6000014901815,1179
2939.3343030764227,1106
2941.068281774442,1165
2942.8019378931644,1192
2944.5352717415976,1205
2946.2682836288236,1244
2948.0009738640065,1224
2949.7333427563885,1199
2951.465390615289,1169
2953.1971177501086,1148
2954.9285244703265,1217
2956.6596110855,1150
2958.3903779052657,1123
2960.1208252393385,1157
2961.8509533975125,1165
2963.5807626896617,1211
2965.3102534257378,1198
2967.0394259157715,1173
2968.768280469873,1124
2970.496817398232,1153
2972.2250370111146,1200
2973.952939618869,1210
2975.6805255319196,1213
2977.4077950607707,1191
2979.134748516006,1205
2980.861386208289,1225
2982.587708448359,1224
2984.313715547037,1187
2986.039407815222,1208
2987.764785563891,1207
2989.489849104102,1215
2991.2145987469908,1188
2992.9390348037705,1170
2994.6631575857346,1116
2996.3869674042576,1144
2998.1104645707887,1165
2999.83364939686,1132
3001.5565221940783,1191
3003.2790832741334,1169
3005.0013329487924,1168
3006.7232715298996,1177
3008.4448993293804,1178
3010.166216659239,1140
3011.887223831558,1167
3013.607921158498,1172
3015.3283089522993,1169
3017.0483875252826,1125
3018.7681571898443,1170
3020.4876182584626,1180
3022.2067710436927,1165
3023.9256158581707,1134
3025.644153014609,1182
3027.362382825801,1108
3029.0803056046193,1187
3030.797921664012,1126
3032.5152313170106,1152
3034.2322348767225,1180
3035.9489326563353,1152
3037.665324969115,1168
3039.3814121284063,1193
3041.097194447633,1153
3042.812672240299,1205
3044.5278458199855,1165
3046.2427155003525,1195
3047.9572815951406,1174
3049.671544418167,1124
3051.38550428333,1152
3053.0991615046073,1170
3054.812516396051,1206
3056.5255692717974,1248
3058.2383204460575,1132
3059.9507702331257,1217
3061.662918947372,1181
3063.3747669032446,1186
3065.0863144152736,1202
3066.7975617980674,1185
3068.508509366309,1126
3070.219157434767,1156
3071.9295063182844,1224
3073.639556331785,1166
3075.3493077902704,1164
3077.058761008821,1206
3078.7679163025964,1239
3080.476773986837,1193
3082.1853343768594,1139
3083.89359778806,1170
3085.6015645359153,1197
3087.3092349359786,1147
3089.016609303884,1180
3090.7236879553434,1167
3092.4304712061476,1150
3094.136959372166,1167
3095.843152769349,1125
3097.5490517137237,1193
3099.2546565213966,1154
3100.959967508554,1157
3102.66498499146,1209
3104.3697092864577,1206
3106.0741407099695,1171
3107.778279578498,1157
3109.482126208622,1193
3111.1856809170004,1212
3112.8889440203716,1213
3114.5919158355528,1202
3116.294596679439,1152
3117.996986869006,1183
3119.6990867213062,1195
3121.4008965534726,1156
3123.102416682717,1228
3124.803647426329,1154
3126.5045891016784,1238
3128.205242026213,1217
3129.90560651746,1158
3131.605682893025,1171
3133.3054714705922,1212
3135.0049725679282,1222
3136.7041865028714,1196
3138.4031135933465,1165
3140.101754157353,1187
3141.800108512971,1176
3143.498176978357,1175
3145.1959598717494,1223
3146.8934575114636,1204
3148.5906702158954,1179
3150.2875983035183,1164
3151.9842420928853,1181
3153.680601902627,1191
3155.376678051456,1186
3157.07247085816,1168
3158.767980641609,1151
3160.463207720748,1182
3162.158152414606,1222
3163.8528150422862,1156
3165.5471959229726,1210
3167.2412953759303,1173
3168.9351137204976,1133
3170.628651276098,1159
3172.3219083622307,1168
3174.014885298474,1168
3175.707582404485,1147
3177.4000000000005,1159
3179.092138404835,1182
3180.7839979388846,1207
3182.47557892212,1181
3184.166881674594,1201
3185.8579065164386,1224
3187.5486537678626,1174
3189.2391237491547,1214
3190.9293167806827,1221
3192.6192331828934,1168
3194.3088732763117,1202
3195.998237381542,1172
3197.687325819268,1137
3199.376138910251,1106
3201.064676975334,1134
3202.7529403354347,1180
3204.4409293115523,1187
3206.1286442247647,1133
3207.816085396229,1186
3209.5032531471825,1155
3211.190147798936,1118
3212.8767696728846,1155
3214.5631190905015,1113
3216.2491963733373,1142
3217.9350018430214,1176
3219.6205358212637,1137
3221.305798629851,1156
3222.990790590651,1139
3224.6755120256103,1152
3226.359963256751,1142
3228.0441446061795,1073
3229.7280563960758,1092
3231.411698948703,1134
3233.0950725863995,1138
3234.778177631587,1189
3236.461014406761,1154
3238.1435832345005,1166
3239.8258844374595,1151
3241.507918338374,1178
3243.1896852600576,1125
3244.8711855254023,1149
3246.552419457381,1167
3248.233387379042,1135
3249.914089613516,1150
3251.59452648401,1156
3253.274698313813,1186
3254.95460542629,1167
3256.6342481448855,1104
3258.313626793125,1167
3259.9927416946084,1121
3261.6715931730196,1171
3263.3501815521176,1116
3265.0285071557437,1173
3266.706570307815,1125
3268.3843713323286,1105
3270.0619105533615,1145
3271.739188295068,1151
3273.4162048816834,1122
3275.0929606375184,1125
3276.769455886966,1119
3278.445690954498,1106
3280.1216661646613,1151
3281.797381842087,1142
3283.4728383114807,1106
3285.1480358976296,1161
3286.8229749253996,1191
3288.4976557197333,1165
3290.172078605655,1147
3291.846243908266,1106
3293.5201519527463,1099
3295.193803064357,1110
3296.8671975684374,1106
3298.5403357904024,1182
3300.21321805575,1145
3301.8858446900567,1111
3303.558216018975,1151
3305.23033236824,1124
3306.9021940636603,1064
3308.57380143113,1140
3310.2451547966184,1116
3311.916254486174,1120
3313.5871008259246,1176
3315.2576941420766,1101
3316.9280347609147,1148
3318.5981230088046,1088
3320.2679592121895,1160
3321.9375436975924,1109
3323.606876791612,1097
3325.27595882093,1088
3326.944790112305,1133
3328.6133709925753,1100
3330.2817017886573,1115
3331.949782827547,1112
3333.617614436319,1131
3335.2851969421245,1111
3336.952530672199,1196
3338.619615953853,1194
3340.286453114475,1172
3341.9530424815357,1098
3343.619384382583,1171
3345.2854791452437,1155
3346.951327097224,1149
3348.6169285663073,1141
3350.2822838803577,1156
3351.947393367319,1118
3353.61225735521,1160
3355.2768761721345,1141
3356.9412501462693,1118
3358.605379605873,1111
3360.2692648792827,1158
3361.9329062949146,1137
3363.596304181263,1189
