CollectionTime,7/9/2024 12:15:39 PM
ExposureUsed,3
CalibratedSpectrum
-962.7078968117929,504
-959.9714848408522,522
-957.2358232597828,523
-954.5009119013725,519
-951.7667505983302,548
-949.0333391832855,532
-946.3006774887896,528
-943.5687653473143,547
-940.837602591253,540
-938.1071890529199,502
-935.3775245645503,541
-932.6486089583007,547
-929.9204420662485,515
-927.1930237203925,516
-924.4663537526524,538
-921.7404319948689,538
-919.0152582788041,564
-916.2908324361409,565
-913.5671542984834,557
-910.8442236973568,515
-908.1220404642074,543
-905.4006044304027,532
-902.679915427231,533
-899.959973285902,539
-897.2407778375464,521
-894.5223289132158,534
-891.8046263438832,516
-889.0876699604426,514
-886.3714595937089,497
-883.6559950744183,531
-880.9412762332282,522
-878.2273029007168,530
-875.5140749073835,520
-872.8015920836489,548
-870.0898542598545,520
-867.3788612662631,533
-864.6686129330585,540
-861.9591090903457,539
-859.2503495681506,527
-856.5423341964203,506
-853.8350628050229,525
-851.1285352237478,532
-848.4227512823054,545
-845.7177108103272,531
-843.0134136373656,537
-840.3098595928943,537
-837.6070485063082,521
-834.9049802069229,553
-832.2036545239757,540
-829.5030712866244,531
-826.8032303239481,510
-824.1041314649472,526
-821.4057745385428,556
-818.7081593735775,544
-816.0112857988148,534
-813.3151536429393,539
-810.6197627345566,529
-807.9251129021936,540
-805.2312039742981,535
-802.5380357792392,562
-799.8456081453069,547
-797.1539209007124,550
-794.462973873588,588
-791.772766891987,574
-789.083299783884,540
-786.3945723771743,563
-783.7065844996748,566
-781.0193359791231,551
-778.3328266431781,568
-775.6470563194197,558
-772.9620248353489,542
-770.2777320183878,537
-767.5941776958798,561
-764.9113616950891,542
-762.2292838432011,559
-759.5479439673222,545
-756.8673418944801,558
-754.1874774516235,545
-751.5083504656222,586
-748.8299607632671,572
-746.15230817127,551
-743.475392516264,548
-740.7992136248035,551
-738.1237713233636,599
-735.4490654383407,569
-732.7750957960521,573
-730.1018622227365,563
-727.4293645445534,575
-724.7576025875837,558
-722.0865761778291,569
-719.4162851412126,588
-716.7467293035781,583
-714.0779084906909,593
-711.409822528237,598
-708.7424712418238,584
-706.0758544569796,626
-703.4099719991541,624
-700.7448236937178,590
-698.0804093659622,589
-695.4167288411002,599
-692.7537819442656,609
-690.0915685005134,555
-687.4300883348199,625
-684.7693412720819,577
-682.1093271371178,613
-679.4500457546669,616
-676.7914969493897,605
-674.1336805458676,600
-671.4765963686034,605
-668.8202442420206,615
-666.1646239904642,661
-663.5097354382001,603
-660.8555784094151,583
-658.2021527282176,626
-655.5494582186366,608
-652.8974947046223,641
-650.2462620100463,628
-647.5957599587009,626
-644.9459883742998,661
-642.2969470804776,625
-639.6486359007902,627
-637.0010546587141,610
-634.3542031776476,630
-631.7080812809096,617
-629.0626887917401,644
-626.4180255333008,647
-623.7740913286734,655
-621.1308860008619,624
-618.4884093727904,644
-615.8466612673046,684
-613.2056415071715,681
-610.5653499150785,631
-607.9257863136347,640
-605.28695052537,604
-602.6488423727357,625
-600.0114616781036,636
-597.3748082637674,660
-594.7388819519412,649
-592.1036825647604,623
-589.4692099242818,690
-586.8354638524829,684
-584.2024441712624,656
-581.5701507024403,666
-578.9385832677575,657
-576.3077416888759,647
-573.6776257873787,620
-571.0482353847704,641
-568.4195703024757,676
-565.7916303618415,665
-563.164415384135,644
-560.5379251905453,647
-557.9121596021815,655
-555.2871184400748,664
-552.6628015251767,685
-550.0392086783606,697
-547.4163397204204,655
-544.794194472071,670
-542.1727727539491,671
-539.5520743866118,712
-536.9320991905377,663
-534.3128469861261,731
-531.6943175936979,756
-529.0765108334947,736
-526.4594265256793,784
-523.8430644903358,899
-521.2274245474689,956
-518.612506517005,983
-515.9983102187913,992
-513.3848354725959,999
-510.77208209810846,1030
-508.16004991493924,1238
-505.5487387426199,1325
-502.9381484006032,1403
-500.3282787082628,1388
-497.71912948489364,1254
-495.1107005497117,1183
-492.5029917218539,1032
-489.8960028203786,933
-487.28973366426493,913
-484.68418407241325,857
-482.07935386364494,797
-479.47524285670266,826
-476.87185087025,816
-474.2691777228715,798
-471.66722323307334,831
-469.0659872192821,811
-466.4654694998459,830
-463.86566989303384,813
-461.26658821703614,815
-458.66822428996414,804
-456.07057792985,841
-453.4736489546475,843
-450.877437182231,848
-448.28194243039627,810
-445.68716451686,795
-443.09310325926003,803
-440.49975847515555,824
-437.9071299820263,811
-435.31521759727354,826
-432.72402113821954,833
-430.13354042210767,877
-427.5437752661022,850
-424.95472548728867,820
-422.36639090267386,849
-419.7787713291855,857
-417.1918665836721,846
-414.60567648290385,877
-412.0202008435715,857
-409.4354394822874,866
-406.8513922155845,846
-404.26805885991723,902
-401.685439231661,790
-399.103533147112,896
-396.522340422488,884
-393.9418608739278,869
-391.3620943174908,852
-388.7830405691583,870
-386.2046994448317,843
-383.6270707603344,826
-381.05015433141045,745
-378.473949973725,722
-375.8984575028645,672
-373.32367673433623,587
-370.74960748356875,601
-368.1762495659117,579
-365.60360279663576,556
-363.03166699093265,533
-360.4604419639154,509
-357.8899275306178,458
-355.32012350599507,451
-352.7510297049233,452
-350.1826459421999,424
-347.61497203254316,444
-345.04800779059235,435
-342.4817530309082,444
-339.91620756797226,430
-337.35137121618743,431
-334.7872437898774,452
-332.22382510328725,445
-329.66111497058273,425
-327.09911320585127,421
-324.53781962310075,441
-321.9772340362607,463
-319.4173562591816,425
-316.8581861056348,457
-314.2997233893127,431
-311.7419679238294,407
-309.1849195227194,423
-306.62857799943856,431
-304.0729431673641,436
-301.51801483979375,444
-298.963792829947,440
-296.41027695096386,486
-293.85746701590574,470
-291.3053628377552,482
-288.7539642294155,520
-286.2032710037115,479
-283.65328297338897,459
-281.1039999511146,504
-278.5554217494762,507
-276.007548180983,481
-273.4603790580651,487
-270.9139141930734,499
-268.3681533982807,479
-265.8230964858798,498
-263.27874326798565,471
-260.7350935566336,480
-258.1921471637804,499
-255.6499039013039,502
-253.10836358100266,531
-250.56752601459698,492
-248.02739101372765,511
-245.48795838995704,507
-242.94922795476816,525
-240.41119951956557,489
-237.8738728956746,545
-235.33724789434166,568
-232.80132432673452,548
-230.2661020039418,546
-227.73158073697357,531
-225.19776033676033,587
-222.66464061415422,616
-220.1322213799284,585
-217.60050244477725,561
-215.06948361931552,563
-212.53916471408013,577
-210.00954553952818,576
-207.48062590603843,536
-204.9524056239104,564
-202.4248845033651,624
-199.8980623545441,597
-197.37193898751036,583
-194.84651421224817,591
-192.32178783866232,563
-189.79775967657952,596
-187.27442953574644,663
-184.7517972258321,670
-182.2298625564256,649
-179.7086253370378,624
-177.18808537710026,624
-174.66824248596583,627
-172.14909647290835,601
-169.6306471471229,630
-167.11289431772548,688
-164.59583779375328,704
-162.07947738416453,707
-159.5638128978386,694
-157.04884414357605,750
-154.53457093009854,793
-152.02099306604828,818
-149.50811035998936,752
-146.99592262040665,661
-144.48442965570587,656
-141.97363127421409,692
-139.46352728417958,822
-136.95411749377126,895
-134.44540171107985,875
-131.93737974411636,760
-129.43005140081357,685
-126.92341648902493,868
-124.41747481652521,1105
-121.91222619101006,1446
-119.40767042009657,1806
-116.90380731132257,1935
-114.40063667214702,1833
-111.8981583099503,1876
-109.3963720320337,1522
-106.89527764561933,1363
-104.39487495785067,1290
-101.89516377579241,1748
-99.39614390642998,2599
-96.89781515667039,3383
-94.40017733334128,3447
-91.90323024319173,3411
-89.40697369289148,3046
-86.91140748903172,3083
-84.41653143812482,3358
-81.92234534660395,3214
-79.42884902082358,2884
-76.93604226705907,3162
-74.4439248915071,4252
-71.95249670028534,6130
-69.46175749943245,7304
-66.97170709490854,7825
-64.48234529259423,7659
-61.99367189829195,6749
-59.50568671772464,6239
-57.01838955653636,5659
-54.53178022029283,6240
-52.045858514480074,7269
-49.560624244506016,8484
-47.07607721569923,10125
-44.59221723330904,11016
-42.10904410250669,11261
-39.62655762838392,9640
-37.14475761595372,9385
-34.66364387015028,9137
-32.18321619582866,8192
-29.70347439776515,8068
-27.224418280657005,8463
-24.74604764912317,8820
-22.26836230770266,11057
-19.7913620608565,18107
-17.315046712966478,29858
-14.83941606833514,41275
-12.36446993118659,56122
-9.89020810566592,65040
-7.416630395839093,65040
-4.94373660569363,65040
-2.471526539137585,65040
-6.821210263296962E-13,65040
2.47084320796705,65040
4.941003281093458,65040
7.410480415786196,65040
9.879274808531363,65040
12.347386655893956,65040
14.814816154518212,65040
17.28156350112681,65040
19.74762889252179,65040
22.21301252558385,21416
24.67771459727237,3736
27.141735304626195,2211
29.605074844762612,1777
32.06773341487792,1494
34.52971121224755,1415
36.99100843422559,1532
39.45162527824516,1460
41.91156194181792,1369
44.370818622535126,1299
46.82939551806646,1096
49.287292826160524,972
51.74451074464503,1051
54.201049471426245,1042
56.65690920448981,989
59.112090141899785,913
61.56659248179983,786
64.02041642241159,763
66.4735621620365,778
68.92602989905402,814
71.37781983192338,822
73.82893215918205,769
76.27936707944684,854
78.72912479141326,907
81.17820549385567,887
83.62660938562783,833
86.07433666566146,884
88.5213875329681,741
90.96776218663751,772
93.41346082583925,730
95.85848364982041,758
98.30283085790859,785
100.7465026495089,813
103.18949922410604,782
105.63182078126385,763
108.07346752062438,800
110.51443964190923,741
112.95473734491827,695
115.39436082953114,758
117.83331029570547,792
120.27158594347827,748
122.7091879729652,804
125.1461165843615,814
127.58237197794062,724
130.01795435405518,702
132.4528639131364,707
134.88710085569494,654
137.32066538231982,661
139.75355769367923,651
142.1857779905207,684
144.61732647366978,697
147.04820334403132,734
149.47840880258934,739
151.90794305040674,779
154.33680628862487,859
156.76499871846443,1041
159.19252054122433,1141
161.61937195828352,1231
164.04555317109896,1390
166.47106438120693,1503
168.89590579022217,1670
171.320077599839,1801
173.7435800118302,1833
176.16641322804742,1913
178.58857745042144,1970
181.01007288096173,2005
183.43089972175687,2032
185.85105817497413,2071
188.27054844285988,2136
190.6893707277394,2124
193.10752523201643,2242
195.5250121581745,2199
197.9418317087751,2283
200.3579840864594,2251
202.7734694939469,2321
205.18828813403627,2264
207.6024402096051,2394
210.01592592360964,2356
212.42874547908548,2428
214.84089907914665,2379
217.2523869269868,2344
219.66320922587727,2364
222.0733661791695,2421
224.48285799029293,2431
226.8916848627572,2480
229.29984700014882,2550
231.7073446061355,2544
234.11417788446204,2518
236.520347038953,2603
238.92585227351185,2643
241.33069379212054,2633
243.73487179884035,2687
246.1383864978112,2758
248.541238093252,2820
250.9434267894609,2846
253.34495279081432,2865
255.74581630176783,2997
258.1460175268563,2994
260.54555667069314,2986
262.9444339379703,2905
265.3426495334594,2925
267.7402036620107,2881
270.1370965285529,2715
272.53332833809407,2569
274.9288992957214,2516
277.32380960660055,2440
279.718059475976,2393
282.1116491091717,2440
284.5045787115897,2361
286.89684848871195,2341
289.2884586460981,2276
291.67940938938807,2316
294.0697009242996,2347
296.4593334566299,2389
298.84830719225477,2388
301.23662233712923,2356
303.6242790972866,2284
306.01127767884,2338
308.39761828798066,2250
310.78330113097934,2234
313.16832641418534,2175
315.5526943440269,2178
317.9364051270112,2169
320.3194589697242,2054
322.70185607883093,2105
325.0835966610754,2084
327.4646809232805,2014
329.8451090723478,1999
332.2248813152577,2041
334.6039978590701,1956
336.9824589109231,2033
339.36026467803447,2010
341.7374153677,1978
344.113911187295,1966
346.48975234427337,1954
348.8649390461686,1986
351.2394715005918,1983
353.61334991523415,1991
355.9865744978655,1945
358.35914545633375,1980
360.73106299856715,1961
363.10232733257146,1974
365.47293866643247,1894
367.84289720831396,1930
370.2122031664593,1953
372.5808567491905,1881
374.9488581649083,1914
377.31620762209275,1861
379.6829053293021,1969
382.0489514951745,1882
384.4143463284262,1821
386.7790900378528,1879
389.14318283232853,1818
391.50662492080653,1818
393.86941651231916,1847
396.23155781597745,1848
398.5930490409713,1842
400.9538903965696,1848
403.3140820921202,1800
405.6736243370498,1838
408.03251734086336,1772
410.3907613131465,1872
412.74835646356166,1846
415.10530300185144,1860
417.4616011378372,1833
419.81725108141893,1787
422.1722530425758,1786
424.5266072313656,1802
426.880313857925,1799
429.2333731324701,1799
431.58578526529516,1814
433.9375504667738,1788
436.2886689473588,1748
438.63914091758113,1864
440.9889665880513,1771
443.33814616945835,1716
445.68667987257015,1758
448.03456790823395,1757
450.3818104873759,1736
452.72840782100013,1769
455.07436012019105,1787
457.41966759611057,1737
459.7643304600007,1767
462.10834892318155,1746
464.4517231970525,1804
466.79445349309174,1702
469.1365400228566,1725
471.4779829979826,1720
473.81878263018564,1802
476.15893913125876,1805
478.4984527130747,1812
480.8373235875855,1804
483.17555196682144,1804
485.5131380628919,1883
487.8500820879857,1899
490.1863842543697,2015
492.52204477439034,2014
494.8570638604725,2213
497.1914417251204,2341
499.52517858091653,2580
501.85827464052306,2943
504.19073011668036,3131
506.5225452222086,3215
508.85372017000566,3175
511.18425517304956,3106
513.514150444396,3182
515.8434061971808,3805
518.1720226446176,4513
520.4999999999999,4745
522.8273384766991,4313
525.1540382881666,3946
527.480099647932,3342
529.8055227696037,2812
532.1303078668694,2387
534.454455153496,2156
536.777964843328,2011
539.1008371502907,1875
541.4230722883866,1877
543.744670471698,1798
546.0656319143858,1821
548.3859568306899,1808
550.7056454349294,1816
553.0246979415016,1804
555.3431145648834,1766
557.6608955196306,1766
559.978041020377,1751
562.2945512818363,1719
564.6104265188006,1770
566.9256669461412,1763
569.2402727788082,1826
571.5542442318302,1809
573.8675815203156,1727
576.1802848594508,1836
578.4923544645015,1738
580.8037905508126,1836
583.114593333807,1824
585.4247630289875,1793
587.7342998519354,1784
590.0432040183106,1739
592.3514757438526,1764
594.6591152443794,1748
596.9661227357875,1765
599.2724984340531,1768
601.578242555231,1758
603.8833553154542,1840
606.1878369309362,1817
608.4916876179676,1753
610.7949075929192,1811
613.0974970722403,1725
615.3994562724587,1752
617.7007854101818,1786
620.0014847020951,1802
622.3015543649641,1769
624.6009946156324,1774
626.8998056710224,1789
629.1979877481361,1807
631.4955410640538,1792
633.7924658359349,1877
636.0887622810175,1822
638.3844306166192,1811
640.6794710601358,1818
642.9738838290426,1880
645.2676691408932,1848
647.5608272133207,1811
649.853358264037,1861
652.1452625108324,1836
654.4365401715764,1853
656.7271914642178,1841
659.0172166067838,1895
661.3066158173809,1817
663.5953893141935,1872
665.8835373154867,1877
668.1710600396028,1883
670.4579577049639,1836
672.7442305300709,1878
675.0298787335033,1882
677.3149025339197,1855
679.599302150058,1842
681.8830778007342,1846
684.1662297048437,1858
686.4487580813608,1856
688.7306631493387,1817
691.0119451279091,1876
693.2926042362834,1805
695.5726406937516,1833
697.8520547196814,1870
700.1308465335215,1835
702.4090163547982,1810
704.6865644031171,1856
706.9634908981619,1892
709.2397960596965,1825
711.5154801075631,1825
713.7905432616823,1936
716.0649857420548,1864
718.3388077687592,1821
720.612009561953,1822
722.8845913418733,1793
725.1565533288352,1895
727.427895743234,1765
729.6986188055427,1822
731.9687227363137,1764
734.238207756178,1812
736.5070740858458,1848
738.7753219461066,1823
741.0429515578281,1819
743.3099631419569,1833
745.5763569195191,1920
747.8421331116193,1905
750.1072919394409,1747
752.3718336242467,1850
754.6357583873777,1804
756.8990664502545,1836
759.1617580343765,1795
761.423833361321,1833
763.6852926527457,1832
765.9461361303862,1766
768.206364016058,1834
770.4659765316536,1835
772.7249738991469,1815
774.9833563405886,1849
777.2411240781092,1875
779.4982773339183,1783
781.7548163303044,1827
784.010741289634,1879
786.2660524343538,1956
788.5207499869881,1913
790.7748341701416,1805
793.0283052064964,1835
795.2811633188143,1916
797.5334087299362,1901
799.7850416627813,1889
802.0360623403484,1955
804.2864709857143,1903
806.5362678220353,1832
808.7854530725468,1924
811.0340269605625,1860
813.2819897094754,1837
815.5293415427581,1945
817.77608268396,1879
820.0222133567116,1890
822.2677337847211,1840
824.5126441917765,1866
826.7569448017433,1832
829.0006358385675,1854
831.2437175262731,1857
833.4861900889629,1842
835.7280537508192,1818
837.9693087361026,1906
840.2099552691533,1919
842.4499935743896,1839
844.689423876309,1915
846.9282463994886,1897
849.1664613685833,1906
851.4040690083276,1906
853.6410695435349,1868
855.877463199097,1887
858.1132501999847,1868
860.3484307712487,1894
862.5830051380175,1857
864.8169735254988,1846
867.0503361589791,1846
869.2830932638243,1913
871.5152450654786,1893
873.7467917894654,1931
875.9777336613873,1906
878.2080709069252,1902
880.4378037518389,1897
882.666932421968,1938
884.8954571432301,1945
887.1233781416219,1841
889.3506956432192,1954
891.5774098741766,1900
893.803521060728,1903
896.0290294291852,1873
898.2539352059397,1942
900.4782386174619,1879
902.7019398903011,1940
904.925039251085,1932
907.147536926521,1914
909.3694331433943,1936
911.59072812857,1931
913.8114221089921,1853
916.0315153116827,1950
918.2510079637437,1953
920.4699002923547,1903
922.6881925247761,1858
924.905884888345,1875
927.1229776104793,1850
929.3394709186747,1860
931.555365040506,1911
933.7706602036275,1943
935.9853566357709,1872
938.1994545647489,1884
940.4129542184515,1908
942.6258558248488,1902
944.8381596119883,1899
947.0498658079974,1936
949.2609746410825,1926
951.4714863395287,1852
953.6814011316998,1882
955.8907192460387,1935
958.0994409110671,1862
960.3075663553858,1872
962.5150958076741,1849
964.7220294966913,1864
966.928367651274,1877
969.1341105003388,1851
971.3392582728806,1792
973.5438111979742,1826
975.747769504772,1908
977.9511334225061,1808
980.153903180487,1752
982.3560790081052,1826
984.5576611348289,1773
986.7586497902058,1779
988.9590452038618,1782
991.158847605503,1769
993.3580572249133,1729
995.5566742919558,1732
997.7546990365728,1694
999.952131688785,1639
1002.1489724786926,1610
1004.3452216364743,1645
1006.5408793923874,1649
1008.7359459767691,1623
1010.9304216200343,1587
1013.1243065526781,1544
1015.3176010052733,1607
1017.510305208472,1612
1019.7024193930064,1542
1021.8939437896848,1595
1024.0848786293977,1564
1026.2752241431122,1564
1028.4649805618747,1589
1030.6541481168115,1549
1032.842727039127,1554
1035.0307175601051,1570
1037.2181199111074,1544
1039.4049343235752,1530
1041.591161029029,1521
1043.7768002590683,1496
1045.9618522453698,1579
1048.1463172196918,1554
1050.3301954138697,1567
1052.513487059818,1552
1054.69619238953,1543
1056.8783116350783,1535
1059.0598450286152,1538
1061.2407928023704,1501
1063.4211551886528,1516
1065.6009324198508,1511
1067.780124728432,1519
1069.9587323469414,1499
1072.1367555080046,1504
1074.314194444325,1484
1076.4910493886855,1516
1078.667320573947,1482
1080.843008233051,1507
1083.0181125990161,1442
1085.1926339049414,1463
1087.3665723840027,1428
1089.5399282694575,1469
1091.7127017946405,1430
1093.8848931929647,1450
1096.0565026979243,1442
1098.2275305430899,1469
1100.3979769621128,1466
1102.567842188722,1458
1104.737126456726,1405
1106.9058300000124,1424
1109.0739530525475,1435
1111.2414958483764,1403
1113.4084586216231,1444
1115.5748416064907,1408
1117.7406450372605,1424
1119.9058691482942,1424
1122.0705141740304,1405
1124.2345803489884,1413
1126.3980679077658,1445
1128.5609770850388,1461
1130.7233081155623,1398
1132.8850612341707,1461
1135.0462366757774,1418
1137.2068346753745,1409
1139.3668554680326,1460
1141.526299288901,1432
1143.68516637321,1450
1145.8434569562655,1417
1148.001171273455,1378
1150.158309560244,1418
1152.3148720521767,1388
1154.470858984876,1447
1156.626270594044,1408
1158.7811071154629,1356
1160.9353687849912,1401
1163.089055838569,1360
1165.242168512213,1373
1167.3947070420209,1353
1169.5466716641677,1399
1171.6980626149075,1378
1173.8488801305748,1354
1175.9991244475814,1432
1178.1487958024186,1381
1180.2978944316555,1368
1182.4464205719428,1377
1184.5943744600072,1333
1186.7417563326567,1361
1188.8885664267755,1467
1191.0348049793297,1419
1193.1804722273619,1390
1195.325568407995,1400
1197.4700937584303,1381
1199.614048515948,1419
1201.7574329179074,1497
1203.900247201746,1434
1206.042491604982,1406
1208.1841663652099,1377
1210.3252717201053,1428
1212.465807907422,1385
1214.6057751649923,1397
1216.7451737307279,1446
1218.8840038426192,1466
1221.0222657387353,1401
1223.1599596572241,1439
1225.2970858363137,1410
1227.4336445143094,1421
1229.5696359295966,1485
1231.705060320639,1420
1233.8399179259786,1443
1235.9742089842384,1420
1238.107933734118,1406
1240.2410924143974,1450
1242.373685263935,1439
1244.5057125216676,1504
1246.6371744266116,1415
1248.7680712178621,1460
1250.898403134593,1519
1253.028170416058,1476
1255.1573733015875,1450
1257.2860120305932,1532
1259.4140868425648,1468
1261.54159797707,1411
1263.6685456737569,1512
1265.7949301723515,1494
1267.9207517126597,1485
1270.046010534565,1511
1272.1707068780306,1406
1274.2948409830983,1482
1276.4184130898889,1477
1278.541423438603,1521
1280.6638722695184,1522
1282.785759822993,1565
1284.9070863394636,1492
1287.0278520594447,1497
1289.1480572235314,1469
1291.2677020723963,1545
1293.3867868467923,1549
1295.5053117875495,1498
1297.623277135579,1570
1299.740683131868,1598
1301.8575300174857,1598
1303.973818033578,1588
1306.0895474213703,1629
1308.2047184221678,1631
1310.3193312773528,1572
1312.4333862283888,1615
1314.5468835168163,1636
1316.659823384255,1604
1318.7722060724045,1636
1320.8840318230418,1664
1322.9953008780249,1627
1325.1060134792888,1613
1327.2161698688478,1622
1329.3257702887959,1570
1331.4348149813054,1569
1333.5433041886276,1615
1335.6512381530933,1616
1337.7586171171101,1661
1339.8654413231675,1569
1341.9717110138317,1617
1344.0774264317488,1591
1346.1825878196432,1620
1348.2871954203192,1617
1350.3912494766587,1596
1352.4947502316231,1627
1354.5976979282532,1611
1356.7000928096686,1636
1358.8019351190665,1662
1360.9032250997243,1641
1363.0039629949988,1548
1365.1041490483235,1557
1367.2037835032133,1522
1369.3028666032606,1619
1371.401398592137,1562
1373.4993797135926,1590
1375.5968102114575,1557
1377.6936903296396,1652
1379.7900203121262,1610
1381.8858004029835,1610
1383.9810308463561,1620
1386.075711886469,1631
1388.1698437676241,1591
1390.2634267342032,1666
1392.356461030667,1585
1394.4489469015557,1594
1396.5408845914872,1654
1398.6322743451592,1629
1400.7231164073469,1733
1402.813411022907,1619
1404.903158436773,1698
1406.9923588939578,1702
1409.0810126395531,1614
1411.1691199187303,1662
1413.2566809767386,1732
1415.343696058907,1768
1417.4301654106425,1803
1419.5160892774315,1733
1421.6014679048399,1678
1423.6863015385125,1815
1425.7705904241707,1836
1427.8543348076178,1849
1429.9375349347342,1812
1432.0201910514802,1873
1434.102303403894,1920
1436.1838722380944,1864
1438.2648978002767,1843
1440.3453803367174,1910
1442.4253200937692,1923
1444.5047173178677,1966
1446.5835722555234,1996
1448.6618851533285,1952
1450.739656257952,2055
1452.8168858161434,1994
1454.8935740747306,2084
1456.96972128062,2061
1459.045327680797,2111
1461.120393522327,2095
1463.1949190523528,2163
1465.2689045180973,2203
1467.3423501668608,2222
1469.415256246024,2366
1471.4876230030463,2331
1473.559450685465,2389
1475.6307395408976,2478
1477.7014898170391,2404
1479.771701761665,2427
1481.8413756226287,2547
1483.9105116478618,2537
1485.9791100853772,2614
1488.0471711832643,2565
1490.1146951896926,2651
1492.1816823529098,2582
1494.2481329212433,2649
1496.3140471430984,2712
1498.3794252669609,2804
1500.4442675413939,2706
1502.5085742150404,2743
1504.572345536622,2772
1506.6355817549388,2751
1508.6982831188702,2835
1510.7604498773744,2835
1512.8220822794883,2795
1514.8831805743293,2828
1516.9437450110909,2809
1519.003775839048,2922
1521.0632733075522,2854
1523.1222376660367,2884
1525.1806691640113,2959
1527.2385680510652,2852
1529.2959345768668,2864
1531.3527689911643,2875
1533.4090715437833,2926
1535.4648424846291,2915
1537.5200820636855,2974
1539.5747905310159,3041
1541.6289681367616,2956
1543.6826151311434,3016
1545.7357317644614,3001
1547.7883182870937,3057
1549.8403749494987,3189
1551.8919020022113,3218
1553.9428996958477,3311
1555.9933682811015,3348
1558.0433080087469,3322
1560.0927191296346,3481
1562.1416018946961,3422
1564.1899565549415,3565
1566.2377833614592,3610
1568.2850825654164,3620
1570.3318544180606,3520
1572.3780991707158,3508
1574.423817074788,3263
1576.4690083817595,3375
1578.5136733431923,3163
1580.5578122107272,3002
1582.601425236085,2975
1584.6445126710646,2764
1586.6870747675434,2713
1588.7291117774776,2638
1590.7706239529034,2544
1592.8116115459347,2380
1594.8520748087658,2328
1596.8920139936686,2316
1598.9314293529933,2193
1600.9703211391711,2099
1603.008689604711,2060
1605.0465350022005,2057
1607.0838575843068,1989
1609.1206576037753,1964
1611.1569353134305,1892
1613.1926909661765,1843
1615.2279248149953,1809
1617.2626371129481,1807
1619.2968281131757,1769
1621.3304980688963,1792
1623.3636472334088,1761
1625.39627586009,1683
1627.428384202396,1676
1629.459972513861,1666
1631.4910410480993,1567
1633.5215900588028,1629
1635.551619799744,1604
1637.5811305247717,1625
1639.6101224878166,1569
1641.6385959428862,1606
1643.6665511440683,1618
1645.693988345528,1575
1647.7209078015112,1579
1649.7473097663405,1570
1651.7731944944203,1541
1653.7985622402307,1564
1655.823413258333,1516
1657.847747803366,1545
1659.8715661300494,1512
1661.8948684931793,1517
1663.9176551476316,1604
1665.9399263483624,1452
1667.9616823504057,1507
1669.982923408873,1512
1672.0036497789574,1499
1674.0238617159293,1438
1676.043559475138,1492
1678.0627433120121,1487
1680.081413482059,1512
1682.0995702408654,1513
1684.117213844096,1465
1686.134344547495,1516
1688.1509626068864,1507
1690.1670682781705,1462
1692.182661817329,1495
1694.1977434804217,1552
1696.2123135235875,1475
1698.226372203043,1570
1700.2399197750851,1510
1702.2529564960905,1478
1704.2654826225112,1457
1706.277498410882,1479
1708.2890041178139,1529
1710.2999999999988,1488
1712.3104863142066,1462
1714.3204633172854,1431
1716.329931266163,1444
1718.3388904178469,1377
1720.3473410294214,1445
1722.3552833580516,1473
1724.3627176609807,1415
1726.3696441955308,1447
1728.3760632191033,1468
1730.3819749891782,1432
1732.3873797633146,1475
1734.3922777991502,1445
1736.3966693544012,1404
1738.4005546868639,1394
1740.4039340544127,1375
1742.406807715001,1450
1744.4091759266616,1404
1746.4110389475054,1382
1748.4123970357223,1453
1750.413250449582,1382
1752.4135994474318,1403
1754.4134442876993,1432
1756.4127852288902,1362
1758.4116225295893,1395
1760.4099564484595,1422
1762.407787244244,1415
1764.405115175764,1361
1766.4019405019203,1365
1768.3982634816916,1384
1770.3940843741357,1395
1772.3894034383907,1360
1774.3842209336717,1424
1776.378537119274,1304
1778.372352254571,1356
1780.3656665990156,1341
1782.3584804121397,1371
1784.3507939535534,1350
1786.3426074829463,1352
1788.3339212600863,1362
1790.3247355448211,1373
1792.3150505970766,1329
1794.3048666768573,1364
1796.2941840442477,1284
1798.2830029594106,1329
1800.2713236825884,1316
1802.2591464741004,1383
1804.2464715943465,1408
1806.2332993038058,1328
1808.2196298630352,1314
1810.2054635326708,1333
1812.190800573428,1323
1814.175641246101,1354
1816.1599858115628,1327
1818.1438345307652,1404
1820.127187664738,1272
1822.1100454745924,1382
1824.092408221516,1349
1826.0742761667766,1369
1828.055649571721,1348
1830.0365286977735,1380
1832.0169138064398,1323
1833.9968051593014,1377
1835.9762030180214,1364
1837.9551076443408,1309
1839.9335193000788,1278
1841.9114382471344,1347
1843.888864747485,1349
1845.8657990631878,1246
1847.842241456378,1339
1849.8181921892697,1366
1851.7936515241558,1343
1853.7686197234098,1353
1855.7430970494815,1329
1857.7170837649014,1287
1859.6905801322787,1283
1861.6635864143004,1301
1863.6361028737338,1373
1865.608129773424,1353
1867.5796673762961,1348
1869.5507159453537,1348
1871.521275743678,1351
1873.4913470344313,1374
1875.4609300808534,1333
1877.4300251462632,1364
1879.3986324940588,1372
1881.366752387717,1321
1883.3343850907936,1361
1885.3015308669228,1336
1887.268189979819,1375
1889.2343626932739,1412
1891.2000492711595,1380
1893.1652499774254,1390
1895.1299650761011,1350
1897.0941948312952,1418
1899.0579395071945,1347
1901.0211993680641,1358
1902.98397467825,1429
1904.9462657021745,1373
1906.9080727043415,1400
1908.869395949332,1321
1910.8302357018065,1335
1912.790592226504,1380
1914.7504657882428,1364
1916.7098566519212,1394
1918.6687650825133,1379
1920.6271913450764,1353
1922.5851357047422,1358
1924.5425984267245,1363
1926.499579776314,1424
1928.4560800188833,1399
1930.4120994198802,1399
1932.367638244833,1380
1934.32269675935,1371
1936.2772752291175,1379
1938.231373919899,1284
1940.1849930975404,1355
1942.1381330279637,1354
1944.0907939771696,1323
1946.0429762112412,1332
1947.9946799963363,1335
1949.9459055986945,1290
1951.896653284633,1297
1953.8469233205478,1349
1955.7967159729142,1316
1957.7460315082863,1343
1959.6948701932974,1298
1961.6432322946594,1279
1963.5911180791632,1327
1965.5385278136787,1345
1967.4854617651545,1361
1969.4319202006182,1319
1971.377903387176,1331
1973.3234115920136,1310
1975.268445082395,1287
1977.2130041256642,1364
1979.1570889892423,1339
1981.1006999406304,1288
1983.04383724741,1349
1984.986501177238,1329
1986.928691997853,1348
1988.8704099770712,1272
1990.811655382789,1350
1992.7524284829801,1305
1994.692729545698,1318
1996.6325588390755,1340
1998.5719166313224,1295
2000.5108031907307,1349
2002.4492187856677,1355
2004.387163684583,1295
2006.3246381560011,1335
2008.2616424685298,1320
2010.1981768908527,1309
2012.1342416917332,1303
2014.069837140014,1297
2016.0049635046162,1288
2017.9396210545406,1299
2019.8738100588666,1295
2021.8075307867502,1310
2023.740783507431,1280
2025.6735684902228,1237
2027.6058860045214,1311
2029.5377363198004,1236
2031.4691197056118,1300
2033.4000364315875,1260
2035.3304867674374,1247
2037.260470982952,1217
2039.189989347998,1232
2041.1190421325232,1287
2043.047629606554,1284
2044.9757520401945,1244
2046.9034097036288,1257
2048.8306028671195,1260
2050.7573318010086,1272
2052.683596775716,1274
2054.609398061742,1288
2056.5347359296647,1248
2058.4596106501403,1281
2060.384022493906,1262
2062.3079717317764,1266
2064.231458634646,1244
2066.1544834734873,1276
2068.077046519352,1289
2069.99914804337,1314
2071.9207883167524,1285
2073.8419676107865,1299
2075.7626861968406,1251
2077.6829443463607,1216
2079.6027423308715,1224
2081.522080421977,1314
2083.440958891362,1267
2085.359378010786,1271
2087.2773380520907,1255
2089.194839287196,1273
2091.111881988101,1271
2093.0284664268825,1213
2094.9445928756973,1272
2096.86026160678,1306
2098.775472892446,1247
2100.690227005088,1246
2102.604524217178,1283
2104.5183648012676,1302
2106.431749029985,1287
2108.34467717604,1314
2110.2571495122206,1259
2112.169166311393,1261
2114.080727846503,1311
2115.9918343905747,1301
2117.902486216711,1239
2119.8126835980956,1264
2121.722426807987,1256
2123.6317161197285,1235
2125.5405518067364,1236
2127.448934142509,1285
2129.356863400624,1290
2131.264339854737,1276
2133.1713637785815,1313
2135.077935445972,1281
2136.9840551308002,1318
2138.889723107037,1320
2140.7949396487334,1261
2142.699705030018,1271
2144.6040195250994,1273
2146.507883408264,1322
2148.4112969538774,1262
2150.3142604363848,1366
2152.2167741303097,1281
2154.1188383102535,1298
2156.0204532508997,1298
2157.9216192270064,1302
2159.822336513414,1292
2161.7226053850413,1253
2163.622426116884,1325
2165.5217989840185,1294
2167.4207242616,1353
2169.319202224862,1277
2171.2172331491165,1299
2173.1148173097563,1297
2175.0119549822507,1316
2176.90864644215,1277
2178.8048919650823,1332
2180.7006918267534,1367
2182.596046302952,1302
2184.4909556695407,1322
2186.3854202024645,1336
2188.279440177746,1304
2190.173015871487,1360
2192.066147559868,1312
2193.958835519149,1305
2195.851080025667,1329
2197.7428813558417,1311
2199.6342397861667,1330
2201.5251555932186,1305
2203.415629053651,1328
2205.3056604441986,1275
2207.19525004167,1314
2209.084398122958,1318
2210.9731049650327,1374
2212.861370844941,1313
2214.749196039812,1389
2216.636580826851,1375
2218.523525483344,1342
2220.410030286655,1338
2222.296095514226,1318
2224.1817214435805,1360
2226.066908352319,1307
2227.951656518121,1341
2229.835966218746,1365
2231.71983773203,1304
2233.6032713358913,1321
2235.486267308324,1375
2237.3688259274036,1283
2239.2509474712824,1301
2241.132632218193,1341
2243.013880446447,1356
2244.8946924344323,1342
2246.7750684606203,1378
2248.6550088035574,1261
2250.534513741871,1302
2252.413583554265,1329
2254.292218519526,1318
2256.170418916517,1282
2258.0481850241786,1340
2259.925517121534,1343
2261.8024154876825,1329
2263.678880401803,1388
2265.5549121431536,1360
2267.430510991071,1352
2269.305677224971,1314
2271.180411124348,1316
2273.0547129687766,1305
2274.9285830379076,1341
2276.8020216114737,1342
2278.6750289692845,1368
2280.5476053912294,1337
2282.4197511572766,1418
2284.2914665474727,1398
2286.162751841943,1381
2288.0336073208937,1400
2289.904033264608,1365
2291.774029953448,1399
2293.6435976678554,1374
2295.5127366883517,1323
2297.381447295534,1320
2299.2497297700825,1304
2301.1175843927526,1310
2302.9850114443825,1255
2304.852011205885,1259
2306.7185839582553,1187
2308.5847299825664,1261
2310.4504495599676,1207
2312.3157429716925,1195
2314.1806104990483,1211
2316.0450524234247,1252
2317.9090690262888,1199
2319.772660589186,1197
2321.635827393742,1252
2323.498569721661,1210
2325.3608878547248,1186
2327.2227820747967,1166
2329.0842526638157,1206
2330.945299903803,1204
2332.805924076857,1182
2334.6661254651535,1241
2336.525904350951,1229
2338.3852610165827,1199
2340.244195744464,1198
2342.102708817088,1197
2343.9608005170253,1160
2345.8184711269287,1195
2347.675720929526,1238
2349.532550207628,1219
2351.38895924412,1213
2353.24494832197,1246
2355.100517724223,1222
2356.955667734004,1250
2358.810398634514,1200
2360.664710709037,1212
2362.5186042409337,1247
2364.3720795136437,1237
2366.225136810686,1268
2368.0777764156583,1230
2369.929998612237,1230
2371.7818036841777,1218
2373.633191915315,1188
2375.484163589562,1285
2377.3347189909114,1256
2379.184858403434,1213
2381.03458211128,1223
2382.8838903986775,1209
2384.732783549936,1283
2386.5812618494406,1243
2388.4293255816588,1249
2390.2769750311327,1242
2392.1242104824883,1246
2393.971032220427,1232
2395.8174405297295,1242
2397.6634356952563,1273
2399.509018001947,1231
2401.3541877348193,1233
2403.1989451789705,1278
2405.043290619576,1236
2406.8872243418905,1210
2408.730746631247,1232
2410.5738577730594,1244
2412.4165580528183,1274
2414.258847756095,1274
2416.100727168537,1269
2417.9421965758734,1234
2419.783256263912,1259
2421.623906518538,1290
2423.4641476257157,1284
2425.303979871491,1301
2427.143403541984,1295
2428.9824189233977,1322
2430.821026302012,1315
2432.6592259641866,1235
2434.497018196361,1273
2436.33440328505,1270
2438.171381516851,1264
2440.00795317844,1248
2441.844118556569,1253
2443.6798779380724,1314
2445.5152316098606,1282
2447.3501798589255,1290
2449.1847229723357,1250
2451.0188612372403,1234
2452.8525949408663,1227
2454.6859243705203,1243
2456.518849813587,1264
2458.3513715575314,1273
2460.183489889895,1285
2462.015205098301,1303
2463.8465174704493,1267
2465.67742729412,1294
2467.5079348571717,1267
2469.338040447542,1310
2471.1677443532476,1264
2472.9970468623833,1287
2474.825948263123,1306
2476.6544488437207,1320
2478.482548892508,1282
2480.310248697896,1298
2482.137548548374,1264
2483.9644487325118,1235
2485.790949538956,1283
2487.617051256433,1320
2489.44275417375,1314
2491.26805857979,1235
2493.0929647635157,1351
2494.917473013971,1347
2496.741583620276,1336
2498.5652968716304,1316
2500.3886130573137,1323
2502.2115324666834,1285
2504.0340553891765,1344
2505.856182114308,1305
2507.6779129316733,1372
2509.499248130945,1352
2511.3201880018764,1349
2513.140732834298,1393
2514.9608829181198,1392
2516.780638543331,1345
2518.6,1358
2520.418967578273,1305
2522.237541568376,1354
2524.0557222606144,1353
2525.8735099453706,1384
2527.6909049131086,1399
2529.507907454368,1365
2531.32451785977,1332
2533.140736420014,1374
2534.9565634258774,1383
2536.771999168218,1421
2538.5870439379714,1408
2540.4016980261526,1455
2542.2159617238544,1495
2544.02983532225,1410
2545.8433191125914,1433
2547.656413386209,1436
2549.4691184345115,1463
2551.2814345489874,1500
2553.093362021204,1499
2554.904901142808,1470
2556.716052205523,1506
2558.526815501153,1510
2560.3371913215824,1464
2562.147179958771,1564
2563.956781704761,1527
2565.7659968516705,1580
2567.5748256916986,1627
2569.3832685171224,1591
2571.1913256202984,1571
2572.9989972936614,1615
2574.806283829725,1597
2576.613185521084,1663
2578.4197026604074,1623
2580.2258355404483,1562
2582.031584454035,1631
2583.836949694077,1654
2585.6419315535613,1676
2587.4465303255533,1661
2589.2507463032002,1659
2591.0545797797245,1663
2592.8580310484303,1644
2594.6611004026995,1681
2596.463788135992,1626
2598.266094541849,1667
2600.0680199138874,1706
2601.869564545807,1663
2603.670728731383,1648
2605.4715127644704,1659
2607.2719169390048,1598
2609.071941548998,1621
2610.8715868885433,1658
2612.670853251811,1644
2614.469740933052,1624
2616.268250226594,1613
2618.0663814268455,1572
2619.864134828292,1623
2621.6615107255006,1630
2623.458509413115,1592
2625.2551311858597,1563
2627.0513763385347,1601
2628.8472451660223,1544
2630.6427379632833,1544
2632.4378550253564,1534
2634.232596647359,1530
2636.026963124488,1552
2637.8209547520187,1516
2639.6145718253065,1465
2641.407814639785,1466
2643.200683490966,1503
2644.9931786744414,1490
2646.7853004858807,1484
2648.577049221034,1512
2650.3684251757277,1461
2652.1594286458712,1498
2653.9500599274484,1400
2655.740319316525,1423
2657.5302071092437,1438
2659.3197236018286,1413
2661.10886909058,1391
2662.8976438718782,1389
2664.686048242183,1375
2666.4740824980327,1321
2668.2617469360443,1358
2670.0490418529134,1363
2671.8359675454153,1380
2673.622524310403,1390
2675.408712444811,1318
2677.1945322456495,1363
2678.979984010009,1335
2680.76506803506,1357
2682.5497846180497,1325
2684.334134056306,1365
2686.1181166472343,1261
2687.9017326883213,1287
2689.6849824771293,1273
2691.4678663113013,1264
2693.2503844885596,1251
2695.032537306705,1294
2696.8143250636167,1272
2698.5957480572542,1277
2700.3768065856534,1257
2702.1575009469316,1281
2703.937831439283,1288
2705.717798360982,1252
2707.4974020103837,1265
2709.276642685917,1278
2711.055520686095,1230
2712.834036309506,1268
2714.612189854819,1256
2716.389981620782,1213
2718.1674119062204,1267
2719.944481010041,1263
2721.721189231226,1252
2723.4975368688415,1193
2725.273524222027,1219
2727.0491515900053,1201
2728.824419272075,1216
2730.5993275676146,1250
2732.3738767760838,1268
2734.148067197016,1223
2735.921899130031,1153
2737.6953728748194,1197
2739.468488731156,1246
2741.2412469988926,1205
2743.0136479779617,1198
2744.785691968372,1196
2746.5573792702116,1211
2748.3287101836504,1191
2750.099685008934,1191
2751.870304046388,1173
2753.640567596418,1166
2755.4104759595057,1200
2757.1800294362156,1200
2758.949228327187,1133
2760.7180729331412,1167
2762.486563554877,1183
2764.254700493272,1222
2766.022484049284,1237
2767.789914523947,1215
2769.5569922183786,1210
2771.3237174337705,1152
2773.090090471394,1167
2774.8561116326036,1163
2776.6217812188274,1236
2778.3870995315756,1157
2780.1520668724356,1172
2781.9166835430747,1188
2783.6809498452394,1204
2785.444866080754,1236
2787.2084325515225,1163
2788.971649559527,1219
2790.73451740683,1183
2792.4970363955713,1162
2794.2592068279705,1206
2796.0210290063264,1162
2797.7825032330147,1199
2799.543629810493,1205
2801.304409041296,1181
2803.0648412280366,1210
2804.8249266734088,1159
2806.5846656801846,1163
2808.344058551212,1204
2810.1031055894246,1198
2811.8618070978273,1192
2813.6201633795085,1189
2815.378174737636,1172
2817.1358414754536,1192
2818.893163896285,1200
2820.6501423035334,1194
2822.4067770006814,1148
2824.1630682912883,1178
2825.9190164789957,1186
2827.6746218675207,1189
2829.429884760661,1155
2831.184805462294,1171
2832.9393842763743,1199
2834.693621506936,1156
2836.4475174580916,1126
2838.201072434034,1176
2839.954286739034,1182
2841.707160677441,1179
2843.459694553685,1160
2845.2118886722724,1196
2846.96374333779,1200
2848.7152588549034,1179
2850.4664355283567,1181
2852.217273662973,1207
2853.9677735636546,1181
2855.7179355353833,1170
2857.4677598832186,1170
2859.217246912299,1151
2860.9663969278427,1185
2862.715210235146,1170
2864.4636871395846,1132
2866.211827946614,1172
2867.9596329617652,1172
2869.7071024906536,1191
2871.4542368389684,1150
2873.20103631248,1121
2874.947501217038,1155
2876.6936318585695,1175
2878.4394285430812,1164
2880.1848915766604,1144
2881.9300212654707,1212
2883.6748179157553,1155
2885.4192818338374,1170
2887.1634133261173,1122
2888.907212699077,1194
2890.6506802592744,1169
2892.393816313348,1224
2894.1366211680142,1176
2895.8790951300693,1151
2897.621238506388,1187
2899.363051603925,1159
2901.1045347297118,1203
2902.8456881908596,1161
2904.58651229456,1162
2906.327007348081,1198
2908.067173658772,1216
2909.8070115340597,1177
2911.5465212814497,1141
2913.285703208527,1151
2915.0245576229563,1124
2916.7630848324807,1228
2918.5012851449196,1173
2920.2391588681758,1200
2921.976706310227,1196
2923.7139277791334,1145
2925.4508235830313,1159
2927.187394030137,1129
2928.923639428745,1117
2930.6595600872306,1177
2932.395156314046,1214
2934.1304284177218,1194
2935.8653767068713,1217
2937.6000014901815,1178
2939.3343030764227,1171
2941.068281774442,1189
2942.8019378931644,1162
2944.5352717415976,1213
2946.2682836288236,1127
2948.0009738640065,1114
2949.7333427563885,1139
2951.465390615289,1158
2953.1971177501086,1211
2954.9285244703265,1168
2956.6596110855,1238
2958.3903779052657,1186
2960.1208252393385,1177
2961.8509533975125,1178
2963.5807626896617,1176
2965.3102534257378,1218
2967.0394259157715,1183
2968.768280469873,1158
2970.496817398232,1124
2972.2250370111146,1154
2973.952939618869,1159
2975.6805255319196,1208
2977.4077950607707,1174
2979.134748516006,1165
2980.861386208289,1137
2982.587708448359,1126
2984.313715547037,1140
2986.039407815222,1143
2987.764785563891,1147
2989.489849104102,1137
2991.2145987469908,1148
2992.9390348037705,1184
2994.6631575857346,1118
2996.3869674042576,1168
2998.1104645707887,1141
2999.83364939686,1173
3001.5565221940783,1155
3003.2790832741334,1166
3005.0013329487924,1139
3006.7232715298996,1143
3008.4448993293804,1129
3010.166216659239,1188
3011.887223831558,1115
3013.607921158498,1233
3015.3283089522993,1174
3017.0483875252826,1162
3018.7681571898443,1148
3020.4876182584626,1181
3022.2067710436927,1167
3023.9256158581707,1188
3025.644153014609,1146
3027.362382825801,1146
3029.0803056046193,1165
3030.797921664012,1208
3032.5152313170106,1137
3034.2322348767225,1165
3035.9489326563353,1112
3037.665324969115,1165
3039.3814121284063,1141
3041.097194447633,1114
3042.812672240299,1143
3044.5278458199855,1127
3046.2427155003525,1157
3047.9572815951406,1153
3049.671544418167,1121
3051.38550428333,1186
3053.0991615046073,1160
3054.812516396051,1132
3056.5255692717974,1158
3058.2383204460575,1144
3059.9507702331257,1118
3061.662918947372,1146
3063.3747669032446,1202
3065.0863144152736,1158
3066.7975617980674,1165
3068.508509366309,1215
3070.219157434767,1179
3071.9295063182844,1150
3073.639556331785,1134
3075.3493077902704,1141
3077.058761008821,1195
3078.7679163025964,1178
3080.476773986837,1165
3082.1853343768594,1192
3083.89359778806,1140
3085.6015645359153,1161
3087.3092349359786,1116
3089.016609303884,1178
3090.7236879553434,1178
3092.4304712061476,1138
3094.136959372166,1119
3095.843152769349,1170
3097.5490517137237,1182
3099.2546565213966,1156
3100.959967508554,1119
3102.66498499146,1213
3104.3697092864577,1132
3106.0741407099695,1108
3107.778279578498,1151
3109.482126208622,1161
3111.1856809170004,1178
3112.8889440203716,1179
3114.5919158355528,1194
3116.294596679439,1157
3117.996986869006,1196
3119.6990867213062,1213
3121.4008965534726,1136
3123.102416682717,1167
3124.803647426329,1168
3126.5045891016784,1165
3128.205242026213,1209
3129.90560651746,1134
3131.605682893025,1176
3133.3054714705922,1168
3135.0049725679282,1153
3136.7041865028714,1174
3138.4031135933465,1145
3140.101754157353,1155
3141.800108512971,1142
3143.498176978357,1113
3145.1959598717494,1164
3146.8934575114636,1204
3148.5906702158954,1139
3150.2875983035183,1147
3151.9842420928853,1114
3153.680601902627,1165
3155.376678051456,1138
3157.07247085816,1140
3158.767980641609,1143
3160.463207720748,1167
3162.158152414606,1148
3163.8528150422862,1128
3165.5471959229726,1155
3167.2412953759303,1183
3168.9351137204976,1181
3170.628651276098,1142
3172.3219083622307,1168
3174.014885298474,1201
3175.707582404485,1213
3177.4000000000005,1163
3179.092138404835,1163
3180.7839979388846,1120
3182.47557892212,1159
3184.166881674594,1199
3185.8579065164386,1213
3187.5486537678626,1169
3189.2391237491547,1181
3190.9293167806827,1171
3192.6192331828934,1161
3194.3088732763117,1146
3195.998237381542,1085
3197.687325819268,1128
3199.376138910251,1094
3201.064676975334,1144
3202.7529403354347,1116
3204.4409293115523,1125
3206.1286442247647,1172
3207.816085396229,1152
3209.5032531471825,1163
3211.190147798936,1166
3212.8767696728846,1126
3214.5631190905015,1085
3216.2491963733373,1153
3217.9350018430214,1142
3219.6205358212637,1123
3221.305798629851,1119
3222.990790590651,1093
3224.6755120256103,1109
3226.359963256751,1104
3228.0441446061795,1110
3229.7280563960758,1116
3231.411698948703,1102
3233.0950725863995,1146
3234.778177631587,1162
3236.461014406761,1119
3238.1435832345005,1097
3239.8258844374595,1159
3241.507918338374,1134
3243.1896852600576,1083
3244.8711855254023,1192
3246.552419457381,1100
3248.233387379042,1118
3249.914089613516,1193
3251.59452648401,1105
3253.274698313813,1169
3254.95460542629,1095
3256.6342481448855,1105
3258.313626793125,1098
3259.9927416946084,1115
3261.6715931730196,1103
3263.3501815521176,1154
3265.0285071557437,1096
3266.706570307815,1094
3268.3843713323286,1124
3270.0619105533615,1140
3271.739188295068,1136
3273.4162048816834,1157
3275.0929606375184,1183
3276.769455886966,1098
3278.445690954498,1136
3280.1216661646613,1140
3281.797381842087,1155
3283.4728383114807,1165
3285.1480358976296,1148
3286.8229749253996,1156
3288.4976557197333,1152
3290.172078605655,1127
3291.846243908266,1124
3293.5201519527463,1127
3295.193803064357,1112
3296.8671975684374,1099
3298.5403357904024,1133
3300.21321805575,1131
3301.8858446900567,1136
3303.558216018975,1128
3305.23033236824,1146
3306.9021940636603,1139
3308.57380143113,1152
3310.2451547966184,1077
3311.916254486174,1151
3313.5871008259246,1125
3315.2576941420766,1111
3316.9280347609147,1156
3318.5981230088046,1107
3320.2679592121895,1165
3321.9375436975924,1134
3323.606876791612,1097
3325.27595882093,1123
3326.944790112305,1152
3328.6133709925753,1172
3330.2817017886573,1091
3331.949782827547,1166
3333.617614436319,1168
3335.2851969421245,1123
3336.952530672199,1108
3338.619615953853,1140
3340.286453114475,1117
3341.9530424815357,1106
3343.619384382583,1103
3345.2854791452437,1097
3346.951327097224,1135
3348.6169285663073,1153
3350.2822838803577,1152
3351.947393367319,1132
3353.61225735521,1130
3355.2768761721345,1140
3356.9412501462693,1160
3358.605379605873,1137
3360.2692648792827,1120
3361.9329062949146,1117
3363.596304181263,1100
