CollectionTime,9/20/2024 1:00:14 PM
ExposureUsed,3
CalibratedSpectrum
-962.7078968117929,627
-959.9714848408522,691
-957.2358232597828,721
-954.5009119013725,677
-951.7667505983302,666
-949.0333391832855,743
-946.3006774887896,731
-943.5687653473143,710
-940.837602591253,705
-938.1071890529199,714
-935.3775245645503,772
-932.6486089583007,708
-929.9204420662485,706
-927.1930237203925,694
-924.4663537526524,705
-921.7404319948689,757
-919.0152582788041,763
-916.2908324361409,726
-913.5671542984834,740
-910.8442236973568,739
-908.1220404642074,700
-905.4006044304027,702
-902.679915427231,721
-899.959973285902,682
-897.2407778375464,674
-894.5223289132158,673
-891.8046263438832,679
-889.0876699604426,702
-886.3714595937089,685
-883.6559950744183,644
-880.9412762332282,692
-878.2273029007168,676
-875.5140749073835,670
-872.8015920836489,624
-870.0898542598545,666
-867.3788612662631,669
-864.6686129330585,694
-861.9591090903457,661
-859.2503495681506,696
-856.5423341964203,666
-853.8350628050229,649
-851.1285352237478,629
-848.4227512823054,640
-845.7177108103272,696
-843.0134136373656,665
-840.3098595928943,715
-837.6070485063082,685
-834.9049802069229,673
-832.2036545239757,682
-829.5030712866244,699
-826.8032303239481,718
-824.1041314649472,706
-821.4057745385428,661
-818.7081593735775,704
-816.0112857988148,667
-813.3151536429393,698
-810.6197627345566,668
-807.9251129021936,696
-805.2312039742981,710
-802.5380357792392,669
-799.8456081453069,663
-797.1539209007124,671
-794.462973873588,695
-791.772766891987,690
-789.083299783884,712
-786.3945723771743,676
-783.7065844996748,691
-781.0193359791231,647
-778.3328266431781,669
-775.6470563194197,683
-772.9620248353489,667
-770.2777320183878,658
-767.5941776958798,663
-764.9113616950891,700
-762.2292838432011,661
-759.5479439673222,681
-756.8673418944801,680
-754.1874774516235,701
-751.5083504656222,676
-748.8299607632671,687
-746.15230817127,727
-743.475392516264,724
-740.7992136248035,678
-738.1237713233636,703
-735.4490654383407,692
-732.7750957960521,702
-730.1018622227365,708
-727.4293645445534,714
-724.7576025875837,736
-722.0865761778291,692
-719.4162851412126,734
-716.7467293035781,707
-714.0779084906909,790
-711.409822528237,795
-708.7424712418238,765
-706.0758544569796,739
-703.4099719991541,757
-700.7448236937178,799
-698.0804093659622,781
-695.4167288411002,796
-692.7537819442656,768
-690.0915685005134,778
-687.4300883348199,730
-684.7693412720819,810
-682.1093271371178,769
-679.4500457546669,810
-676.7914969493897,750
-674.1336805458676,780
-671.4765963686034,824
-668.8202442420206,811
-666.1646239904642,819
-663.5097354382001,807
-660.8555784094151,814
-658.2021527282176,768
-655.5494582186366,772
-652.8974947046223,796
-650.2462620100463,817
-647.5957599587009,820
-644.9459883742998,773
-642.2969470804776,829
-639.6486359007902,845
-637.0010546587141,857
-634.3542031776476,883
-631.7080812809096,848
-629.0626887917401,815
-626.4180255333008,809
-623.7740913286734,793
-621.1308860008619,861
-618.4884093727904,783
-615.8466612673046,810
-613.2056415071715,800
-610.5653499150785,803
-607.9257863136347,849
-605.28695052537,860
-602.6488423727357,833
-600.0114616781036,809
-597.3748082637674,875
-594.7388819519412,857
-592.1036825647604,831
-589.4692099242818,826
-586.8354638524829,852
-584.2024441712624,870
-581.5701507024403,872
-578.9385832677575,841
-576.3077416888759,851
-573.6776257873787,866
-571.0482353847704,791
-568.4195703024757,781
-565.7916303618415,836
-563.164415384135,805
-560.5379251905453,801
-557.9121596021815,827
-555.2871184400748,822
-552.6628015251767,850
-550.0392086783606,899
-547.4163397204204,909
-544.794194472071,905
-542.1727727539491,969
-539.5520743866118,897
-536.9320991905377,931
-534.3128469861261,999
-531.6943175936979,982
-529.0765108334947,971
-526.4594265256793,997
-523.8430644903358,1154
-521.2274245474689,1336
-518.612506517005,1413
-515.9983102187913,1419
-513.3848354725959,1436
-510.77208209810846,1462
-508.16004991493924,1612
-505.5487387426199,1757
-502.9381484006032,1888
-500.3282787082628,1838
-497.71912948489364,1841
-495.1107005497117,1733
-492.5029917218539,1500
-489.8960028203786,1366
-487.28973366426493,1239
-484.68418407241325,1146
-482.07935386364494,1114
-479.47524285670266,1044
-476.87185087025,1015
-474.2691777228715,1080
-471.66722323307334,1071
-469.0659872192821,1076
-466.4654694998459,1061
-463.86566989303384,1107
-461.26658821703614,1108
-458.66822428996414,1057
-456.07057792985,1125
-453.4736489546475,1072
-450.877437182231,1018
-448.28194243039627,1011
-445.68716451686,1081
-443.09310325926003,1029
-440.49975847515555,993
-437.9071299820263,984
-435.31521759727354,1042
-432.72402113821954,1039
-430.13354042210767,1037
-427.5437752661022,1064
-424.95472548728867,1096
-422.36639090267386,1111
-419.7787713291855,1102
-417.1918665836721,1115
-414.60567648290385,1101
-412.0202008435715,1120
-409.4354394822874,1076
-406.8513922155845,1105
-404.26805885991723,1083
-401.685439231661,1124
-399.103533147112,1116
-396.522340422488,1157
-393.9418608739278,1074
-391.3620943174908,1101
-388.7830405691583,1113
-386.2046994448317,1044
-383.6270707603344,1008
-381.05015433141045,981
-378.473949973725,904
-375.8984575028645,875
-373.32367673433623,778
-370.74960748356875,773
-368.1762495659117,754
-365.60360279663576,715
-363.03166699093265,628
-360.4604419639154,599
-357.8899275306178,585
-355.32012350599507,545
-352.7510297049233,528
-350.1826459421999,553
-347.61497203254316,520
-345.04800779059235,574
-342.4817530309082,528
-339.91620756797226,530
-337.35137121618743,595
-334.7872437898774,561
-332.22382510328725,506
-329.66111497058273,524
-327.09911320585127,509
-324.53781962310075,500
-321.9772340362607,506
-319.4173562591816,496
-316.8581861056348,550
-314.2997233893127,530
-311.7419679238294,512
-309.1849195227194,538
-306.62857799943856,616
-304.0729431673641,593
-301.51801483979375,559
-298.963792829947,573
-296.41027695096386,522
-293.85746701590574,617
-291.3053628377552,616
-288.7539642294155,604
-286.2032710037115,635
-283.65328297338897,637
-281.1039999511146,662
-278.5554217494762,688
-276.007548180983,612
-273.4603790580651,640
-270.9139141930734,611
-268.3681533982807,630
-265.8230964858798,660
-263.27874326798565,632
-260.7350935566336,650
-258.1921471637804,702
-255.6499039013039,758
-253.10836358100266,768
-250.56752601459698,756
-248.02739101372765,774
-245.48795838995704,812
-242.94922795476816,790
-240.41119951956557,857
-237.8738728956746,801
-235.33724789434166,757
-232.80132432673452,766
-230.2661020039418,749
-227.73158073697357,800
-225.19776033676033,867
-222.66464061415422,824
-220.1322213799284,873
-217.60050244477725,825
-215.06948361931552,925
-212.53916471408013,922
-210.00954553952818,948
-207.48062590603843,803
-204.9524056239104,843
-202.4248845033651,875
-199.8980623545441,828
-197.37193898751036,891
-194.84651421224817,922
-192.32178783866232,886
-189.79775967657952,862
-187.27442953574644,936
-184.7517972258321,1007
-182.2298625564256,893
-179.7086253370378,885
-177.18808537710026,902
-174.66824248596583,1048
-172.14909647290835,1001
-169.6306471471229,1010
-167.11289431772548,954
-164.59583779375328,1010
-162.07947738416453,1090
-159.5638128978386,1222
-157.04884414357605,1232
-154.53457093009854,1280
-152.02099306604828,1038
-149.50811035998936,965
-146.99592262040665,1215
-144.48442965570587,1302
-141.97363127421409,1366
-139.46352728417958,1306
-136.95411749377126,1351
-134.44540171107985,1208
-131.93737974411636,1165
-129.43005140081357,1249
-126.92341648902493,1466
-124.41747481652521,1456
-121.91222619101006,1398
-119.40767042009657,1810
-116.90380731132257,2321
-114.40063667214702,3160
-111.8981583099503,4522
-109.3963720320337,7069
-106.89527764561933,9960
-104.39487495785067,11291
-101.89516377579241,12086
-99.39614390642998,15310
-96.89781515667039,21031
-94.40017733334128,27880
-91.90323024319173,27855
-89.40697369289148,19055
-86.91140748903172,11864
-84.41653143812482,9972
-81.92234534660395,14000
-79.42884902082358,19036
-76.93604226705907,21136
-74.4439248915071,19638
-71.95249670028534,16383
-69.46175749943245,13429
-66.97170709490854,11181
-64.48234529259423,10289
-61.99367189829195,10116
-59.50568671772464,10584
-57.01838955653636,12836
-54.53178022029283,17309
-52.045858514480074,19020
-49.560624244506016,19611
-47.07607721569923,18352
-44.59221723330904,15573
-42.10904410250669,14717
-39.62655762838392,17329
-37.14475761595372,20171
-34.66364387015028,20030
-32.18321619582866,23785
-29.70347439776515,26231
-27.224418280657005,25845
-24.74604764912317,30781
-22.26836230770266,39533
-19.7913620608565,64010
-17.315046712966478,65036
-14.83941606833514,65036
-12.36446993118659,65036
-9.89020810566592,65036
-7.416630395839093,65036
-4.94373660569363,65036
-2.471526539137585,65036
-6.821210263296962E-13,65036
2.47084320796705,65036
4.941003281093458,65036
7.410480415786196,65036
9.879274808531363,65036
12.347386655893956,65036
14.814816154518212,65036
17.28156350112681,65036
19.74762889252179,65036
22.21301252558385,25740
24.67771459727237,6772
27.141735304626195,6260
29.605074844762612,7023
32.06773341487792,5848
34.52971121224755,5562
36.99100843422559,4794
39.45162527824516,3810
41.91156194181792,3180
44.370818622535126,3561
46.82939551806646,2921
49.287292826160524,4153
51.74451074464503,5102
54.201049471426245,3958
56.65690920448981,2409
59.112090141899785,1992
61.56659248179983,2220
64.02041642241159,2775
66.4735621620365,3134
68.92602989905402,3511
71.37781983192338,3555
73.82893215918205,2798
76.27936707944684,1891
78.72912479141326,2331
81.17820549385567,2183
83.62660938562783,1889
86.07433666566146,1790
88.5213875329681,1715
90.96776218663751,2143
93.41346082583925,1976
95.85848364982041,2216
98.30283085790859,1972
100.7465026495089,1481
103.18949922410604,1800
105.63182078126385,1558
108.07346752062438,1581
110.51443964190923,1402
112.95473734491827,1409
115.39436082953114,1605
117.83331029570547,1321
120.27158594347827,1400
122.7091879729652,1392
125.1461165843615,1396
127.58237197794062,1201
130.01795435405518,1080
132.4528639131364,1206
134.88710085569494,1166
137.32066538231982,1314
139.75355769367923,1480
142.1857779905207,1473
144.61732647366978,1117
147.04820334403132,1060
149.47840880258934,1228
151.90794305040674,1290
154.33680628862487,1332
156.76499871846443,1502
159.19252054122433,1606
161.61937195828352,1805
164.04555317109896,1909
166.47106438120693,2074
168.89590579022217,2240
171.320077599839,2424
173.7435800118302,2553
176.16641322804742,2690
178.58857745042144,2763
181.01007288096173,2749
183.43089972175687,2871
185.85105817497413,2824
188.27054844285988,2861
190.6893707277394,2903
193.10752523201643,2962
195.5250121581745,2923
197.9418317087751,2957
200.3579840864594,3065
202.7734694939469,3026
205.18828813403627,3136
207.6024402096051,3273
210.01592592360964,3174
212.42874547908548,3168
214.84089907914665,3132
217.2523869269868,3063
219.66320922587727,3208
222.0733661791695,3192
224.48285799029293,3094
226.8916848627572,3141
229.29984700014882,3310
231.7073446061355,3410
234.11417788446204,3352
236.520347038953,3574
238.92585227351185,3560
241.33069379212054,3480
243.73487179884035,3800
246.1383864978112,3845
248.541238093252,3784
250.9434267894609,3772
253.34495279081432,3841
255.74581630176783,3902
258.1460175268563,3934
260.54555667069314,3948
262.9444339379703,3832
265.3426495334594,3845
267.7402036620107,3853
270.1370965285529,3521
272.53332833809407,3370
274.9288992957214,3114
277.32380960660055,3046
279.718059475976,3018
282.1116491091717,3098
284.5045787115897,2968
286.89684848871195,2880
289.2884586460981,2956
291.67940938938807,3054
294.0697009242996,3009
296.4593334566299,3016
298.84830719225477,2806
301.23662233712923,2920
303.6242790972866,2869
306.01127767884,2834
308.39761828798066,2806
310.78330113097934,2727
313.16832641418534,2720
315.5526943440269,2553
317.9364051270112,2647
320.3194589697242,2573
322.70185607883093,2532
325.0835966610754,2535
327.4646809232805,2496
329.8451090723478,2461
332.2248813152577,2509
334.6039978590701,2521
336.9824589109231,2506
339.36026467803447,2560
341.7374153677,2331
344.113911187295,2328
346.48975234427337,2384
348.8649390461686,2311
351.2394715005918,2405
353.61334991523415,2349
355.9865744978655,2350
358.35914545633375,2473
360.73106299856715,2407
363.10232733257146,2373
365.47293866643247,2309
367.84289720831396,2237
370.2122031664593,2335
372.5808567491905,2285
374.9488581649083,2235
377.31620762209275,2201
379.6829053293021,2291
382.0489514951745,2191
384.4143463284262,2168
386.7790900378528,2205
389.14318283232853,2242
391.50662492080653,2280
393.86941651231916,2245
396.23155781597745,2212
398.5930490409713,2290
400.9538903965696,2223
403.3140820921202,2134
405.6736243370498,2106
408.03251734086336,2124
410.3907613131465,2070
412.74835646356166,2037
415.10530300185144,2100
417.4616011378372,2112
419.81725108141893,2104
422.1722530425758,2111
424.5266072313656,2210
426.880313857925,2089
429.2333731324701,2108
431.58578526529516,2137
433.9375504667738,2181
436.2886689473588,2074
438.63914091758113,2139
440.9889665880513,2100
443.33814616945835,2114
445.68667987257015,2132
448.03456790823395,2053
450.3818104873759,2117
452.72840782100013,2024
455.07436012019105,2115
457.41966759611057,2064
459.7643304600007,2057
462.10834892318155,2042
464.4517231970525,2034
466.79445349309174,2041
469.1365400228566,2061
471.4779829979826,2109
473.81878263018564,2084
476.15893913125876,2175
478.4984527130747,2116
480.8373235875855,2159
483.17555196682144,2239
485.5131380628919,2314
487.8500820879857,2384
490.1863842543697,2435
492.52204477439034,2634
494.8570638604725,2864
497.1914417251204,3118
499.52517858091653,3532
501.85827464052306,3828
504.19073011668036,3992
506.5225452222086,4053
508.85372017000566,4087
511.18425517304956,4051
513.514150444396,4188
515.8434061971808,5110
518.1720226446176,5987
520.4999999999999,6140
522.8273384766991,5863
525.1540382881666,5499
527.480099647932,5052
529.8055227696037,4011
532.1303078668694,3119
534.454455153496,2644
536.777964843328,2336
539.1008371502907,2176
541.4230722883866,2132
543.744670471698,2119
546.0656319143858,2199
548.3859568306899,2059
550.7056454349294,2062
553.0246979415016,2086
555.3431145648834,2023
557.6608955196306,1993
559.978041020377,2028
562.2945512818363,1999
564.6104265188006,2031
566.9256669461412,1971
569.2402727788082,2076
571.5542442318302,2018
573.8675815203156,1959
576.1802848594508,2111
578.4923544645015,2051
580.8037905508126,2074
583.114593333807,2149
585.4247630289875,2087
587.7342998519354,2115
590.0432040183106,2086
592.3514757438526,2133
594.6591152443794,2112
596.9661227357875,2043
599.2724984340531,2087
601.578242555231,2117
603.8833553154542,2028
606.1878369309362,2083
608.4916876179676,2115
610.7949075929192,2023
613.0974970722403,2043
615.3994562724587,2008
617.7007854101818,2005
620.0014847020951,2074
622.3015543649641,2054
624.6009946156324,2068
626.8998056710224,2061
629.1979877481361,2080
631.4955410640538,2098
633.7924658359349,2101
636.0887622810175,2141
638.3844306166192,2108
640.6794710601358,2146
642.9738838290426,2098
645.2676691408932,2193
647.5608272133207,2076
649.853358264037,2163
652.1452625108324,2214
654.4365401715764,2205
656.7271914642178,2185
659.0172166067838,2181
661.3066158173809,2139
663.5953893141935,2181
665.8835373154867,2185
668.1710600396028,2196
670.4579577049639,2163
672.7442305300709,2173
675.0298787335033,2160
677.3149025339197,2188
679.599302150058,2174
681.8830778007342,2200
684.1662297048437,2109
686.4487580813608,2147
688.7306631493387,2112
691.0119451279091,2119
693.2926042362834,2175
695.5726406937516,2146
697.8520547196814,2125
700.1308465335215,2200
702.4090163547982,2115
704.6865644031171,2103
706.9634908981619,2160
709.2397960596965,2116
711.5154801075631,2087
713.7905432616823,2152
716.0649857420548,2178
718.3388077687592,2191
720.612009561953,2132
722.8845913418733,2110
725.1565533288352,2145
727.427895743234,2183
729.6986188055427,2047
731.9687227363137,2043
734.238207756178,2082
736.5070740858458,2101
738.7753219461066,2061
741.0429515578281,2139
743.3099631419569,2103
745.5763569195191,1995
747.8421331116193,2109
750.1072919394409,2090
752.3718336242467,2109
754.6357583873777,2049
756.8990664502545,2141
759.1617580343765,2082
761.423833361321,2053
763.6852926527457,2126
765.9461361303862,2138
768.206364016058,2055
770.4659765316536,2080
772.7249738991469,2119
774.9833563405886,2098
777.2411240781092,2170
779.4982773339183,2107
781.7548163303044,2089
784.010741289634,2102
786.2660524343538,2253
788.5207499869881,2125
790.7748341701416,2124
793.0283052064964,2084
795.2811633188143,2181
797.5334087299362,2151
799.7850416627813,2150
802.0360623403484,2163
804.2864709857143,2146
806.5362678220353,2113
808.7854530725468,2174
811.0340269605625,2160
813.2819897094754,2185
815.5293415427581,2181
817.77608268396,2164
820.0222133567116,2201
822.2677337847211,2225
824.5126441917765,2162
826.7569448017433,2138
829.0006358385675,2149
831.2437175262731,2167
833.4861900889629,2090
835.7280537508192,2207
837.9693087361026,2198
840.2099552691533,2167
842.4499935743896,2127
844.689423876309,2204
846.9282463994886,2232
849.1664613685833,2198
851.4040690083276,2239
853.6410695435349,2091
855.877463199097,2220
858.1132501999847,2219
860.3484307712487,2205
862.5830051380175,2239
864.8169735254988,2174
867.0503361589791,2303
869.2830932638243,2200
871.5152450654786,2232
873.7467917894654,2253
875.9777336613873,2166
878.2080709069252,2232
880.4378037518389,2197
882.666932421968,2215
884.8954571432301,2209
887.1233781416219,2277
889.3506956432192,2268
891.5774098741766,2254
893.803521060728,2205
896.0290294291852,2257
898.2539352059397,2336
900.4782386174619,2213
902.7019398903011,2229
904.925039251085,2315
907.147536926521,2244
909.3694331433943,2304
911.59072812857,2315
913.8114221089921,2260
916.0315153116827,2250
918.2510079637437,2193
920.4699002923547,2283
922.6881925247761,2264
924.905884888345,2276
927.1229776104793,2289
929.3394709186747,2228
931.555365040506,2185
933.7706602036275,2225
935.9853566357709,2209
938.1994545647489,2313
940.4129542184515,2305
942.6258558248488,2262
944.8381596119883,2273
947.0498658079974,2250
949.2609746410825,2332
951.4714863395287,2268
953.6814011316998,2280
955.8907192460387,2208
958.0994409110671,2214
960.3075663553858,2284
962.5150958076741,2245
964.7220294966913,2308
966.928367651274,2232
969.1341105003388,2176
971.3392582728806,2138
973.5438111979742,2190
975.747769504772,2205
977.9511334225061,2157
980.153903180487,2162
982.3560790081052,2128
984.5576611348289,2094
986.7586497902058,2148
988.9590452038618,2077
991.158847605503,2056
993.3580572249133,2069
995.5566742919558,2041
997.7546990365728,2015
999.952131688785,1935
1002.1489724786926,1967
1004.3452216364743,1867
1006.5408793923874,1865
1008.7359459767691,1870
1010.9304216200343,1868
1013.1243065526781,1902
1015.3176010052733,1918
1017.510305208472,1825
1019.7024193930064,1801
1021.8939437896848,1867
1024.0848786293977,1832
1026.2752241431122,1884
1028.4649805618747,1840
1030.6541481168115,1858
1032.842727039127,1805
1035.0307175601051,1772
1037.2181199111074,1851
1039.4049343235752,1720
1041.591161029029,1814
1043.7768002590683,1803
1045.9618522453698,1865
1048.1463172196918,1869
1050.3301954138697,1863
1052.513487059818,1840
1054.69619238953,1811
1056.8783116350783,1812
1059.0598450286152,1763
1061.2407928023704,1698
1063.4211551886528,1817
1065.6009324198508,1760
1067.780124728432,1694
1069.9587323469414,1844
1072.1367555080046,1782
1074.314194444325,1777
1076.4910493886855,1716
1078.667320573947,1724
1080.843008233051,1699
1083.0181125990161,1726
1085.1926339049414,1653
1087.3665723840027,1718
1089.5399282694575,1664
1091.7127017946405,1678
1093.8848931929647,1716
1096.0565026979243,1706
1098.2275305430899,1728
1100.3979769621128,1656
1102.567842188722,1672
1104.737126456726,1659
1106.9058300000124,1708
1109.0739530525475,1627
1111.2414958483764,1670
1113.4084586216231,1601
1115.5748416064907,1654
1117.7406450372605,1656
1119.9058691482942,1633
1122.0705141740304,1692
1124.2345803489884,1629
1126.3980679077658,1646
1128.5609770850388,1712
1130.7233081155623,1686
1132.8850612341707,1663
1135.0462366757774,1638
1137.2068346753745,1623
1139.3668554680326,1647
1141.526299288901,1633
1143.68516637321,1592
1145.8434569562655,1660
1148.001171273455,1620
1150.158309560244,1652
1152.3148720521767,1612
1154.470858984876,1577
1156.626270594044,1623
1158.7811071154629,1615
1160.9353687849912,1640
1163.089055838569,1624
1165.242168512213,1575
1167.3947070420209,1700
1169.5466716641677,1585
1171.6980626149075,1636
1173.8488801305748,1615
1175.9991244475814,1646
1178.1487958024186,1619
1180.2978944316555,1561
1182.4464205719428,1630
1184.5943744600072,1609
1186.7417563326567,1637
1188.8885664267755,1610
1191.0348049793297,1608
1193.1804722273619,1561
1195.325568407995,1602
1197.4700937584303,1604
1199.614048515948,1637
1201.7574329179074,1665
1203.900247201746,1650
1206.042491604982,1666
1208.1841663652099,1589
1210.3252717201053,1708
1212.465807907422,1660
1214.6057751649923,1632
1216.7451737307279,1656
1218.8840038426192,1632
1221.0222657387353,1688
1223.1599596572241,1622
1225.2970858363137,1704
1227.4336445143094,1726
1229.5696359295966,1666
1231.705060320639,1727
1233.8399179259786,1683
1235.9742089842384,1680
1238.107933734118,1728
1240.2410924143974,1674
1242.373685263935,1675
1244.5057125216676,1693
1246.6371744266116,1743
1248.7680712178621,1736
1250.898403134593,1690
1253.028170416058,1776
1255.1573733015875,1664
1257.2860120305932,1674
1259.4140868425648,1694
1261.54159797707,1670
1263.6685456737569,1732
1265.7949301723515,1768
1267.9207517126597,1737
1270.046010534565,1722
1272.1707068780306,1763
1274.2948409830983,1762
1276.4184130898889,1748
1278.541423438603,1779
1280.6638722695184,1768
1282.785759822993,1818
1284.9070863394636,1720
1287.0278520594447,1821
1289.1480572235314,1829
1291.2677020723963,1809
1293.3867868467923,1857
1295.5053117875495,1824
1297.623277135579,1866
1299.740683131868,1835
1301.8575300174857,1799
1303.973818033578,1898
1306.0895474213703,1945
1308.2047184221678,1977
1310.3193312773528,1845
1312.4333862283888,1890
1314.5468835168163,1914
1316.659823384255,1830
1318.7722060724045,1864
1320.8840318230418,1943
1322.9953008780249,1904
1325.1060134792888,1859
1327.2161698688478,1932
1329.3257702887959,1901
1331.4348149813054,1911
1333.5433041886276,1892
1335.6512381530933,1888
1337.7586171171101,1838
1339.8654413231675,1817
1341.9717110138317,1814
1344.0774264317488,1901
1346.1825878196432,1898
1348.2871954203192,1907
1350.3912494766587,1870
1352.4947502316231,1827
1354.5976979282532,1851
1356.7000928096686,1819
1358.8019351190665,1859
1360.9032250997243,1887
1363.0039629949988,1837
1365.1041490483235,1844
1367.2037835032133,1874
1369.3028666032606,1811
1371.401398592137,1957
1373.4993797135926,1904
1375.5968102114575,1842
1377.6936903296396,1951
1379.7900203121262,1881
1381.8858004029835,1892
1383.9810308463561,1862
1386.075711886469,1919
1388.1698437676241,1875
1390.2634267342032,1863
1392.356461030667,1913
1394.4489469015557,1980
1396.5408845914872,1920
1398.6322743451592,1932
1400.7231164073469,1980
1402.813411022907,1960
1404.903158436773,2054
1406.9923588939578,2026
1409.0810126395531,2062
1411.1691199187303,2074
1413.2566809767386,2000
1415.343696058907,2119
1417.4301654106425,2100
1419.5160892774315,2131
1421.6014679048399,2061
1423.6863015385125,2115
1425.7705904241707,2171
1427.8543348076178,2096
1429.9375349347342,2255
1432.0201910514802,2187
1434.102303403894,2318
1436.1838722380944,2262
1438.2648978002767,2254
1440.3453803367174,2361
1442.4253200937692,2416
1444.5047173178677,2382
1446.5835722555234,2377
1448.6618851533285,2516
1450.739656257952,2487
1452.8168858161434,2513
1454.8935740747306,2591
1456.96972128062,2595
1459.045327680797,2600
1461.120393522327,2699
1463.1949190523528,2740
1465.2689045180973,2815
1467.3423501668608,2801
1469.415256246024,2880
1471.4876230030463,2968
1473.559450685465,2966
1475.6307395408976,3034
1477.7014898170391,3118
1479.771701761665,3029
1481.8413756226287,3197
1483.9105116478618,3244
1485.9791100853772,3308
1488.0471711832643,3298
1490.1146951896926,3320
1492.1816823529098,3498
1494.2481329212433,3490
1496.3140471430984,3468
1498.3794252669609,3612
1500.4442675413939,3597
1502.5085742150404,3521
1504.572345536622,3746
1506.6355817549388,3727
1508.6982831188702,3708
1510.7604498773744,3639
1512.8220822794883,3789
1514.8831805743293,3756
1516.9437450110909,3756
1519.003775839048,3780
1521.0632733075522,3792
1523.1222376660367,3830
1525.1806691640113,3867
1527.2385680510652,3928
1529.2959345768668,3969
1531.3527689911643,3935
1533.4090715437833,4041
1535.4648424846291,4062
1537.5200820636855,4025
1539.5747905310159,4120
1541.6289681367616,4221
1543.6826151311434,4308
1545.7357317644614,4320
1547.7883182870937,4259
1549.8403749494987,4396
1551.8919020022113,4516
1553.9428996958477,4536
1555.9933682811015,4603
1558.0433080087469,4778
1560.0927191296346,4794
1562.1416018946961,4885
1564.1899565549415,4930
1566.2377833614592,4830
1568.2850825654164,4871
1570.3318544180606,4677
1572.3780991707158,4498
1574.423817074788,4574
1576.4690083817595,4340
1578.5136733431923,4191
1580.5578122107272,3876
1582.601425236085,3713
1584.6445126710646,3509
1586.6870747675434,3352
1588.7291117774776,3181
1590.7706239529034,3016
1592.8116115459347,2964
1594.8520748087658,2785
1596.8920139936686,2688
1598.9314293529933,2687
1600.9703211391711,2550
1603.008689604711,2520
1605.0465350022005,2367
1607.0838575843068,2393
1609.1206576037753,2296
1611.1569353134305,2204
1613.1926909661765,2223
1615.2279248149953,2153
1617.2626371129481,2167
1619.2968281131757,2098
1621.3304980688963,2057
1623.3636472334088,2002
1625.39627586009,2037
1627.428384202396,1999
1629.459972513861,1976
1631.4910410480993,1913
1633.5215900588028,1959
1635.551619799744,1910
1637.5811305247717,1899
1639.6101224878166,1837
1641.6385959428862,1812
1643.6665511440683,1775
1645.693988345528,1821
1647.7209078015112,1810
1649.7473097663405,1725
1651.7731944944203,1847
1653.7985622402307,1752
1655.823413258333,1829
1657.847747803366,1891
1659.8715661300494,1745
1661.8948684931793,1774
1663.9176551476316,1796
1665.9399263483624,1740
1667.9616823504057,1794
1669.982923408873,1828
1672.0036497789574,1772
1674.0238617159293,1737
1676.043559475138,1680
1678.0627433120121,1714
1680.081413482059,1712
1682.0995702408654,1720
1684.117213844096,1703
1686.134344547495,1769
1688.1509626068864,1772
1690.1670682781705,1716
1692.182661817329,1722
1694.1977434804217,1706
1696.2123135235875,1818
1698.226372203043,1728
1700.2399197750851,1678
1702.2529564960905,1776
1704.2654826225112,1720
1706.277498410882,1776
1708.2890041178139,1704
1710.2999999999988,1723
1712.3104863142066,1659
1714.3204633172854,1732
1716.329931266163,1661
1718.3388904178469,1711
1720.3473410294214,1684
1722.3552833580516,1667
1724.3627176609807,1724
1726.3696441955308,1685
1728.3760632191033,1678
1730.3819749891782,1706
1732.3873797633146,1609
1734.3922777991502,1695
1736.3966693544012,1628
1738.4005546868639,1668
1740.4039340544127,1616
1742.406807715001,1600
1744.4091759266616,1641
1746.4110389475054,1638
1748.4123970357223,1603
1750.413250449582,1643
1752.4135994474318,1606
1754.4134442876993,1576
1756.4127852288902,1648
1758.4116225295893,1643
1760.4099564484595,1586
1762.407787244244,1613
1764.405115175764,1596
1766.4019405019203,1579
1768.3982634816916,1588
1770.3940843741357,1573
1772.3894034383907,1598
1774.3842209336717,1537
1776.378537119274,1566
1778.372352254571,1550
1780.3656665990156,1535
1782.3584804121397,1519
1784.3507939535534,1527
1786.3426074829463,1555
1788.3339212600863,1563
1790.3247355448211,1470
1792.3150505970766,1551
1794.3048666768573,1559
1796.2941840442477,1531
1798.2830029594106,1572
1800.2713236825884,1486
1802.2591464741004,1541
1804.2464715943465,1606
1806.2332993038058,1459
1808.2196298630352,1520
1810.2054635326708,1519
1812.190800573428,1574
1814.175641246101,1552
1816.1599858115628,1585
1818.1438345307652,1547
1820.127187664738,1514
1822.1100454745924,1533
1824.092408221516,1534
1826.0742761667766,1463
1828.055649571721,1507
1830.0365286977735,1504
1832.0169138064398,1489
1833.9968051593014,1492
1835.9762030180214,1524
1837.9551076443408,1554
1839.9335193000788,1457
1841.9114382471344,1519
1843.888864747485,1552
1845.8657990631878,1456
1847.842241456378,1514
1849.8181921892697,1473
1851.7936515241558,1469
1853.7686197234098,1542
1855.7430970494815,1488
1857.7170837649014,1521
1859.6905801322787,1513
1861.6635864143004,1492
1863.6361028737338,1500
1865.608129773424,1470
1867.5796673762961,1551
1869.5507159453537,1507
1871.521275743678,1495
1873.4913470344313,1497
1875.4609300808534,1545
1877.4300251462632,1668
1879.3986324940588,1525
1881.366752387717,1555
1883.3343850907936,1590
1885.3015308669228,1550
1887.268189979819,1549
1889.2343626932739,1547
1891.2000492711595,1538
1893.1652499774254,1514
1895.1299650761011,1577
1897.0941948312952,1539
1899.0579395071945,1616
1901.0211993680641,1602
1902.98397467825,1546
1904.9462657021745,1576
1906.9080727043415,1572
1908.869395949332,1602
1910.8302357018065,1492
1912.790592226504,1499
1914.7504657882428,1608
1916.7098566519212,1555
1918.6687650825133,1519
1920.6271913450764,1596
1922.5851357047422,1619
1924.5425984267245,1546
1926.499579776314,1522
1928.4560800188833,1547
1930.4120994198802,1546
1932.367638244833,1540
1934.32269675935,1513
1936.2772752291175,1458
1938.231373919899,1574
1940.1849930975404,1560
1942.1381330279637,1513
1944.0907939771696,1465
1946.0429762112412,1507
1947.9946799963363,1519
1949.9459055986945,1491
1951.896653284633,1475
1953.8469233205478,1468
1955.7967159729142,1540
1957.7460315082863,1460
1959.6948701932974,1526
1961.6432322946594,1504
1963.5911180791632,1489
1965.5385278136787,1455
1967.4854617651545,1548
1969.4319202006182,1486
1971.377903387176,1493
1973.3234115920136,1488
1975.268445082395,1500
1977.2130041256642,1479
1979.1570889892423,1498
1981.1006999406304,1491
1983.04383724741,1502
1984.986501177238,1478
1986.928691997853,1476
1988.8704099770712,1444
1990.811655382789,1408
1992.7524284829801,1441
1994.692729545698,1474
1996.6325588390755,1444
1998.5719166313224,1473
2000.5108031907307,1427
2002.4492187856677,1456
2004.387163684583,1479
2006.3246381560011,1457
2008.2616424685298,1450
2010.1981768908527,1413
2012.1342416917332,1423
2014.069837140014,1462
2016.0049635046162,1411
2017.9396210545406,1411
2019.8738100588666,1416
2021.8075307867502,1382
2023.740783507431,1424
2025.6735684902228,1410
2027.6058860045214,1429
2029.5377363198004,1441
2031.4691197056118,1431
2033.4000364315875,1434
2035.3304867674374,1405
2037.260470982952,1430
2039.189989347998,1383
2041.1190421325232,1359
2043.047629606554,1388
2044.9757520401945,1360
2046.9034097036288,1423
2048.8306028671195,1361
2050.7573318010086,1420
2052.683596775716,1458
2054.609398061742,1369
2056.5347359296647,1404
2058.4596106501403,1400
2060.384022493906,1461
2062.3079717317764,1380
2064.231458634646,1360
2066.1544834734873,1401
2068.077046519352,1431
2069.99914804337,1435
2071.9207883167524,1447
2073.8419676107865,1444
2075.7626861968406,1399
2077.6829443463607,1393
2079.6027423308715,1439
2081.522080421977,1420
2083.440958891362,1381
2085.359378010786,1391
2087.2773380520907,1366
2089.194839287196,1353
2091.111881988101,1464
2093.0284664268825,1366
2094.9445928756973,1421
2096.86026160678,1367
2098.775472892446,1434
2100.690227005088,1414
2102.604524217178,1342
2104.5183648012676,1385
2106.431749029985,1482
2108.34467717604,1413
2110.2571495122206,1414
2112.169166311393,1410
2114.080727846503,1459
2115.9918343905747,1478
2117.902486216711,1352
2119.8126835980956,1457
2121.722426807987,1428
2123.6317161197285,1488
2125.5405518067364,1390
2127.448934142509,1425
2129.356863400624,1468
2131.264339854737,1443
2133.1713637785815,1423
2135.077935445972,1387
2136.9840551308002,1423
2138.889723107037,1395
2140.7949396487334,1411
2142.699705030018,1416
2144.6040195250994,1422
2146.507883408264,1442
2148.4112969538774,1489
2150.3142604363848,1482
2152.2167741303097,1473
2154.1188383102535,1425
2156.0204532508997,1420
2157.9216192270064,1440
2159.822336513414,1476
2161.7226053850413,1428
2163.622426116884,1401
2165.5217989840185,1408
2167.4207242616,1462
2169.319202224862,1456
2171.2172331491165,1402
2173.1148173097563,1456
2175.0119549822507,1444
2176.90864644215,1444
2178.8048919650823,1490
2180.7006918267534,1423
2182.596046302952,1440
2184.4909556695407,1454
2186.3854202024645,1485
2188.279440177746,1463
2190.173015871487,1475
2192.066147559868,1455
2193.958835519149,1484
2195.851080025667,1505
2197.7428813558417,1412
2199.6342397861667,1453
2201.5251555932186,1469
2203.415629053651,1484
2205.3056604441986,1483
2207.19525004167,1489
2209.084398122958,1514
2210.9731049650327,1499
2212.861370844941,1560
2214.749196039812,1474
2216.636580826851,1527
2218.523525483344,1504
2220.410030286655,1539
2222.296095514226,1503
2224.1817214435805,1480
2226.066908352319,1490
2227.951656518121,1513
2229.835966218746,1455
2231.71983773203,1502
2233.6032713358913,1474
2235.486267308324,1537
2237.3688259274036,1446
2239.2509474712824,1470
2241.132632218193,1472
2243.013880446447,1507
2244.8946924344323,1561
2246.7750684606203,1479
2248.6550088035574,1441
2250.534513741871,1468
2252.413583554265,1477
2254.292218519526,1492
2256.170418916517,1506
2258.0481850241786,1456
2259.925517121534,1527
2261.8024154876825,1540
2263.678880401803,1444
2265.5549121431536,1428
2267.430510991071,1494
2269.305677224971,1529
2271.180411124348,1508
2273.0547129687766,1470
2274.9285830379076,1466
2276.8020216114737,1498
2278.6750289692845,1450
2280.5476053912294,1516
2282.4197511572766,1530
2284.2914665474727,1519
2286.162751841943,1551
2288.0336073208937,1552
2289.904033264608,1508
2291.774029953448,1516
2293.6435976678554,1465
2295.5127366883517,1465
2297.381447295534,1501
2299.2497297700825,1471
2301.1175843927526,1433
2302.9850114443825,1416
2304.852011205885,1362
2306.7185839582553,1299
2308.5847299825664,1296
2310.4504495599676,1328
2312.3157429716925,1278
2314.1806104990483,1300
2316.0450524234247,1301
2317.9090690262888,1331
2319.772660589186,1349
2321.635827393742,1370
2323.498569721661,1358
2325.3608878547248,1314
2327.2227820747967,1273
2329.0842526638157,1313
2330.945299903803,1296
2332.805924076857,1302
2334.6661254651535,1309
2336.525904350951,1325
2338.3852610165827,1307
2340.244195744464,1268
2342.102708817088,1366
2343.9608005170253,1333
2345.8184711269287,1336
2347.675720929526,1344
2349.532550207628,1339
2351.38895924412,1289
2353.24494832197,1271
2355.100517724223,1358
2356.955667734004,1326
2358.810398634514,1362
2360.664710709037,1342
2362.5186042409337,1288
2364.3720795136437,1349
2366.225136810686,1359
2368.0777764156583,1369
2369.929998612237,1351
2371.7818036841777,1393
2373.633191915315,1350
2375.484163589562,1394
2377.3347189909114,1310
2379.184858403434,1359
2381.03458211128,1295
2382.8838903986775,1387
2384.732783549936,1339
2386.5812618494406,1376
2388.4293255816588,1371
2390.2769750311327,1352
2392.1242104824883,1416
2393.971032220427,1430
2395.8174405297295,1421
2397.6634356952563,1393
2399.509018001947,1400
2401.3541877348193,1415
2403.1989451789705,1366
2405.043290619576,1348
2406.8872243418905,1410
2408.730746631247,1345
2410.5738577730594,1374
2412.4165580528183,1360
2414.258847756095,1328
2416.100727168537,1392
2417.9421965758734,1370
2419.783256263912,1405
2421.623906518538,1363
2423.4641476257157,1410
2425.303979871491,1386
2427.143403541984,1368
2428.9824189233977,1365
2430.821026302012,1327
2432.6592259641866,1432
2434.497018196361,1347
2436.33440328505,1370
2438.171381516851,1331
2440.00795317844,1407
2441.844118556569,1385
2443.6798779380724,1401
2445.5152316098606,1392
2447.3501798589255,1384
2449.1847229723357,1388
2451.0188612372403,1345
2452.8525949408663,1437
2454.6859243705203,1395
2456.518849813587,1383
2458.3513715575314,1425
2460.183489889895,1417
2462.015205098301,1448
2463.8465174704493,1424
2465.67742729412,1430
2467.5079348571717,1418
2469.338040447542,1411
2471.1677443532476,1417
2472.9970468623833,1370
2474.825948263123,1447
2476.6544488437207,1442
2478.482548892508,1459
2480.310248697896,1421
2482.137548548374,1476
2483.9644487325118,1384
2485.790949538956,1402
2487.617051256433,1401
2489.44275417375,1440
2491.26805857979,1416
2493.0929647635157,1358
2494.917473013971,1446
2496.741583620276,1404
2498.5652968716304,1497
2500.3886130573137,1436
2502.2115324666834,1481
2504.0340553891765,1480
2505.856182114308,1479
2507.6779129316733,1435
2509.499248130945,1519
2511.3201880018764,1495
2513.140732834298,1462
2514.9608829181198,1467
2516.780638543331,1445
2518.6,1486
2520.418967578273,1526
2522.237541568376,1485
2524.0557222606144,1537
2525.8735099453706,1534
2527.6909049131086,1491
2529.507907454368,1486
2531.32451785977,1568
2533.140736420014,1540
2534.9565634258774,1563
2536.771999168218,1596
2538.5870439379714,1623
2540.4016980261526,1574
2542.2159617238544,1583
2544.02983532225,1677
2545.8433191125914,1625
2547.656413386209,1661
2549.4691184345115,1697
2551.2814345489874,1708
2553.093362021204,1710
2554.904901142808,1784
2556.716052205523,1686
2558.526815501153,1740
2560.3371913215824,1762
2562.147179958771,1760
2563.956781704761,1792
2565.7659968516705,1802
2567.5748256916986,1884
2569.3832685171224,1833
2571.1913256202984,1734
2572.9989972936614,1832
2574.806283829725,1810
2576.613185521084,1897
2578.4197026604074,1878
2580.2258355404483,1906
2582.031584454035,1838
2583.836949694077,1850
2585.6419315535613,1811
2587.4465303255533,1920
2589.2507463032002,1921
2591.0545797797245,1868
2592.8580310484303,1942
2594.6611004026995,1943
2596.463788135992,1879
2598.266094541849,1876
2600.0680199138874,1940
2601.869564545807,1881
2603.670728731383,1956
2605.4715127644704,1954
2607.2719169390048,1896
2609.071941548998,1906
2610.8715868885433,1955
2612.670853251811,1872
2614.469740933052,1909
2616.268250226594,1891
2618.0663814268455,1906
2619.864134828292,1894
2621.6615107255006,1892
2623.458509413115,1839
2625.2551311858597,1860
2627.0513763385347,1759
2628.8472451660223,1759
2630.6427379632833,1836
2632.4378550253564,1801
2634.232596647359,1741
2636.026963124488,1815
2637.8209547520187,1721
2639.6145718253065,1711
2641.407814639785,1736
2643.200683490966,1748
2644.9931786744414,1710
2646.7853004858807,1676
2648.577049221034,1684
2650.3684251757277,1604
2652.1594286458712,1682
2653.9500599274484,1594
2655.740319316525,1676
2657.5302071092437,1612
2659.3197236018286,1594
2661.10886909058,1600
2662.8976438718782,1514
2664.686048242183,1620
2666.4740824980327,1605
2668.2617469360443,1570
2670.0490418529134,1522
2671.8359675454153,1509
2673.622524310403,1516
2675.408712444811,1485
2677.1945322456495,1496
2678.979984010009,1486
2680.76506803506,1473
2682.5497846180497,1464
2684.334134056306,1451
2686.1181166472343,1454
2687.9017326883213,1454
2689.6849824771293,1445
2691.4678663113013,1407
2693.2503844885596,1439
2695.032537306705,1444
2696.8143250636167,1416
2698.5957480572542,1431
2700.3768065856534,1427
2702.1575009469316,1363
2703.937831439283,1428
2705.717798360982,1344
2707.4974020103837,1447
2709.276642685917,1377
2711.055520686095,1338
2712.834036309506,1408
2714.612189854819,1380
2716.389981620782,1323
2718.1674119062204,1325
2719.944481010041,1340
2721.721189231226,1381
2723.4975368688415,1369
2725.273524222027,1337
2727.0491515900053,1354
2728.824419272075,1376
2730.5993275676146,1363
2732.3738767760838,1346
2734.148067197016,1354
2735.921899130031,1351
2737.6953728748194,1288
2739.468488731156,1300
2741.2412469988926,1304
2743.0136479779617,1260
2744.785691968372,1278
2746.5573792702116,1292
2748.3287101836504,1292
2750.099685008934,1333
2751.870304046388,1305
2753.640567596418,1326
2755.4104759595057,1284
2757.1800294362156,1320
2758.949228327187,1247
2760.7180729331412,1292
2762.486563554877,1326
2764.254700493272,1303
2766.022484049284,1238
2767.789914523947,1288
2769.5569922183786,1321
2771.3237174337705,1289
2773.090090471394,1272
2774.8561116326036,1339
2776.6217812188274,1265
2778.3870995315756,1304
2780.1520668724356,1347
2781.9166835430747,1218
2783.6809498452394,1292
2785.444866080754,1305
2787.2084325515225,1247
2788.971649559527,1301
2790.73451740683,1274
2792.4970363955713,1264
2794.2592068279705,1273
2796.0210290063264,1242
2797.7825032330147,1338
2799.543629810493,1259
2801.304409041296,1254
2803.0648412280366,1288
2804.8249266734088,1310
2806.5846656801846,1272
2808.344058551212,1294
2810.1031055894246,1260
2811.8618070978273,1327
2813.6201633795085,1295
2815.378174737636,1297
2817.1358414754536,1306
2818.893163896285,1302
2820.6501423035334,1296
2822.4067770006814,1270
2824.1630682912883,1247
2825.9190164789957,1239
2827.6746218675207,1279
2829.429884760661,1316
2831.184805462294,1310
2832.9393842763743,1233
2834.693621506936,1263
2836.4475174580916,1294
2838.201072434034,1360
2839.954286739034,1273
2841.707160677441,1263
2843.459694553685,1283
2845.2118886722724,1350
2846.96374333779,1287
2848.7152588549034,1291
2850.4664355283567,1305
2852.217273662973,1294
2853.9677735636546,1358
2855.7179355353833,1290
2857.4677598832186,1290
2859.217246912299,1329
2860.9663969278427,1340
2862.715210235146,1262
2864.4636871395846,1273
2866.211827946614,1226
2867.9596329617652,1256
2869.7071024906536,1262
2871.4542368389684,1270
2873.20103631248,1269
2874.947501217038,1219
2876.6936318585695,1298
2878.4394285430812,1263
2880.1848915766604,1300
2881.9300212654707,1266
2883.6748179157553,1267
2885.4192818338374,1239
2887.1634133261173,1297
2888.907212699077,1278
2890.6506802592744,1266
2892.393816313348,1352
2894.1366211680142,1298
2895.8790951300693,1297
2897.621238506388,1328
2899.363051603925,1265
2901.1045347297118,1278
2902.8456881908596,1252
2904.58651229456,1237
2906.327007348081,1302
2908.067173658772,1271
2909.8070115340597,1231
2911.5465212814497,1239
2913.285703208527,1191
2915.0245576229563,1282
2916.7630848324807,1271
2918.5012851449196,1266
2920.2391588681758,1247
2921.976706310227,1273
2923.7139277791334,1296
2925.4508235830313,1275
2927.187394030137,1241
2928.923639428745,1273
2930.6595600872306,1263
2932.395156314046,1224
2934.1304284177218,1216
2935.8653767068713,1270
2937.6000014901815,1260
2939.3343030764227,1278
2941.068281774442,1314
2942.8019378931644,1250
2944.5352717415976,1272
2946.2682836288236,1271
2948.0009738640065,1279
2949.7333427563885,1267
2951.465390615289,1237
2953.1971177501086,1263
2954.9285244703265,1325
2956.6596110855,1299
2958.3903779052657,1246
2960.1208252393385,1278
2961.8509533975125,1269
2963.5807626896617,1270
2965.3102534257378,1282
2967.0394259157715,1236
2968.768280469873,1226
2970.496817398232,1231
2972.2250370111146,1271
2973.952939618869,1268
2975.6805255319196,1306
2977.4077950607707,1263
2979.134748516006,1344
2980.861386208289,1266
2982.587708448359,1309
2984.313715547037,1237
2986.039407815222,1254
2987.764785563891,1311
2989.489849104102,1245
2991.2145987469908,1277
2992.9390348037705,1294
2994.6631575857346,1260
2996.3869674042576,1271
2998.1104645707887,1265
2999.83364939686,1241
3001.5565221940783,1231
3003.2790832741334,1221
3005.0013329487924,1252
3006.7232715298996,1245
3008.4448993293804,1266
3010.166216659239,1255
3011.887223831558,1326
3013.607921158498,1274
3015.3283089522993,1244
3017.0483875252826,1245
3018.7681571898443,1246
3020.4876182584626,1226
3022.2067710436927,1233
3023.9256158581707,1297
3025.644153014609,1270
3027.362382825801,1284
3029.0803056046193,1250
3030.797921664012,1285
3032.5152313170106,1312
3034.2322348767225,1232
3035.9489326563353,1268
3037.665324969115,1266
3039.3814121284063,1196
3041.097194447633,1226
3042.812672240299,1264
3044.5278458199855,1275
3046.2427155003525,1270
3047.9572815951406,1282
3049.671544418167,1288
3051.38550428333,1249
3053.0991615046073,1221
3054.812516396051,1298
3056.5255692717974,1287
3058.2383204460575,1299
3059.9507702331257,1250
3061.662918947372,1259
3063.3747669032446,1318
3065.0863144152736,1287
3066.7975617980674,1237
3068.508509366309,1260
3070.219157434767,1287
3071.9295063182844,1272
3073.639556331785,1281
3075.3493077902704,1279
3077.058761008821,1242
3078.7679163025964,1189
3080.476773986837,1293
3082.1853343768594,1220
3083.89359778806,1264
3085.6015645359153,1243
3087.3092349359786,1258
3089.016609303884,1251
3090.7236879553434,1248
3092.4304712061476,1246
3094.136959372166,1223
3095.843152769349,1344
3097.5490517137237,1249
3099.2546565213966,1255
3100.959967508554,1255
3102.66498499146,1264
3104.3697092864577,1219
3106.0741407099695,1251
3107.778279578498,1237
3109.482126208622,1289
3111.1856809170004,1263
3112.8889440203716,1299
3114.5919158355528,1304
3116.294596679439,1280
3117.996986869006,1314
3119.6990867213062,1287
3121.4008965534726,1286
3123.102416682717,1256
3124.803647426329,1285
3126.5045891016784,1253
3128.205242026213,1236
3129.90560651746,1282
3131.605682893025,1262
3133.3054714705922,1312
3135.0049725679282,1292
3136.7041865028714,1281
3138.4031135933465,1209
3140.101754157353,1335
3141.800108512971,1264
3143.498176978357,1277
3145.1959598717494,1279
3146.8934575114636,1278
3148.5906702158954,1266
3150.2875983035183,1259
3151.9842420928853,1244
3153.680601902627,1285
3155.376678051456,1262
3157.07247085816,1264
3158.767980641609,1253
3160.463207720748,1202
3162.158152414606,1244
3163.8528150422862,1233
3165.5471959229726,1267
3167.2412953759303,1217
3168.9351137204976,1293
3170.628651276098,1199
3172.3219083622307,1265
3174.014885298474,1224
3175.707582404485,1267
3177.4000000000005,1320
3179.092138404835,1223
3180.7839979388846,1266
3182.47557892212,1249
3184.166881674594,1204
3185.8579065164386,1211
3187.5486537678626,1240
3189.2391237491547,1245
3190.9293167806827,1291
3192.6192331828934,1235
3194.3088732763117,1218
3195.998237381542,1246
3197.687325819268,1204
3199.376138910251,1177
3201.064676975334,1222
3202.7529403354347,1232
3204.4409293115523,1222
3206.1286442247647,1246
3207.816085396229,1264
3209.5032531471825,1214
3211.190147798936,1213
3212.8767696728846,1181
3214.5631190905015,1258
3216.2491963733373,1216
3217.9350018430214,1224
3219.6205358212637,1211
3221.305798629851,1233
3222.990790590651,1218
3224.6755120256103,1194
3226.359963256751,1210
3228.0441446061795,1208
3229.7280563960758,1200
3231.411698948703,1209
3233.0950725863995,1207
3234.778177631587,1231
3236.461014406761,1251
3238.1435832345005,1220
3239.8258844374595,1223
3241.507918338374,1225
3243.1896852600576,1252
3244.8711855254023,1252
3246.552419457381,1223
3248.233387379042,1230
3249.914089613516,1248
3251.59452648401,1242
3253.274698313813,1231
3254.95460542629,1199
3256.6342481448855,1191
3258.313626793125,1221
3259.9927416946084,1180
3261.6715931730196,1177
3263.3501815521176,1230
3265.0285071557437,1231
3266.706570307815,1224
3268.3843713323286,1199
3270.0619105533615,1197
3271.739188295068,1198
3273.4162048816834,1257
3275.0929606375184,1247
3276.769455886966,1235
3278.445690954498,1216
3280.1216661646613,1154
3281.797381842087,1243
3283.4728383114807,1223
3285.1480358976296,1244
3286.8229749253996,1250
3288.4976557197333,1246
3290.172078605655,1247
3291.846243908266,1234
3293.5201519527463,1227
3295.193803064357,1222
3296.8671975684374,1115
3298.5403357904024,1191
3300.21321805575,1245
3301.8858446900567,1217
3303.558216018975,1243
3305.23033236824,1193
3306.9021940636603,1216
3308.57380143113,1164
3310.2451547966184,1218
3311.916254486174,1240
3313.5871008259246,1224
3315.2576941420766,1201
3316.9280347609147,1238
3318.5981230088046,1231
3320.2679592121895,1248
3321.9375436975924,1207
3323.606876791612,1222
3325.27595882093,1227
3326.944790112305,1265
3328.6133709925753,1225
3330.2817017886573,1220
3331.949782827547,1233
3333.617614436319,1208
3335.2851969421245,1288
3336.952530672199,1186
3338.619615953853,1221
3340.286453114475,1244
3341.9530424815357,1219
3343.619384382583,1275
3345.2854791452437,1192
3346.951327097224,1186
3348.6169285663073,1207
3350.2822838803577,1201
3351.947393367319,1219
3353.61225735521,1242
3355.2768761721345,1246
3356.9412501462693,1212
3358.605379605873,1178
3360.2692648792827,1182
3361.9329062949146,1216
3363.596304181263,1238
