CollectionTime,9/20/2024 1:00:04 PM
ExposureUsed,3
CalibratedSpectrum
-962.7078968117929,621
-959.9714848408522,685
-957.2358232597828,707
-954.5009119013725,732
-951.7667505983302,747
-949.0333391832855,754
-946.3006774887896,735
-943.5687653473143,682
-940.837602591253,741
-938.1071890529199,757
-935.3775245645503,737
-932.6486089583007,712
-929.9204420662485,691
-927.1930237203925,696
-924.4663537526524,706
-921.7404319948689,745
-919.0152582788041,728
-916.2908324361409,728
-913.5671542984834,688
-910.8442236973568,673
-908.1220404642074,682
-905.4006044304027,701
-902.679915427231,715
-899.959973285902,679
-897.2407778375464,673
-894.5223289132158,665
-891.8046263438832,664
-889.0876699604426,692
-886.3714595937089,693
-883.6559950744183,661
-880.9412762332282,669
-878.2273029007168,676
-875.5140749073835,666
-872.8015920836489,664
-870.0898542598545,634
-867.3788612662631,625
-864.6686129330585,671
-861.9591090903457,636
-859.2503495681506,645
-856.5423341964203,631
-853.8350628050229,664
-851.1285352237478,675
-848.4227512823054,650
-845.7177108103272,677
-843.0134136373656,679
-840.3098595928943,695
-837.6070485063082,676
-834.9049802069229,670
-832.2036545239757,671
-829.5030712866244,711
-826.8032303239481,702
-824.1041314649472,664
-821.4057745385428,660
-818.7081593735775,662
-816.0112857988148,642
-813.3151536429393,661
-810.6197627345566,676
-807.9251129021936,669
-805.2312039742981,657
-802.5380357792392,687
-799.8456081453069,673
-797.1539209007124,660
-794.462973873588,658
-791.772766891987,717
-789.083299783884,730
-786.3945723771743,689
-783.7065844996748,726
-781.0193359791231,692
-778.3328266431781,710
-775.6470563194197,675
-772.9620248353489,682
-770.2777320183878,683
-767.5941776958798,666
-764.9113616950891,696
-762.2292838432011,680
-759.5479439673222,656
-756.8673418944801,661
-754.1874774516235,706
-751.5083504656222,691
-748.8299607632671,700
-746.15230817127,688
-743.475392516264,689
-740.7992136248035,685
-738.1237713233636,649
-735.4490654383407,689
-732.7750957960521,696
-730.1018622227365,704
-727.4293645445534,736
-724.7576025875837,743
-722.0865761778291,730
-719.4162851412126,748
-716.7467293035781,733
-714.0779084906909,721
-711.409822528237,743
-708.7424712418238,760
-706.0758544569796,763
-703.4099719991541,781
-700.7448236937178,768
-698.0804093659622,769
-695.4167288411002,758
-692.7537819442656,783
-690.0915685005134,743
-687.4300883348199,763
-684.7693412720819,732
-682.1093271371178,799
-679.4500457546669,779
-676.7914969493897,787
-674.1336805458676,791
-671.4765963686034,808
-668.8202442420206,793
-666.1646239904642,804
-663.5097354382001,814
-660.8555784094151,800
-658.2021527282176,769
-655.5494582186366,794
-652.8974947046223,801
-650.2462620100463,792
-647.5957599587009,824
-644.9459883742998,804
-642.2969470804776,835
-639.6486359007902,809
-637.0010546587141,804
-634.3542031776476,864
-631.7080812809096,819
-629.0626887917401,819
-626.4180255333008,788
-623.7740913286734,845
-621.1308860008619,813
-618.4884093727904,818
-615.8466612673046,859
-613.2056415071715,815
-610.5653499150785,803
-607.9257863136347,839
-605.28695052537,842
-602.6488423727357,821
-600.0114616781036,820
-597.3748082637674,834
-594.7388819519412,860
-592.1036825647604,880
-589.4692099242818,855
-586.8354638524829,823
-584.2024441712624,821
-581.5701507024403,820
-578.9385832677575,840
-576.3077416888759,847
-573.6776257873787,804
-571.0482353847704,829
-568.4195703024757,826
-565.7916303618415,804
-563.164415384135,839
-560.5379251905453,851
-557.9121596021815,848
-555.2871184400748,873
-552.6628015251767,857
-550.0392086783606,845
-547.4163397204204,885
-544.794194472071,928
-542.1727727539491,934
-539.5520743866118,942
-536.9320991905377,908
-534.3128469861261,977
-531.6943175936979,1001
-529.0765108334947,950
-526.4594265256793,1028
-523.8430644903358,1218
-521.2274245474689,1344
-518.612506517005,1435
-515.9983102187913,1452
-513.3848354725959,1518
-510.77208209810846,1517
-508.16004991493924,1641
-505.5487387426199,1820
-502.9381484006032,1911
-500.3282787082628,1914
-497.71912948489364,1928
-495.1107005497117,1791
-492.5029917218539,1592
-489.8960028203786,1434
-487.28973366426493,1293
-484.68418407241325,1232
-482.07935386364494,1109
-479.47524285670266,1126
-476.87185087025,1088
-474.2691777228715,1064
-471.66722323307334,1079
-469.0659872192821,1065
-466.4654694998459,1074
-463.86566989303384,1136
-461.26658821703614,1093
-458.66822428996414,1060
-456.07057792985,1089
-453.4736489546475,1073
-450.877437182231,1064
-448.28194243039627,1021
-445.68716451686,997
-443.09310325926003,993
-440.49975847515555,1003
-437.9071299820263,1008
-435.31521759727354,1006
-432.72402113821954,1080
-430.13354042210767,1065
-427.5437752661022,1022
-424.95472548728867,1017
-422.36639090267386,1061
-419.7787713291855,1081
-417.1918665836721,1059
-414.60567648290385,1123
-412.0202008435715,1103
-409.4354394822874,1086
-406.8513922155845,1136
-404.26805885991723,1171
-401.685439231661,1090
-399.103533147112,1163
-396.522340422488,1137
-393.9418608739278,1105
-391.3620943174908,1059
-388.7830405691583,1072
-386.2046994448317,992
-383.6270707603344,972
-381.05015433141045,985
-378.473949973725,889
-375.8984575028645,898
-373.32367673433623,773
-370.74960748356875,726
-368.1762495659117,762
-365.60360279663576,681
-363.03166699093265,629
-360.4604419639154,554
-357.8899275306178,570
-355.32012350599507,557
-352.7510297049233,539
-350.1826459421999,549
-347.61497203254316,565
-345.04800779059235,513
-342.4817530309082,492
-339.91620756797226,554
-337.35137121618743,589
-334.7872437898774,560
-332.22382510328725,534
-329.66111497058273,522
-327.09911320585127,561
-324.53781962310075,529
-321.9772340362607,503
-319.4173562591816,488
-316.8581861056348,540
-314.2997233893127,473
-311.7419679238294,502
-309.1849195227194,539
-306.62857799943856,593
-304.0729431673641,595
-301.51801483979375,530
-298.963792829947,527
-296.41027695096386,527
-293.85746701590574,579
-291.3053628377552,662
-288.7539642294155,613
-286.2032710037115,649
-283.65328297338897,610
-281.1039999511146,625
-278.5554217494762,637
-276.007548180983,569
-273.4603790580651,609
-270.9139141930734,617
-268.3681533982807,617
-265.8230964858798,645
-263.27874326798565,636
-260.7350935566336,672
-258.1921471637804,703
-255.6499039013039,735
-253.10836358100266,776
-250.56752601459698,738
-248.02739101372765,747
-245.48795838995704,805
-242.94922795476816,709
-240.41119951956557,793
-237.8738728956746,785
-235.33724789434166,771
-232.80132432673452,748
-230.2661020039418,697
-227.73158073697357,760
-225.19776033676033,846
-222.66464061415422,887
-220.1322213799284,844
-217.60050244477725,791
-215.06948361931552,826
-212.53916471408013,888
-210.00954553952818,910
-207.48062590603843,784
-204.9524056239104,850
-202.4248845033651,898
-199.8980623545441,823
-197.37193898751036,879
-194.84651421224817,884
-192.32178783866232,879
-189.79775967657952,856
-187.27442953574644,934
-184.7517972258321,1008
-182.2298625564256,945
-179.7086253370378,844
-177.18808537710026,892
-174.66824248596583,982
-172.14909647290835,912
-169.6306471471229,925
-167.11289431772548,867
-164.59583779375328,966
-162.07947738416453,965
-159.5638128978386,1103
-157.04884414357605,1159
-154.53457093009854,1171
-152.02099306604828,972
-149.50811035998936,914
-146.99592262040665,1119
-144.48442965570587,1260
-141.97363127421409,1248
-139.46352728417958,1339
-136.95411749377126,1439
-134.44540171107985,1218
-131.93737974411636,1153
-129.43005140081357,1267
-126.92341648902493,1293
-124.41747481652521,1353
-121.91222619101006,1389
-119.40767042009657,1633
-116.90380731132257,2153
-114.40063667214702,3081
-111.8981583099503,4850
-109.3963720320337,7310
-106.89527764561933,10247
-104.39487495785067,11465
-101.89516377579241,12212
-99.39614390642998,14982
-96.89781515667039,20882
-94.40017733334128,27771
-91.90323024319173,28641
-89.40697369289148,19470
-86.91140748903172,12574
-84.41653143812482,9746
-81.92234534660395,14115
-79.42884902082358,19425
-76.93604226705907,21412
-74.4439248915071,19587
-71.95249670028534,15386
-69.46175749943245,13058
-66.97170709490854,11767
-64.48234529259423,10027
-61.99367189829195,8417
-59.50568671772464,7673
-57.01838955653636,10306
-54.53178022029283,15630
-52.045858514480074,18610
-49.560624244506016,19414
-47.07607721569923,19243
-44.59221723330904,17680
-42.10904410250669,15907
-39.62655762838392,16617
-37.14475761595372,17343
-34.66364387015028,17291
-32.18321619582866,18668
-29.70347439776515,19779
-27.224418280657005,18344
-24.74604764912317,23798
-22.26836230770266,34553
-19.7913620608565,62942
-17.315046712966478,65037
-14.83941606833514,65037
-12.36446993118659,65037
-9.89020810566592,65037
-7.416630395839093,65037
-4.94373660569363,65037
-2.471526539137585,65037
-6.821210263296962E-13,65037
2.47084320796705,65037
4.941003281093458,65037
7.410480415786196,65037
9.879274808531363,65037
12.347386655893956,65037
14.814816154518212,65037
17.28156350112681,65037
19.74762889252179,65037
22.21301252558385,27110
24.67771459727237,7894
27.141735304626195,6393
29.605074844762612,6736
32.06773341487792,5676
34.52971121224755,4808
36.99100843422559,4708
39.45162527824516,4657
41.91156194181792,3084
44.370818622535126,3155
46.82939551806646,2805
49.287292826160524,4312
51.74451074464503,5597
54.201049471426245,3752
56.65690920448981,2516
59.112090141899785,2215
61.56659248179983,2090
64.02041642241159,2755
66.4735621620365,2892
68.92602989905402,3217
71.37781983192338,3186
73.82893215918205,2594
76.27936707944684,2011
78.72912479141326,2328
81.17820549385567,2353
83.62660938562783,1701
86.07433666566146,1566
88.5213875329681,1568
90.96776218663751,1860
93.41346082583925,1877
95.85848364982041,2148
98.30283085790859,2235
100.7465026495089,1510
103.18949922410604,1648
105.63182078126385,1493
108.07346752062438,1605
110.51443964190923,1516
112.95473734491827,1353
115.39436082953114,1566
117.83331029570547,1273
120.27158594347827,1340
122.7091879729652,1342
125.1461165843615,1231
127.58237197794062,1062
130.01795435405518,1063
132.4528639131364,1189
134.88710085569494,1206
137.32066538231982,1313
139.75355769367923,1431
142.1857779905207,1406
144.61732647366978,1211
147.04820334403132,1080
149.47840880258934,1131
151.90794305040674,1136
154.33680628862487,1238
156.76499871846443,1320
159.19252054122433,1579
161.61937195828352,1784
164.04555317109896,1902
166.47106438120693,2096
168.89590579022217,2224
171.320077599839,2376
173.7435800118302,2427
176.16641322804742,2683
178.58857745042144,2911
181.01007288096173,2932
183.43089972175687,3003
185.85105817497413,2950
188.27054844285988,2955
190.6893707277394,2942
193.10752523201643,2896
195.5250121581745,2939
197.9418317087751,3014
200.3579840864594,3082
202.7734694939469,3069
205.18828813403627,3173
207.6024402096051,3328
210.01592592360964,3320
212.42874547908548,3294
214.84089907914665,3259
217.2523869269868,3230
219.66320922587727,3126
222.0733661791695,3162
224.48285799029293,3273
226.8916848627572,3216
229.29984700014882,3253
231.7073446061355,3333
234.11417788446204,3405
236.520347038953,3496
238.92585227351185,3565
241.33069379212054,3656
243.73487179884035,3682
246.1383864978112,3719
248.541238093252,3754
250.9434267894609,3870
253.34495279081432,3705
255.74581630176783,3852
258.1460175268563,3803
260.54555667069314,3968
262.9444339379703,3904
265.3426495334594,3713
267.7402036620107,3620
270.1370965285529,3530
272.53332833809407,3402
274.9288992957214,3230
277.32380960660055,3072
279.718059475976,3015
282.1116491091717,3062
284.5045787115897,3049
286.89684848871195,2938
289.2884586460981,3002
291.67940938938807,2995
294.0697009242996,3077
296.4593334566299,3039
298.84830719225477,2973
301.23662233712923,2802
303.6242790972866,2829
306.01127767884,2807
308.39761828798066,2833
310.78330113097934,2802
313.16832641418534,2611
315.5526943440269,2631
317.9364051270112,2688
320.3194589697242,2712
322.70185607883093,2709
325.0835966610754,2634
327.4646809232805,2500
329.8451090723478,2567
332.2248813152577,2537
334.6039978590701,2574
336.9824589109231,2543
339.36026467803447,2500
341.7374153677,2409
344.113911187295,2342
346.48975234427337,2451
348.8649390461686,2474
351.2394715005918,2360
353.61334991523415,2367
355.9865744978655,2323
358.35914545633375,2475
360.73106299856715,2367
363.10232733257146,2333
365.47293866643247,2335
367.84289720831396,2324
370.2122031664593,2214
372.5808567491905,2281
374.9488581649083,2256
377.31620762209275,2183
379.6829053293021,2280
382.0489514951745,2207
384.4143463284262,2208
386.7790900378528,2214
389.14318283232853,2229
391.50662492080653,2238
393.86941651231916,2243
396.23155781597745,2235
398.5930490409713,2218
400.9538903965696,2199
403.3140820921202,2179
405.6736243370498,2183
408.03251734086336,2116
410.3907613131465,2103
412.74835646356166,2152
415.10530300185144,2174
417.4616011378372,2227
419.81725108141893,2227
422.1722530425758,2136
424.5266072313656,2174
426.880313857925,2183
429.2333731324701,2082
431.58578526529516,2147
433.9375504667738,2207
436.2886689473588,2182
438.63914091758113,2193
440.9889665880513,2160
443.33814616945835,2084
445.68667987257015,2099
448.03456790823395,2057
450.3818104873759,2082
452.72840782100013,2069
455.07436012019105,2136
457.41966759611057,2117
459.7643304600007,2060
462.10834892318155,2094
464.4517231970525,2035
466.79445349309174,2020
469.1365400228566,2073
471.4779829979826,2075
473.81878263018564,2161
476.15893913125876,2065
478.4984527130747,2164
480.8373235875855,2227
483.17555196682144,2258
485.5131380628919,2326
487.8500820879857,2427
490.1863842543697,2525
492.52204477439034,2692
494.8570638604725,2957
497.1914417251204,3251
499.52517858091653,3554
501.85827464052306,3965
504.19073011668036,3997
506.5225452222086,4019
508.85372017000566,3990
511.18425517304956,4057
513.514150444396,4310
515.8434061971808,5332
518.1720226446176,6278
520.4999999999999,6400
522.8273384766991,5972
525.1540382881666,5613
527.480099647932,4973
529.8055227696037,4214
532.1303078668694,3138
534.454455153496,2643
536.777964843328,2316
539.1008371502907,2255
541.4230722883866,2175
543.744670471698,2103
546.0656319143858,2239
548.3859568306899,2111
550.7056454349294,2031
553.0246979415016,2120
555.3431145648834,2087
557.6608955196306,2019
559.978041020377,2061
562.2945512818363,2059
564.6104265188006,2127
566.9256669461412,2191
569.2402727788082,2081
571.5542442318302,2125
573.8675815203156,2158
576.1802848594508,2156
578.4923544645015,2143
580.8037905508126,2238
583.114593333807,2097
585.4247630289875,2177
587.7342998519354,2161
590.0432040183106,2204
592.3514757438526,2240
594.6591152443794,2194
596.9661227357875,2168
599.2724984340531,2226
601.578242555231,2067
603.8833553154542,2180
606.1878369309362,2064
608.4916876179676,2088
610.7949075929192,2070
613.0974970722403,2106
615.3994562724587,2145
617.7007854101818,2185
620.0014847020951,2217
622.3015543649641,2157
624.6009946156324,2242
626.8998056710224,2178
629.1979877481361,2199
631.4955410640538,2207
633.7924658359349,2211
636.0887622810175,2286
638.3844306166192,2182
640.6794710601358,2159
642.9738838290426,2176
645.2676691408932,2225
647.5608272133207,2300
649.853358264037,2253
652.1452625108324,2282
654.4365401715764,2332
656.7271914642178,2257
659.0172166067838,2278
661.3066158173809,2190
663.5953893141935,2249
665.8835373154867,2355
668.1710600396028,2254
670.4579577049639,2239
672.7442305300709,2295
675.0298787335033,2234
677.3149025339197,2223
679.599302150058,2189
681.8830778007342,2160
684.1662297048437,2206
686.4487580813608,2203
688.7306631493387,2219
691.0119451279091,2235
693.2926042362834,2242
695.5726406937516,2202
697.8520547196814,2172
700.1308465335215,2189
702.4090163547982,2148
704.6865644031171,2185
706.9634908981619,2197
709.2397960596965,2143
711.5154801075631,2134
713.7905432616823,2174
716.0649857420548,2239
718.3388077687592,2213
720.612009561953,2236
722.8845913418733,2149
725.1565533288352,2203
727.427895743234,2198
729.6986188055427,2153
731.9687227363137,2219
734.238207756178,2151
736.5070740858458,2204
738.7753219461066,2133
741.0429515578281,2198
743.3099631419569,2197
745.5763569195191,2168
747.8421331116193,2076
750.1072919394409,2146
752.3718336242467,2087
754.6357583873777,2095
756.8990664502545,2164
759.1617580343765,2093
761.423833361321,2189
763.6852926527457,2076
765.9461361303862,2133
768.206364016058,2129
770.4659765316536,2143
772.7249738991469,2176
774.9833563405886,2225
777.2411240781092,2163
779.4982773339183,2088
781.7548163303044,2103
784.010741289634,2164
786.2660524343538,2261
788.5207499869881,2153
790.7748341701416,2169
793.0283052064964,2260
795.2811633188143,2204
797.5334087299362,2237
799.7850416627813,2247
802.0360623403484,2275
804.2864709857143,2164
806.5362678220353,2225
808.7854530725468,2267
811.0340269605625,2228
813.2819897094754,2197
815.5293415427581,2221
817.77608268396,2162
820.0222133567116,2248
822.2677337847211,2165
824.5126441917765,2172
826.7569448017433,2149
829.0006358385675,2334
831.2437175262731,2297
833.4861900889629,2242
835.7280537508192,2170
837.9693087361026,2223
840.2099552691533,2298
842.4499935743896,2254
844.689423876309,2204
846.9282463994886,2275
849.1664613685833,2216
851.4040690083276,2200
853.6410695435349,2261
855.877463199097,2268
858.1132501999847,2252
860.3484307712487,2208
862.5830051380175,2272
864.8169735254988,2289
867.0503361589791,2268
869.2830932638243,2264
871.5152450654786,2197
873.7467917894654,2268
875.9777336613873,2224
878.2080709069252,2244
880.4378037518389,2263
882.666932421968,2296
884.8954571432301,2235
887.1233781416219,2321
889.3506956432192,2342
891.5774098741766,2365
893.803521060728,2302
896.0290294291852,2357
898.2539352059397,2285
900.4782386174619,2323
902.7019398903011,2371
904.925039251085,2292
907.147536926521,2298
909.3694331433943,2311
911.59072812857,2310
913.8114221089921,2347
916.0315153116827,2277
918.2510079637437,2259
920.4699002923547,2245
922.6881925247761,2289
924.905884888345,2225
927.1229776104793,2223
929.3394709186747,2217
931.555365040506,2262
933.7706602036275,2347
935.9853566357709,2353
938.1994545647489,2367
940.4129542184515,2316
942.6258558248488,2301
944.8381596119883,2356
947.0498658079974,2339
949.2609746410825,2315
951.4714863395287,2270
953.6814011316998,2321
955.8907192460387,2321
958.0994409110671,2315
960.3075663553858,2312
962.5150958076741,2324
964.7220294966913,2249
966.928367651274,2194
969.1341105003388,2238
971.3392582728806,2266
973.5438111979742,2184
975.747769504772,2231
977.9511334225061,2163
980.153903180487,2227
982.3560790081052,2199
984.5576611348289,2096
986.7586497902058,2132
988.9590452038618,2186
991.158847605503,2095
993.3580572249133,2046
995.5566742919558,2051
997.7546990365728,2002
999.952131688785,1989
1002.1489724786926,1958
1004.3452216364743,1933
1006.5408793923874,1913
1008.7359459767691,1920
1010.9304216200343,1852
1013.1243065526781,1847
1015.3176010052733,1884
1017.510305208472,1823
1019.7024193930064,1835
1021.8939437896848,1852
1024.0848786293977,1865
1026.2752241431122,1895
1028.4649805618747,1894
1030.6541481168115,1815
1032.842727039127,1843
1035.0307175601051,1736
1037.2181199111074,1754
1039.4049343235752,1762
1041.591161029029,1790
1043.7768002590683,1818
1045.9618522453698,1845
1048.1463172196918,1848
1050.3301954138697,1854
1052.513487059818,1760
1054.69619238953,1805
1056.8783116350783,1826
1059.0598450286152,1761
1061.2407928023704,1743
1063.4211551886528,1829
1065.6009324198508,1724
1067.780124728432,1830
1069.9587323469414,1760
1072.1367555080046,1768
1074.314194444325,1787
1076.4910493886855,1854
1078.667320573947,1743
1080.843008233051,1744
1083.0181125990161,1695
1085.1926339049414,1835
1087.3665723840027,1746
1089.5399282694575,1725
1091.7127017946405,1708
1093.8848931929647,1678
1096.0565026979243,1621
1098.2275305430899,1686
1100.3979769621128,1706
1102.567842188722,1665
1104.737126456726,1685
1106.9058300000124,1602
1109.0739530525475,1643
1111.2414958483764,1667
1113.4084586216231,1662
1115.5748416064907,1722
1117.7406450372605,1653
1119.9058691482942,1660
1122.0705141740304,1639
1124.2345803489884,1663
1126.3980679077658,1672
1128.5609770850388,1715
1130.7233081155623,1689
1132.8850612341707,1596
1135.0462366757774,1654
1137.2068346753745,1701
1139.3668554680326,1599
1141.526299288901,1689
1143.68516637321,1628
1145.8434569562655,1639
1148.001171273455,1732
1150.158309560244,1704
1152.3148720521767,1577
1154.470858984876,1599
1156.626270594044,1635
1158.7811071154629,1573
1160.9353687849912,1650
1163.089055838569,1618
1165.242168512213,1681
1167.3947070420209,1673
1169.5466716641677,1612
1171.6980626149075,1627
1173.8488801305748,1628
1175.9991244475814,1636
1178.1487958024186,1655
1180.2978944316555,1749
1182.4464205719428,1624
1184.5943744600072,1586
1186.7417563326567,1648
1188.8885664267755,1721
1191.0348049793297,1605
1193.1804722273619,1621
1195.325568407995,1651
1197.4700937584303,1671
1199.614048515948,1669
1201.7574329179074,1675
1203.900247201746,1674
1206.042491604982,1677
1208.1841663652099,1662
1210.3252717201053,1736
1212.465807907422,1663
1214.6057751649923,1676
1216.7451737307279,1685
1218.8840038426192,1691
1221.0222657387353,1689
1223.1599596572241,1725
1225.2970858363137,1674
1227.4336445143094,1664
1229.5696359295966,1645
1231.705060320639,1659
1233.8399179259786,1785
1235.9742089842384,1729
1238.107933734118,1759
1240.2410924143974,1699
1242.373685263935,1675
1244.5057125216676,1754
1246.6371744266116,1774
1248.7680712178621,1674
1250.898403134593,1670
1253.028170416058,1683
1255.1573733015875,1730
1257.2860120305932,1785
1259.4140868425648,1732
1261.54159797707,1739
1263.6685456737569,1744
1265.7949301723515,1698
1267.9207517126597,1713
1270.046010534565,1696
1272.1707068780306,1807
1274.2948409830983,1755
1276.4184130898889,1712
1278.541423438603,1750
1280.6638722695184,1845
1282.785759822993,1820
1284.9070863394636,1835
1287.0278520594447,1824
1289.1480572235314,1846
1291.2677020723963,1824
1293.3867868467923,1891
1295.5053117875495,1883
1297.623277135579,1805
1299.740683131868,1764
1301.8575300174857,1929
1303.973818033578,1871
1306.0895474213703,1918
1308.2047184221678,1938
1310.3193312773528,1903
1312.4333862283888,1832
1314.5468835168163,1901
1316.659823384255,1858
1318.7722060724045,1931
1320.8840318230418,1959
1322.9953008780249,1882
1325.1060134792888,1854
1327.2161698688478,1900
1329.3257702887959,1886
1331.4348149813054,1884
1333.5433041886276,1961
1335.6512381530933,1849
1337.7586171171101,1865
1339.8654413231675,1909
1341.9717110138317,1870
1344.0774264317488,1941
1346.1825878196432,1893
1348.2871954203192,1886
1350.3912494766587,1862
1352.4947502316231,1851
1354.5976979282532,1846
1356.7000928096686,1902
1358.8019351190665,1865
1360.9032250997243,1869
1363.0039629949988,1850
1365.1041490483235,1876
1367.2037835032133,1878
1369.3028666032606,1871
1371.401398592137,1897
1373.4993797135926,1915
1375.5968102114575,1904
1377.6936903296396,1896
1379.7900203121262,1893
1381.8858004029835,1928
1383.9810308463561,1906
1386.075711886469,1980
1388.1698437676241,2025
1390.2634267342032,1907
1392.356461030667,1913
1394.4489469015557,1945
1396.5408845914872,1895
1398.6322743451592,1953
1400.7231164073469,1979
1402.813411022907,1973
1404.903158436773,1989
1406.9923588939578,1979
1409.0810126395531,2096
1411.1691199187303,2045
1413.2566809767386,2066
1415.343696058907,2070
1417.4301654106425,2078
1419.5160892774315,2056
1421.6014679048399,2044
1423.6863015385125,2132
1425.7705904241707,2164
1427.8543348076178,2177
1429.9375349347342,2181
1432.0201910514802,2136
1434.102303403894,2204
1436.1838722380944,2232
1438.2648978002767,2276
1440.3453803367174,2284
1442.4253200937692,2350
1444.5047173178677,2352
1446.5835722555234,2391
1448.6618851533285,2522
1450.739656257952,2412
1452.8168858161434,2433
1454.8935740747306,2594
1456.96972128062,2580
1459.045327680797,2524
1461.120393522327,2541
1463.1949190523528,2739
1465.2689045180973,2745
1467.3423501668608,2897
1469.415256246024,2908
1471.4876230030463,2913
1473.559450685465,2927
1475.6307395408976,2899
1477.7014898170391,3049
1479.771701761665,3051
1481.8413756226287,3194
1483.9105116478618,3193
1485.9791100853772,3174
1488.0471711832643,3369
1490.1146951896926,3392
1492.1816823529098,3408
1494.2481329212433,3434
1496.3140471430984,3494
1498.3794252669609,3468
1500.4442675413939,3545
1502.5085742150404,3476
1504.572345536622,3569
1506.6355817549388,3629
1508.6982831188702,3657
1510.7604498773744,3645
1512.8220822794883,3683
1514.8831805743293,3637
1516.9437450110909,3728
1519.003775839048,3754
1521.0632733075522,3644
1523.1222376660367,3747
1525.1806691640113,3807
1527.2385680510652,3842
1529.2959345768668,3804
1531.3527689911643,3936
1533.4090715437833,3963
1535.4648424846291,3958
1537.5200820636855,3845
1539.5747905310159,4102
1541.6289681367616,4075
1543.6826151311434,4141
1545.7357317644614,4207
1547.7883182870937,4316
1549.8403749494987,4329
1551.8919020022113,4378
1553.9428996958477,4439
1555.9933682811015,4513
1558.0433080087469,4633
1560.0927191296346,4794
1562.1416018946961,4689
1564.1899565549415,4766
1566.2377833614592,4625
1568.2850825654164,4640
1570.3318544180606,4590
1572.3780991707158,4454
1574.423817074788,4340
1576.4690083817595,4145
1578.5136733431923,3992
1580.5578122107272,3958
1582.601425236085,3688
1584.6445126710646,3359
1586.6870747675434,3234
1588.7291117774776,3118
1590.7706239529034,2994
1592.8116115459347,2873
1594.8520748087658,2897
1596.8920139936686,2683
1598.9314293529933,2572
1600.9703211391711,2553
1603.008689604711,2494
1605.0465350022005,2381
1607.0838575843068,2387
1609.1206576037753,2307
1611.1569353134305,2203
1613.1926909661765,2155
1615.2279248149953,2116
1617.2626371129481,2131
1619.2968281131757,2065
1621.3304980688963,2081
1623.3636472334088,1998
1625.39627586009,2039
1627.428384202396,1975
1629.459972513861,1996
1631.4910410480993,1925
1633.5215900588028,1922
1635.551619799744,1806
1637.5811305247717,1842
1639.6101224878166,1890
1641.6385959428862,1840
1643.6665511440683,1777
1645.693988345528,1803
1647.7209078015112,1820
1649.7473097663405,1799
1651.7731944944203,1794
1653.7985622402307,1825
1655.823413258333,1812
1657.847747803366,1764
1659.8715661300494,1767
1661.8948684931793,1761
1663.9176551476316,1755
1665.9399263483624,1872
1667.9616823504057,1705
1669.982923408873,1767
1672.0036497789574,1785
1674.0238617159293,1691
1676.043559475138,1768
1678.0627433120121,1791
1680.081413482059,1735
1682.0995702408654,1730
1684.117213844096,1782
1686.134344547495,1826
1688.1509626068864,1749
1690.1670682781705,1716
1692.182661817329,1742
1694.1977434804217,1738
1696.2123135235875,1743
1698.226372203043,1722
1700.2399197750851,1742
1702.2529564960905,1777
1704.2654826225112,1745
1706.277498410882,1729
1708.2890041178139,1716
1710.2999999999988,1680
1712.3104863142066,1735
1714.3204633172854,1706
1716.329931266163,1676
1718.3388904178469,1754
1720.3473410294214,1729
1722.3552833580516,1686
1724.3627176609807,1652
1726.3696441955308,1639
1728.3760632191033,1628
1730.3819749891782,1697
1732.3873797633146,1709
1734.3922777991502,1775
1736.3966693544012,1702
1738.4005546868639,1631
1740.4039340544127,1630
1742.406807715001,1693
1744.4091759266616,1646
1746.4110389475054,1676
1748.4123970357223,1618
1750.413250449582,1643
1752.4135994474318,1649
1754.4134442876993,1631
1756.4127852288902,1598
1758.4116225295893,1644
1760.4099564484595,1594
1762.407787244244,1558
1764.405115175764,1628
1766.4019405019203,1625
1768.3982634816916,1612
1770.3940843741357,1618
1772.3894034383907,1619
1774.3842209336717,1608
1776.378537119274,1522
1778.372352254571,1568
1780.3656665990156,1561
1782.3584804121397,1578
1784.3507939535534,1566
1786.3426074829463,1577
1788.3339212600863,1564
1790.3247355448211,1561
1792.3150505970766,1575
1794.3048666768573,1594
1796.2941840442477,1559
1798.2830029594106,1608
1800.2713236825884,1580
1802.2591464741004,1548
1804.2464715943465,1538
1806.2332993038058,1483
1808.2196298630352,1553
1810.2054635326708,1627
1812.190800573428,1514
1814.175641246101,1529
1816.1599858115628,1564
1818.1438345307652,1516
1820.127187664738,1559
1822.1100454745924,1565
1824.092408221516,1546
1826.0742761667766,1528
1828.055649571721,1581
1830.0365286977735,1536
1832.0169138064398,1522
1833.9968051593014,1486
1835.9762030180214,1532
1837.9551076443408,1564
1839.9335193000788,1552
1841.9114382471344,1514
1843.888864747485,1530
1845.8657990631878,1519
1847.842241456378,1494
1849.8181921892697,1498
1851.7936515241558,1525
1853.7686197234098,1548
1855.7430970494815,1556
1857.7170837649014,1506
1859.6905801322787,1521
1861.6635864143004,1513
1863.6361028737338,1560
1865.608129773424,1506
1867.5796673762961,1558
1869.5507159453537,1503
1871.521275743678,1494
1873.4913470344313,1544
1875.4609300808534,1570
1877.4300251462632,1523
1879.3986324940588,1554
1881.366752387717,1553
1883.3343850907936,1643
1885.3015308669228,1530
1887.268189979819,1567
1889.2343626932739,1559
1891.2000492711595,1499
1893.1652499774254,1548
1895.1299650761011,1566
1897.0941948312952,1574
1899.0579395071945,1581
1901.0211993680641,1588
1902.98397467825,1547
1904.9462657021745,1590
1906.9080727043415,1607
1908.869395949332,1601
1910.8302357018065,1568
1912.790592226504,1597
1914.7504657882428,1542
1916.7098566519212,1511
1918.6687650825133,1604
1920.6271913450764,1571
1922.5851357047422,1572
1924.5425984267245,1579
1926.499579776314,1553
1928.4560800188833,1596
1930.4120994198802,1608
1932.367638244833,1559
1934.32269675935,1634
1936.2772752291175,1576
1938.231373919899,1513
1940.1849930975404,1557
1942.1381330279637,1574
1944.0907939771696,1554
1946.0429762112412,1515
1947.9946799963363,1526
1949.9459055986945,1571
1951.896653284633,1521
1953.8469233205478,1562
1955.7967159729142,1505
1957.7460315082863,1508
1959.6948701932974,1572
1961.6432322946594,1536
1963.5911180791632,1470
1965.5385278136787,1461
1967.4854617651545,1491
1969.4319202006182,1498
1971.377903387176,1494
1973.3234115920136,1520
1975.268445082395,1537
1977.2130041256642,1510
1979.1570889892423,1471
1981.1006999406304,1499
1983.04383724741,1491
1984.986501177238,1530
1986.928691997853,1490
1988.8704099770712,1510
1990.811655382789,1468
1992.7524284829801,1410
1994.692729545698,1473
1996.6325588390755,1489
1998.5719166313224,1543
2000.5108031907307,1455
2002.4492187856677,1480
2004.387163684583,1444
2006.3246381560011,1453
2008.2616424685298,1471
2010.1981768908527,1423
2012.1342416917332,1444
2014.069837140014,1534
2016.0049635046162,1440
2017.9396210545406,1437
2019.8738100588666,1471
2021.8075307867502,1439
2023.740783507431,1520
2025.6735684902228,1476
2027.6058860045214,1455
2029.5377363198004,1432
2031.4691197056118,1479
2033.4000364315875,1473
2035.3304867674374,1448
2037.260470982952,1446
2039.189989347998,1434
2041.1190421325232,1461
2043.047629606554,1403
2044.9757520401945,1385
2046.9034097036288,1417
2048.8306028671195,1464
2050.7573318010086,1419
2052.683596775716,1403
2054.609398061742,1444
2056.5347359296647,1394
2058.4596106501403,1443
2060.384022493906,1408
2062.3079717317764,1483
2064.231458634646,1419
2066.1544834734873,1438
2068.077046519352,1423
2069.99914804337,1415
2071.9207883167524,1399
2073.8419676107865,1378
2075.7626861968406,1413
2077.6829443463607,1450
2079.6027423308715,1420
2081.522080421977,1456
2083.440958891362,1425
2085.359378010786,1430
2087.2773380520907,1439
2089.194839287196,1357
2091.111881988101,1351
2093.0284664268825,1449
2094.9445928756973,1437
2096.86026160678,1457
2098.775472892446,1419
2100.690227005088,1432
2102.604524217178,1430
2104.5183648012676,1444
2106.431749029985,1421
2108.34467717604,1439
2110.2571495122206,1365
2112.169166311393,1445
2114.080727846503,1489
2115.9918343905747,1429
2117.902486216711,1444
2119.8126835980956,1382
2121.722426807987,1448
2123.6317161197285,1423
2125.5405518067364,1400
2127.448934142509,1474
2129.356863400624,1432
2131.264339854737,1525
2133.1713637785815,1542
2135.077935445972,1478
2136.9840551308002,1441
2138.889723107037,1492
2140.7949396487334,1420
2142.699705030018,1454
2144.6040195250994,1439
2146.507883408264,1491
2148.4112969538774,1458
2150.3142604363848,1456
2152.2167741303097,1393
2154.1188383102535,1454
2156.0204532508997,1482
2157.9216192270064,1507
2159.822336513414,1526
2161.7226053850413,1500
2163.622426116884,1474
2165.5217989840185,1449
2167.4207242616,1493
2169.319202224862,1456
2171.2172331491165,1509
2173.1148173097563,1508
2175.0119549822507,1508
2176.90864644215,1485
2178.8048919650823,1535
2180.7006918267534,1521
2182.596046302952,1532
2184.4909556695407,1480
2186.3854202024645,1504
2188.279440177746,1427
2190.173015871487,1475
2192.066147559868,1510
2193.958835519149,1484
2195.851080025667,1518
2197.7428813558417,1496
2199.6342397861667,1539
2201.5251555932186,1499
2203.415629053651,1561
2205.3056604441986,1507
2207.19525004167,1473
2209.084398122958,1494
2210.9731049650327,1439
2212.861370844941,1533
2214.749196039812,1500
2216.636580826851,1565
2218.523525483344,1557
2220.410030286655,1531
2222.296095514226,1506
2224.1817214435805,1497
2226.066908352319,1553
2227.951656518121,1472
2229.835966218746,1511
2231.71983773203,1466
2233.6032713358913,1531
2235.486267308324,1558
2237.3688259274036,1528
2239.2509474712824,1500
2241.132632218193,1518
2243.013880446447,1606
2244.8946924344323,1560
2246.7750684606203,1539
2248.6550088035574,1543
2250.534513741871,1568
2252.413583554265,1580
2254.292218519526,1512
2256.170418916517,1582
2258.0481850241786,1492
2259.925517121534,1516
2261.8024154876825,1564
2263.678880401803,1532
2265.5549121431536,1623
2267.430510991071,1557
2269.305677224971,1500
2271.180411124348,1519
2273.0547129687766,1496
2274.9285830379076,1465
2276.8020216114737,1533
2278.6750289692845,1513
2280.5476053912294,1549
2282.4197511572766,1588
2284.2914665474727,1625
2286.162751841943,1627
2288.0336073208937,1595
2289.904033264608,1626
2291.774029953448,1568
2293.6435976678554,1556
2295.5127366883517,1541
2297.381447295534,1449
2299.2497297700825,1468
2301.1175843927526,1453
2302.9850114443825,1441
2304.852011205885,1402
2306.7185839582553,1388
2308.5847299825664,1351
2310.4504495599676,1341
2312.3157429716925,1311
2314.1806104990483,1341
2316.0450524234247,1374
2317.9090690262888,1338
2319.772660589186,1316
2321.635827393742,1374
2323.498569721661,1288
2325.3608878547248,1337
2327.2227820747967,1337
2329.0842526638157,1337
2330.945299903803,1295
2332.805924076857,1311
2334.6661254651535,1319
2336.525904350951,1308
2338.3852610165827,1350
2340.244195744464,1369
2342.102708817088,1309
2343.9608005170253,1346
2345.8184711269287,1346
2347.675720929526,1352
2349.532550207628,1374
2351.38895924412,1351
2353.24494832197,1358
2355.100517724223,1338
2356.955667734004,1361
2358.810398634514,1358
2360.664710709037,1332
2362.5186042409337,1398
2364.3720795136437,1343
2366.225136810686,1343
2368.0777764156583,1357
2369.929998612237,1380
2371.7818036841777,1375
2373.633191915315,1438
2375.484163589562,1384
2377.3347189909114,1363
2379.184858403434,1334
2381.03458211128,1319
2382.8838903986775,1362
2384.732783549936,1330
2386.5812618494406,1362
2388.4293255816588,1380
2390.2769750311327,1426
2392.1242104824883,1409
2393.971032220427,1342
2395.8174405297295,1397
2397.6634356952563,1378
2399.509018001947,1395
2401.3541877348193,1448
2403.1989451789705,1429
2405.043290619576,1357
2406.8872243418905,1367
2408.730746631247,1425
2410.5738577730594,1384
2412.4165580528183,1388
2414.258847756095,1429
2416.100727168537,1467
2417.9421965758734,1354
2419.783256263912,1387
2421.623906518538,1428
2423.4641476257157,1438
2425.303979871491,1377
2427.143403541984,1428
2428.9824189233977,1395
2430.821026302012,1389
2432.6592259641866,1419
2434.497018196361,1442
2436.33440328505,1401
2438.171381516851,1385
2440.00795317844,1369
2441.844118556569,1424
2443.6798779380724,1397
2445.5152316098606,1367
2447.3501798589255,1393
2449.1847229723357,1381
2451.0188612372403,1347
2452.8525949408663,1433
2454.6859243705203,1473
2456.518849813587,1410
2458.3513715575314,1439
2460.183489889895,1389
2462.015205098301,1452
2463.8465174704493,1430
2465.67742729412,1395
2467.5079348571717,1413
2469.338040447542,1423
2471.1677443532476,1427
2472.9970468623833,1422
2474.825948263123,1476
2476.6544488437207,1454
2478.482548892508,1384
2480.310248697896,1386
2482.137548548374,1441
2483.9644487325118,1429
2485.790949538956,1436
2487.617051256433,1484
2489.44275417375,1426
2491.26805857979,1415
2493.0929647635157,1414
2494.917473013971,1459
2496.741583620276,1446
2498.5652968716304,1486
2500.3886130573137,1474
2502.2115324666834,1501
2504.0340553891765,1505
2505.856182114308,1456
2507.6779129316733,1514
2509.499248130945,1500
2511.3201880018764,1493
2513.140732834298,1445
2514.9608829181198,1514
2516.780638543331,1465
2518.6,1480
2520.418967578273,1507
2522.237541568376,1488
2524.0557222606144,1560
2525.8735099453706,1519
2527.6909049131086,1575
2529.507907454368,1563
2531.32451785977,1487
2533.140736420014,1578
2534.9565634258774,1624
2536.771999168218,1598
2538.5870439379714,1590
2540.4016980261526,1608
2542.2159617238544,1630
2544.02983532225,1607
2545.8433191125914,1651
2547.656413386209,1636
2549.4691184345115,1677
2551.2814345489874,1684
2553.093362021204,1682
2554.904901142808,1662
2556.716052205523,1682
2558.526815501153,1720
2560.3371913215824,1716
2562.147179958771,1785
2563.956781704761,1734
2565.7659968516705,1831
2567.5748256916986,1780
2569.3832685171224,1814
2571.1913256202984,1813
2572.9989972936614,1825
2574.806283829725,1847
2576.613185521084,1892
2578.4197026604074,1864
2580.2258355404483,1853
2582.031584454035,1925
2583.836949694077,1902
2585.6419315535613,1849
2587.4465303255533,1868
2589.2507463032002,1851
2591.0545797797245,1845
2592.8580310484303,1840
2594.6611004026995,1888
2596.463788135992,1801
2598.266094541849,1909
2600.0680199138874,1906
2601.869564545807,1910
2603.670728731383,1898
2605.4715127644704,1917
2607.2719169390048,1901
2609.071941548998,1909
2610.8715868885433,1873
2612.670853251811,1872
2614.469740933052,1842
2616.268250226594,1878
2618.0663814268455,1896
2619.864134828292,1894
2621.6615107255006,1863
2623.458509413115,1810
2625.2551311858597,1843
2627.0513763385347,1793
2628.8472451660223,1781
2630.6427379632833,1771
2632.4378550253564,1740
2634.232596647359,1808
2636.026963124488,1733
2637.8209547520187,1769
2639.6145718253065,1759
2641.407814639785,1719
2643.200683490966,1726
2644.9931786744414,1671
2646.7853004858807,1653
2648.577049221034,1656
2650.3684251757277,1649
2652.1594286458712,1675
2653.9500599274484,1609
2655.740319316525,1639
2657.5302071092437,1601
2659.3197236018286,1642
2661.10886909058,1587
2662.8976438718782,1530
2664.686048242183,1639
2666.4740824980327,1577
2668.2617469360443,1607
2670.0490418529134,1570
2671.8359675454153,1504
2673.622524310403,1512
2675.408712444811,1475
2677.1945322456495,1516
2678.979984010009,1418
2680.76506803506,1496
2682.5497846180497,1454
2684.334134056306,1422
2686.1181166472343,1456
2687.9017326883213,1494
2689.6849824771293,1433
2691.4678663113013,1406
2693.2503844885596,1435
2695.032537306705,1468
2696.8143250636167,1431
2698.5957480572542,1416
2700.3768065856534,1421
2702.1575009469316,1376
2703.937831439283,1394
2705.717798360982,1385
2707.4974020103837,1434
2709.276642685917,1421
2711.055520686095,1348
2712.834036309506,1383
2714.612189854819,1358
2716.389981620782,1333
2718.1674119062204,1337
2719.944481010041,1314
2721.721189231226,1402
2723.4975368688415,1365
2725.273524222027,1360
2727.0491515900053,1352
2728.824419272075,1329
2730.5993275676146,1351
2732.3738767760838,1304
2734.148067197016,1332
2735.921899130031,1310
2737.6953728748194,1326
2739.468488731156,1364
2741.2412469988926,1342
2743.0136479779617,1315
2744.785691968372,1337
2746.5573792702116,1360
2748.3287101836504,1341
2750.099685008934,1340
2751.870304046388,1349
2753.640567596418,1287
2755.4104759595057,1367
2757.1800294362156,1286
2758.949228327187,1380
2760.7180729331412,1283
2762.486563554877,1333
2764.254700493272,1305
2766.022484049284,1312
2767.789914523947,1363
2769.5569922183786,1383
2771.3237174337705,1273
2773.090090471394,1354
2774.8561116326036,1313
2776.6217812188274,1296
2778.3870995315756,1279
2780.1520668724356,1292
2781.9166835430747,1327
2783.6809498452394,1319
2785.444866080754,1310
2787.2084325515225,1308
2788.971649559527,1357
2790.73451740683,1336
2792.4970363955713,1330
2794.2592068279705,1313
2796.0210290063264,1339
2797.7825032330147,1298
2799.543629810493,1326
2801.304409041296,1277
2803.0648412280366,1318
2804.8249266734088,1368
2806.5846656801846,1330
2808.344058551212,1334
2810.1031055894246,1329
2811.8618070978273,1296
2813.6201633795085,1315
2815.378174737636,1327
2817.1358414754536,1289
2818.893163896285,1309
2820.6501423035334,1266
2822.4067770006814,1273
2824.1630682912883,1300
2825.9190164789957,1313
2827.6746218675207,1345
2829.429884760661,1294
2831.184805462294,1280
2832.9393842763743,1282
2834.693621506936,1349
2836.4475174580916,1314
2838.201072434034,1311
2839.954286739034,1318
2841.707160677441,1294
2843.459694553685,1288
2845.2118886722724,1307
2846.96374333779,1293
2848.7152588549034,1297
2850.4664355283567,1324
2852.217273662973,1290
2853.9677735636546,1335
2855.7179355353833,1314
2857.4677598832186,1315
2859.217246912299,1326
2860.9663969278427,1285
2862.715210235146,1257
2864.4636871395846,1310
2866.211827946614,1244
2867.9596329617652,1237
2869.7071024906536,1326
2871.4542368389684,1322
2873.20103631248,1289
2874.947501217038,1311
2876.6936318585695,1257
2878.4394285430812,1274
2880.1848915766604,1310
2881.9300212654707,1315
2883.6748179157553,1303
2885.4192818338374,1322
2887.1634133261173,1324
2888.907212699077,1284
2890.6506802592744,1285
2892.393816313348,1265
2894.1366211680142,1324
2895.8790951300693,1278
2897.621238506388,1273
2899.363051603925,1251
2901.1045347297118,1314
2902.8456881908596,1328
2904.58651229456,1301
2906.327007348081,1330
2908.067173658772,1311
2909.8070115340597,1292
2911.5465212814497,1340
2913.285703208527,1325
2915.0245576229563,1294
2916.7630848324807,1241
2918.5012851449196,1290
2920.2391588681758,1282
2921.976706310227,1246
2923.7139277791334,1268
2925.4508235830313,1216
2927.187394030137,1273
2928.923639428745,1331
2930.6595600872306,1303
2932.395156314046,1304
2934.1304284177218,1296
2935.8653767068713,1279
2937.6000014901815,1290
2939.3343030764227,1233
2941.068281774442,1252
2942.8019378931644,1286
2944.5352717415976,1300
2946.2682836288236,1247
2948.0009738640065,1265
2949.7333427563885,1273
2951.465390615289,1330
2953.1971177501086,1275
2954.9285244703265,1337
2956.6596110855,1277
2958.3903779052657,1226
2960.1208252393385,1269
2961.8509533975125,1263
2963.5807626896617,1282
2965.3102534257378,1255
2967.0394259157715,1240
2968.768280469873,1256
2970.496817398232,1266
2972.2250370111146,1297
2973.952939618869,1268
2975.6805255319196,1280
2977.4077950607707,1296
2979.134748516006,1301
2980.861386208289,1298
2982.587708448359,1294
2984.313715547037,1250
2986.039407815222,1279
2987.764785563891,1270
2989.489849104102,1279
2991.2145987469908,1273
2992.9390348037705,1312
2994.6631575857346,1255
2996.3869674042576,1281
2998.1104645707887,1297
2999.83364939686,1249
3001.5565221940783,1264
3003.2790832741334,1286
3005.0013329487924,1295
3006.7232715298996,1305
3008.4448993293804,1294
3010.166216659239,1266
3011.887223831558,1250
3013.607921158498,1294
3015.3283089522993,1327
3017.0483875252826,1316
3018.7681571898443,1267
3020.4876182584626,1277
3022.2067710436927,1258
3023.9256158581707,1288
3025.644153014609,1234
3027.362382825801,1288
3029.0803056046193,1298
3030.797921664012,1268
3032.5152313170106,1239
3034.2322348767225,1252
3035.9489326563353,1263
3037.665324969115,1208
3039.3814121284063,1276
3041.097194447633,1289
3042.812672240299,1265
3044.5278458199855,1292
3046.2427155003525,1280
3047.9572815951406,1312
3049.671544418167,1308
3051.38550428333,1306
3053.0991615046073,1291
3054.812516396051,1241
3056.5255692717974,1219
3058.2383204460575,1315
3059.9507702331257,1229
3061.662918947372,1304
3063.3747669032446,1330
3065.0863144152736,1228
3066.7975617980674,1240
3068.508509366309,1318
3070.219157434767,1273
3071.9295063182844,1310
3073.639556331785,1279
3075.3493077902704,1304
3077.058761008821,1299
3078.7679163025964,1301
3080.476773986837,1291
3082.1853343768594,1294
3083.89359778806,1229
3085.6015645359153,1280
3087.3092349359786,1243
3089.016609303884,1287
3090.7236879553434,1289
3092.4304712061476,1284
3094.136959372166,1313
3095.843152769349,1325
3097.5490517137237,1328
3099.2546565213966,1231
3100.959967508554,1302
3102.66498499146,1300
3104.3697092864577,1296
3106.0741407099695,1275
3107.778279578498,1255
3109.482126208622,1294
3111.1856809170004,1275
3112.8889440203716,1307
3114.5919158355528,1299
3116.294596679439,1358
3117.996986869006,1258
3119.6990867213062,1308
3121.4008965534726,1281
3123.102416682717,1326
3124.803647426329,1267
3126.5045891016784,1287
3128.205242026213,1311
3129.90560651746,1330
3131.605682893025,1312
3133.3054714705922,1304
3135.0049725679282,1343
3136.7041865028714,1260
3138.4031135933465,1246
3140.101754157353,1254
3141.800108512971,1283
3143.498176978357,1228
3145.1959598717494,1332
3146.8934575114636,1286
3148.5906702158954,1266
3150.2875983035183,1266
3151.9842420928853,1252
3153.680601902627,1314
3155.376678051456,1296
3157.07247085816,1293
3158.767980641609,1284
3160.463207720748,1319
3162.158152414606,1289
3163.8528150422862,1255
3165.5471959229726,1238
3167.2412953759303,1310
3168.9351137204976,1240
3170.628651276098,1236
3172.3219083622307,1292
3174.014885298474,1264
3175.707582404485,1288
3177.4000000000005,1299
3179.092138404835,1270
3180.7839979388846,1233
3182.47557892212,1285
3184.166881674594,1232
3185.8579065164386,1225
3187.5486537678626,1249
3189.2391237491547,1266
3190.9293167806827,1252
3192.6192331828934,1239
3194.3088732763117,1211
3195.998237381542,1281
3197.687325819268,1234
3199.376138910251,1248
3201.064676975334,1240
3202.7529403354347,1237
3204.4409293115523,1258
3206.1286442247647,1219
3207.816085396229,1280
3209.5032531471825,1198
3211.190147798936,1305
3212.8767696728846,1295
3214.5631190905015,1239
3216.2491963733373,1257
3217.9350018430214,1245
3219.6205358212637,1220
3221.305798629851,1248
3222.990790590651,1171
3224.6755120256103,1179
3226.359963256751,1211
3228.0441446061795,1232
3229.7280563960758,1189
3231.411698948703,1262
3233.0950725863995,1208
3234.778177631587,1234
3236.461014406761,1210
3238.1435832345005,1234
3239.8258844374595,1184
3241.507918338374,1247
3243.1896852600576,1296
3244.8711855254023,1243
3246.552419457381,1273
3248.233387379042,1225
3249.914089613516,1284
3251.59452648401,1269
3253.274698313813,1177
3254.95460542629,1212
3256.6342481448855,1243
3258.313626793125,1235
3259.9927416946084,1196
3261.6715931730196,1222
3263.3501815521176,1275
3265.0285071557437,1221
3266.706570307815,1247
3268.3843713323286,1244
3270.0619105533615,1245
3271.739188295068,1218
3273.4162048816834,1253
3275.0929606375184,1263
3276.769455886966,1217
3278.445690954498,1233
3280.1216661646613,1254
3281.797381842087,1248
3283.4728383114807,1220
3285.1480358976296,1291
3286.8229749253996,1209
3288.4976557197333,1232
3290.172078605655,1190
3291.846243908266,1243
3293.5201519527463,1254
3295.193803064357,1244
3296.8671975684374,1242
3298.5403357904024,1215
3300.21321805575,1210
3301.8858446900567,1252
3303.558216018975,1215
3305.23033236824,1291
3306.9021940636603,1189
3308.57380143113,1248
3310.2451547966184,1231
3311.916254486174,1158
3313.5871008259246,1231
3315.2576941420766,1207
3316.9280347609147,1221
3318.5981230088046,1197
3320.2679592121895,1193
3321.9375436975924,1196
3323.606876791612,1261
3325.27595882093,1172
3326.944790112305,1165
3328.6133709925753,1213
3330.2817017886573,1207
3331.949782827547,1187
3333.617614436319,1158
3335.2851969421245,1250
3336.952530672199,1257
3338.619615953853,1222
3340.286453114475,1269
3341.9530424815357,1232
3343.619384382583,1246
3345.2854791452437,1200
3346.951327097224,1212
3348.6169285663073,1199
3350.2822838803577,1230
3351.947393367319,1210
3353.61225735521,1203
3355.2768761721345,1217
3356.9412501462693,1258
3358.605379605873,1241
3360.2692648792827,1264
3361.9329062949146,1240
3363.596304181263,1228
