CollectionTime,7/9/2024 11:43:59 AM
ExposureUsed,3
CalibratedSpectrum
-962.7078968117929,552
-959.9714848408522,561
-957.2358232597828,601
-954.5009119013725,565
-951.7667505983302,579
-949.0333391832855,602
-946.3006774887896,603
-943.5687653473143,633
-940.837602591253,566
-938.1071890529199,613
-935.3775245645503,598
-932.6486089583007,608
-929.9204420662485,616
-927.1930237203925,587
-924.4663537526524,582
-921.7404319948689,605
-919.0152582788041,583
-916.2908324361409,644
-913.5671542984834,612
-910.8442236973568,611
-908.1220404642074,602
-905.4006044304027,659
-902.679915427231,576
-899.959973285902,560
-897.2407778375464,571
-894.5223289132158,573
-891.8046263438832,589
-889.0876699604426,610
-886.3714595937089,594
-883.6559950744183,564
-880.9412762332282,546
-878.2273029007168,567
-875.5140749073835,576
-872.8015920836489,575
-870.0898542598545,585
-867.3788612662631,537
-864.6686129330585,585
-861.9591090903457,583
-859.2503495681506,600
-856.5423341964203,584
-853.8350628050229,558
-851.1285352237478,575
-848.4227512823054,587
-845.7177108103272,606
-843.0134136373656,631
-840.3098595928943,570
-837.6070485063082,593
-834.9049802069229,574
-832.2036545239757,594
-829.5030712866244,604
-826.8032303239481,613
-824.1041314649472,598
-821.4057745385428,589
-818.7081593735775,609
-816.0112857988148,600
-813.3151536429393,604
-810.6197627345566,592
-807.9251129021936,584
-805.2312039742981,593
-802.5380357792392,603
-799.8456081453069,601
-797.1539209007124,617
-794.462973873588,607
-791.772766891987,567
-789.083299783884,601
-786.3945723771743,627
-783.7065844996748,593
-781.0193359791231,599
-778.3328266431781,599
-775.6470563194197,621
-772.9620248353489,597
-770.2777320183878,602
-767.5941776958798,608
-764.9113616950891,582
-762.2292838432011,590
-759.5479439673222,592
-756.8673418944801,587
-754.1874774516235,638
-751.5083504656222,622
-748.8299607632671,616
-746.15230817127,613
-743.475392516264,662
-740.7992136248035,624
-738.1237713233636,603
-735.4490654383407,625
-732.7750957960521,636
-730.1018622227365,617
-727.4293645445534,639
-724.7576025875837,648
-722.0865761778291,643
-719.4162851412126,628
-716.7467293035781,648
-714.0779084906909,668
-711.409822528237,643
-708.7424712418238,631
-706.0758544569796,657
-703.4099719991541,669
-700.7448236937178,675
-698.0804093659622,667
-695.4167288411002,666
-692.7537819442656,649
-690.0915685005134,657
-687.4300883348199,655
-684.7693412720819,637
-682.1093271371178,680
-679.4500457546669,673
-676.7914969493897,655
-674.1336805458676,675
-671.4765963686034,679
-668.8202442420206,676
-666.1646239904642,685
-663.5097354382001,702
-660.8555784094151,726
-658.2021527282176,711
-655.5494582186366,657
-652.8974947046223,697
-650.2462620100463,720
-647.5957599587009,699
-644.9459883742998,744
-642.2969470804776,706
-639.6486359007902,713
-637.0010546587141,723
-634.3542031776476,698
-631.7080812809096,738
-629.0626887917401,713
-626.4180255333008,719
-623.7740913286734,696
-621.1308860008619,725
-618.4884093727904,696
-615.8466612673046,700
-613.2056415071715,730
-610.5653499150785,674
-607.9257863136347,723
-605.28695052537,739
-602.6488423727357,671
-600.0114616781036,748
-597.3748082637674,683
-594.7388819519412,712
-592.1036825647604,753
-589.4692099242818,734
-586.8354638524829,717
-584.2024441712624,748
-581.5701507024403,756
-578.9385832677575,739
-576.3077416888759,716
-573.6776257873787,720
-571.0482353847704,737
-568.4195703024757,721
-565.7916303618415,752
-563.164415384135,716
-560.5379251905453,713
-557.9121596021815,727
-555.2871184400748,741
-552.6628015251767,763
-550.0392086783606,785
-547.4163397204204,751
-544.794194472071,783
-542.1727727539491,817
-539.5520743866118,796
-536.9320991905377,791
-534.3128469861261,772
-531.6943175936979,818
-529.0765108334947,865
-526.4594265256793,888
-523.8430644903358,967
-521.2274245474689,1092
-518.612506517005,1126
-515.9983102187913,1148
-513.3848354725959,1087
-510.77208209810846,1139
-508.16004991493924,1238
-505.5487387426199,1294
-502.9381484006032,1483
-500.3282787082628,1564
-497.71912948489364,1545
-495.1107005497117,1472
-492.5029917218539,1350
-489.8960028203786,1233
-487.28973366426493,1145
-484.68418407241325,1024
-482.07935386364494,928
-479.47524285670266,967
-476.87185087025,928
-474.2691777228715,974
-471.66722323307334,957
-469.0659872192821,941
-466.4654694998459,967
-463.86566989303384,1009
-461.26658821703614,956
-458.66822428996414,996
-456.07057792985,951
-453.4736489546475,970
-450.877437182231,932
-448.28194243039627,929
-445.68716451686,906
-443.09310325926003,926
-440.49975847515555,894
-437.9071299820263,888
-435.31521759727354,883
-432.72402113821954,911
-430.13354042210767,989
-427.5437752661022,977
-424.95472548728867,956
-422.36639090267386,963
-419.7787713291855,961
-417.1918665836721,986
-414.60567648290385,1046
-412.0202008435715,1050
-409.4354394822874,1011
-406.8513922155845,1019
-404.26805885991723,1010
-401.685439231661,980
-399.103533147112,1033
-396.522340422488,962
-393.9418608739278,977
-391.3620943174908,959
-388.7830405691583,999
-386.2046994448317,915
-383.6270707603344,936
-381.05015433141045,880
-378.473949973725,786
-375.8984575028645,770
-373.32367673433623,720
-370.74960748356875,636
-368.1762495659117,604
-365.60360279663576,596
-363.03166699093265,548
-360.4604419639154,520
-357.8899275306178,529
-355.32012350599507,487
-352.7510297049233,456
-350.1826459421999,468
-347.61497203254316,455
-345.04800779059235,493
-342.4817530309082,472
-339.91620756797226,455
-337.35137121618743,464
-334.7872437898774,482
-332.22382510328725,500
-329.66111497058273,467
-327.09911320585127,449
-324.53781962310075,476
-321.9772340362607,528
-319.4173562591816,494
-316.8581861056348,493
-314.2997233893127,435
-311.7419679238294,476
-309.1849195227194,450
-306.62857799943856,469
-304.0729431673641,498
-301.51801483979375,502
-298.963792829947,508
-296.41027695096386,515
-293.85746701590574,566
-291.3053628377552,553
-288.7539642294155,536
-286.2032710037115,526
-283.65328297338897,504
-281.1039999511146,546
-278.5554217494762,574
-276.007548180983,600
-273.4603790580651,560
-270.9139141930734,591
-268.3681533982807,562
-265.8230964858798,588
-263.27874326798565,583
-260.7350935566336,551
-258.1921471637804,554
-255.6499039013039,548
-253.10836358100266,540
-250.56752601459698,540
-248.02739101372765,556
-245.48795838995704,569
-242.94922795476816,565
-240.41119951956557,592
-237.8738728956746,621
-235.33724789434166,633
-232.80132432673452,620
-230.2661020039418,600
-227.73158073697357,643
-225.19776033676033,703
-222.66464061415422,731
-220.1322213799284,708
-217.60050244477725,632
-215.06948361931552,603
-212.53916471408013,633
-210.00954553952818,667
-207.48062590603843,625
-204.9524056239104,672
-202.4248845033651,750
-199.8980623545441,749
-197.37193898751036,729
-194.84651421224817,718
-192.32178783866232,682
-189.79775967657952,688
-187.27442953574644,771
-184.7517972258321,851
-182.2298625564256,767
-179.7086253370378,754
-177.18808537710026,720
-174.66824248596583,719
-172.14909647290835,765
-169.6306471471229,786
-167.11289431772548,859
-164.59583779375328,869
-162.07947738416453,830
-159.5638128978386,898
-157.04884414357605,1004
-154.53457093009854,1054
-152.02099306604828,1008
-149.50811035998936,845
-146.99592262040665,872
-144.48442965570587,875
-141.97363127421409,925
-139.46352728417958,1007
-136.95411749377126,1137
-134.44540171107985,1178
-131.93737974411636,942
-129.43005140081357,897
-126.92341648902493,1104
-124.41747481652521,1270
-121.91222619101006,1448
-119.40767042009657,1908
-116.90380731132257,2161
-114.40063667214702,2098
-111.8981583099503,1795
-109.3963720320337,1564
-106.89527764561933,1544
-104.39487495785067,1605
-101.89516377579241,1928
-99.39614390642998,2605
-96.89781515667039,3207
-94.40017733334128,3258
-91.90323024319173,3221
-89.40697369289148,3477
-86.91140748903172,4074
-84.41653143812482,4092
-81.92234534660395,3340
-79.42884902082358,2857
-76.93604226705907,4126
-74.4439248915071,7129
-71.95249670028534,9821
-69.46175749943245,11877
-66.97170709490854,11725
-64.48234529259423,10415
-61.99367189829195,9011
-59.50568671772464,8155
-57.01838955653636,5803
-54.53178022029283,5416
-52.045858514480074,7293
-49.560624244506016,9916
-47.07607721569923,11188
-44.59221723330904,11897
-42.10904410250669,11333
-39.62655762838392,10487
-37.14475761595372,9499
-34.66364387015028,9395
-32.18321619582866,9007
-29.70347439776515,8752
-27.224418280657005,9127
-24.74604764912317,9747
-22.26836230770266,13327
-19.7913620608565,23088
-17.315046712966478,42222
-14.83941606833514,62018
-12.36446993118659,65040
-9.89020810566592,65040
-7.416630395839093,65040
-4.94373660569363,65040
-2.471526539137585,65040
-6.821210263296962E-13,65040
2.47084320796705,65040
4.941003281093458,65040
7.410480415786196,65040
9.879274808531363,65040
12.347386655893956,65040
14.814816154518212,65040
17.28156350112681,65040
19.74762889252179,65040
22.21301252558385,65040
24.67771459727237,20494
27.141735304626195,3622
29.605074844762612,2377
32.06773341487792,2139
34.52971121224755,1960
36.99100843422559,1831
39.45162527824516,1860
41.91156194181792,1811
44.370818622535126,1491
46.82939551806646,1186
49.287292826160524,1321
51.74451074464503,1388
54.201049471426245,1374
56.65690920448981,1267
59.112090141899785,1112
61.56659248179983,1098
64.02041642241159,1089
66.4735621620365,1066
68.92602989905402,1000
71.37781983192338,966
73.82893215918205,1024
76.27936707944684,1095
78.72912479141326,1115
81.17820549385567,1079
83.62660938562783,1037
86.07433666566146,1142
88.5213875329681,1097
90.96776218663751,917
93.41346082583925,970
95.85848364982041,1012
98.30283085790859,978
100.7465026495089,1118
103.18949922410604,1091
105.63182078126385,1036
108.07346752062438,984
110.51443964190923,849
112.95473734491827,840
115.39436082953114,856
117.83331029570547,890
120.27158594347827,890
122.7091879729652,978
125.1461165843615,960
127.58237197794062,853
130.01795435405518,862
132.4528639131364,956
134.88710085569494,897
137.32066538231982,882
139.75355769367923,959
142.1857779905207,898
144.61732647366978,795
147.04820334403132,858
149.47840880258934,912
151.90794305040674,1023
154.33680628862487,1164
156.76499871846443,1237
159.19252054122433,1331
161.61937195828352,1467
164.04555317109896,1651
166.47106438120693,1720
168.89590579022217,1957
171.320077599839,2197
173.7435800118302,2338
176.16641322804742,2441
178.58857745042144,2581
181.01007288096173,2698
183.43089972175687,2669
185.85105817497413,2608
188.27054844285988,2628
190.6893707277394,2689
193.10752523201643,2728
195.5250121581745,2686
197.9418317087751,2749
200.3579840864594,2789
202.7734694939469,2828
205.18828813403627,2908
207.6024402096051,2926
210.01592592360964,2915
212.42874547908548,2951
214.84089907914665,2950
217.2523869269868,2996
219.66320922587727,2990
222.0733661791695,2932
224.48285799029293,2993
226.8916848627572,2906
229.29984700014882,2928
231.7073446061355,3008
234.11417788446204,2955
236.520347038953,3035
238.92585227351185,3196
241.33069379212054,3201
243.73487179884035,3164
246.1383864978112,3257
248.541238093252,3217
250.9434267894609,3219
253.34495279081432,3296
255.74581630176783,3294
258.1460175268563,3297
260.54555667069314,3406
262.9444339379703,3325
265.3426495334594,3273
267.7402036620107,3160
270.1370965285529,3044
272.53332833809407,2869
274.9288992957214,2829
277.32380960660055,2838
279.718059475976,2726
282.1116491091717,2767
284.5045787115897,2817
286.89684848871195,2716
289.2884586460981,2715
291.67940938938807,2767
294.0697009242996,2840
296.4593334566299,2810
298.84830719225477,2738
301.23662233712923,2603
303.6242790972866,2704
306.01127767884,2629
308.39761828798066,2618
310.78330113097934,2590
313.16832641418534,2505
315.5526943440269,2502
317.9364051270112,2460
320.3194589697242,2419
322.70185607883093,2394
325.0835966610754,2401
327.4646809232805,2385
329.8451090723478,2428
332.2248813152577,2447
334.6039978590701,2368
336.9824589109231,2311
339.36026467803447,2308
341.7374153677,2255
344.113911187295,2355
346.48975234427337,2292
348.8649390461686,2208
351.2394715005918,2267
353.61334991523415,2227
355.9865744978655,2169
358.35914545633375,2261
360.73106299856715,2243
363.10232733257146,2214
365.47293866643247,2213
367.84289720831396,2135
370.2122031664593,2282
372.5808567491905,2216
374.9488581649083,2147
377.31620762209275,2128
379.6829053293021,2140
382.0489514951745,2130
384.4143463284262,2231
386.7790900378528,2183
389.14318283232853,2146
391.50662492080653,2139
393.86941651231916,2103
396.23155781597745,2155
398.5930490409713,2185
400.9538903965696,2102
403.3140820921202,2105
405.6736243370498,2159
408.03251734086336,2085
410.3907613131465,2015
412.74835646356166,2053
415.10530300185144,2106
417.4616011378372,2044
419.81725108141893,2057
422.1722530425758,2056
424.5266072313656,2202
426.880313857925,2084
429.2333731324701,2098
431.58578526529516,2132
433.9375504667738,2073
436.2886689473588,2059
438.63914091758113,2064
440.9889665880513,2113
443.33814616945835,2020
445.68667987257015,2071
448.03456790823395,2003
450.3818104873759,2032
452.72840782100013,2017
455.07436012019105,2010
457.41966759611057,1982
459.7643304600007,2089
462.10834892318155,2059
464.4517231970525,2075
466.79445349309174,1990
469.1365400228566,2016
471.4779829979826,2052
473.81878263018564,2093
476.15893913125876,2085
478.4984527130747,2167
480.8373235875855,2089
483.17555196682144,2151
485.5131380628919,2155
487.8500820879857,2250
490.1863842543697,2467
492.52204477439034,2678
494.8570638604725,2926
497.1914417251204,3116
499.52517858091653,3311
501.85827464052306,3526
504.19073011668036,3564
506.5225452222086,3414
508.85372017000566,3303
511.18425517304956,3216
513.514150444396,3421
515.8434061971808,4252
518.1720226446176,5234
520.4999999999999,5311
522.8273384766991,5034
525.1540382881666,4600
527.480099647932,4014
529.8055227696037,3415
532.1303078668694,2765
534.454455153496,2323
536.777964843328,2238
539.1008371502907,2232
541.4230722883866,2094
543.744670471698,2058
546.0656319143858,2124
548.3859568306899,2128
550.7056454349294,1997
553.0246979415016,1937
555.3431145648834,2068
557.6608955196306,2081
559.978041020377,2009
562.2945512818363,1985
564.6104265188006,2062
566.9256669461412,2084
569.2402727788082,2051
571.5542442318302,2052
573.8675815203156,2032
576.1802848594508,2115
578.4923544645015,2031
580.8037905508126,2138
583.114593333807,2114
585.4247630289875,2144
587.7342998519354,2095
590.0432040183106,2058
592.3514757438526,2043
594.6591152443794,2138
596.9661227357875,2053
599.2724984340531,2060
601.578242555231,2127
603.8833553154542,2136
606.1878369309362,2119
608.4916876179676,2119
610.7949075929192,2018
613.0974970722403,2067
615.3994562724587,2128
617.7007854101818,2185
620.0014847020951,2107
622.3015543649641,2064
624.6009946156324,2099
626.8998056710224,2104
629.1979877481361,2058
631.4955410640538,2157
633.7924658359349,2099
636.0887622810175,2090
638.3844306166192,2088
640.6794710601358,2109
642.9738838290426,2092
645.2676691408932,2168
647.5608272133207,2117
649.853358264037,2227
652.1452625108324,2230
654.4365401715764,2217
656.7271914642178,2203
659.0172166067838,2160
661.3066158173809,2205
663.5953893141935,2169
665.8835373154867,2094
668.1710600396028,2222
670.4579577049639,2152
672.7442305300709,2130
675.0298787335033,2200
677.3149025339197,2200
679.599302150058,2192
681.8830778007342,2181
684.1662297048437,2153
686.4487580813608,2164
688.7306631493387,2205
691.0119451279091,2180
693.2926042362834,2220
695.5726406937516,2110
697.8520547196814,2266
700.1308465335215,2124
702.4090163547982,2156
704.6865644031171,2101
706.9634908981619,2083
709.2397960596965,2153
711.5154801075631,2233
713.7905432616823,2131
716.0649857420548,2157
718.3388077687592,2113
720.612009561953,2167
722.8845913418733,2219
725.1565533288352,2194
727.427895743234,2074
729.6986188055427,2190
731.9687227363137,2168
734.238207756178,2152
736.5070740858458,2151
738.7753219461066,2141
741.0429515578281,2134
743.3099631419569,2107
745.5763569195191,2161
747.8421331116193,2217
750.1072919394409,2162
752.3718336242467,2075
754.6357583873777,2087
756.8990664502545,2100
759.1617580343765,2121
761.423833361321,2130
763.6852926527457,2126
765.9461361303862,2157
768.206364016058,2148
770.4659765316536,2172
772.7249738991469,2175
774.9833563405886,2133
777.2411240781092,2125
779.4982773339183,2182
781.7548163303044,2133
784.010741289634,2174
786.2660524343538,2255
788.5207499869881,2180
790.7748341701416,2159
793.0283052064964,2228
795.2811633188143,2130
797.5334087299362,2197
799.7850416627813,2152
802.0360623403484,2166
804.2864709857143,2185
806.5362678220353,2183
808.7854530725468,2239
811.0340269605625,2273
813.2819897094754,2222
815.5293415427581,2231
817.77608268396,2265
820.0222133567116,2227
822.2677337847211,2158
824.5126441917765,2169
826.7569448017433,2147
829.0006358385675,2231
831.2437175262731,2166
833.4861900889629,2187
835.7280537508192,2281
837.9693087361026,2189
840.2099552691533,2102
842.4499935743896,2198
844.689423876309,2149
846.9282463994886,2230
849.1664613685833,2218
851.4040690083276,2202
853.6410695435349,2166
855.877463199097,2194
858.1132501999847,2186
860.3484307712487,2190
862.5830051380175,2220
864.8169735254988,2233
867.0503361589791,2144
869.2830932638243,2209
871.5152450654786,2206
873.7467917894654,2216
875.9777336613873,2275
878.2080709069252,2296
880.4378037518389,2280
882.666932421968,2262
884.8954571432301,2237
887.1233781416219,2223
889.3506956432192,2348
891.5774098741766,2250
893.803521060728,2350
896.0290294291852,2270
898.2539352059397,2281
900.4782386174619,2253
902.7019398903011,2295
904.925039251085,2239
907.147536926521,2220
909.3694331433943,2204
911.59072812857,2236
913.8114221089921,2245
916.0315153116827,2299
918.2510079637437,2235
920.4699002923547,2246
922.6881925247761,2198
924.905884888345,2218
927.1229776104793,2165
929.3394709186747,2195
931.555365040506,2133
933.7706602036275,2224
935.9853566357709,2256
938.1994545647489,2194
940.4129542184515,2274
942.6258558248488,2209
944.8381596119883,2178
947.0498658079974,2151
949.2609746410825,2117
951.4714863395287,2148
953.6814011316998,2137
955.8907192460387,2151
958.0994409110671,2178
960.3075663553858,2202
962.5150958076741,2179
964.7220294966913,2182
966.928367651274,2107
969.1341105003388,2228
971.3392582728806,2122
973.5438111979742,2113
975.747769504772,2151
977.9511334225061,2048
980.153903180487,2163
982.3560790081052,2110
984.5576611348289,2125
986.7586497902058,2035
988.9590452038618,2039
991.158847605503,2065
993.3580572249133,2001
995.5566742919558,1988
997.7546990365728,1965
999.952131688785,2008
1002.1489724786926,1935
1004.3452216364743,1935
1006.5408793923874,1844
1008.7359459767691,1782
1010.9304216200343,1883
1013.1243065526781,1851
1015.3176010052733,1823
1017.510305208472,1884
1019.7024193930064,1819
1021.8939437896848,1843
1024.0848786293977,1851
1026.2752241431122,1843
1028.4649805618747,1829
1030.6541481168115,1815
1032.842727039127,1804
1035.0307175601051,1849
1037.2181199111074,1764
1039.4049343235752,1743
1041.591161029029,1838
1043.7768002590683,1777
1045.9618522453698,1721
1048.1463172196918,1766
1050.3301954138697,1744
1052.513487059818,1750
1054.69619238953,1809
1056.8783116350783,1756
1059.0598450286152,1781
1061.2407928023704,1781
1063.4211551886528,1749
1065.6009324198508,1755
1067.780124728432,1773
1069.9587323469414,1745
1072.1367555080046,1774
1074.314194444325,1792
1076.4910493886855,1745
1078.667320573947,1763
1080.843008233051,1703
1083.0181125990161,1655
1085.1926339049414,1729
1087.3665723840027,1715
1089.5399282694575,1728
1091.7127017946405,1710
1093.8848931929647,1649
1096.0565026979243,1687
1098.2275305430899,1612
1100.3979769621128,1679
1102.567842188722,1657
1104.737126456726,1650
1106.9058300000124,1606
1109.0739530525475,1667
1111.2414958483764,1676
1113.4084586216231,1692
1115.5748416064907,1646
1117.7406450372605,1632
1119.9058691482942,1722
1122.0705141740304,1651
1124.2345803489884,1631
1126.3980679077658,1675
1128.5609770850388,1619
1130.7233081155623,1686
1132.8850612341707,1607
1135.0462366757774,1624
1137.2068346753745,1601
1139.3668554680326,1652
1141.526299288901,1605
1143.68516637321,1666
1145.8434569562655,1663
1148.001171273455,1621
1150.158309560244,1654
1152.3148720521767,1651
1154.470858984876,1613
1156.626270594044,1573
1158.7811071154629,1631
1160.9353687849912,1629
1163.089055838569,1631
1165.242168512213,1611
1167.3947070420209,1590
1169.5466716641677,1565
1171.6980626149075,1582
1173.8488801305748,1622
1175.9991244475814,1594
1178.1487958024186,1630
1180.2978944316555,1567
1182.4464205719428,1551
1184.5943744600072,1587
1186.7417563326567,1610
1188.8885664267755,1527
1191.0348049793297,1540
1193.1804722273619,1553
1195.325568407995,1609
1197.4700937584303,1626
1199.614048515948,1581
1201.7574329179074,1619
1203.900247201746,1639
1206.042491604982,1530
1208.1841663652099,1656
1210.3252717201053,1718
1212.465807907422,1652
1214.6057751649923,1598
1216.7451737307279,1592
1218.8840038426192,1645
1221.0222657387353,1611
1223.1599596572241,1638
1225.2970858363137,1680
1227.4336445143094,1588
1229.5696359295966,1697
1231.705060320639,1655
1233.8399179259786,1667
1235.9742089842384,1687
1238.107933734118,1655
1240.2410924143974,1615
1242.373685263935,1679
1244.5057125216676,1641
1246.6371744266116,1682
1248.7680712178621,1718
1250.898403134593,1752
1253.028170416058,1677
1255.1573733015875,1728
1257.2860120305932,1660
1259.4140868425648,1688
1261.54159797707,1722
1263.6685456737569,1703
1265.7949301723515,1670
1267.9207517126597,1706
1270.046010534565,1703
1272.1707068780306,1729
1274.2948409830983,1684
1276.4184130898889,1750
1278.541423438603,1763
1280.6638722695184,1765
1282.785759822993,1764
1284.9070863394636,1799
1287.0278520594447,1697
1289.1480572235314,1788
1291.2677020723963,1735
1293.3867868467923,1787
1295.5053117875495,1761
1297.623277135579,1769
1299.740683131868,1824
1301.8575300174857,1819
1303.973818033578,1847
1306.0895474213703,1774
1308.2047184221678,1864
1310.3193312773528,1845
1312.4333862283888,1826
1314.5468835168163,1780
1316.659823384255,1807
1318.7722060724045,1855
1320.8840318230418,1807
1322.9953008780249,1800
1325.1060134792888,1867
1327.2161698688478,1811
1329.3257702887959,1879
1331.4348149813054,1860
1333.5433041886276,1856
1335.6512381530933,1886
1337.7586171171101,1829
1339.8654413231675,1794
1341.9717110138317,1842
1344.0774264317488,1801
1346.1825878196432,1774
1348.2871954203192,1791
1350.3912494766587,1843
1352.4947502316231,1752
1354.5976979282532,1753
1356.7000928096686,1843
1358.8019351190665,1859
1360.9032250997243,1809
1363.0039629949988,1740
1365.1041490483235,1877
1367.2037835032133,1871
1369.3028666032606,1780
1371.401398592137,1836
1373.4993797135926,1819
1375.5968102114575,1871
1377.6936903296396,1808
1379.7900203121262,1820
1381.8858004029835,1829
1383.9810308463561,1810
1386.075711886469,1892
1388.1698437676241,1783
1390.2634267342032,1804
1392.356461030667,1943
1394.4489469015557,1927
1396.5408845914872,1926
1398.6322743451592,1862
1400.7231164073469,1898
1402.813411022907,1850
1404.903158436773,1968
1406.9923588939578,1928
1409.0810126395531,1896
1411.1691199187303,1999
1413.2566809767386,1980
1415.343696058907,2014
1417.4301654106425,2009
1419.5160892774315,1935
1421.6014679048399,2047
1423.6863015385125,2037
1425.7705904241707,2044
1427.8543348076178,2058
1429.9375349347342,2146
1432.0201910514802,2071
1434.102303403894,2035
1436.1838722380944,2152
1438.2648978002767,2133
1440.3453803367174,2153
1442.4253200937692,2157
1444.5047173178677,2198
1446.5835722555234,2164
1448.6618851533285,2292
1450.739656257952,2278
1452.8168858161434,2327
1454.8935740747306,2416
1456.96972128062,2405
1459.045327680797,2465
1461.120393522327,2357
1463.1949190523528,2553
1465.2689045180973,2604
1467.3423501668608,2607
1469.415256246024,2649
1471.4876230030463,2654
1473.559450685465,2725
1475.6307395408976,2701
1477.7014898170391,2809
1479.771701761665,2772
1481.8413756226287,2872
1483.9105116478618,2906
1485.9791100853772,2934
1488.0471711832643,2940
1490.1146951896926,2956
1492.1816823529098,2961
1494.2481329212433,3021
1496.3140471430984,3111
1498.3794252669609,3057
1500.4442675413939,3224
1502.5085742150404,3223
1504.572345536622,3214
1506.6355817549388,3270
1508.6982831188702,3379
1510.7604498773744,3317
1512.8220822794883,3307
1514.8831805743293,3386
1516.9437450110909,3343
1519.003775839048,3400
1521.0632733075522,3494
1523.1222376660367,3508
1525.1806691640113,3432
1527.2385680510652,3441
1529.2959345768668,3511
1531.3527689911643,3498
1533.4090715437833,3624
1535.4648424846291,3743
1537.5200820636855,3792
1539.5747905310159,3824
1541.6289681367616,3744
1543.6826151311434,3973
1545.7357317644614,3789
1547.7883182870937,3895
1549.8403749494987,4031
1551.8919020022113,4029
1553.9428996958477,4161
1555.9933682811015,4202
1558.0433080087469,4222
1560.0927191296346,4348
1562.1416018946961,4407
1564.1899565549415,4270
1566.2377833614592,4268
1568.2850825654164,4174
1570.3318544180606,4113
1572.3780991707158,3961
1574.423817074788,3760
1576.4690083817595,3639
1578.5136733431923,3532
1580.5578122107272,3345
1582.601425236085,3257
1584.6445126710646,2994
1586.6870747675434,2931
1588.7291117774776,2835
1590.7706239529034,2769
1592.8116115459347,2753
1594.8520748087658,2621
1596.8920139936686,2532
1598.9314293529933,2435
1600.9703211391711,2360
1603.008689604711,2259
1605.0465350022005,2272
1607.0838575843068,2174
1609.1206576037753,2124
1611.1569353134305,2097
1613.1926909661765,2068
1615.2279248149953,2070
1617.2626371129481,2042
1619.2968281131757,1930
1621.3304980688963,1972
1623.3636472334088,1937
1625.39627586009,1891
1627.428384202396,1957
1629.459972513861,1872
1631.4910410480993,1846
1633.5215900588028,1850
1635.551619799744,1803
1637.5811305247717,1793
1639.6101224878166,1776
1641.6385959428862,1792
1643.6665511440683,1809
1645.693988345528,1806
1647.7209078015112,1804
1649.7473097663405,1742
1651.7731944944203,1812
1653.7985622402307,1836
1655.823413258333,1745
1657.847747803366,1740
1659.8715661300494,1697
1661.8948684931793,1777
1663.9176551476316,1750
1665.9399263483624,1710
1667.9616823504057,1745
1669.982923408873,1721
1672.0036497789574,1725
1674.0238617159293,1785
1676.043559475138,1753
1678.0627433120121,1727
1680.081413482059,1684
1682.0995702408654,1706
1684.117213844096,1719
1686.134344547495,1710
1688.1509626068864,1755
1690.1670682781705,1649
1692.182661817329,1726
1694.1977434804217,1756
1696.2123135235875,1649
1698.226372203043,1688
1700.2399197750851,1719
1702.2529564960905,1691
1704.2654826225112,1725
1706.277498410882,1693
1708.2890041178139,1718
1710.2999999999988,1676
1712.3104863142066,1665
1714.3204633172854,1658
1716.329931266163,1625
1718.3388904178469,1641
1720.3473410294214,1651
1722.3552833580516,1662
1724.3627176609807,1672
1726.3696441955308,1616
1728.3760632191033,1581
1730.3819749891782,1604
1732.3873797633146,1610
1734.3922777991502,1625
1736.3966693544012,1588
1738.4005546868639,1642
1740.4039340544127,1663
1742.406807715001,1615
1744.4091759266616,1688
1746.4110389475054,1619
1748.4123970357223,1591
1750.413250449582,1564
1752.4135994474318,1605
1754.4134442876993,1557
1756.4127852288902,1559
1758.4116225295893,1618
1760.4099564484595,1562
1762.407787244244,1603
1764.405115175764,1545
1766.4019405019203,1520
1768.3982634816916,1549
1770.3940843741357,1593
1772.3894034383907,1626
1774.3842209336717,1555
1776.378537119274,1514
1778.372352254571,1561
1780.3656665990156,1560
1782.3584804121397,1589
1784.3507939535534,1550
1786.3426074829463,1566
1788.3339212600863,1563
1790.3247355448211,1519
1792.3150505970766,1514
1794.3048666768573,1586
1796.2941840442477,1542
1798.2830029594106,1516
1800.2713236825884,1542
1802.2591464741004,1523
1804.2464715943465,1550
1806.2332993038058,1540
1808.2196298630352,1569
1810.2054635326708,1541
1812.190800573428,1563
1814.175641246101,1564
1816.1599858115628,1524
1818.1438345307652,1571
1820.127187664738,1531
1822.1100454745924,1528
1824.092408221516,1564
1826.0742761667766,1466
1828.055649571721,1512
1830.0365286977735,1548
1832.0169138064398,1525
1833.9968051593014,1541
1835.9762030180214,1487
1837.9551076443408,1509
1839.9335193000788,1496
1841.9114382471344,1593
1843.888864747485,1587
1845.8657990631878,1537
1847.842241456378,1558
1849.8181921892697,1521
1851.7936515241558,1538
1853.7686197234098,1547
1855.7430970494815,1535
1857.7170837649014,1554
1859.6905801322787,1550
1861.6635864143004,1530
1863.6361028737338,1527
1865.608129773424,1543
1867.5796673762961,1507
1869.5507159453537,1512
1871.521275743678,1510
1873.4913470344313,1516
1875.4609300808534,1542
1877.4300251462632,1539
1879.3986324940588,1532
1881.366752387717,1534
1883.3343850907936,1518
1885.3015308669228,1579
1887.268189979819,1558
1889.2343626932739,1565
1891.2000492711595,1564
1893.1652499774254,1567
1895.1299650761011,1691
1897.0941948312952,1514
1899.0579395071945,1544
1901.0211993680641,1571
1902.98397467825,1656
1904.9462657021745,1589
1906.9080727043415,1589
1908.869395949332,1553
1910.8302357018065,1616
1912.790592226504,1548
1914.7504657882428,1519
1916.7098566519212,1509
1918.6687650825133,1586
1920.6271913450764,1569
1922.5851357047422,1533
1924.5425984267245,1483
1926.499579776314,1521
1928.4560800188833,1559
1930.4120994198802,1580
1932.367638244833,1505
1934.32269675935,1545
1936.2772752291175,1521
1938.231373919899,1565
1940.1849930975404,1615
1942.1381330279637,1511
1944.0907939771696,1571
1946.0429762112412,1556
1947.9946799963363,1517
1949.9459055986945,1495
1951.896653284633,1566
1953.8469233205478,1573
1955.7967159729142,1509
1957.7460315082863,1544
1959.6948701932974,1550
1961.6432322946594,1647
1963.5911180791632,1539
1965.5385278136787,1528
1967.4854617651545,1554
1969.4319202006182,1492
1971.377903387176,1510
1973.3234115920136,1515
1975.268445082395,1526
1977.2130041256642,1487
1979.1570889892423,1610
1981.1006999406304,1499
1983.04383724741,1475
1984.986501177238,1545
1986.928691997853,1466
1988.8704099770712,1519
1990.811655382789,1545
1992.7524284829801,1541
1994.692729545698,1561
1996.6325588390755,1514
1998.5719166313224,1498
2000.5108031907307,1504
2002.4492187856677,1556
2004.387163684583,1530
2006.3246381560011,1457
2008.2616424685298,1460
2010.1981768908527,1536
2012.1342416917332,1500
2014.069837140014,1493
2016.0049635046162,1488
2017.9396210545406,1491
2019.8738100588666,1466
2021.8075307867502,1503
2023.740783507431,1516
2025.6735684902228,1437
2027.6058860045214,1432
2029.5377363198004,1511
2031.4691197056118,1504
2033.4000364315875,1479
2035.3304867674374,1415
2037.260470982952,1495
2039.189989347998,1481
2041.1190421325232,1416
2043.047629606554,1493
2044.9757520401945,1404
2046.9034097036288,1495
2048.8306028671195,1486
2050.7573318010086,1437
2052.683596775716,1400
2054.609398061742,1445
2056.5347359296647,1418
2058.4596106501403,1443
2060.384022493906,1444
2062.3079717317764,1438
2064.231458634646,1469
2066.1544834734873,1441
2068.077046519352,1460
2069.99914804337,1464
2071.9207883167524,1436
2073.8419676107865,1441
2075.7626861968406,1405
2077.6829443463607,1403
2079.6027423308715,1445
2081.522080421977,1451
2083.440958891362,1533
2085.359378010786,1486
2087.2773380520907,1491
2089.194839287196,1461
2091.111881988101,1437
2093.0284664268825,1506
2094.9445928756973,1433
2096.86026160678,1476
2098.775472892446,1504
2100.690227005088,1490
2102.604524217178,1475
2104.5183648012676,1496
2106.431749029985,1404
2108.34467717604,1470
2110.2571495122206,1502
2112.169166311393,1447
2114.080727846503,1431
2115.9918343905747,1526
2117.902486216711,1495
2119.8126835980956,1454
2121.722426807987,1420
2123.6317161197285,1483
2125.5405518067364,1544
2127.448934142509,1443
2129.356863400624,1516
2131.264339854737,1536
2133.1713637785815,1515
2135.077935445972,1487
2136.9840551308002,1534
2138.889723107037,1527
2140.7949396487334,1494
2142.699705030018,1547
2144.6040195250994,1555
2146.507883408264,1526
2148.4112969538774,1518
2150.3142604363848,1503
2152.2167741303097,1518
2154.1188383102535,1521
2156.0204532508997,1519
2157.9216192270064,1580
2159.822336513414,1502
2161.7226053850413,1490
2163.622426116884,1497
2165.5217989840185,1537
2167.4207242616,1564
2169.319202224862,1530
2171.2172331491165,1539
2173.1148173097563,1530
2175.0119549822507,1545
2176.90864644215,1518
2178.8048919650823,1555
2180.7006918267534,1474
2182.596046302952,1554
2184.4909556695407,1572
2186.3854202024645,1555
2188.279440177746,1552
2190.173015871487,1606
2192.066147559868,1569
2193.958835519149,1569
2195.851080025667,1533
2197.7428813558417,1502
2199.6342397861667,1578
2201.5251555932186,1624
2203.415629053651,1596
2205.3056604441986,1567
2207.19525004167,1589
2209.084398122958,1616
2210.9731049650327,1604
2212.861370844941,1657
2214.749196039812,1606
2216.636580826851,1660
2218.523525483344,1583
2220.410030286655,1600
2222.296095514226,1649
2224.1817214435805,1627
2226.066908352319,1661
2227.951656518121,1596
2229.835966218746,1617
2231.71983773203,1634
2233.6032713358913,1643
2235.486267308324,1623
2237.3688259274036,1663
2239.2509474712824,1575
2241.132632218193,1582
2243.013880446447,1633
2244.8946924344323,1592
2246.7750684606203,1619
2248.6550088035574,1595
2250.534513741871,1645
2252.413583554265,1668
2254.292218519526,1629
2256.170418916517,1664
2258.0481850241786,1623
2259.925517121534,1640
2261.8024154876825,1618
2263.678880401803,1656
2265.5549121431536,1590
2267.430510991071,1606
2269.305677224971,1586
2271.180411124348,1646
2273.0547129687766,1614
2274.9285830379076,1594
2276.8020216114737,1604
2278.6750289692845,1671
2280.5476053912294,1630
2282.4197511572766,1677
2284.2914665474727,1702
2286.162751841943,1661
2288.0336073208937,1710
2289.904033264608,1678
2291.774029953448,1647
2293.6435976678554,1691
2295.5127366883517,1634
2297.381447295534,1633
2299.2497297700825,1494
2301.1175843927526,1510
2302.9850114443825,1491
2304.852011205885,1481
2306.7185839582553,1439
2308.5847299825664,1442
2310.4504495599676,1396
2312.3157429716925,1459
2314.1806104990483,1392
2316.0450524234247,1431
2317.9090690262888,1416
2319.772660589186,1383
2321.635827393742,1368
2323.498569721661,1335
2325.3608878547248,1385
2327.2227820747967,1396
2329.0842526638157,1376
2330.945299903803,1404
2332.805924076857,1365
2334.6661254651535,1390
2336.525904350951,1415
2338.3852610165827,1355
2340.244195744464,1344
2342.102708817088,1367
2343.9608005170253,1411
2345.8184711269287,1330
2347.675720929526,1374
2349.532550207628,1395
2351.38895924412,1397
2353.24494832197,1471
2355.100517724223,1430
2356.955667734004,1413
2358.810398634514,1463
2360.664710709037,1443
2362.5186042409337,1404
2364.3720795136437,1393
2366.225136810686,1474
2368.0777764156583,1405
2369.929998612237,1422
2371.7818036841777,1395
2373.633191915315,1378
2375.484163589562,1413
2377.3347189909114,1500
2379.184858403434,1406
2381.03458211128,1458
2382.8838903986775,1372
2384.732783549936,1404
2386.5812618494406,1402
2388.4293255816588,1447
2390.2769750311327,1399
2392.1242104824883,1493
2393.971032220427,1370
2395.8174405297295,1421
2397.6634356952563,1402
2399.509018001947,1428
2401.3541877348193,1405
2403.1989451789705,1474
2405.043290619576,1450
2406.8872243418905,1428
2408.730746631247,1451
2410.5738577730594,1396
2412.4165580528183,1418
2414.258847756095,1389
2416.100727168537,1415
2417.9421965758734,1452
2419.783256263912,1404
2421.623906518538,1423
2423.4641476257157,1400
2425.303979871491,1471
2427.143403541984,1458
2428.9824189233977,1491
2430.821026302012,1479
2432.6592259641866,1421
2434.497018196361,1449
2436.33440328505,1474
2438.171381516851,1388
2440.00795317844,1453
2441.844118556569,1397
2443.6798779380724,1436
2445.5152316098606,1472
2447.3501798589255,1503
2449.1847229723357,1467
2451.0188612372403,1405
2452.8525949408663,1420
2454.6859243705203,1432
2456.518849813587,1431
2458.3513715575314,1493
2460.183489889895,1424
2462.015205098301,1373
2463.8465174704493,1463
2465.67742729412,1442
2467.5079348571717,1418
2469.338040447542,1509
2471.1677443532476,1382
2472.9970468623833,1440
2474.825948263123,1417
2476.6544488437207,1485
2478.482548892508,1479
2480.310248697896,1468
2482.137548548374,1472
2483.9644487325118,1514
2485.790949538956,1475
2487.617051256433,1500
2489.44275417375,1501
2491.26805857979,1472
2493.0929647635157,1436
2494.917473013971,1492
2496.741583620276,1489
2498.5652968716304,1463
2500.3886130573137,1463
2502.2115324666834,1529
2504.0340553891765,1552
2505.856182114308,1473
2507.6779129316733,1510
2509.499248130945,1524
2511.3201880018764,1451
2513.140732834298,1578
2514.9608829181198,1543
2516.780638543331,1517
2518.6,1486
2520.418967578273,1501
2522.237541568376,1499
2524.0557222606144,1479
2525.8735099453706,1568
2527.6909049131086,1593
2529.507907454368,1505
2531.32451785977,1541
2533.140736420014,1555
2534.9565634258774,1579
2536.771999168218,1562
2538.5870439379714,1597
2540.4016980261526,1613
2542.2159617238544,1626
2544.02983532225,1608
2545.8433191125914,1625
2547.656413386209,1611
2549.4691184345115,1657
2551.2814345489874,1634
2553.093362021204,1710
2554.904901142808,1722
2556.716052205523,1668
2558.526815501153,1712
2560.3371913215824,1704
2562.147179958771,1651
2563.956781704761,1648
2565.7659968516705,1751
2567.5748256916986,1736
2569.3832685171224,1784
2571.1913256202984,1739
2572.9989972936614,1728
2574.806283829725,1743
2576.613185521084,1771
2578.4197026604074,1746
2580.2258355404483,1801
2582.031584454035,1860
2583.836949694077,1819
2585.6419315535613,1895
2587.4465303255533,1817
2589.2507463032002,1884
2591.0545797797245,1817
2592.8580310484303,1831
2594.6611004026995,1800
2596.463788135992,1871
2598.266094541849,1897
2600.0680199138874,1773
2601.869564545807,1890
2603.670728731383,1816
2605.4715127644704,1870
2607.2719169390048,1821
2609.071941548998,1853
2610.8715868885433,1843
2612.670853251811,1799
2614.469740933052,1849
2616.268250226594,1884
2618.0663814268455,1812
2619.864134828292,1816
2621.6615107255006,1773
2623.458509413115,1775
2625.2551311858597,1759
2627.0513763385347,1734
2628.8472451660223,1823
2630.6427379632833,1738
2632.4378550253564,1773
2634.232596647359,1727
2636.026963124488,1686
2637.8209547520187,1737
2639.6145718253065,1724
2641.407814639785,1670
2643.200683490966,1671
2644.9931786744414,1717
2646.7853004858807,1685
2648.577049221034,1692
2650.3684251757277,1617
2652.1594286458712,1640
2653.9500599274484,1642
2655.740319316525,1578
2657.5302071092437,1549
2659.3197236018286,1590
2661.10886909058,1585
2662.8976438718782,1588
2664.686048242183,1575
2666.4740824980327,1633
2668.2617469360443,1533
2670.0490418529134,1570
2671.8359675454153,1557
2673.622524310403,1568
2675.408712444811,1535
2677.1945322456495,1532
2678.979984010009,1492
2680.76506803506,1546
2682.5497846180497,1541
2684.334134056306,1483
2686.1181166472343,1428
2687.9017326883213,1492
2689.6849824771293,1429
2691.4678663113013,1475
2693.2503844885596,1514
2695.032537306705,1469
2696.8143250636167,1507
2698.5957480572542,1472
2700.3768065856534,1445
2702.1575009469316,1434
2703.937831439283,1457
2705.717798360982,1449
2707.4974020103837,1468
2709.276642685917,1478
2711.055520686095,1435
2712.834036309506,1502
2714.612189854819,1405
2716.389981620782,1444
2718.1674119062204,1426
2719.944481010041,1398
2721.721189231226,1378
2723.4975368688415,1356
2725.273524222027,1381
2727.0491515900053,1415
2728.824419272075,1388
2730.5993275676146,1420
2732.3738767760838,1430
2734.148067197016,1400
2735.921899130031,1411
2737.6953728748194,1355
2739.468488731156,1417
2741.2412469988926,1363
2743.0136479779617,1374
2744.785691968372,1357
2746.5573792702116,1374
2748.3287101836504,1341
2750.099685008934,1380
2751.870304046388,1386
2753.640567596418,1408
2755.4104759595057,1388
2757.1800294362156,1406
2758.949228327187,1341
2760.7180729331412,1349
2762.486563554877,1348
2764.254700493272,1378
2766.022484049284,1425
2767.789914523947,1313
2769.5569922183786,1324
2771.3237174337705,1361
2773.090090471394,1349
2774.8561116326036,1415
2776.6217812188274,1381
2778.3870995315756,1364
2780.1520668724356,1394
2781.9166835430747,1380
2783.6809498452394,1353
2785.444866080754,1351
2787.2084325515225,1403
2788.971649559527,1393
2790.73451740683,1348
2792.4970363955713,1400
2794.2592068279705,1360
2796.0210290063264,1344
2797.7825032330147,1384
2799.543629810493,1377
2801.304409041296,1391
2803.0648412280366,1368
2804.8249266734088,1370
2806.5846656801846,1330
2808.344058551212,1392
2810.1031055894246,1363
2811.8618070978273,1324
2813.6201633795085,1350
2815.378174737636,1363
2817.1358414754536,1367
2818.893163896285,1349
2820.6501423035334,1416
2822.4067770006814,1336
2824.1630682912883,1336
2825.9190164789957,1384
2827.6746218675207,1377
2829.429884760661,1410
2831.184805462294,1396
2832.9393842763743,1352
2834.693621506936,1353
2836.4475174580916,1346
2838.201072434034,1337
2839.954286739034,1363
2841.707160677441,1343
2843.459694553685,1386
2845.2118886722724,1404
2846.96374333779,1316
2848.7152588549034,1329
2850.4664355283567,1424
2852.217273662973,1393
2853.9677735636546,1411
2855.7179355353833,1372
2857.4677598832186,1337
2859.217246912299,1316
2860.9663969278427,1433
2862.715210235146,1290
2864.4636871395846,1355
2866.211827946614,1366
2867.9596329617652,1338
2869.7071024906536,1381
2871.4542368389684,1391
2873.20103631248,1318
2874.947501217038,1337
2876.6936318585695,1320
2878.4394285430812,1429
2880.1848915766604,1368
2881.9300212654707,1336
2883.6748179157553,1415
2885.4192818338374,1377
2887.1634133261173,1325
2888.907212699077,1354
2890.6506802592744,1327
2892.393816313348,1401
2894.1366211680142,1389
2895.8790951300693,1442
2897.621238506388,1372
2899.363051603925,1376
2901.1045347297118,1330
2902.8456881908596,1329
2904.58651229456,1345
2906.327007348081,1328
2908.067173658772,1299
2909.8070115340597,1286
2911.5465212814497,1373
2913.285703208527,1333
2915.0245576229563,1360
2916.7630848324807,1353
2918.5012851449196,1354
2920.2391588681758,1319
2921.976706310227,1375
2923.7139277791334,1377
2925.4508235830313,1305
2927.187394030137,1329
2928.923639428745,1335
2930.6595600872306,1329
2932.395156314046,1373
2934.1304284177218,1320
2935.8653767068713,1372
2937.6000014901815,1381
2939.3343030764227,1302
2941.068281774442,1399
2942.8019378931644,1364
2944.5352717415976,1417
2946.2682836288236,1367
2948.0009738640065,1360
2949.7333427563885,1344
2951.465390615289,1382
2953.1971177501086,1325
2954.9285244703265,1308
2956.6596110855,1338
2958.3903779052657,1342
2960.1208252393385,1371
2961.8509533975125,1372
2963.5807626896617,1331
2965.3102534257378,1314
2967.0394259157715,1359
2968.768280469873,1346
2970.496817398232,1359
2972.2250370111146,1377
2973.952939618869,1375
2975.6805255319196,1426
2977.4077950607707,1431
2979.134748516006,1384
2980.861386208289,1430
2982.587708448359,1461
2984.313715547037,1394
2986.039407815222,1364
2987.764785563891,1290
2989.489849104102,1324
2991.2145987469908,1369
2992.9390348037705,1332
2994.6631575857346,1334
2996.3869674042576,1351
2998.1104645707887,1337
2999.83364939686,1338
3001.5565221940783,1337
3003.2790832741334,1352
3005.0013329487924,1307
3006.7232715298996,1360
3008.4448993293804,1321
3010.166216659239,1332
3011.887223831558,1285
3013.607921158498,1316
3015.3283089522993,1340
3017.0483875252826,1391
3018.7681571898443,1312
3020.4876182584626,1422
3022.2067710436927,1314
3023.9256158581707,1332
3025.644153014609,1348
3027.362382825801,1360
3029.0803056046193,1365
3030.797921664012,1337
3032.5152313170106,1346
3034.2322348767225,1313
3035.9489326563353,1305
3037.665324969115,1424
3039.3814121284063,1358
3041.097194447633,1328
3042.812672240299,1346
3044.5278458199855,1330
3046.2427155003525,1326
3047.9572815951406,1330
3049.671544418167,1332
3051.38550428333,1328
3053.0991615046073,1376
3054.812516396051,1360
3056.5255692717974,1383
3058.2383204460575,1388
3059.9507702331257,1354
3061.662918947372,1353
3063.3747669032446,1316
3065.0863144152736,1342
3066.7975617980674,1331
3068.508509366309,1292
3070.219157434767,1322
3071.9295063182844,1399
3073.639556331785,1380
3075.3493077902704,1313
3077.058761008821,1367
3078.7679163025964,1345
3080.476773986837,1368
3082.1853343768594,1327
3083.89359778806,1346
3085.6015645359153,1382
3087.3092349359786,1312
3089.016609303884,1369
3090.7236879553434,1380
3092.4304712061476,1327
3094.136959372166,1395
3095.843152769349,1374
3097.5490517137237,1382
3099.2546565213966,1355
3100.959967508554,1380
3102.66498499146,1336
3104.3697092864577,1367
3106.0741407099695,1399
3107.778279578498,1334
3109.482126208622,1391
3111.1856809170004,1337
3112.8889440203716,1351
3114.5919158355528,1356
3116.294596679439,1331
3117.996986869006,1394
3119.6990867213062,1431
3121.4008965534726,1344
3123.102416682717,1426
3124.803647426329,1352
3126.5045891016784,1412
3128.205242026213,1400
3129.90560651746,1360
3131.605682893025,1374
3133.3054714705922,1379
3135.0049725679282,1410
3136.7041865028714,1352
3138.4031135933465,1371
3140.101754157353,1306
3141.800108512971,1376
3143.498176978357,1357
3145.1959598717494,1321
3146.8934575114636,1383
3148.5906702158954,1387
3150.2875983035183,1349
3151.9842420928853,1315
3153.680601902627,1444
3155.376678051456,1388
3157.07247085816,1327
3158.767980641609,1320
3160.463207720748,1398
3162.158152414606,1327
3163.8528150422862,1420
3165.5471959229726,1387
3167.2412953759303,1397
3168.9351137204976,1387
3170.628651276098,1370
3172.3219083622307,1360
3174.014885298474,1363
3175.707582404485,1359
3177.4000000000005,1394
3179.092138404835,1337
3180.7839979388846,1358
3182.47557892212,1304
3184.166881674594,1334
3185.8579065164386,1325
3187.5486537678626,1356
3189.2391237491547,1348
3190.9293167806827,1396
3192.6192331828934,1402
3194.3088732763117,1357
3195.998237381542,1291
3197.687325819268,1323
3199.376138910251,1317
3201.064676975334,1316
3202.7529403354347,1309
3204.4409293115523,1312
3206.1286442247647,1286
3207.816085396229,1340
3209.5032531471825,1310
3211.190147798936,1246
3212.8767696728846,1279
3214.5631190905015,1319
3216.2491963733373,1319
3217.9350018430214,1301
3219.6205358212637,1351
3221.305798629851,1329
3222.990790590651,1258
3224.6755120256103,1308
3226.359963256751,1308
3228.0441446061795,1337
3229.7280563960758,1320
3231.411698948703,1362
3233.0950725863995,1311
3234.778177631587,1394
3236.461014406761,1348
3238.1435832345005,1369
3239.8258844374595,1273
3241.507918338374,1299
3243.1896852600576,1314
3244.8711855254023,1330
3246.552419457381,1336
3248.233387379042,1296
3249.914089613516,1351
3251.59452648401,1267
3253.274698313813,1339
3254.95460542629,1349
3256.6342481448855,1307
3258.313626793125,1319
3259.9927416946084,1290
3261.6715931730196,1268
3263.3501815521176,1283
3265.0285071557437,1287
3266.706570307815,1267
3268.3843713323286,1308
3270.0619105533615,1269
3271.739188295068,1306
3273.4162048816834,1273
3275.0929606375184,1345
3276.769455886966,1314
3278.445690954498,1318
3280.1216661646613,1298
3281.797381842087,1372
3283.4728383114807,1325
3285.1480358976296,1343
3286.8229749253996,1338
3288.4976557197333,1313
3290.172078605655,1288
3291.846243908266,1325
3293.5201519527463,1227
3295.193803064357,1277
3296.8671975684374,1304
3298.5403357904024,1249
3300.21321805575,1334
3301.8858446900567,1284
3303.558216018975,1283
3305.23033236824,1290
3306.9021940636603,1320
3308.57380143113,1319
3310.2451547966184,1308
3311.916254486174,1319
3313.5871008259246,1318
3315.2576941420766,1291
3316.9280347609147,1320
3318.5981230088046,1323
3320.2679592121895,1319
3321.9375436975924,1313
3323.606876791612,1304
3325.27595882093,1275
3326.944790112305,1342
3328.6133709925753,1301
3330.2817017886573,1263
3331.949782827547,1299
3333.617614436319,1365
3335.2851969421245,1289
3336.952530672199,1312
3338.619615953853,1306
3340.286453114475,1340
3341.9530424815357,1317
3343.619384382583,1314
3345.2854791452437,1289
3346.951327097224,1308
3348.6169285663073,1310
3350.2822838803577,1287
3351.947393367319,1312
3353.61225735521,1345
3355.2768761721345,1270
3356.9412501462693,1328
3358.605379605873,1255
3360.2692648792827,1311
3361.9329062949146,1319
3363.596304181263,1320
