CollectionTime,7/9/2024 11:43:20 AM
ExposureUsed,3
CalibratedSpectrum
-962.7078968117929,559
-959.9714848408522,560
-957.2358232597828,603
-954.5009119013725,598
-951.7667505983302,571
-949.0333391832855,577
-946.3006774887896,565
-943.5687653473143,611
-940.837602591253,574
-938.1071890529199,577
-935.3775245645503,559
-932.6486089583007,587
-929.9204420662485,600
-927.1930237203925,624
-924.4663537526524,583
-921.7404319948689,580
-919.0152582788041,615
-916.2908324361409,654
-913.5671542984834,594
-910.8442236973568,592
-908.1220404642074,575
-905.4006044304027,615
-902.679915427231,609
-899.959973285902,586
-897.2407778375464,575
-894.5223289132158,598
-891.8046263438832,575
-889.0876699604426,577
-886.3714595937089,624
-883.6559950744183,572
-880.9412762332282,570
-878.2273029007168,591
-875.5140749073835,554
-872.8015920836489,559
-870.0898542598545,556
-867.3788612662631,564
-864.6686129330585,560
-861.9591090903457,565
-859.2503495681506,580
-856.5423341964203,585
-853.8350628050229,553
-851.1285352237478,564
-848.4227512823054,554
-845.7177108103272,568
-843.0134136373656,569
-840.3098595928943,597
-837.6070485063082,619
-834.9049802069229,581
-832.2036545239757,599
-829.5030712866244,578
-826.8032303239481,613
-824.1041314649472,642
-821.4057745385428,605
-818.7081593735775,598
-816.0112857988148,581
-813.3151536429393,578
-810.6197627345566,601
-807.9251129021936,575
-805.2312039742981,615
-802.5380357792392,573
-799.8456081453069,584
-797.1539209007124,603
-794.462973873588,613
-791.772766891987,659
-789.083299783884,606
-786.3945723771743,614
-783.7065844996748,607
-781.0193359791231,617
-778.3328266431781,616
-775.6470563194197,609
-772.9620248353489,614
-770.2777320183878,577
-767.5941776958798,596
-764.9113616950891,616
-762.2292838432011,609
-759.5479439673222,617
-756.8673418944801,605
-754.1874774516235,606
-751.5083504656222,632
-748.8299607632671,649
-746.15230817127,623
-743.475392516264,611
-740.7992136248035,618
-738.1237713233636,646
-735.4490654383407,600
-732.7750957960521,623
-730.1018622227365,628
-727.4293645445534,653
-724.7576025875837,638
-722.0865761778291,637
-719.4162851412126,631
-716.7467293035781,657
-714.0779084906909,686
-711.409822528237,673
-708.7424712418238,671
-706.0758544569796,657
-703.4099719991541,639
-700.7448236937178,651
-698.0804093659622,652
-695.4167288411002,676
-692.7537819442656,659
-690.0915685005134,641
-687.4300883348199,686
-684.7693412720819,684
-682.1093271371178,628
-679.4500457546669,672
-676.7914969493897,683
-674.1336805458676,703
-671.4765963686034,713
-668.8202442420206,685
-666.1646239904642,675
-663.5097354382001,687
-660.8555784094151,693
-658.2021527282176,697
-655.5494582186366,686
-652.8974947046223,706
-650.2462620100463,651
-647.5957599587009,681
-644.9459883742998,695
-642.2969470804776,699
-639.6486359007902,687
-637.0010546587141,707
-634.3542031776476,715
-631.7080812809096,715
-629.0626887917401,712
-626.4180255333008,695
-623.7740913286734,691
-621.1308860008619,724
-618.4884093727904,736
-615.8466612673046,728
-613.2056415071715,751
-610.5653499150785,694
-607.9257863136347,737
-605.28695052537,738
-602.6488423727357,685
-600.0114616781036,703
-597.3748082637674,742
-594.7388819519412,722
-592.1036825647604,738
-589.4692099242818,736
-586.8354638524829,786
-584.2024441712624,762
-581.5701507024403,764
-578.9385832677575,732
-576.3077416888759,740
-573.6776257873787,731
-571.0482353847704,724
-568.4195703024757,708
-565.7916303618415,720
-563.164415384135,707
-560.5379251905453,713
-557.9121596021815,732
-555.2871184400748,759
-552.6628015251767,735
-550.0392086783606,751
-547.4163397204204,774
-544.794194472071,782
-542.1727727539491,741
-539.5520743866118,757
-536.9320991905377,754
-534.3128469861261,808
-531.6943175936979,820
-529.0765108334947,813
-526.4594265256793,920
-523.8430644903358,965
-521.2274245474689,1096
-518.612506517005,1196
-515.9983102187913,1125
-513.3848354725959,1094
-510.77208209810846,1163
-508.16004991493924,1231
-505.5487387426199,1343
-502.9381484006032,1521
-500.3282787082628,1557
-497.71912948489364,1653
-495.1107005497117,1499
-492.5029917218539,1421
-489.8960028203786,1287
-487.28973366426493,1167
-484.68418407241325,1070
-482.07935386364494,1019
-479.47524285670266,946
-476.87185087025,928
-474.2691777228715,966
-471.66722323307334,962
-469.0659872192821,951
-466.4654694998459,949
-463.86566989303384,923
-461.26658821703614,940
-458.66822428996414,996
-456.07057792985,914
-453.4736489546475,934
-450.877437182231,934
-448.28194243039627,892
-445.68716451686,909
-443.09310325926003,891
-440.49975847515555,936
-437.9071299820263,923
-435.31521759727354,908
-432.72402113821954,919
-430.13354042210767,993
-427.5437752661022,952
-424.95472548728867,920
-422.36639090267386,903
-419.7787713291855,938
-417.1918665836721,990
-414.60567648290385,974
-412.0202008435715,999
-409.4354394822874,974
-406.8513922155845,1013
-404.26805885991723,1026
-401.685439231661,1013
-399.103533147112,1033
-396.522340422488,1024
-393.9418608739278,995
-391.3620943174908,956
-388.7830405691583,998
-386.2046994448317,913
-383.6270707603344,927
-381.05015433141045,849
-378.473949973725,807
-375.8984575028645,769
-373.32367673433623,670
-370.74960748356875,639
-368.1762495659117,594
-365.60360279663576,596
-363.03166699093265,546
-360.4604419639154,543
-357.8899275306178,487
-355.32012350599507,478
-352.7510297049233,473
-350.1826459421999,443
-347.61497203254316,483
-345.04800779059235,440
-342.4817530309082,457
-339.91620756797226,493
-337.35137121618743,464
-334.7872437898774,468
-332.22382510328725,475
-329.66111497058273,462
-327.09911320585127,480
-324.53781962310075,511
-321.9772340362607,510
-319.4173562591816,476
-316.8581861056348,483
-314.2997233893127,483
-311.7419679238294,451
-309.1849195227194,462
-306.62857799943856,504
-304.0729431673641,515
-301.51801483979375,514
-298.963792829947,507
-296.41027695096386,541
-293.85746701590574,558
-291.3053628377552,561
-288.7539642294155,567
-286.2032710037115,508
-283.65328297338897,516
-281.1039999511146,546
-278.5554217494762,574
-276.007548180983,575
-273.4603790580651,552
-270.9139141930734,575
-268.3681533982807,540
-265.8230964858798,586
-263.27874326798565,610
-260.7350935566336,599
-258.1921471637804,598
-255.6499039013039,588
-253.10836358100266,586
-250.56752601459698,554
-248.02739101372765,580
-245.48795838995704,589
-242.94922795476816,568
-240.41119951956557,616
-237.8738728956746,673
-235.33724789434166,671
-232.80132432673452,651
-230.2661020039418,584
-227.73158073697357,603
-225.19776033676033,672
-222.66464061415422,666
-220.1322213799284,628
-217.60050244477725,596
-215.06948361931552,637
-212.53916471408013,647
-210.00954553952818,702
-207.48062590603843,697
-204.9524056239104,666
-202.4248845033651,711
-199.8980623545441,719
-197.37193898751036,628
-194.84651421224817,701
-192.32178783866232,693
-189.79775967657952,710
-187.27442953574644,772
-184.7517972258321,779
-182.2298625564256,741
-179.7086253370378,704
-177.18808537710026,723
-174.66824248596583,719
-172.14909647290835,760
-169.6306471471229,755
-167.11289431772548,822
-164.59583779375328,796
-162.07947738416453,826
-159.5638128978386,886
-157.04884414357605,960
-154.53457093009854,1074
-152.02099306604828,955
-149.50811035998936,820
-146.99592262040665,831
-144.48442965570587,863
-141.97363127421409,892
-139.46352728417958,1022
-136.95411749377126,1236
-134.44540171107985,1175
-131.93737974411636,882
-129.43005140081357,831
-126.92341648902493,1002
-124.41747481652521,1239
-121.91222619101006,1537
-119.40767042009657,1906
-116.90380731132257,2266
-114.40063667214702,2058
-111.8981583099503,1834
-109.3963720320337,1490
-106.89527764561933,1523
-104.39487495785067,1729
-101.89516377579241,2118
-99.39614390642998,2997
-96.89781515667039,3575
-94.40017733334128,3660
-91.90323024319173,3516
-89.40697369289148,3645
-86.91140748903172,4292
-84.41653143812482,4126
-81.92234534660395,3583
-79.42884902082358,2998
-76.93604226705907,4468
-74.4439248915071,7093
-71.95249670028534,10534
-69.46175749943245,12209
-66.97170709490854,12060
-64.48234529259423,10710
-61.99367189829195,9630
-59.50568671772464,8149
-57.01838955653636,5784
-54.53178022029283,4523
-52.045858514480074,5555
-49.560624244506016,6436
-47.07607721569923,7352
-44.59221723330904,8359
-42.10904410250669,9185
-39.62655762838392,9089
-37.14475761595372,8843
-34.66364387015028,9644
-32.18321619582866,10034
-29.70347439776515,9789
-27.224418280657005,9734
-24.74604764912317,9527
-22.26836230770266,12765
-19.7913620608565,21331
-17.315046712966478,38122
-14.83941606833514,53513
-12.36446993118659,65040
-9.89020810566592,65040
-7.416630395839093,65040
-4.94373660569363,65040
-2.471526539137585,65040
-6.821210263296962E-13,65040
2.47084320796705,65040
4.941003281093458,65040
7.410480415786196,65040
9.879274808531363,65040
12.347386655893956,65040
14.814816154518212,65040
17.28156350112681,65040
19.74762889252179,65040
22.21301252558385,65040
24.67771459727237,20542
27.141735304626195,3715
29.605074844762612,2289
32.06773341487792,2018
34.52971121224755,1920
36.99100843422559,1819
39.45162527824516,1936
41.91156194181792,1893
44.370818622535126,1549
46.82939551806646,1298
49.287292826160524,1359
51.74451074464503,1268
54.201049471426245,1269
56.65690920448981,1330
59.112090141899785,1192
61.56659248179983,1159
64.02041642241159,957
66.4735621620365,1018
68.92602989905402,997
71.37781983192338,957
73.82893215918205,996
76.27936707944684,1112
78.72912479141326,1186
81.17820549385567,1076
83.62660938562783,993
86.07433666566146,1069
88.5213875329681,1037
90.96776218663751,953
93.41346082583925,937
95.85848364982041,958
98.30283085790859,1050
100.7465026495089,1159
103.18949922410604,1079
105.63182078126385,982
108.07346752062438,1014
110.51443964190923,891
112.95473734491827,877
115.39436082953114,853
117.83331029570547,892
120.27158594347827,923
122.7091879729652,1093
125.1461165843615,1117
127.58237197794062,1040
130.01795435405518,920
132.4528639131364,896
134.88710085569494,882
137.32066538231982,877
139.75355769367923,855
142.1857779905207,861
144.61732647366978,856
147.04820334403132,903
149.47840880258934,962
151.90794305040674,981
154.33680628862487,1102
156.76499871846443,1247
159.19252054122433,1426
161.61937195828352,1488
164.04555317109896,1621
166.47106438120693,1778
168.89590579022217,2015
171.320077599839,2222
173.7435800118302,2252
176.16641322804742,2327
178.58857745042144,2516
181.01007288096173,2742
183.43089972175687,2698
185.85105817497413,2715
188.27054844285988,2567
190.6893707277394,2584
193.10752523201643,2720
195.5250121581745,2750
197.9418317087751,2777
200.3579840864594,2905
202.7734694939469,2818
205.18828813403627,2916
207.6024402096051,2937
210.01592592360964,2972
212.42874547908548,2949
214.84089907914665,2925
217.2523869269868,2829
219.66320922587727,2893
222.0733661791695,2910
224.48285799029293,2968
226.8916848627572,2872
229.29984700014882,3023
231.7073446061355,3012
234.11417788446204,3023
236.520347038953,3069
238.92585227351185,3195
241.33069379212054,3274
243.73487179884035,3159
246.1383864978112,3290
248.541238093252,3271
250.9434267894609,3150
253.34495279081432,3333
255.74581630176783,3352
258.1460175268563,3305
260.54555667069314,3393
262.9444339379703,3223
265.3426495334594,3192
267.7402036620107,3147
270.1370965285529,2922
272.53332833809407,3036
274.9288992957214,2878
277.32380960660055,2794
279.718059475976,2779
282.1116491091717,2728
284.5045787115897,2876
286.89684848871195,2777
289.2884586460981,2734
291.67940938938807,2778
294.0697009242996,2746
296.4593334566299,2799
298.84830719225477,2643
301.23662233712923,2766
303.6242790972866,2725
306.01127767884,2634
308.39761828798066,2601
310.78330113097934,2557
313.16832641418534,2539
315.5526943440269,2548
317.9364051270112,2450
320.3194589697242,2435
322.70185607883093,2529
325.0835966610754,2480
327.4646809232805,2402
329.8451090723478,2434
332.2248813152577,2358
334.6039978590701,2365
336.9824589109231,2308
339.36026467803447,2313
341.7374153677,2264
344.113911187295,2371
346.48975234427337,2336
348.8649390461686,2313
351.2394715005918,2297
353.61334991523415,2301
355.9865744978655,2256
358.35914545633375,2282
360.73106299856715,2258
363.10232733257146,2327
365.47293866643247,2287
367.84289720831396,2165
370.2122031664593,2232
372.5808567491905,2177
374.9488581649083,2317
377.31620762209275,2145
379.6829053293021,2127
382.0489514951745,2211
384.4143463284262,2199
386.7790900378528,2168
389.14318283232853,2170
391.50662492080653,2134
393.86941651231916,2228
396.23155781597745,2169
398.5930490409713,2086
400.9538903965696,2162
403.3140820921202,2130
405.6736243370498,2142
408.03251734086336,2071
410.3907613131465,2182
412.74835646356166,2177
415.10530300185144,2086
417.4616011378372,2096
419.81725108141893,2128
422.1722530425758,2119
424.5266072313656,2105
426.880313857925,2141
429.2333731324701,2106
431.58578526529516,2081
433.9375504667738,2132
436.2886689473588,2090
438.63914091758113,2129
440.9889665880513,2038
443.33814616945835,2015
445.68667987257015,2135
448.03456790823395,2089
450.3818104873759,2103
452.72840782100013,2044
455.07436012019105,2027
457.41966759611057,2046
459.7643304600007,1969
462.10834892318155,2071
464.4517231970525,1982
466.79445349309174,2051
469.1365400228566,2053
471.4779829979826,2035
473.81878263018564,2110
476.15893913125876,2081
478.4984527130747,2152
480.8373235875855,2211
483.17555196682144,2179
485.5131380628919,2289
487.8500820879857,2398
490.1863842543697,2624
492.52204477439034,2705
494.8570638604725,2942
497.1914417251204,3221
499.52517858091653,3549
501.85827464052306,3555
504.19073011668036,3588
506.5225452222086,3428
508.85372017000566,3428
511.18425517304956,3257
513.514150444396,3440
515.8434061971808,4095
518.1720226446176,5148
520.4999999999999,5572
522.8273384766991,5147
525.1540382881666,4728
527.480099647932,4018
529.8055227696037,3430
532.1303078668694,2706
534.454455153496,2397
536.777964843328,2283
539.1008371502907,2170
541.4230722883866,2178
543.744670471698,2140
546.0656319143858,2091
548.3859568306899,2070
550.7056454349294,2104
553.0246979415016,2035
555.3431145648834,2033
557.6608955196306,2002
559.978041020377,2063
562.2945512818363,2046
564.6104265188006,2079
566.9256669461412,2122
569.2402727788082,2122
571.5542442318302,2193
573.8675815203156,2035
576.1802848594508,2104
578.4923544645015,2091
580.8037905508126,2131
583.114593333807,2140
585.4247630289875,2127
587.7342998519354,2127
590.0432040183106,2153
592.3514757438526,2169
594.6591152443794,2156
596.9661227357875,2158
599.2724984340531,2094
601.578242555231,2134
603.8833553154542,2152
606.1878369309362,2150
608.4916876179676,2167
610.7949075929192,2121
613.0974970722403,2197
615.3994562724587,2163
617.7007854101818,2086
620.0014847020951,2093
622.3015543649641,2191
624.6009946156324,2083
626.8998056710224,2107
629.1979877481361,2084
631.4955410640538,2158
633.7924658359349,2141
636.0887622810175,2100
638.3844306166192,2157
640.6794710601358,2139
642.9738838290426,2117
645.2676691408932,2114
647.5608272133207,2155
649.853358264037,2160
652.1452625108324,2252
654.4365401715764,2186
656.7271914642178,2152
659.0172166067838,2150
661.3066158173809,2219
663.5953893141935,2231
665.8835373154867,2179
668.1710600396028,2165
670.4579577049639,2077
672.7442305300709,2178
675.0298787335033,2189
677.3149025339197,2134
679.599302150058,2118
681.8830778007342,2152
684.1662297048437,2150
686.4487580813608,2142
688.7306631493387,2098
691.0119451279091,2188
693.2926042362834,2216
695.5726406937516,2094
697.8520547196814,2175
700.1308465335215,2116
702.4090163547982,2223
704.6865644031171,2094
706.9634908981619,2135
709.2397960596965,2154
711.5154801075631,2175
713.7905432616823,2225
716.0649857420548,2192
718.3388077687592,2138
720.612009561953,2138
722.8845913418733,2108
725.1565533288352,2170
727.427895743234,2116
729.6986188055427,2207
731.9687227363137,2155
734.238207756178,2086
736.5070740858458,2116
738.7753219461066,2092
741.0429515578281,2154
743.3099631419569,2161
745.5763569195191,2077
747.8421331116193,2162
750.1072919394409,2068
752.3718336242467,2055
754.6357583873777,2162
756.8990664502545,2056
759.1617580343765,2141
761.423833361321,2076
763.6852926527457,2118
765.9461361303862,2169
768.206364016058,2136
770.4659765316536,2137
772.7249738991469,2094
774.9833563405886,2183
777.2411240781092,2201
779.4982773339183,2211
781.7548163303044,2098
784.010741289634,2115
786.2660524343538,2222
788.5207499869881,2205
790.7748341701416,2185
793.0283052064964,2181
795.2811633188143,2192
797.5334087299362,2161
799.7850416627813,2252
802.0360623403484,2176
804.2864709857143,2193
806.5362678220353,2196
808.7854530725468,2168
811.0340269605625,2196
813.2819897094754,2263
815.5293415427581,2164
817.77608268396,2158
820.0222133567116,2124
822.2677337847211,2201
824.5126441917765,2166
826.7569448017433,2231
829.0006358385675,2128
831.2437175262731,2193
833.4861900889629,2176
835.7280537508192,2164
837.9693087361026,2161
840.2099552691533,2175
842.4499935743896,2233
844.689423876309,2137
846.9282463994886,2171
849.1664613685833,2116
851.4040690083276,2181
853.6410695435349,2175
855.877463199097,2241
858.1132501999847,2150
860.3484307712487,2173
862.5830051380175,2172
864.8169735254988,2284
867.0503361589791,2249
869.2830932638243,2253
871.5152450654786,2270
873.7467917894654,2285
875.9777336613873,2236
878.2080709069252,2275
880.4378037518389,2225
882.666932421968,2233
884.8954571432301,2232
887.1233781416219,2330
889.3506956432192,2354
891.5774098741766,2301
893.803521060728,2338
896.0290294291852,2217
898.2539352059397,2177
900.4782386174619,2241
902.7019398903011,2266
904.925039251085,2242
907.147536926521,2205
909.3694331433943,2212
911.59072812857,2252
913.8114221089921,2291
916.0315153116827,2255
918.2510079637437,2248
920.4699002923547,2207
922.6881925247761,2255
924.905884888345,2224
927.1229776104793,2270
929.3394709186747,2061
931.555365040506,2217
933.7706602036275,2190
935.9853566357709,2255
938.1994545647489,2226
940.4129542184515,2226
942.6258558248488,2213
944.8381596119883,2266
947.0498658079974,2175
949.2609746410825,2180
951.4714863395287,2221
953.6814011316998,2175
955.8907192460387,2161
958.0994409110671,2132
960.3075663553858,2158
962.5150958076741,2152
964.7220294966913,2173
966.928367651274,2153
969.1341105003388,2141
971.3392582728806,2129
973.5438111979742,2134
975.747769504772,2051
977.9511334225061,2096
980.153903180487,2049
982.3560790081052,2090
984.5576611348289,2066
986.7586497902058,2113
988.9590452038618,2087
991.158847605503,2035
993.3580572249133,2000
995.5566742919558,1955
997.7546990365728,2000
999.952131688785,1891
1002.1489724786926,1931
1004.3452216364743,1956
1006.5408793923874,1929
1008.7359459767691,1885
1010.9304216200343,1859
1013.1243065526781,1850
1015.3176010052733,1841
1017.510305208472,1849
1019.7024193930064,1873
1021.8939437896848,1815
1024.0848786293977,1812
1026.2752241431122,1785
1028.4649805618747,1773
1030.6541481168115,1852
1032.842727039127,1743
1035.0307175601051,1820
1037.2181199111074,1772
1039.4049343235752,1725
1041.591161029029,1753
1043.7768002590683,1793
1045.9618522453698,1739
1048.1463172196918,1798
1050.3301954138697,1768
1052.513487059818,1835
1054.69619238953,1870
1056.8783116350783,1745
1059.0598450286152,1793
1061.2407928023704,1746
1063.4211551886528,1714
1065.6009324198508,1738
1067.780124728432,1688
1069.9587323469414,1734
1072.1367555080046,1794
1074.314194444325,1757
1076.4910493886855,1736
1078.667320573947,1756
1080.843008233051,1740
1083.0181125990161,1784
1085.1926339049414,1787
1087.3665723840027,1666
1089.5399282694575,1704
1091.7127017946405,1667
1093.8848931929647,1658
1096.0565026979243,1707
1098.2275305430899,1675
1100.3979769621128,1663
1102.567842188722,1662
1104.737126456726,1659
1106.9058300000124,1655
1109.0739530525475,1636
1111.2414958483764,1656
1113.4084586216231,1671
1115.5748416064907,1585
1117.7406450372605,1647
1119.9058691482942,1612
1122.0705141740304,1601
1124.2345803489884,1642
1126.3980679077658,1704
1128.5609770850388,1676
1130.7233081155623,1639
1132.8850612341707,1669
1135.0462366757774,1617
1137.2068346753745,1615
1139.3668554680326,1643
1141.526299288901,1632
1143.68516637321,1566
1145.8434569562655,1622
1148.001171273455,1718
1150.158309560244,1636
1152.3148720521767,1555
1154.470858984876,1603
1156.626270594044,1587
1158.7811071154629,1559
1160.9353687849912,1655
1163.089055838569,1639
1165.242168512213,1636
1167.3947070420209,1646
1169.5466716641677,1624
1171.6980626149075,1577
1173.8488801305748,1572
1175.9991244475814,1591
1178.1487958024186,1598
1180.2978944316555,1589
1182.4464205719428,1576
1184.5943744600072,1563
1186.7417563326567,1599
1188.8885664267755,1617
1191.0348049793297,1579
1193.1804722273619,1567
1195.325568407995,1610
1197.4700937584303,1614
1199.614048515948,1584
1201.7574329179074,1590
1203.900247201746,1576
1206.042491604982,1613
1208.1841663652099,1663
1210.3252717201053,1686
1212.465807907422,1652
1214.6057751649923,1594
1216.7451737307279,1675
1218.8840038426192,1730
1221.0222657387353,1620
1223.1599596572241,1652
1225.2970858363137,1626
1227.4336445143094,1715
1229.5696359295966,1650
1231.705060320639,1661
1233.8399179259786,1656
1235.9742089842384,1595
1238.107933734118,1651
1240.2410924143974,1679
1242.373685263935,1657
1244.5057125216676,1676
1246.6371744266116,1634
1248.7680712178621,1677
1250.898403134593,1630
1253.028170416058,1693
1255.1573733015875,1713
1257.2860120305932,1676
1259.4140868425648,1679
1261.54159797707,1651
1263.6685456737569,1744
1265.7949301723515,1714
1267.9207517126597,1690
1270.046010534565,1638
1272.1707068780306,1668
1274.2948409830983,1657
1276.4184130898889,1718
1278.541423438603,1774
1280.6638722695184,1690
1282.785759822993,1701
1284.9070863394636,1756
1287.0278520594447,1755
1289.1480572235314,1718
1291.2677020723963,1737
1293.3867868467923,1798
1295.5053117875495,1801
1297.623277135579,1838
1299.740683131868,1771
1301.8575300174857,1740
1303.973818033578,1820
1306.0895474213703,1768
1308.2047184221678,1780
1310.3193312773528,1842
1312.4333862283888,1854
1314.5468835168163,1879
1316.659823384255,1868
1318.7722060724045,1801
1320.8840318230418,1828
1322.9953008780249,1856
1325.1060134792888,1855
1327.2161698688478,1803
1329.3257702887959,1762
1331.4348149813054,1807
1333.5433041886276,1775
1335.6512381530933,1788
1337.7586171171101,1794
1339.8654413231675,1814
1341.9717110138317,1739
1344.0774264317488,1836
1346.1825878196432,1851
1348.2871954203192,1759
1350.3912494766587,1861
1352.4947502316231,1830
1354.5976979282532,1816
1356.7000928096686,1787
1358.8019351190665,1768
1360.9032250997243,1839
1363.0039629949988,1853
1365.1041490483235,1830
1367.2037835032133,1777
1369.3028666032606,1776
1371.401398592137,1766
1373.4993797135926,1828
1375.5968102114575,1783
1377.6936903296396,1838
1379.7900203121262,1833
1381.8858004029835,1788
1383.9810308463561,1843
1386.075711886469,1823
1388.1698437676241,1811
1390.2634267342032,1864
1392.356461030667,1866
1394.4489469015557,1821
1396.5408845914872,1899
1398.6322743451592,1844
1400.7231164073469,1913
1402.813411022907,1901
1404.903158436773,1918
1406.9923588939578,1940
1409.0810126395531,1908
1411.1691199187303,1819
1413.2566809767386,1957
1415.343696058907,2001
1417.4301654106425,1949
1419.5160892774315,1947
1421.6014679048399,2063
1423.6863015385125,1975
1425.7705904241707,2039
1427.8543348076178,2111
1429.9375349347342,2002
1432.0201910514802,2060
1434.102303403894,2066
1436.1838722380944,2091
1438.2648978002767,2044
1440.3453803367174,2170
1442.4253200937692,2214
1444.5047173178677,2142
1446.5835722555234,2188
1448.6618851533285,2268
1450.739656257952,2284
1452.8168858161434,2327
1454.8935740747306,2326
1456.96972128062,2396
1459.045327680797,2352
1461.120393522327,2470
1463.1949190523528,2515
1465.2689045180973,2582
1467.3423501668608,2601
1469.415256246024,2511
1471.4876230030463,2535
1473.559450685465,2646
1475.6307395408976,2674
1477.7014898170391,2753
1479.771701761665,2798
1481.8413756226287,2804
1483.9105116478618,2856
1485.9791100853772,2882
1488.0471711832643,2863
1490.1146951896926,3028
1492.1816823529098,2965
1494.2481329212433,3029
1496.3140471430984,3113
1498.3794252669609,3001
1500.4442675413939,3113
1502.5085742150404,3142
1504.572345536622,3208
1506.6355817549388,3238
1508.6982831188702,3218
1510.7604498773744,3215
1512.8220822794883,3239
1514.8831805743293,3387
1516.9437450110909,3289
1519.003775839048,3337
1521.0632733075522,3367
1523.1222376660367,3319
1525.1806691640113,3439
1527.2385680510652,3368
1529.2959345768668,3467
1531.3527689911643,3442
1533.4090715437833,3504
1535.4648424846291,3618
1537.5200820636855,3626
1539.5747905310159,3694
1541.6289681367616,3797
1543.6826151311434,3706
1545.7357317644614,3673
1547.7883182870937,3842
1549.8403749494987,3888
1551.8919020022113,3909
1553.9428996958477,3861
1555.9933682811015,3968
1558.0433080087469,4081
1560.0927191296346,4112
1562.1416018946961,4155
1564.1899565549415,4111
1566.2377833614592,4145
1568.2850825654164,4013
1570.3318544180606,3980
1572.3780991707158,3861
1574.423817074788,3659
1576.4690083817595,3348
1578.5136733431923,3412
1580.5578122107272,3240
1582.601425236085,3094
1584.6445126710646,2984
1586.6870747675434,2795
1588.7291117774776,2702
1590.7706239529034,2615
1592.8116115459347,2571
1594.8520748087658,2533
1596.8920139936686,2348
1598.9314293529933,2330
1600.9703211391711,2293
1603.008689604711,2222
1605.0465350022005,2300
1607.0838575843068,2103
1609.1206576037753,2123
1611.1569353134305,2070
1613.1926909661765,2070
1615.2279248149953,1989
1617.2626371129481,1942
1619.2968281131757,1991
1621.3304980688963,1877
1623.3636472334088,1942
1625.39627586009,1934
1627.428384202396,1857
1629.459972513861,1887
1631.4910410480993,1843
1633.5215900588028,1870
1635.551619799744,1852
1637.5811305247717,1794
1639.6101224878166,1835
1641.6385959428862,1799
1643.6665511440683,1811
1645.693988345528,1731
1647.7209078015112,1711
1649.7473097663405,1756
1651.7731944944203,1778
1653.7985622402307,1766
1655.823413258333,1737
1657.847747803366,1796
1659.8715661300494,1737
1661.8948684931793,1739
1663.9176551476316,1777
1665.9399263483624,1787
1667.9616823504057,1683
1669.982923408873,1710
1672.0036497789574,1743
1674.0238617159293,1788
1676.043559475138,1719
1678.0627433120121,1711
1680.081413482059,1687
1682.0995702408654,1670
1684.117213844096,1734
1686.134344547495,1756
1688.1509626068864,1643
1690.1670682781705,1672
1692.182661817329,1627
1694.1977434804217,1658
1696.2123135235875,1648
1698.226372203043,1687
1700.2399197750851,1643
1702.2529564960905,1709
1704.2654826225112,1699
1706.277498410882,1643
1708.2890041178139,1734
1710.2999999999988,1651
1712.3104863142066,1649
1714.3204633172854,1713
1716.329931266163,1660
1718.3388904178469,1616
1720.3473410294214,1635
1722.3552833580516,1681
1724.3627176609807,1632
1726.3696441955308,1618
1728.3760632191033,1631
1730.3819749891782,1660
1732.3873797633146,1702
1734.3922777991502,1657
1736.3966693544012,1645
1738.4005546868639,1613
1740.4039340544127,1652
1742.406807715001,1623
1744.4091759266616,1664
1746.4110389475054,1657
1748.4123970357223,1594
1750.413250449582,1637
1752.4135994474318,1594
1754.4134442876993,1644
1756.4127852288902,1607
1758.4116225295893,1595
1760.4099564484595,1546
1762.407787244244,1533
1764.405115175764,1530
1766.4019405019203,1571
1768.3982634816916,1555
1770.3940843741357,1543
1772.3894034383907,1558
1774.3842209336717,1547
1776.378537119274,1550
1778.372352254571,1570
1780.3656665990156,1590
1782.3584804121397,1533
1784.3507939535534,1559
1786.3426074829463,1537
1788.3339212600863,1499
1790.3247355448211,1607
1792.3150505970766,1558
1794.3048666768573,1547
1796.2941840442477,1559
1798.2830029594106,1530
1800.2713236825884,1452
1802.2591464741004,1541
1804.2464715943465,1506
1806.2332993038058,1511
1808.2196298630352,1557
1810.2054635326708,1554
1812.190800573428,1510
1814.175641246101,1528
1816.1599858115628,1544
1818.1438345307652,1571
1820.127187664738,1564
1822.1100454745924,1543
1824.092408221516,1486
1826.0742761667766,1521
1828.055649571721,1524
1830.0365286977735,1486
1832.0169138064398,1493
1833.9968051593014,1540
1835.9762030180214,1535
1837.9551076443408,1536
1839.9335193000788,1546
1841.9114382471344,1535
1843.888864747485,1505
1845.8657990631878,1500
1847.842241456378,1513
1849.8181921892697,1498
1851.7936515241558,1500
1853.7686197234098,1506
1855.7430970494815,1559
1857.7170837649014,1494
1859.6905801322787,1513
1861.6635864143004,1482
1863.6361028737338,1431
1865.608129773424,1555
1867.5796673762961,1519
1869.5507159453537,1561
1871.521275743678,1496
1873.4913470344313,1559
1875.4609300808534,1496
1877.4300251462632,1570
1879.3986324940588,1550
1881.366752387717,1514
1883.3343850907936,1511
1885.3015308669228,1461
1887.268189979819,1546
1889.2343626932739,1542
1891.2000492711595,1572
1893.1652499774254,1605
1895.1299650761011,1572
1897.0941948312952,1555
1899.0579395071945,1582
1901.0211993680641,1528
1902.98397467825,1551
1904.9462657021745,1490
1906.9080727043415,1492
1908.869395949332,1524
1910.8302357018065,1514
1912.790592226504,1506
1914.7504657882428,1587
1916.7098566519212,1618
1918.6687650825133,1509
1920.6271913450764,1553
1922.5851357047422,1471
1924.5425984267245,1508
1926.499579776314,1537
1928.4560800188833,1529
1930.4120994198802,1549
1932.367638244833,1542
1934.32269675935,1550
1936.2772752291175,1544
1938.231373919899,1601
1940.1849930975404,1539
1942.1381330279637,1540
1944.0907939771696,1523
1946.0429762112412,1489
1947.9946799963363,1517
1949.9459055986945,1511
1951.896653284633,1491
1953.8469233205478,1543
1955.7967159729142,1513
1957.7460315082863,1504
1959.6948701932974,1471
1961.6432322946594,1519
1963.5911180791632,1461
1965.5385278136787,1587
1967.4854617651545,1507
1969.4319202006182,1564
1971.377903387176,1541
1973.3234115920136,1569
1975.268445082395,1499
1977.2130041256642,1504
1979.1570889892423,1495
1981.1006999406304,1532
1983.04383724741,1492
1984.986501177238,1521
1986.928691997853,1506
1988.8704099770712,1515
1990.811655382789,1515
1992.7524284829801,1496
1994.692729545698,1517
1996.6325588390755,1465
1998.5719166313224,1472
2000.5108031907307,1526
2002.4492187856677,1533
2004.387163684583,1483
2006.3246381560011,1531
2008.2616424685298,1525
2010.1981768908527,1443
2012.1342416917332,1528
2014.069837140014,1502
2016.0049635046162,1443
2017.9396210545406,1485
2019.8738100588666,1501
2021.8075307867502,1499
2023.740783507431,1515
2025.6735684902228,1455
2027.6058860045214,1502
2029.5377363198004,1498
2031.4691197056118,1495
2033.4000364315875,1496
2035.3304867674374,1462
2037.260470982952,1444
2039.189989347998,1523
2041.1190421325232,1501
2043.047629606554,1464
2044.9757520401945,1432
2046.9034097036288,1543
2048.8306028671195,1523
2050.7573318010086,1456
2052.683596775716,1484
2054.609398061742,1497
2056.5347359296647,1517
2058.4596106501403,1469
2060.384022493906,1426
2062.3079717317764,1494
2064.231458634646,1486
2066.1544834734873,1535
2068.077046519352,1506
2069.99914804337,1467
2071.9207883167524,1453
2073.8419676107865,1496
2075.7626861968406,1424
2077.6829443463607,1461
2079.6027423308715,1480
2081.522080421977,1435
2083.440958891362,1463
2085.359378010786,1493
2087.2773380520907,1481
2089.194839287196,1472
2091.111881988101,1496
2093.0284664268825,1473
2094.9445928756973,1484
2096.86026160678,1460
2098.775472892446,1464
2100.690227005088,1499
2102.604524217178,1485
2104.5183648012676,1474
2106.431749029985,1477
2108.34467717604,1466
2110.2571495122206,1498
2112.169166311393,1479
2114.080727846503,1475
2115.9918343905747,1491
2117.902486216711,1519
2119.8126835980956,1497
2121.722426807987,1458
2123.6317161197285,1434
2125.5405518067364,1441
2127.448934142509,1494
2129.356863400624,1551
2131.264339854737,1558
2133.1713637785815,1537
2135.077935445972,1503
2136.9840551308002,1509
2138.889723107037,1509
2140.7949396487334,1520
2142.699705030018,1490
2144.6040195250994,1569
2146.507883408264,1541
2148.4112969538774,1486
2150.3142604363848,1507
2152.2167741303097,1583
2154.1188383102535,1510
2156.0204532508997,1520
2157.9216192270064,1454
2159.822336513414,1559
2161.7226053850413,1560
2163.622426116884,1512
2165.5217989840185,1524
2167.4207242616,1520
2169.319202224862,1529
2171.2172331491165,1544
2173.1148173097563,1510
2175.0119549822507,1596
2176.90864644215,1574
2178.8048919650823,1561
2180.7006918267534,1555
2182.596046302952,1572
2184.4909556695407,1509
2186.3854202024645,1593
2188.279440177746,1571
2190.173015871487,1642
2192.066147559868,1554
2193.958835519149,1555
2195.851080025667,1606
2197.7428813558417,1573
2199.6342397861667,1604
2201.5251555932186,1572
2203.415629053651,1599
2205.3056604441986,1572
2207.19525004167,1598
2209.084398122958,1622
2210.9731049650327,1547
2212.861370844941,1641
2214.749196039812,1606
2216.636580826851,1664
2218.523525483344,1633
2220.410030286655,1633
2222.296095514226,1575
2224.1817214435805,1676
2226.066908352319,1613
2227.951656518121,1604
2229.835966218746,1591
2231.71983773203,1609
2233.6032713358913,1565
2235.486267308324,1651
2237.3688259274036,1601
2239.2509474712824,1659
2241.132632218193,1626
2243.013880446447,1628
2244.8946924344323,1598
2246.7750684606203,1626
2248.6550088035574,1593
2250.534513741871,1558
2252.413583554265,1604
2254.292218519526,1720
2256.170418916517,1631
2258.0481850241786,1688
2259.925517121534,1605
2261.8024154876825,1631
2263.678880401803,1616
2265.5549121431536,1677
2267.430510991071,1642
2269.305677224971,1650
2271.180411124348,1588
2273.0547129687766,1614
2274.9285830379076,1578
2276.8020216114737,1606
2278.6750289692845,1626
2280.5476053912294,1655
2282.4197511572766,1640
2284.2914665474727,1691
2286.162751841943,1672
2288.0336073208937,1691
2289.904033264608,1731
2291.774029953448,1706
2293.6435976678554,1680
2295.5127366883517,1644
2297.381447295534,1613
2299.2497297700825,1594
2301.1175843927526,1496
2302.9850114443825,1507
2304.852011205885,1469
2306.7185839582553,1445
2308.5847299825664,1471
2310.4504495599676,1425
2312.3157429716925,1358
2314.1806104990483,1372
2316.0450524234247,1451
2317.9090690262888,1428
2319.772660589186,1428
2321.635827393742,1387
2323.498569721661,1324
2325.3608878547248,1380
2327.2227820747967,1360
2329.0842526638157,1365
2330.945299903803,1340
2332.805924076857,1324
2334.6661254651535,1436
2336.525904350951,1401
2338.3852610165827,1389
2340.244195744464,1380
2342.102708817088,1387
2343.9608005170253,1340
2345.8184711269287,1312
2347.675720929526,1352
2349.532550207628,1342
2351.38895924412,1365
2353.24494832197,1396
2355.100517724223,1350
2356.955667734004,1389
2358.810398634514,1421
2360.664710709037,1420
2362.5186042409337,1423
2364.3720795136437,1443
2366.225136810686,1354
2368.0777764156583,1444
2369.929998612237,1427
2371.7818036841777,1431
2373.633191915315,1391
2375.484163589562,1474
2377.3347189909114,1437
2379.184858403434,1392
2381.03458211128,1446
2382.8838903986775,1429
2384.732783549936,1431
2386.5812618494406,1403
2388.4293255816588,1480
2390.2769750311327,1430
2392.1242104824883,1447
2393.971032220427,1368
2395.8174405297295,1406
2397.6634356952563,1389
2399.509018001947,1406
2401.3541877348193,1396
2403.1989451789705,1449
2405.043290619576,1388
2406.8872243418905,1427
2408.730746631247,1393
2410.5738577730594,1467
2412.4165580528183,1451
2414.258847756095,1389
2416.100727168537,1442
2417.9421965758734,1445
2419.783256263912,1501
2421.623906518538,1391
2423.4641476257157,1431
2425.303979871491,1408
2427.143403541984,1435
2428.9824189233977,1429
2430.821026302012,1481
2432.6592259641866,1466
2434.497018196361,1484
2436.33440328505,1459
2438.171381516851,1410
2440.00795317844,1485
2441.844118556569,1475
2443.6798779380724,1432
2445.5152316098606,1481
2447.3501798589255,1429
2449.1847229723357,1510
2451.0188612372403,1468
2452.8525949408663,1415
2454.6859243705203,1402
2456.518849813587,1407
2458.3513715575314,1480
2460.183489889895,1454
2462.015205098301,1489
2463.8465174704493,1467
2465.67742729412,1467
2467.5079348571717,1500
2469.338040447542,1464
2471.1677443532476,1453
2472.9970468623833,1423
2474.825948263123,1454
2476.6544488437207,1480
2478.482548892508,1452
2480.310248697896,1420
2482.137548548374,1552
2483.9644487325118,1480
2485.790949538956,1496
2487.617051256433,1445
2489.44275417375,1457
2491.26805857979,1478
2493.0929647635157,1466
2494.917473013971,1533
2496.741583620276,1509
2498.5652968716304,1493
2500.3886130573137,1426
2502.2115324666834,1492
2504.0340553891765,1472
2505.856182114308,1532
2507.6779129316733,1514
2509.499248130945,1500
2511.3201880018764,1504
2513.140732834298,1485
2514.9608829181198,1484
2516.780638543331,1565
2518.6,1551
2520.418967578273,1519
2522.237541568376,1490
2524.0557222606144,1549
2525.8735099453706,1513
2527.6909049131086,1562
2529.507907454368,1523
2531.32451785977,1557
2533.140736420014,1586
2534.9565634258774,1601
2536.771999168218,1595
2538.5870439379714,1643
2540.4016980261526,1645
2542.2159617238544,1648
2544.02983532225,1618
2545.8433191125914,1608
2547.656413386209,1624
2549.4691184345115,1639
2551.2814345489874,1700
2553.093362021204,1719
2554.904901142808,1695
2556.716052205523,1630
2558.526815501153,1715
2560.3371913215824,1727
2562.147179958771,1688
2563.956781704761,1762
2565.7659968516705,1774
2567.5748256916986,1703
2569.3832685171224,1699
2571.1913256202984,1769
2572.9989972936614,1778
2574.806283829725,1753
2576.613185521084,1716
2578.4197026604074,1746
2580.2258355404483,1808
2582.031584454035,1766
2583.836949694077,1842
2585.6419315535613,1811
2587.4465303255533,1789
2589.2507463032002,1841
2591.0545797797245,1830
2592.8580310484303,1815
2594.6611004026995,1821
2596.463788135992,1842
2598.266094541849,1752
2600.0680199138874,1840
2601.869564545807,1880
2603.670728731383,1863
2605.4715127644704,1863
2607.2719169390048,1849
2609.071941548998,1865
2610.8715868885433,1849
2612.670853251811,1878
2614.469740933052,1873
2616.268250226594,1830
2618.0663814268455,1793
2619.864134828292,1820
2621.6615107255006,1750
2623.458509413115,1731
2625.2551311858597,1765
2627.0513763385347,1748
2628.8472451660223,1738
2630.6427379632833,1737
2632.4378550253564,1770
2634.232596647359,1721
2636.026963124488,1668
2637.8209547520187,1638
2639.6145718253065,1736
2641.407814639785,1689
2643.200683490966,1652
2644.9931786744414,1680
2646.7853004858807,1616
2648.577049221034,1631
2650.3684251757277,1636
2652.1594286458712,1626
2653.9500599274484,1627
2655.740319316525,1580
2657.5302071092437,1578
2659.3197236018286,1573
2661.10886909058,1552
2662.8976438718782,1575
2664.686048242183,1552
2666.4740824980327,1621
2668.2617469360443,1636
2670.0490418529134,1579
2671.8359675454153,1537
2673.622524310403,1538
2675.408712444811,1544
2677.1945322456495,1491
2678.979984010009,1458
2680.76506803506,1507
2682.5497846180497,1527
2684.334134056306,1501
2686.1181166472343,1468
2687.9017326883213,1484
2689.6849824771293,1490
2691.4678663113013,1506
2693.2503844885596,1518
2695.032537306705,1478
2696.8143250636167,1516
2698.5957480572542,1467
2700.3768065856534,1480
2702.1575009469316,1470
2703.937831439283,1469
2705.717798360982,1511
2707.4974020103837,1407
2709.276642685917,1444
2711.055520686095,1500
2712.834036309506,1439
2714.612189854819,1403
2716.389981620782,1450
2718.1674119062204,1404
2719.944481010041,1449
2721.721189231226,1428
2723.4975368688415,1421
2725.273524222027,1370
2727.0491515900053,1467
2728.824419272075,1404
2730.5993275676146,1368
2732.3738767760838,1372
2734.148067197016,1419
2735.921899130031,1389
2737.6953728748194,1415
2739.468488731156,1368
2741.2412469988926,1386
2743.0136479779617,1382
2744.785691968372,1435
2746.5573792702116,1392
2748.3287101836504,1389
2750.099685008934,1404
2751.870304046388,1358
2753.640567596418,1363
2755.4104759595057,1406
2757.1800294362156,1384
2758.949228327187,1414
2760.7180729331412,1351
2762.486563554877,1319
2764.254700493272,1390
2766.022484049284,1340
2767.789914523947,1360
2769.5569922183786,1386
2771.3237174337705,1415
2773.090090471394,1341
2774.8561116326036,1394
2776.6217812188274,1369
2778.3870995315756,1398
2780.1520668724356,1420
2781.9166835430747,1372
2783.6809498452394,1397
2785.444866080754,1401
2787.2084325515225,1427
2788.971649559527,1383
2790.73451740683,1369
2792.4970363955713,1369
2794.2592068279705,1400
2796.0210290063264,1286
2797.7825032330147,1365
2799.543629810493,1391
2801.304409041296,1338
2803.0648412280366,1404
2804.8249266734088,1428
2806.5846656801846,1408
2808.344058551212,1444
2810.1031055894246,1350
2811.8618070978273,1388
2813.6201633795085,1374
2815.378174737636,1338
2817.1358414754536,1364
2818.893163896285,1398
2820.6501423035334,1375
2822.4067770006814,1369
2824.1630682912883,1361
2825.9190164789957,1345
2827.6746218675207,1356
2829.429884760661,1372
2831.184805462294,1396
2832.9393842763743,1394
2834.693621506936,1347
2836.4475174580916,1448
2838.201072434034,1360
2839.954286739034,1393
2841.707160677441,1364
2843.459694553685,1335
2845.2118886722724,1402
2846.96374333779,1344
2848.7152588549034,1368
2850.4664355283567,1449
2852.217273662973,1371
2853.9677735636546,1407
2855.7179355353833,1403
2857.4677598832186,1433
2859.217246912299,1426
2860.9663969278427,1417
2862.715210235146,1344
2864.4636871395846,1385
2866.211827946614,1384
2867.9596329617652,1406
2869.7071024906536,1409
2871.4542368389684,1404
2873.20103631248,1356
2874.947501217038,1438
2876.6936318585695,1396
2878.4394285430812,1369
2880.1848915766604,1356
2881.9300212654707,1377
2883.6748179157553,1370
2885.4192818338374,1354
2887.1634133261173,1391
2888.907212699077,1364
2890.6506802592744,1382
2892.393816313348,1403
2894.1366211680142,1380
2895.8790951300693,1419
2897.621238506388,1338
2899.363051603925,1393
2901.1045347297118,1352
2902.8456881908596,1362
2904.58651229456,1334
2906.327007348081,1424
2908.067173658772,1297
2909.8070115340597,1329
2911.5465212814497,1366
2913.285703208527,1384
2915.0245576229563,1342
2916.7630848324807,1367
2918.5012851449196,1311
2920.2391588681758,1324
2921.976706310227,1366
2923.7139277791334,1359
2925.4508235830313,1387
2927.187394030137,1375
2928.923639428745,1312
2930.6595600872306,1355
2932.395156314046,1320
2934.1304284177218,1372
2935.8653767068713,1378
2937.6000014901815,1399
2939.3343030764227,1415
2941.068281774442,1351
2942.8019378931644,1376
2944.5352717415976,1331
2946.2682836288236,1374
2948.0009738640065,1362
2949.7333427563885,1366
2951.465390615289,1326
2953.1971177501086,1342
2954.9285244703265,1365
2956.6596110855,1366
2958.3903779052657,1381
2960.1208252393385,1354
2961.8509533975125,1368
2963.5807626896617,1376
2965.3102534257378,1313
2967.0394259157715,1378
2968.768280469873,1348
2970.496817398232,1353
2972.2250370111146,1375
2973.952939618869,1391
2975.6805255319196,1396
2977.4077950607707,1401
2979.134748516006,1375
2980.861386208289,1367
2982.587708448359,1331
2984.313715547037,1411
2986.039407815222,1378
2987.764785563891,1386
2989.489849104102,1427
2991.2145987469908,1375
2992.9390348037705,1364
2994.6631575857346,1346
2996.3869674042576,1344
2998.1104645707887,1377
2999.83364939686,1371
3001.5565221940783,1381
3003.2790832741334,1329
3005.0013329487924,1356
3006.7232715298996,1362
3008.4448993293804,1328
3010.166216659239,1316
3011.887223831558,1346
3013.607921158498,1364
3015.3283089522993,1349
3017.0483875252826,1300
3018.7681571898443,1413
3020.4876182584626,1362
3022.2067710436927,1339
3023.9256158581707,1405
3025.644153014609,1300
3027.362382825801,1327
3029.0803056046193,1412
3030.797921664012,1367
3032.5152313170106,1390
3034.2322348767225,1330
3035.9489326563353,1327
3037.665324969115,1409
3039.3814121284063,1384
3041.097194447633,1353
3042.812672240299,1362
3044.5278458199855,1347
3046.2427155003525,1342
3047.9572815951406,1315
3049.671544418167,1358
3051.38550428333,1404
3053.0991615046073,1333
3054.812516396051,1327
3056.5255692717974,1399
3058.2383204460575,1367
3059.9507702331257,1371
3061.662918947372,1342
3063.3747669032446,1382
3065.0863144152736,1386
3066.7975617980674,1416
3068.508509366309,1420
3070.219157434767,1363
3071.9295063182844,1371
3073.639556331785,1340
3075.3493077902704,1379
3077.058761008821,1319
3078.7679163025964,1372
3080.476773986837,1389
3082.1853343768594,1333
3083.89359778806,1356
3085.6015645359153,1367
3087.3092349359786,1353
3089.016609303884,1359
3090.7236879553434,1377
3092.4304712061476,1348
3094.136959372166,1431
3095.843152769349,1384
3097.5490517137237,1349
3099.2546565213966,1399
3100.959967508554,1383
3102.66498499146,1294
3104.3697092864577,1400
3106.0741407099695,1367
3107.778279578498,1396
3109.482126208622,1332
3111.1856809170004,1357
3112.8889440203716,1363
3114.5919158355528,1403
3116.294596679439,1366
3117.996986869006,1435
3119.6990867213062,1395
3121.4008965534726,1348
3123.102416682717,1341
3124.803647426329,1397
3126.5045891016784,1395
3128.205242026213,1357
3129.90560651746,1368
3131.605682893025,1404
3133.3054714705922,1391
3135.0049725679282,1415
3136.7041865028714,1400
3138.4031135933465,1391
3140.101754157353,1326
3141.800108512971,1324
3143.498176978357,1374
3145.1959598717494,1357
3146.8934575114636,1388
3148.5906702158954,1388
3150.2875983035183,1357
3151.9842420928853,1332
3153.680601902627,1347
3155.376678051456,1333
3157.07247085816,1312
3158.767980641609,1300
3160.463207720748,1406
3162.158152414606,1382
3163.8528150422862,1372
3165.5471959229726,1390
3167.2412953759303,1419
3168.9351137204976,1356
3170.628651276098,1359
3172.3219083622307,1374
3174.014885298474,1364
3175.707582404485,1356
3177.4000000000005,1286
3179.092138404835,1378
3180.7839979388846,1295
3182.47557892212,1384
3184.166881674594,1395
3185.8579065164386,1349
3187.5486537678626,1365
3189.2391237491547,1332
3190.9293167806827,1349
3192.6192331828934,1359
3194.3088732763117,1367
3195.998237381542,1338
3197.687325819268,1328
3199.376138910251,1347
3201.064676975334,1339
3202.7529403354347,1333
3204.4409293115523,1376
3206.1286442247647,1376
3207.816085396229,1429
3209.5032531471825,1295
3211.190147798936,1304
3212.8767696728846,1315
3214.5631190905015,1309
3216.2491963733373,1325
3217.9350018430214,1340
3219.6205358212637,1332
3221.305798629851,1296
3222.990790590651,1289
3224.6755120256103,1333
3226.359963256751,1304
3228.0441446061795,1305
3229.7280563960758,1289
3231.411698948703,1328
3233.0950725863995,1342
3234.778177631587,1367
3236.461014406761,1372
3238.1435832345005,1336
3239.8258844374595,1308
3241.507918338374,1308
3243.1896852600576,1356
3244.8711855254023,1364
3246.552419457381,1395
3248.233387379042,1390
3249.914089613516,1324
3251.59452648401,1329
3253.274698313813,1366
3254.95460542629,1348
3256.6342481448855,1316
3258.313626793125,1313
3259.9927416946084,1316
3261.6715931730196,1266
3263.3501815521176,1283
3265.0285071557437,1260
3266.706570307815,1275
3268.3843713323286,1260
3270.0619105533615,1329
3271.739188295068,1376
3273.4162048816834,1299
3275.0929606375184,1325
3276.769455886966,1342
3278.445690954498,1319
3280.1216661646613,1337
3281.797381842087,1313
3283.4728383114807,1340
3285.1480358976296,1355
3286.8229749253996,1340
3288.4976557197333,1368
3290.172078605655,1336
3291.846243908266,1321
3293.5201519527463,1298
3295.193803064357,1299
3296.8671975684374,1359
3298.5403357904024,1347
3300.21321805575,1371
3301.8858446900567,1289
3303.558216018975,1386
3305.23033236824,1380
3306.9021940636603,1352
3308.57380143113,1277
3310.2451547966184,1432
3311.916254486174,1321
3313.5871008259246,1316
3315.2576941420766,1347
3316.9280347609147,1341
3318.5981230088046,1277
3320.2679592121895,1309
3321.9375436975924,1361
3323.606876791612,1377
3325.27595882093,1328
3326.944790112305,1258
3328.6133709925753,1342
3330.2817017886573,1373
3331.949782827547,1281
3333.617614436319,1298
3335.2851969421245,1364
3336.952530672199,1344
3338.619615953853,1344
3340.286453114475,1364
3341.9530424815357,1306
3343.619384382583,1337
3345.2854791452437,1365
3346.951327097224,1369
3348.6169285663073,1330
3350.2822838803577,1361
3351.947393367319,1338
3353.61225735521,1375
3355.2768761721345,1372
3356.9412501462693,1316
3358.605379605873,1317
3360.2692648792827,1313
3361.9329062949146,1340
3363.596304181263,1299
