CollectionTime,9/25/2024 12:07:34 PM
ExposureUsed,3
CalibratedSpectrum
-962.7078968117929,489
-959.9714848408522,482
-957.2358232597828,523
-954.5009119013725,508
-951.7667505983302,541
-949.0333391832855,518
-946.3006774887896,536
-943.5687653473143,532
-940.837602591253,520
-938.1071890529199,502
-935.3775245645503,498
-932.6486089583007,531
-929.9204420662485,510
-927.1930237203925,507
-924.4663537526524,523
-921.7404319948689,520
-919.0152582788041,534
-916.2908324361409,527
-913.5671542984834,553
-910.8442236973568,531
-908.1220404642074,529
-905.4006044304027,499
-902.679915427231,484
-899.959973285902,500
-897.2407778375464,500
-894.5223289132158,541
-891.8046263438832,494
-889.0876699604426,500
-886.3714595937089,487
-883.6559950744183,502
-880.9412762332282,487
-878.2273029007168,496
-875.5140749073835,491
-872.8015920836489,504
-870.0898542598545,496
-867.3788612662631,486
-864.6686129330585,500
-861.9591090903457,512
-859.2503495681506,479
-856.5423341964203,486
-853.8350628050229,488
-851.1285352237478,521
-848.4227512823054,536
-845.7177108103272,504
-843.0134136373656,487
-840.3098595928943,502
-837.6070485063082,518
-834.9049802069229,519
-832.2036545239757,493
-829.5030712866244,517
-826.8032303239481,522
-824.1041314649472,529
-821.4057745385428,508
-818.7081593735775,531
-816.0112857988148,520
-813.3151536429393,538
-810.6197627345566,542
-807.9251129021936,522
-805.2312039742981,533
-802.5380357792392,524
-799.8456081453069,534
-797.1539209007124,525
-794.462973873588,510
-791.772766891987,510
-789.083299783884,542
-786.3945723771743,521
-783.7065844996748,524
-781.0193359791231,534
-778.3328266431781,535
-775.6470563194197,538
-772.9620248353489,556
-770.2777320183878,505
-767.5941776958798,529
-764.9113616950891,523
-762.2292838432011,532
-759.5479439673222,520
-756.8673418944801,509
-754.1874774516235,525
-751.5083504656222,533
-748.8299607632671,536
-746.15230817127,540
-743.475392516264,542
-740.7992136248035,562
-738.1237713233636,549
-735.4490654383407,517
-732.7750957960521,548
-730.1018622227365,527
-727.4293645445534,529
-724.7576025875837,536
-722.0865761778291,529
-719.4162851412126,552
-716.7467293035781,552
-714.0779084906909,540
-711.409822528237,532
-708.7424712418238,552
-706.0758544569796,563
-703.4099719991541,554
-700.7448236937178,552
-698.0804093659622,559
-695.4167288411002,567
-692.7537819442656,564
-690.0915685005134,553
-687.4300883348199,582
-684.7693412720819,590
-682.1093271371178,554
-679.4500457546669,558
-676.7914969493897,548
-674.1336805458676,552
-671.4765963686034,571
-668.8202442420206,570
-666.1646239904642,560
-663.5097354382001,563
-660.8555784094151,566
-658.2021527282176,573
-655.5494582186366,574
-652.8974947046223,593
-650.2462620100463,601
-647.5957599587009,623
-644.9459883742998,595
-642.2969470804776,642
-639.6486359007902,591
-637.0010546587141,604
-634.3542031776476,606
-631.7080812809096,594
-629.0626887917401,583
-626.4180255333008,601
-623.7740913286734,612
-621.1308860008619,605
-618.4884093727904,594
-615.8466612673046,626
-613.2056415071715,604
-610.5653499150785,611
-607.9257863136347,588
-605.28695052537,616
-602.6488423727357,600
-600.0114616781036,617
-597.3748082637674,622
-594.7388819519412,598
-592.1036825647604,627
-589.4692099242818,628
-586.8354638524829,626
-584.2024441712624,664
-581.5701507024403,649
-578.9385832677575,641
-576.3077416888759,673
-573.6776257873787,621
-571.0482353847704,624
-568.4195703024757,619
-565.7916303618415,639
-563.164415384135,603
-560.5379251905453,633
-557.9121596021815,618
-555.2871184400748,613
-552.6628015251767,626
-550.0392086783606,661
-547.4163397204204,661
-544.794194472071,666
-542.1727727539491,674
-539.5520743866118,682
-536.9320991905377,679
-534.3128469861261,671
-531.6943175936979,702
-529.0765108334947,716
-526.4594265256793,774
-523.8430644903358,886
-521.2274245474689,1034
-518.612506517005,1107
-515.9983102187913,1085
-513.3848354725959,1088
-510.77208209810846,1211
-508.16004991493924,1300
-505.5487387426199,1335
-502.9381484006032,1308
-500.3282787082628,1269
-497.71912948489364,1282
-495.1107005497117,1159
-492.5029917218539,955
-489.8960028203786,865
-487.28973366426493,844
-484.68418407241325,781
-482.07935386364494,734
-479.47524285670266,750
-476.87185087025,727
-474.2691777228715,757
-471.66722323307334,771
-469.0659872192821,785
-466.4654694998459,754
-463.86566989303384,810
-461.26658821703614,755
-458.66822428996414,780
-456.07057792985,767
-453.4736489546475,778
-450.877437182231,788
-448.28194243039627,729
-445.68716451686,768
-443.09310325926003,745
-440.49975847515555,767
-437.9071299820263,729
-435.31521759727354,753
-432.72402113821954,752
-430.13354042210767,802
-427.5437752661022,788
-424.95472548728867,749
-422.36639090267386,796
-419.7787713291855,775
-417.1918665836721,810
-414.60567648290385,809
-412.0202008435715,840
-409.4354394822874,820
-406.8513922155845,797
-404.26805885991723,849
-401.685439231661,871
-399.103533147112,827
-396.522340422488,830
-393.9418608739278,819
-391.3620943174908,793
-388.7830405691583,801
-386.2046994448317,815
-383.6270707603344,764
-381.05015433141045,745
-378.473949973725,739
-375.8984575028645,667
-373.32367673433623,614
-370.74960748356875,585
-368.1762495659117,609
-365.60360279663576,536
-363.03166699093265,488
-360.4604419639154,520
-357.8899275306178,506
-355.32012350599507,447
-352.7510297049233,472
-350.1826459421999,431
-347.61497203254316,442
-345.04800779059235,470
-342.4817530309082,453
-339.91620756797226,456
-337.35137121618743,420
-334.7872437898774,433
-332.22382510328725,477
-329.66111497058273,470
-327.09911320585127,495
-324.53781962310075,458
-321.9772340362607,465
-319.4173562591816,453
-316.8581861056348,436
-314.2997233893127,430
-311.7419679238294,437
-309.1849195227194,449
-306.62857799943856,447
-304.0729431673641,460
-301.51801483979375,486
-298.963792829947,497
-296.41027695096386,478
-293.85746701590574,487
-291.3053628377552,513
-288.7539642294155,524
-286.2032710037115,506
-283.65328297338897,548
-281.1039999511146,595
-278.5554217494762,635
-276.007548180983,577
-273.4603790580651,566
-270.9139141930734,552
-268.3681533982807,613
-265.8230964858798,628
-263.27874326798565,608
-260.7350935566336,624
-258.1921471637804,606
-255.6499039013039,631
-253.10836358100266,675
-250.56752601459698,619
-248.02739101372765,608
-245.48795838995704,671
-242.94922795476816,681
-240.41119951956557,601
-237.8738728956746,657
-235.33724789434166,675
-232.80132432673452,642
-230.2661020039418,615
-227.73158073697357,637
-225.19776033676033,658
-222.66464061415422,775
-220.1322213799284,692
-217.60050244477725,686
-215.06948361931552,674
-212.53916471408013,767
-210.00954553952818,750
-207.48062590603843,718
-204.9524056239104,697
-202.4248845033651,664
-199.8980623545441,827
-197.37193898751036,797
-194.84651421224817,757
-192.32178783866232,743
-189.79775967657952,747
-187.27442953574644,783
-184.7517972258321,808
-182.2298625564256,750
-179.7086253370378,676
-177.18808537710026,707
-174.66824248596583,948
-172.14909647290835,1022
-169.6306471471229,942
-167.11289431772548,776
-164.59583779375328,715
-162.07947738416453,878
-159.5638128978386,1043
-157.04884414357605,1204
-154.53457093009854,1346
-152.02099306604828,1046
-149.50811035998936,945
-146.99592262040665,922
-144.48442965570587,1129
-141.97363127421409,1287
-139.46352728417958,1356
-136.95411749377126,1316
-134.44540171107985,1154
-131.93737974411636,1010
-129.43005140081357,1076
-126.92341648902493,1340
-124.41747481652521,1668
-121.91222619101006,1995
-119.40767042009657,2506
-116.90380731132257,2907
-114.40063667214702,2878
-111.8981583099503,2514
-109.3963720320337,2460
-106.89527764561933,2690
-104.39487495785067,3079
-101.89516377579241,3665
-99.39614390642998,5400
-96.89781515667039,7357
-94.40017733334128,8531
-91.90323024319173,6974
-89.40697369289148,5256
-86.91140748903172,4408
-84.41653143812482,3863
-81.92234534660395,3571
-79.42884902082358,4131
-76.93604226705907,4807
-74.4439248915071,4824
-71.95249670028534,5131
-69.46175749943245,6407
-66.97170709490854,8243
-64.48234529259423,10423
-61.99367189829195,12101
-59.50568671772464,12642
-57.01838955653636,11927
-54.53178022029283,12312
-52.045858514480074,12795
-49.560624244506016,13153
-47.07607721569923,12904
-44.59221723330904,11771
-42.10904410250669,10385
-39.62655762838392,9418
-37.14475761595372,10379
-34.66364387015028,11974
-32.18321619582866,16676
-29.70347439776515,20417
-27.224418280657005,22393
-24.74604764912317,26528
-22.26836230770266,40413
-19.7913620608565,65040
-17.315046712966478,65040
-14.83941606833514,65040
-12.36446993118659,65040
-9.89020810566592,65040
-7.416630395839093,65040
-4.94373660569363,65040
-2.471526539137585,65040
-6.821210263296962E-13,65040
2.47084320796705,65040
4.941003281093458,65040
7.410480415786196,65040
9.879274808531363,65040
12.347386655893956,65040
14.814816154518212,65040
17.28156350112681,65040
19.74762889252179,65040
22.21301252558385,21265
24.67771459727237,4165
27.141735304626195,3023
29.605074844762612,3223
32.06773341487792,3391
34.52971121224755,3027
36.99100843422559,2449
39.45162527824516,2567
41.91156194181792,2508
44.370818622535126,2322
46.82939551806646,2371
49.287292826160524,2386
51.74451074464503,1992
54.201049471426245,1839
56.65690920448981,1675
59.112090141899785,1657
61.56659248179983,2271
64.02041642241159,1659
66.4735621620365,1569
68.92602989905402,1696
71.37781983192338,1972
73.82893215918205,1683
76.27936707944684,1415
78.72912479141326,1324
81.17820549385567,1447
83.62660938562783,1458
86.07433666566146,1277
88.5213875329681,1384
90.96776218663751,1357
93.41346082583925,1204
95.85848364982041,1160
98.30283085790859,1104
100.7465026495089,1254
103.18949922410604,1264
105.63182078126385,1213
108.07346752062438,1043
110.51443964190923,915
112.95473734491827,937
115.39436082953114,901
117.83331029570547,1049
120.27158594347827,1080
122.7091879729652,1053
125.1461165843615,1031
127.58237197794062,1113
130.01795435405518,1152
132.4528639131364,929
134.88710085569494,992
137.32066538231982,1213
139.75355769367923,992
142.1857779905207,865
144.61732647366978,923
147.04820334403132,1016
149.47840880258934,1004
151.90794305040674,938
154.33680628862487,976
156.76499871846443,1002
159.19252054122433,1121
161.61937195828352,1314
164.04555317109896,1277
166.47106438120693,1396
168.89590579022217,1544
171.320077599839,1620
173.7435800118302,1727
176.16641322804742,1791
178.58857745042144,1853
181.01007288096173,1902
183.43089972175687,1935
185.85105817497413,1954
188.27054844285988,1903
190.6893707277394,1984
193.10752523201643,1917
195.5250121581745,1943
197.9418317087751,1945
200.3579840864594,1934
202.7734694939469,2061
205.18828813403627,2169
207.6024402096051,2131
210.01592592360964,2102
212.42874547908548,2141
214.84089907914665,2223
217.2523869269868,2118
219.66320922587727,2084
222.0733661791695,2051
224.48285799029293,2073
226.8916848627572,2133
229.29984700014882,2154
231.7073446061355,2213
234.11417788446204,2144
236.520347038953,2240
238.92585227351185,2180
241.33069379212054,2129
243.73487179884035,2198
246.1383864978112,2218
248.541238093252,2208
250.9434267894609,2248
253.34495279081432,2312
255.74581630176783,2321
258.1460175268563,2319
260.54555667069314,2286
262.9444339379703,2263
265.3426495334594,2373
267.7402036620107,2302
270.1370965285529,2278
272.53332833809407,2126
274.9288992957214,2108
277.32380960660055,2064
279.718059475976,2034
282.1116491091717,2042
284.5045787115897,2011
286.89684848871195,1978
289.2884586460981,2073
291.67940938938807,1986
294.0697009242996,2069
296.4593334566299,2109
298.84830719225477,2084
301.23662233712923,2121
303.6242790972866,2058
306.01127767884,1966
308.39761828798066,2015
310.78330113097934,1992
313.16832641418534,1913
315.5526943440269,1948
317.9364051270112,1931
320.3194589697242,1873
322.70185607883093,1855
325.0835966610754,1769
327.4646809232805,1861
329.8451090723478,1871
332.2248813152577,1841
334.6039978590701,1810
336.9824589109231,1837
339.36026467803447,1784
341.7374153677,1788
344.113911187295,1757
346.48975234427337,1709
348.8649390461686,1702
351.2394715005918,1762
353.61334991523415,1699
355.9865744978655,1743
358.35914545633375,1747
360.73106299856715,1678
363.10232733257146,1672
365.47293866643247,1750
367.84289720831396,1687
370.2122031664593,1714
372.5808567491905,1687
374.9488581649083,1728
377.31620762209275,1638
379.6829053293021,1699
382.0489514951745,1680
384.4143463284262,1674
386.7790900378528,1642
389.14318283232853,1634
391.50662492080653,1683
393.86941651231916,1578
396.23155781597745,1613
398.5930490409713,1698
400.9538903965696,1600
403.3140820921202,1585
405.6736243370498,1658
408.03251734086336,1615
410.3907613131465,1669
412.74835646356166,1636
415.10530300185144,1600
417.4616011378372,1612
419.81725108141893,1574
422.1722530425758,1627
424.5266072313656,1628
426.880313857925,1557
429.2333731324701,1619
431.58578526529516,1575
433.9375504667738,1579
436.2886689473588,1560
438.63914091758113,1617
440.9889665880513,1598
443.33814616945835,1560
445.68667987257015,1553
448.03456790823395,1597
450.3818104873759,1534
452.72840782100013,1510
455.07436012019105,1550
457.41966759611057,1562
459.7643304600007,1573
462.10834892318155,1561
464.4517231970525,1603
466.79445349309174,1537
469.1365400228566,1541
471.4779829979826,1576
473.81878263018564,1546
476.15893913125876,1553
478.4984527130747,1548
480.8373235875855,1650
483.17555196682144,1675
485.5131380628919,1660
487.8500820879857,1640
490.1863842543697,1788
492.52204477439034,1818
494.8570638604725,1896
497.1914417251204,2076
499.52517858091653,2335
501.85827464052306,2628
504.19073011668036,2900
506.5225452222086,3111
508.85372017000566,3154
511.18425517304956,3155
513.514150444396,3421
515.8434061971808,4276
518.1720226446176,5183
520.4999999999999,5129
522.8273384766991,4819
525.1540382881666,4439
527.480099647932,3940
529.8055227696037,3142
532.1303078668694,2391
534.454455153496,1946
536.777964843328,1813
539.1008371502907,1654
541.4230722883866,1642
543.744670471698,1647
546.0656319143858,1579
548.3859568306899,1600
550.7056454349294,1572
553.0246979415016,1546
555.3431145648834,1579
557.6608955196306,1558
559.978041020377,1558
562.2945512818363,1621
564.6104265188006,1569
566.9256669461412,1603
569.2402727788082,1562
571.5542442318302,1558
573.8675815203156,1558
576.1802848594508,1573
578.4923544645015,1609
580.8037905508126,1570
583.114593333807,1557
585.4247630289875,1570
587.7342998519354,1550
590.0432040183106,1508
592.3514757438526,1548
594.6591152443794,1569
596.9661227357875,1547
599.2724984340531,1581
601.578242555231,1567
603.8833553154542,1541
606.1878369309362,1533
608.4916876179676,1527
610.7949075929192,1535
613.0974970722403,1543
615.3994562724587,1493
617.7007854101818,1561
620.0014847020951,1535
622.3015543649641,1561
624.6009946156324,1493
626.8998056710224,1565
629.1979877481361,1507
631.4955410640538,1549
633.7924658359349,1552
636.0887622810175,1545
638.3844306166192,1615
640.6794710601358,1571
642.9738838290426,1602
645.2676691408932,1620
647.5608272133207,1596
649.853358264037,1595
652.1452625108324,1623
654.4365401715764,1632
656.7271914642178,1583
659.0172166067838,1613
661.3066158173809,1692
663.5953893141935,1616
665.8835373154867,1683
668.1710600396028,1630
670.4579577049639,1599
672.7442305300709,1635
675.0298787335033,1592
677.3149025339197,1628
679.599302150058,1636
681.8830778007342,1555
684.1662297048437,1593
686.4487580813608,1590
688.7306631493387,1615
691.0119451279091,1605
693.2926042362834,1562
695.5726406937516,1588
697.8520547196814,1544
700.1308465335215,1600
702.4090163547982,1637
704.6865644031171,1620
706.9634908981619,1572
709.2397960596965,1566
711.5154801075631,1599
713.7905432616823,1608
716.0649857420548,1605
718.3388077687592,1607
720.612009561953,1559
722.8845913418733,1619
725.1565533288352,1603
727.427895743234,1557
729.6986188055427,1552
731.9687227363137,1609
734.238207756178,1560
736.5070740858458,1629
738.7753219461066,1564
741.0429515578281,1540
743.3099631419569,1534
745.5763569195191,1567
747.8421331116193,1610
750.1072919394409,1528
752.3718336242467,1587
754.6357583873777,1577
756.8990664502545,1648
759.1617580343765,1618
761.423833361321,1610
763.6852926527457,1567
765.9461361303862,1550
768.206364016058,1607
770.4659765316536,1532
772.7249738991469,1566
774.9833563405886,1587
777.2411240781092,1604
779.4982773339183,1642
781.7548163303044,1623
784.010741289634,1607
786.2660524343538,1650
788.5207499869881,1644
790.7748341701416,1601
793.0283052064964,1624
795.2811633188143,1586
797.5334087299362,1608
799.7850416627813,1625
802.0360623403484,1661
804.2864709857143,1617
806.5362678220353,1644
808.7854530725468,1636
811.0340269605625,1655
813.2819897094754,1646
815.5293415427581,1660
817.77608268396,1604
820.0222133567116,1638
822.2677337847211,1646
824.5126441917765,1614
826.7569448017433,1626
829.0006358385675,1602
831.2437175262731,1662
833.4861900889629,1649
835.7280537508192,1601
837.9693087361026,1643
840.2099552691533,1603
842.4499935743896,1629
844.689423876309,1561
846.9282463994886,1620
849.1664613685833,1616
851.4040690083276,1646
853.6410695435349,1573
855.877463199097,1570
858.1132501999847,1633
860.3484307712487,1638
862.5830051380175,1659
864.8169735254988,1639
867.0503361589791,1660
869.2830932638243,1623
871.5152450654786,1633
873.7467917894654,1642
875.9777336613873,1617
878.2080709069252,1673
880.4378037518389,1629
882.666932421968,1653
884.8954571432301,1651
887.1233781416219,1654
889.3506956432192,1659
891.5774098741766,1692
893.803521060728,1607
896.0290294291852,1651
898.2539352059397,1691
900.4782386174619,1644
902.7019398903011,1662
904.925039251085,1633
907.147536926521,1603
909.3694331433943,1655
911.59072812857,1646
913.8114221089921,1647
916.0315153116827,1617
918.2510079637437,1642
920.4699002923547,1590
922.6881925247761,1629
924.905884888345,1625
927.1229776104793,1608
929.3394709186747,1644
931.555365040506,1668
933.7706602036275,1600
935.9853566357709,1606
938.1994545647489,1668
940.4129542184515,1643
942.6258558248488,1677
944.8381596119883,1713
947.0498658079974,1674
949.2609746410825,1700
951.4714863395287,1673
953.6814011316998,1630
955.8907192460387,1642
958.0994409110671,1629
960.3075663553858,1678
962.5150958076741,1666
964.7220294966913,1631
966.928367651274,1632
969.1341105003388,1661
971.3392582728806,1599
973.5438111979742,1635
975.747769504772,1624
977.9511334225061,1631
980.153903180487,1592
982.3560790081052,1624
984.5576611348289,1561
986.7586497902058,1508
988.9590452038618,1585
991.158847605503,1524
993.3580572249133,1485
995.5566742919558,1492
997.7546990365728,1478
999.952131688785,1464
1002.1489724786926,1459
1004.3452216364743,1394
1006.5408793923874,1456
1008.7359459767691,1437
1010.9304216200343,1385
1013.1243065526781,1332
1015.3176010052733,1426
1017.510305208472,1370
1019.7024193930064,1381
1021.8939437896848,1381
1024.0848786293977,1371
1026.2752241431122,1340
1028.4649805618747,1371
1030.6541481168115,1412
1032.842727039127,1411
1035.0307175601051,1327
1037.2181199111074,1346
1039.4049343235752,1312
1041.591161029029,1318
1043.7768002590683,1362
1045.9618522453698,1342
1048.1463172196918,1334
1050.3301954138697,1342
1052.513487059818,1350
1054.69619238953,1361
1056.8783116350783,1291
1059.0598450286152,1363
1061.2407928023704,1318
1063.4211551886528,1343
1065.6009324198508,1329
1067.780124728432,1344
1069.9587323469414,1326
1072.1367555080046,1329
1074.314194444325,1300
1076.4910493886855,1315
1078.667320573947,1316
1080.843008233051,1328
1083.0181125990161,1333
1085.1926339049414,1302
1087.3665723840027,1313
1089.5399282694575,1272
1091.7127017946405,1333
1093.8848931929647,1367
1096.0565026979243,1281
1098.2275305430899,1285
1100.3979769621128,1278
1102.567842188722,1248
1104.737126456726,1303
1106.9058300000124,1278
1109.0739530525475,1279
1111.2414958483764,1330
1113.4084586216231,1228
1115.5748416064907,1265
1117.7406450372605,1294
1119.9058691482942,1281
1122.0705141740304,1275
1124.2345803489884,1278
1126.3980679077658,1269
1128.5609770850388,1289
1130.7233081155623,1305
1132.8850612341707,1293
1135.0462366757774,1256
1137.2068346753745,1257
1139.3668554680326,1290
1141.526299288901,1259
1143.68516637321,1232
1145.8434569562655,1215
1148.001171273455,1308
1150.158309560244,1262
1152.3148720521767,1267
1154.470858984876,1274
1156.626270594044,1271
1158.7811071154629,1293
1160.9353687849912,1263
1163.089055838569,1247
1165.242168512213,1273
1167.3947070420209,1272
1169.5466716641677,1301
1171.6980626149075,1257
1173.8488801305748,1266
1175.9991244475814,1252
1178.1487958024186,1260
1180.2978944316555,1251
1182.4464205719428,1240
1184.5943744600072,1268
1186.7417563326567,1250
1188.8885664267755,1235
1191.0348049793297,1231
1193.1804722273619,1245
1195.325568407995,1298
1197.4700937584303,1244
1199.614048515948,1275
1201.7574329179074,1257
1203.900247201746,1304
1206.042491604982,1308
1208.1841663652099,1231
1210.3252717201053,1228
1212.465807907422,1240
1214.6057751649923,1264
1216.7451737307279,1246
1218.8840038426192,1263
1221.0222657387353,1347
1223.1599596572241,1290
1225.2970858363137,1325
1227.4336445143094,1313
1229.5696359295966,1302
1231.705060320639,1230
1233.8399179259786,1327
1235.9742089842384,1326
1238.107933734118,1322
1240.2410924143974,1333
1242.373685263935,1350
1244.5057125216676,1390
1246.6371744266116,1336
1248.7680712178621,1336
1250.898403134593,1321
1253.028170416058,1350
1255.1573733015875,1312
1257.2860120305932,1376
1259.4140868425648,1312
1261.54159797707,1346
1263.6685456737569,1328
1265.7949301723515,1297
1267.9207517126597,1309
1270.046010534565,1369
1272.1707068780306,1390
1274.2948409830983,1318
1276.4184130898889,1441
1278.541423438603,1392
1280.6638722695184,1406
1282.785759822993,1468
1284.9070863394636,1364
1287.0278520594447,1400
1289.1480572235314,1406
1291.2677020723963,1447
1293.3867868467923,1482
1295.5053117875495,1475
1297.623277135579,1523
1299.740683131868,1527
1301.8575300174857,1466
1303.973818033578,1538
1306.0895474213703,1517
1308.2047184221678,1560
1310.3193312773528,1539
1312.4333862283888,1535
1314.5468835168163,1578
1316.659823384255,1576
1318.7722060724045,1503
1320.8840318230418,1575
1322.9953008780249,1641
1325.1060134792888,1584
1327.2161698688478,1584
1329.3257702887959,1592
1331.4348149813054,1573
1333.5433041886276,1556
1335.6512381530933,1590
1337.7586171171101,1600
1339.8654413231675,1521
1341.9717110138317,1579
1344.0774264317488,1488
1346.1825878196432,1488
1348.2871954203192,1509
1350.3912494766587,1472
1352.4947502316231,1505
1354.5976979282532,1499
1356.7000928096686,1474
1358.8019351190665,1463
1360.9032250997243,1434
1363.0039629949988,1395
1365.1041490483235,1466
1367.2037835032133,1415
1369.3028666032606,1485
1371.401398592137,1427
1373.4993797135926,1424
1375.5968102114575,1464
1377.6936903296396,1427
1379.7900203121262,1422
1381.8858004029835,1472
1383.9810308463561,1420
1386.075711886469,1441
1388.1698437676241,1427
1390.2634267342032,1472
1392.356461030667,1503
1394.4489469015557,1513
1396.5408845914872,1448
1398.6322743451592,1396
1400.7231164073469,1409
1402.813411022907,1465
1404.903158436773,1426
1406.9923588939578,1468
1409.0810126395531,1491
1411.1691199187303,1449
1413.2566809767386,1468
1415.343696058907,1541
1417.4301654106425,1473
1419.5160892774315,1417
1421.6014679048399,1429
1423.6863015385125,1476
1425.7705904241707,1511
1427.8543348076178,1457
1429.9375349347342,1505
1432.0201910514802,1496
1434.102303403894,1522
1436.1838722380944,1459
1438.2648978002767,1549
1440.3453803367174,1444
1442.4253200937692,1514
1444.5047173178677,1505
1446.5835722555234,1525
1448.6618851533285,1591
1450.739656257952,1556
1452.8168858161434,1555
1454.8935740747306,1562
1456.96972128062,1587
1459.045327680797,1576
1461.120393522327,1636
1463.1949190523528,1593
1465.2689045180973,1595
1467.3423501668608,1619
1469.415256246024,1685
1471.4876230030463,1677
1473.559450685465,1604
1475.6307395408976,1673
1477.7014898170391,1675
1479.771701761665,1695
1481.8413756226287,1751
1483.9105116478618,1766
1485.9791100853772,1802
1488.0471711832643,1813
1490.1146951896926,1766
1492.1816823529098,1841
1494.2481329212433,1825
1496.3140471430984,1813
1498.3794252669609,1830
1500.4442675413939,1848
1502.5085742150404,1846
1504.572345536622,1817
1506.6355817549388,1861
1508.6982831188702,1890
1510.7604498773744,1895
1512.8220822794883,1883
1514.8831805743293,1945
1516.9437450110909,1934
1519.003775839048,1989
1521.0632733075522,1925
1523.1222376660367,1974
1525.1806691640113,1968
1527.2385680510652,2001
1529.2959345768668,1939
1531.3527689911643,1995
1533.4090715437833,2079
1535.4648424846291,2047
1537.5200820636855,2041
1539.5747905310159,2116
1541.6289681367616,2060
1543.6826151311434,2156
1545.7357317644614,2132
1547.7883182870937,2182
1549.8403749494987,2217
1551.8919020022113,2306
1553.9428996958477,2315
1555.9933682811015,2278
1558.0433080087469,2423
1560.0927191296346,2428
1562.1416018946961,2507
1564.1899565549415,2482
1566.2377833614592,2541
1568.2850825654164,2483
1570.3318544180606,2490
1572.3780991707158,2522
1574.423817074788,2481
1576.4690083817595,2360
1578.5136733431923,2435
1580.5578122107272,2307
1582.601425236085,2257
1584.6445126710646,2185
1586.6870747675434,2135
1588.7291117774776,2091
1590.7706239529034,2080
1592.8116115459347,1906
1594.8520748087658,1832
1596.8920139936686,1900
1598.9314293529933,1812
1600.9703211391711,1799
1603.008689604711,1806
1605.0465350022005,1724
1607.0838575843068,1664
1609.1206576037753,1692
1611.1569353134305,1668
1613.1926909661765,1519
1615.2279248149953,1559
1617.2626371129481,1598
1619.2968281131757,1532
1621.3304980688963,1502
1623.3636472334088,1486
1625.39627586009,1475
1627.428384202396,1458
1629.459972513861,1480
1631.4910410480993,1437
1633.5215900588028,1407
1635.551619799744,1365
1637.5811305247717,1417
1639.6101224878166,1353
1641.6385959428862,1347
1643.6665511440683,1326
1645.693988345528,1380
1647.7209078015112,1318
1649.7473097663405,1306
1651.7731944944203,1296
1653.7985622402307,1328
1655.823413258333,1308
1657.847747803366,1353
1659.8715661300494,1343
1661.8948684931793,1324
1663.9176551476316,1288
1665.9399263483624,1324
1667.9616823504057,1320
1669.982923408873,1257
1672.0036497789574,1303
1674.0238617159293,1269
1676.043559475138,1280
1678.0627433120121,1259
1680.081413482059,1263
1682.0995702408654,1299
1684.117213844096,1348
1686.134344547495,1302
1688.1509626068864,1284
1690.1670682781705,1258
1692.182661817329,1300
1694.1977434804217,1330
1696.2123135235875,1260
1698.226372203043,1366
1700.2399197750851,1272
1702.2529564960905,1278
1704.2654826225112,1276
1706.277498410882,1262
1708.2890041178139,1290
1710.2999999999988,1276
1712.3104863142066,1264
1714.3204633172854,1260
1716.329931266163,1286
1718.3388904178469,1288
1720.3473410294214,1221
1722.3552833580516,1263
1724.3627176609807,1328
1726.3696441955308,1272
1728.3760632191033,1259
1730.3819749891782,1310
1732.3873797633146,1294
1734.3922777991502,1257
1736.3966693544012,1267
1738.4005546868639,1258
1740.4039340544127,1287
1742.406807715001,1211
1744.4091759266616,1299
1746.4110389475054,1230
1748.4123970357223,1259
1750.413250449582,1299
1752.4135994474318,1202
1754.4134442876993,1250
1756.4127852288902,1197
1758.4116225295893,1219
1760.4099564484595,1196
1762.407787244244,1162
1764.405115175764,1292
1766.4019405019203,1216
1768.3982634816916,1290
1770.3940843741357,1210
1772.3894034383907,1284
1774.3842209336717,1216
1776.378537119274,1172
1778.372352254571,1241
1780.3656665990156,1245
1782.3584804121397,1182
1784.3507939535534,1245
1786.3426074829463,1219
1788.3339212600863,1237
1790.3247355448211,1256
1792.3150505970766,1204
1794.3048666768573,1188
1796.2941840442477,1214
1798.2830029594106,1211
1800.2713236825884,1226
1802.2591464741004,1209
1804.2464715943465,1229
1806.2332993038058,1213
1808.2196298630352,1225
1810.2054635326708,1282
1812.190800573428,1186
1814.175641246101,1239
1816.1599858115628,1174
1818.1438345307652,1215
1820.127187664738,1171
1822.1100454745924,1260
1824.092408221516,1140
1826.0742761667766,1173
1828.055649571721,1214
1830.0365286977735,1295
1832.0169138064398,1186
1833.9968051593014,1214
1835.9762030180214,1273
1837.9551076443408,1248
1839.9335193000788,1241
1841.9114382471344,1232
1843.888864747485,1254
1845.8657990631878,1193
1847.842241456378,1272
1849.8181921892697,1209
1851.7936515241558,1206
1853.7686197234098,1211
1855.7430970494815,1206
1857.7170837649014,1146
1859.6905801322787,1202
1861.6635864143004,1184
1863.6361028737338,1207
1865.608129773424,1208
1867.5796673762961,1192
1869.5507159453537,1164
1871.521275743678,1236
1873.4913470344313,1220
1875.4609300808534,1223
1877.4300251462632,1237
1879.3986324940588,1240
1881.366752387717,1204
1883.3343850907936,1224
1885.3015308669228,1216
1887.268189979819,1198
1889.2343626932739,1204
1891.2000492711595,1208
1893.1652499774254,1232
1895.1299650761011,1205
1897.0941948312952,1231
1899.0579395071945,1257
1901.0211993680641,1259
1902.98397467825,1269
1904.9462657021745,1244
1906.9080727043415,1161
1908.869395949332,1196
1910.8302357018065,1264
1912.790592226504,1211
1914.7504657882428,1252
1916.7098566519212,1218
1918.6687650825133,1260
1920.6271913450764,1239
1922.5851357047422,1246
1924.5425984267245,1214
1926.499579776314,1214
1928.4560800188833,1211
1930.4120994198802,1191
1932.367638244833,1189
1934.32269675935,1226
1936.2772752291175,1191
1938.231373919899,1227
1940.1849930975404,1275
1942.1381330279637,1226
1944.0907939771696,1206
1946.0429762112412,1204
1947.9946799963363,1217
1949.9459055986945,1195
1951.896653284633,1214
1953.8469233205478,1247
1955.7967159729142,1199
1957.7460315082863,1228
1959.6948701932974,1237
1961.6432322946594,1195
1963.5911180791632,1223
1965.5385278136787,1248
1967.4854617651545,1199
1969.4319202006182,1137
1971.377903387176,1172
1973.3234115920136,1208
1975.268445082395,1217
1977.2130041256642,1232
1979.1570889892423,1180
1981.1006999406304,1181
1983.04383724741,1241
1984.986501177238,1176
1986.928691997853,1166
1988.8704099770712,1149
1990.811655382789,1209
1992.7524284829801,1205
1994.692729545698,1209
1996.6325588390755,1186
1998.5719166313224,1168
2000.5108031907307,1164
2002.4492187856677,1172
2004.387163684583,1170
2006.3246381560011,1176
2008.2616424685298,1188
2010.1981768908527,1200
2012.1342416917332,1167
2014.069837140014,1180
2016.0049635046162,1146
2017.9396210545406,1185
2019.8738100588666,1180
2021.8075307867502,1203
2023.740783507431,1142
2025.6735684902228,1156
2027.6058860045214,1129
2029.5377363198004,1135
2031.4691197056118,1221
2033.4000364315875,1140
2035.3304867674374,1153
2037.260470982952,1188
2039.189989347998,1203
2041.1190421325232,1115
2043.047629606554,1159
2044.9757520401945,1197
2046.9034097036288,1135
2048.8306028671195,1159
2050.7573318010086,1141
2052.683596775716,1210
2054.609398061742,1103
2056.5347359296647,1151
2058.4596106501403,1156
2060.384022493906,1204
2062.3079717317764,1143
2064.231458634646,1162
2066.1544834734873,1206
2068.077046519352,1158
2069.99914804337,1173
2071.9207883167524,1184
2073.8419676107865,1147
2075.7626861968406,1177
2077.6829443463607,1174
2079.6027423308715,1166
2081.522080421977,1194
2083.440958891362,1152
2085.359378010786,1163
2087.2773380520907,1124
2089.194839287196,1165
2091.111881988101,1172
2093.0284664268825,1159
2094.9445928756973,1163
2096.86026160678,1179
2098.775472892446,1155
2100.690227005088,1149
2102.604524217178,1133
2104.5183648012676,1192
2106.431749029985,1173
2108.34467717604,1138
2110.2571495122206,1156
2112.169166311393,1179
2114.080727846503,1190
2115.9918343905747,1183
2117.902486216711,1166
2119.8126835980956,1196
2121.722426807987,1220
2123.6317161197285,1197
2125.5405518067364,1199
2127.448934142509,1194
2129.356863400624,1170
2131.264339854737,1163
2133.1713637785815,1198
2135.077935445972,1196
2136.9840551308002,1192
2138.889723107037,1200
2140.7949396487334,1203
2142.699705030018,1158
2144.6040195250994,1151
2146.507883408264,1173
2148.4112969538774,1143
2150.3142604363848,1192
2152.2167741303097,1203
2154.1188383102535,1180
2156.0204532508997,1213
2157.9216192270064,1214
2159.822336513414,1174
2161.7226053850413,1225
2163.622426116884,1158
2165.5217989840185,1196
2167.4207242616,1207
2169.319202224862,1204
2171.2172331491165,1229
2173.1148173097563,1188
2175.0119549822507,1242
2176.90864644215,1195
2178.8048919650823,1180
2180.7006918267534,1196
2182.596046302952,1197
2184.4909556695407,1139
2186.3854202024645,1209
2188.279440177746,1158
2190.173015871487,1210
2192.066147559868,1248
2193.958835519149,1216
2195.851080025667,1185
2197.7428813558417,1227
2199.6342397861667,1204
2201.5251555932186,1221
2203.415629053651,1207
2205.3056604441986,1201
2207.19525004167,1263
2209.084398122958,1292
2210.9731049650327,1203
2212.861370844941,1223
2214.749196039812,1175
2216.636580826851,1224
2218.523525483344,1205
2220.410030286655,1218
2222.296095514226,1181
2224.1817214435805,1251
2226.066908352319,1219
2227.951656518121,1215
2229.835966218746,1225
2231.71983773203,1188
2233.6032713358913,1157
2235.486267308324,1228
2237.3688259274036,1229
2239.2509474712824,1193
2241.132632218193,1221
2243.013880446447,1272
2244.8946924344323,1246
2246.7750684606203,1224
2248.6550088035574,1193
2250.534513741871,1165
2252.413583554265,1247
2254.292218519526,1188
2256.170418916517,1171
2258.0481850241786,1197
2259.925517121534,1233
2261.8024154876825,1206
2263.678880401803,1213
2265.5549121431536,1198
2267.430510991071,1207
2269.305677224971,1263
2271.180411124348,1150
2273.0547129687766,1220
2274.9285830379076,1221
2276.8020216114737,1173
2278.6750289692845,1210
2280.5476053912294,1217
2282.4197511572766,1184
2284.2914665474727,1217
2286.162751841943,1193
2288.0336073208937,1203
2289.904033264608,1255
2291.774029953448,1221
2293.6435976678554,1251
2295.5127366883517,1225
2297.381447295534,1186
2299.2497297700825,1212
2301.1175843927526,1132
2302.9850114443825,1115
2304.852011205885,1115
2306.7185839582553,1126
2308.5847299825664,1138
2310.4504495599676,1087
2312.3157429716925,1094
2314.1806104990483,1124
2316.0450524234247,1185
2317.9090690262888,1173
2319.772660589186,1128
2321.635827393742,1123
2323.498569721661,1095
2325.3608878547248,1151
2327.2227820747967,1124
2329.0842526638157,1101
2330.945299903803,1059
2332.805924076857,1094
2334.6661254651535,1124
2336.525904350951,1131
2338.3852610165827,1054
2340.244195744464,1085
2342.102708817088,1100
2343.9608005170253,1111
2345.8184711269287,1147
2347.675720929526,1080
2349.532550207628,1122
2351.38895924412,1123
2353.24494832197,1089
2355.100517724223,1100
2356.955667734004,1097
2358.810398634514,1108
2360.664710709037,1119
2362.5186042409337,1147
2364.3720795136437,1127
2366.225136810686,1143
2368.0777764156583,1098
2369.929998612237,1108
2371.7818036841777,1114
2373.633191915315,1135
2375.484163589562,1124
2377.3347189909114,1113
2379.184858403434,1108
2381.03458211128,1133
2382.8838903986775,1109
2384.732783549936,1160
2386.5812618494406,1174
2388.4293255816588,1142
2390.2769750311327,1160
2392.1242104824883,1200
2393.971032220427,1128
2395.8174405297295,1137
2397.6634356952563,1204
2399.509018001947,1165
2401.3541877348193,1166
2403.1989451789705,1116
2405.043290619576,1139
2406.8872243418905,1133
2408.730746631247,1128
2410.5738577730594,1133
2412.4165580528183,1133
2414.258847756095,1115
2416.100727168537,1144
2417.9421965758734,1103
2419.783256263912,1128
2421.623906518538,1175
2423.4641476257157,1140
2425.303979871491,1180
2427.143403541984,1161
2428.9824189233977,1147
2430.821026302012,1160
2432.6592259641866,1091
2434.497018196361,1129
2436.33440328505,1139
2438.171381516851,1149
2440.00795317844,1186
2441.844118556569,1109
2443.6798779380724,1129
2445.5152316098606,1132
2447.3501798589255,1212
2449.1847229723357,1125
2451.0188612372403,1178
2452.8525949408663,1131
2454.6859243705203,1171
2456.518849813587,1135
2458.3513715575314,1182
2460.183489889895,1173
2462.015205098301,1193
2463.8465174704493,1156
2465.67742729412,1177
2467.5079348571717,1129
2469.338040447542,1189
2471.1677443532476,1178
2472.9970468623833,1176
2474.825948263123,1156
2476.6544488437207,1156
2478.482548892508,1152
2480.310248697896,1141
2482.137548548374,1195
2483.9644487325118,1110
2485.790949538956,1159
2487.617051256433,1118
2489.44275417375,1179
2491.26805857979,1212
2493.0929647635157,1231
2494.917473013971,1121
2496.741583620276,1156
2498.5652968716304,1157
2500.3886130573137,1172
2502.2115324666834,1159
2504.0340553891765,1185
2505.856182114308,1194
2507.6779129316733,1158
2509.499248130945,1156
2511.3201880018764,1197
2513.140732834298,1174
2514.9608829181198,1165
2516.780638543331,1170
2518.6,1187
2520.418967578273,1183
2522.237541568376,1194
2524.0557222606144,1186
2525.8735099453706,1257
2527.6909049131086,1180
2529.507907454368,1217
2531.32451785977,1233
2533.140736420014,1225
2534.9565634258774,1220
2536.771999168218,1202
2538.5870439379714,1260
2540.4016980261526,1219
2542.2159617238544,1258
2544.02983532225,1281
2545.8433191125914,1301
2547.656413386209,1329
2549.4691184345115,1218
2551.2814345489874,1243
2553.093362021204,1321
2554.904901142808,1250
2556.716052205523,1289
2558.526815501153,1317
2560.3371913215824,1267
2562.147179958771,1316
2563.956781704761,1347
2565.7659968516705,1362
2567.5748256916986,1310
2569.3832685171224,1341
2571.1913256202984,1396
2572.9989972936614,1408
2574.806283829725,1362
2576.613185521084,1376
2578.4197026604074,1387
2580.2258355404483,1347
2582.031584454035,1357
2583.836949694077,1317
2585.6419315535613,1396
2587.4465303255533,1381
2589.2507463032002,1443
2591.0545797797245,1384
2592.8580310484303,1393
2594.6611004026995,1395
2596.463788135992,1421
2598.266094541849,1390
2600.0680199138874,1346
2601.869564545807,1405
2603.670728731383,1436
2605.4715127644704,1340
2607.2719169390048,1386
2609.071941548998,1402
2610.8715868885433,1328
2612.670853251811,1375
2614.469740933052,1361
2616.268250226594,1339
2618.0663814268455,1383
2619.864134828292,1360
2621.6615107255006,1317
2623.458509413115,1340
2625.2551311858597,1360
2627.0513763385347,1331
2628.8472451660223,1303
2630.6427379632833,1351
2632.4378550253564,1315
2634.232596647359,1340
2636.026963124488,1362
2637.8209547520187,1297
2639.6145718253065,1303
2641.407814639785,1252
2643.200683490966,1339
2644.9931786744414,1333
2646.7853004858807,1322
2648.577049221034,1298
2650.3684251757277,1309
2652.1594286458712,1252
2653.9500599274484,1250
2655.740319316525,1238
2657.5302071092437,1251
2659.3197236018286,1273
2661.10886909058,1263
2662.8976438718782,1241
2664.686048242183,1268
2666.4740824980327,1276
2668.2617469360443,1253
2670.0490418529134,1224
2671.8359675454153,1249
2673.622524310403,1240
2675.408712444811,1217
2677.1945322456495,1199
2678.979984010009,1180
2680.76506803506,1174
2682.5497846180497,1245
2684.334134056306,1186
2686.1181166472343,1257
2687.9017326883213,1224
2689.6849824771293,1179
2691.4678663113013,1163
2693.2503844885596,1193
2695.032537306705,1208
2696.8143250636167,1182
2698.5957480572542,1179
2700.3768065856534,1123
2702.1575009469316,1182
2703.937831439283,1166
2705.717798360982,1157
2707.4974020103837,1134
2709.276642685917,1128
2711.055520686095,1143
2712.834036309506,1145
2714.612189854819,1153
2716.389981620782,1121
2718.1674119062204,1144
2719.944481010041,1100
2721.721189231226,1147
2723.4975368688415,1166
2725.273524222027,1139
2727.0491515900053,1098
2728.824419272075,1124
2730.5993275676146,1166
2732.3738767760838,1129
2734.148067197016,1146
2735.921899130031,1089
2737.6953728748194,1149
2739.468488731156,1156
2741.2412469988926,1133
2743.0136479779617,1084
2744.785691968372,1121
2746.5573792702116,1081
2748.3287101836504,1073
2750.099685008934,1109
2751.870304046388,1118
2753.640567596418,1157
2755.4104759595057,1116
2757.1800294362156,1110
2758.949228327187,1079
2760.7180729331412,1110
2762.486563554877,1098
2764.254700493272,1090
2766.022484049284,1132
2767.789914523947,1100
2769.5569922183786,1110
2771.3237174337705,1041
2773.090090471394,1091
2774.8561116326036,1134
2776.6217812188274,1081
2778.3870995315756,1088
2780.1520668724356,1104
2781.9166835430747,1127
2783.6809498452394,1101
2785.444866080754,1084
2787.2084325515225,1096
2788.971649559527,1080
2790.73451740683,1112
2792.4970363955713,1087
2794.2592068279705,1093
2796.0210290063264,1057
2797.7825032330147,1068
2799.543629810493,1124
2801.304409041296,1101
2803.0648412280366,1116
2804.8249266734088,1068
2806.5846656801846,1105
2808.344058551212,1083
2810.1031055894246,1078
2811.8618070978273,1104
2813.6201633795085,1153
2815.378174737636,1112
2817.1358414754536,1104
2818.893163896285,1072
2820.6501423035334,1121
2822.4067770006814,1118
2824.1630682912883,1069
2825.9190164789957,1123
2827.6746218675207,1133
2829.429884760661,1076
2831.184805462294,1131
2832.9393842763743,1128
2834.693621506936,1097
2836.4475174580916,1064
2838.201072434034,1110
2839.954286739034,1107
2841.707160677441,1116
2843.459694553685,1103
2845.2118886722724,1103
2846.96374333779,1107
2848.7152588549034,1110
2850.4664355283567,1099
2852.217273662973,1119
2853.9677735636546,1099
2855.7179355353833,1098
2857.4677598832186,1097
2859.217246912299,1120
2860.9663969278427,1058
2862.715210235146,1097
2864.4636871395846,1099
2866.211827946614,1135
2867.9596329617652,1086
2869.7071024906536,1081
2871.4542368389684,1025
2873.20103631248,1071
2874.947501217038,1128
2876.6936318585695,1075
2878.4394285430812,1106
2880.1848915766604,1068
2881.9300212654707,1054
2883.6748179157553,1092
2885.4192818338374,1090
2887.1634133261173,1093
2888.907212699077,1046
2890.6506802592744,1119
2892.393816313348,1133
2894.1366211680142,1102
2895.8790951300693,1120
2897.621238506388,1049
2899.363051603925,1075
2901.1045347297118,1088
2902.8456881908596,1092
2904.58651229456,1062
2906.327007348081,1094
2908.067173658772,1059
2909.8070115340597,1106
2911.5465212814497,1118
2913.285703208527,1091
2915.0245576229563,1119
2916.7630848324807,1072
2918.5012851449196,1135
2920.2391588681758,1075
2921.976706310227,1063
2923.7139277791334,1089
2925.4508235830313,1089
2927.187394030137,1107
2928.923639428745,1076
2930.6595600872306,1076
2932.395156314046,1124
2934.1304284177218,1092
2935.8653767068713,1119
2937.6000014901815,1095
2939.3343030764227,1155
2941.068281774442,1095
2942.8019378931644,1075
2944.5352717415976,1119
2946.2682836288236,1122
2948.0009738640065,1081
2949.7333427563885,1130
2951.465390615289,1086
2953.1971177501086,1102
2954.9285244703265,1097
2956.6596110855,1055
2958.3903779052657,1040
2960.1208252393385,1120
2961.8509533975125,1101
2963.5807626896617,1062
2965.3102534257378,978
2967.0394259157715,1047
2968.768280469873,1056
2970.496817398232,1082
2972.2250370111146,1118
2973.952939618869,1108
2975.6805255319196,1091
2977.4077950607707,1087
2979.134748516006,1083
2980.861386208289,1123
2982.587708448359,1092
2984.313715547037,1031
2986.039407815222,1084
2987.764785563891,1057
2989.489849104102,1080
2991.2145987469908,1055
2992.9390348037705,1070
2994.6631575857346,1072
2996.3869674042576,1087
2998.1104645707887,1075
2999.83364939686,1099
3001.5565221940783,1029
3003.2790832741334,1073
3005.0013329487924,1064
3006.7232715298996,1061
3008.4448993293804,1115
3010.166216659239,1037
3011.887223831558,1058
3013.607921158498,1063
3015.3283089522993,1075
3017.0483875252826,1091
3018.7681571898443,1112
3020.4876182584626,1057
3022.2067710436927,1113
3023.9256158581707,1104
3025.644153014609,1045
3027.362382825801,1052
3029.0803056046193,1069
3030.797921664012,1069
3032.5152313170106,1082
3034.2322348767225,1028
3035.9489326563353,1083
3037.665324969115,1028
3039.3814121284063,1032
3041.097194447633,1081
3042.812672240299,1027
3044.5278458199855,1036
3046.2427155003525,1065
3047.9572815951406,1078
3049.671544418167,1093
3051.38550428333,1082
3053.0991615046073,1021
3054.812516396051,1066
3056.5255692717974,1098
3058.2383204460575,1001
3059.9507702331257,1097
3061.662918947372,1081
3063.3747669032446,1051
3065.0863144152736,1093
3066.7975617980674,1050
3068.508509366309,1055
3070.219157434767,1019
3071.9295063182844,1022
3073.639556331785,1075
3075.3493077902704,1050
3077.058761008821,1060
3078.7679163025964,1082
3080.476773986837,1066
3082.1853343768594,1055
3083.89359778806,1016
3085.6015645359153,1069
3087.3092349359786,1094
3089.016609303884,1070
3090.7236879553434,1086
3092.4304712061476,1068
3094.136959372166,1043
3095.843152769349,1054
3097.5490517137237,1122
3099.2546565213966,1079
3100.959967508554,1061
3102.66498499146,1025
3104.3697092864577,1047
3106.0741407099695,1074
3107.778279578498,1024
3109.482126208622,1103
3111.1856809170004,1089
3112.8889440203716,1066
3114.5919158355528,1040
3116.294596679439,1083
3117.996986869006,1115
3119.6990867213062,1052
3121.4008965534726,1095
3123.102416682717,1083
3124.803647426329,1078
3126.5045891016784,1050
3128.205242026213,1059
3129.90560651746,1047
3131.605682893025,1037
3133.3054714705922,1101
3135.0049725679282,1059
3136.7041865028714,1071
3138.4031135933465,1039
3140.101754157353,1084
3141.800108512971,1044
3143.498176978357,1073
3145.1959598717494,1053
3146.8934575114636,1080
3148.5906702158954,1096
3150.2875983035183,1074
3151.9842420928853,1077
3153.680601902627,1067
3155.376678051456,1031
3157.07247085816,1064
3158.767980641609,1086
3160.463207720748,1012
3162.158152414606,1094
3163.8528150422862,1094
3165.5471959229726,1085
3167.2412953759303,1070
3168.9351137204976,1022
3170.628651276098,1088
3172.3219083622307,1047
3174.014885298474,1032
3175.707582404485,1063
3177.4000000000005,1064
3179.092138404835,1069
3180.7839979388846,1091
3182.47557892212,1036
3184.166881674594,1078
3185.8579065164386,1067
3187.5486537678626,1079
3189.2391237491547,1039
3190.9293167806827,1091
3192.6192331828934,1057
3194.3088732763117,1105
3195.998237381542,1073
3197.687325819268,1027
3199.376138910251,1052
3201.064676975334,1034
3202.7529403354347,991
3204.4409293115523,1006
3206.1286442247647,1038
3207.816085396229,997
3209.5032531471825,1039
3211.190147798936,1063
3212.8767696728846,1028
3214.5631190905015,1028
3216.2491963733373,1057
3217.9350018430214,1048
3219.6205358212637,1014
3221.305798629851,1085
3222.990790590651,968
3224.6755120256103,1055
3226.359963256751,1048
3228.0441446061795,1035
3229.7280563960758,1020
3231.411698948703,1053
3233.0950725863995,1102
3234.778177631587,980
3236.461014406761,1023
3238.1435832345005,1051
3239.8258844374595,1058
3241.507918338374,1071
3243.1896852600576,1102
3244.8711855254023,1048
3246.552419457381,1074
3248.233387379042,1090
3249.914089613516,1038
3251.59452648401,1076
3253.274698313813,1097
3254.95460542629,1024
3256.6342481448855,1032
3258.313626793125,1036
3259.9927416946084,1068
3261.6715931730196,983
3263.3501815521176,1008
3265.0285071557437,1030
3266.706570307815,1055
3268.3843713323286,1027
3270.0619105533615,1018
3271.739188295068,978
3273.4162048816834,1038
3275.0929606375184,1010
3276.769455886966,1042
3278.445690954498,1035
3280.1216661646613,1071
3281.797381842087,1114
3283.4728383114807,1086
3285.1480358976296,1068
3286.8229749253996,1052
3288.4976557197333,1055
3290.172078605655,1095
3291.846243908266,1050
3293.5201519527463,1055
3295.193803064357,1013
3296.8671975684374,1052
3298.5403357904024,1018
3300.21321805575,1101
3301.8858446900567,1063
3303.558216018975,1051
3305.23033236824,1031
3306.9021940636603,1081
3308.57380143113,1044
3310.2451547966184,1075
3311.916254486174,1049
3313.5871008259246,1073
3315.2576941420766,1027
3316.9280347609147,1066
3318.5981230088046,1023
3320.2679592121895,1033
3321.9375436975924,1017
3323.606876791612,991
3325.27595882093,978
3326.944790112305,1035
3328.6133709925753,1019
3330.2817017886573,970
3331.949782827547,1023
3333.617614436319,1048
3335.2851969421245,1099
3336.952530672199,1064
3338.619615953853,1019
3340.286453114475,1035
3341.9530424815357,1020
3343.619384382583,1049
3345.2854791452437,1085
3346.951327097224,1053
3348.6169285663073,1055
3350.2822838803577,1022
3351.947393367319,1029
3353.61225735521,1011
3355.2768761721345,1055
3356.9412501462693,1044
3358.605379605873,1031
3360.2692648792827,1038
3361.9329062949146,1029
3363.596304181263,1037
