CollectionTime,9/25/2024 12:06:47 PM
ExposureUsed,3
CalibratedSpectrum
-962.7078968117929,488
-959.9714848408522,499
-957.2358232597828,486
-954.5009119013725,523
-951.7667505983302,561
-949.0333391832855,525
-946.3006774887896,547
-943.5687653473143,548
-940.837602591253,537
-938.1071890529199,504
-935.3775245645503,527
-932.6486089583007,516
-929.9204420662485,510
-927.1930237203925,522
-924.4663537526524,554
-921.7404319948689,543
-919.0152582788041,532
-916.2908324361409,557
-913.5671542984834,537
-910.8442236973568,548
-908.1220404642074,531
-905.4006044304027,538
-902.679915427231,524
-899.959973285902,529
-897.2407778375464,557
-894.5223289132158,547
-891.8046263438832,525
-889.0876699604426,499
-886.3714595937089,530
-883.6559950744183,525
-880.9412762332282,532
-878.2273029007168,497
-875.5140749073835,501
-872.8015920836489,504
-870.0898542598545,535
-867.3788612662631,496
-864.6686129330585,504
-861.9591090903457,534
-859.2503495681506,516
-856.5423341964203,488
-853.8350628050229,497
-851.1285352237478,522
-848.4227512823054,550
-845.7177108103272,557
-843.0134136373656,523
-840.3098595928943,509
-837.6070485063082,511
-834.9049802069229,508
-832.2036545239757,556
-829.5030712866244,566
-826.8032303239481,520
-824.1041314649472,501
-821.4057745385428,511
-818.7081593735775,528
-816.0112857988148,519
-813.3151536429393,529
-810.6197627345566,521
-807.9251129021936,512
-805.2312039742981,510
-802.5380357792392,529
-799.8456081453069,503
-797.1539209007124,552
-794.462973873588,519
-791.772766891987,534
-789.083299783884,541
-786.3945723771743,527
-783.7065844996748,517
-781.0193359791231,520
-778.3328266431781,543
-775.6470563194197,564
-772.9620248353489,505
-770.2777320183878,515
-767.5941776958798,515
-764.9113616950891,538
-762.2292838432011,535
-759.5479439673222,535
-756.8673418944801,521
-754.1874774516235,532
-751.5083504656222,530
-748.8299607632671,533
-746.15230817127,513
-743.475392516264,552
-740.7992136248035,543
-738.1237713233636,544
-735.4490654383407,526
-732.7750957960521,575
-730.1018622227365,537
-727.4293645445534,554
-724.7576025875837,546
-722.0865761778291,557
-719.4162851412126,550
-716.7467293035781,570
-714.0779084906909,564
-711.409822528237,556
-708.7424712418238,565
-706.0758544569796,567
-703.4099719991541,572
-700.7448236937178,559
-698.0804093659622,544
-695.4167288411002,549
-692.7537819442656,570
-690.0915685005134,578
-687.4300883348199,572
-684.7693412720819,573
-682.1093271371178,575
-679.4500457546669,576
-676.7914969493897,568
-674.1336805458676,574
-671.4765963686034,604
-668.8202442420206,582
-666.1646239904642,581
-663.5097354382001,558
-660.8555784094151,568
-658.2021527282176,558
-655.5494582186366,554
-652.8974947046223,592
-650.2462620100463,627
-647.5957599587009,576
-644.9459883742998,624
-642.2969470804776,591
-639.6486359007902,576
-637.0010546587141,639
-634.3542031776476,603
-631.7080812809096,583
-629.0626887917401,592
-626.4180255333008,596
-623.7740913286734,619
-621.1308860008619,647
-618.4884093727904,599
-615.8466612673046,605
-613.2056415071715,611
-610.5653499150785,618
-607.9257863136347,627
-605.28695052537,642
-602.6488423727357,614
-600.0114616781036,601
-597.3748082637674,637
-594.7388819519412,659
-592.1036825647604,632
-589.4692099242818,637
-586.8354638524829,654
-584.2024441712624,645
-581.5701507024403,628
-578.9385832677575,652
-576.3077416888759,663
-573.6776257873787,642
-571.0482353847704,643
-568.4195703024757,664
-565.7916303618415,664
-563.164415384135,640
-560.5379251905453,638
-557.9121596021815,630
-555.2871184400748,649
-552.6628015251767,629
-550.0392086783606,644
-547.4163397204204,676
-544.794194472071,670
-542.1727727539491,673
-539.5520743866118,687
-536.9320991905377,658
-534.3128469861261,685
-531.6943175936979,698
-529.0765108334947,761
-526.4594265256793,809
-523.8430644903358,917
-521.2274245474689,1077
-518.612506517005,1164
-515.9983102187913,1148
-513.3848354725959,1206
-510.77208209810846,1250
-508.16004991493924,1392
-505.5487387426199,1495
-502.9381484006032,1577
-500.3282787082628,1535
-497.71912948489364,1475
-495.1107005497117,1352
-492.5029917218539,1215
-489.8960028203786,1082
-487.28973366426493,943
-484.68418407241325,903
-482.07935386364494,820
-479.47524285670266,848
-476.87185087025,784
-474.2691777228715,803
-471.66722323307334,847
-469.0659872192821,868
-466.4654694998459,780
-463.86566989303384,879
-461.26658821703614,788
-458.66822428996414,785
-456.07057792985,798
-453.4736489546475,855
-450.877437182231,818
-448.28194243039627,823
-445.68716451686,805
-443.09310325926003,783
-440.49975847515555,808
-437.9071299820263,772
-435.31521759727354,784
-432.72402113821954,815
-430.13354042210767,830
-427.5437752661022,819
-424.95472548728867,813
-422.36639090267386,837
-419.7787713291855,865
-417.1918665836721,842
-414.60567648290385,834
-412.0202008435715,870
-409.4354394822874,867
-406.8513922155845,874
-404.26805885991723,881
-401.685439231661,874
-399.103533147112,875
-396.522340422488,847
-393.9418608739278,896
-391.3620943174908,834
-388.7830405691583,837
-386.2046994448317,806
-383.6270707603344,796
-381.05015433141045,800
-378.473949973725,707
-375.8984575028645,673
-373.32367673433623,685
-370.74960748356875,663
-368.1762495659117,607
-365.60360279663576,531
-363.03166699093265,525
-360.4604419639154,508
-357.8899275306178,533
-355.32012350599507,507
-352.7510297049233,509
-350.1826459421999,520
-347.61497203254316,450
-345.04800779059235,488
-342.4817530309082,446
-339.91620756797226,463
-337.35137121618743,475
-334.7872437898774,497
-332.22382510328725,539
-329.66111497058273,488
-327.09911320585127,572
-324.53781962310075,494
-321.9772340362607,461
-319.4173562591816,477
-316.8581861056348,513
-314.2997233893127,483
-311.7419679238294,472
-309.1849195227194,469
-306.62857799943856,471
-304.0729431673641,491
-301.51801483979375,514
-298.963792829947,529
-296.41027695096386,522
-293.85746701590574,537
-291.3053628377552,593
-288.7539642294155,568
-286.2032710037115,553
-283.65328297338897,568
-281.1039999511146,593
-278.5554217494762,700
-276.007548180983,703
-273.4603790580651,619
-270.9139141930734,617
-268.3681533982807,663
-265.8230964858798,605
-263.27874326798565,649
-260.7350935566336,655
-258.1921471637804,685
-255.6499039013039,683
-253.10836358100266,725
-250.56752601459698,646
-248.02739101372765,666
-245.48795838995704,759
-242.94922795476816,758
-240.41119951956557,732
-237.8738728956746,745
-235.33724789434166,734
-232.80132432673452,698
-230.2661020039418,659
-227.73158073697357,702
-225.19776033676033,780
-222.66464061415422,877
-220.1322213799284,818
-217.60050244477725,673
-215.06948361931552,681
-212.53916471408013,822
-210.00954553952818,845
-207.48062590603843,798
-204.9524056239104,711
-202.4248845033651,776
-199.8980623545441,826
-197.37193898751036,833
-194.84651421224817,786
-192.32178783866232,803
-189.79775967657952,829
-187.27442953574644,919
-184.7517972258321,890
-182.2298625564256,744
-179.7086253370378,768
-177.18808537710026,833
-174.66824248596583,1012
-172.14909647290835,1118
-169.6306471471229,1028
-167.11289431772548,962
-164.59583779375328,928
-162.07947738416453,966
-159.5638128978386,1056
-157.04884414357605,1203
-154.53457093009854,1316
-152.02099306604828,1160
-149.50811035998936,1030
-146.99592262040665,973
-144.48442965570587,1094
-141.97363127421409,1401
-139.46352728417958,1492
-136.95411749377126,1556
-134.44540171107985,1354
-131.93737974411636,1216
-129.43005140081357,1219
-126.92341648902493,1514
-124.41747481652521,1863
-121.91222619101006,2159
-119.40767042009657,3013
-116.90380731132257,3663
-114.40063667214702,3890
-111.8981583099503,3249
-109.3963720320337,3162
-106.89527764561933,3104
-104.39487495785067,3492
-101.89516377579241,3801
-99.39614390642998,5321
-96.89781515667039,7578
-94.40017733334128,9554
-91.90323024319173,8252
-89.40697369289148,6323
-86.91140748903172,5005
-84.41653143812482,4213
-81.92234534660395,4169
-79.42884902082358,5028
-76.93604226705907,6368
-74.4439248915071,6005
-71.95249670028534,6654
-69.46175749943245,8653
-66.97170709490854,11801
-64.48234529259423,15322
-61.99367189829195,16488
-59.50568671772464,16185
-57.01838955653636,15283
-54.53178022029283,13695
-52.045858514480074,12716
-49.560624244506016,13620
-47.07607721569923,13235
-44.59221723330904,12506
-42.10904410250669,11732
-39.62655762838392,10148
-37.14475761595372,12073
-34.66364387015028,14852
-32.18321619582866,20341
-29.70347439776515,25559
-27.224418280657005,28074
-24.74604764912317,34941
-22.26836230770266,54433
-19.7913620608565,65040
-17.315046712966478,65040
-14.83941606833514,65040
-12.36446993118659,65040
-9.89020810566592,65040
-7.416630395839093,65040
-4.94373660569363,65040
-2.471526539137585,65040
-6.821210263296962E-13,65040
2.47084320796705,65040
4.941003281093458,65040
7.410480415786196,65040
9.879274808531363,65040
12.347386655893956,65040
14.814816154518212,65040
17.28156350112681,65040
19.74762889252179,65040
22.21301252558385,22294
24.67771459727237,5279
27.141735304626195,4011
29.605074844762612,4505
32.06773341487792,4301
34.52971121224755,4188
36.99100843422559,2985
39.45162527824516,3865
41.91156194181792,3834
44.370818622535126,2722
46.82939551806646,2476
49.287292826160524,2741
51.74451074464503,2704
54.201049471426245,3006
56.65690920448981,2108
59.112090141899785,1898
61.56659248179983,2733
64.02041642241159,2150
66.4735621620365,1987
68.92602989905402,1993
71.37781983192338,2308
73.82893215918205,1908
76.27936707944684,1754
78.72912479141326,1743
81.17820549385567,1631
83.62660938562783,1585
86.07433666566146,1592
88.5213875329681,1730
90.96776218663751,1560
93.41346082583925,1517
95.85848364982041,1476
98.30283085790859,1285
100.7465026495089,1485
103.18949922410604,1531
105.63182078126385,1379
108.07346752062438,1311
110.51443964190923,1157
112.95473734491827,1173
115.39436082953114,1053
117.83331029570547,1296
120.27158594347827,1361
122.7091879729652,1217
125.1461165843615,1279
127.58237197794062,1263
130.01795435405518,1364
132.4528639131364,1103
134.88710085569494,1211
137.32066538231982,1495
139.75355769367923,1248
142.1857779905207,1038
144.61732647366978,1054
147.04820334403132,1089
149.47840880258934,1158
151.90794305040674,1066
154.33680628862487,1094
156.76499871846443,1106
159.19252054122433,1235
161.61937195828352,1304
164.04555317109896,1381
166.47106438120693,1573
168.89590579022217,1739
171.320077599839,1795
173.7435800118302,1885
176.16641322804742,1968
178.58857745042144,2002
181.01007288096173,1979
183.43089972175687,2057
185.85105817497413,2073
188.27054844285988,2081
190.6893707277394,2120
193.10752523201643,2258
195.5250121581745,2111
197.9418317087751,2141
200.3579840864594,2059
202.7734694939469,2158
205.18828813403627,2248
207.6024402096051,2225
210.01592592360964,2098
212.42874547908548,2236
214.84089907914665,2270
217.2523869269868,2318
219.66320922587727,2241
222.0733661791695,2182
224.48285799029293,2283
226.8916848627572,2180
229.29984700014882,2328
231.7073446061355,2318
234.11417788446204,2320
236.520347038953,2291
238.92585227351185,2278
241.33069379212054,2378
243.73487179884035,2342
246.1383864978112,2481
248.541238093252,2349
250.9434267894609,2347
253.34495279081432,2454
255.74581630176783,2440
258.1460175268563,2391
260.54555667069314,2416
262.9444339379703,2404
265.3426495334594,2491
267.7402036620107,2450
270.1370965285529,2422
272.53332833809407,2200
274.9288992957214,2278
277.32380960660055,2303
279.718059475976,2387
282.1116491091717,2291
284.5045787115897,2226
286.89684848871195,2197
289.2884586460981,2234
291.67940938938807,2248
294.0697009242996,2219
296.4593334566299,2185
298.84830719225477,2323
301.23662233712923,2300
303.6242790972866,2257
306.01127767884,2244
308.39761828798066,2169
310.78330113097934,2102
313.16832641418534,2070
315.5526943440269,2105
317.9364051270112,2063
320.3194589697242,2146
322.70185607883093,2065
325.0835966610754,1934
327.4646809232805,2029
329.8451090723478,1967
332.2248813152577,1945
334.6039978590701,1990
336.9824589109231,2045
339.36026467803447,1914
341.7374153677,1898
344.113911187295,1875
346.48975234427337,1951
348.8649390461686,1937
351.2394715005918,1975
353.61334991523415,1928
355.9865744978655,1918
358.35914545633375,1937
360.73106299856715,1834
363.10232733257146,1839
365.47293866643247,1860
367.84289720831396,1892
370.2122031664593,1869
372.5808567491905,1837
374.9488581649083,1811
377.31620762209275,1822
379.6829053293021,1772
382.0489514951745,1843
384.4143463284262,1728
386.7790900378528,1775
389.14318283232853,1775
391.50662492080653,1832
393.86941651231916,1812
396.23155781597745,1758
398.5930490409713,1815
400.9538903965696,1698
403.3140820921202,1817
405.6736243370498,1758
408.03251734086336,1687
410.3907613131465,1736
412.74835646356166,1737
415.10530300185144,1806
417.4616011378372,1729
419.81725108141893,1682
422.1722530425758,1752
424.5266072313656,1775
426.880313857925,1722
429.2333731324701,1765
431.58578526529516,1661
433.9375504667738,1672
436.2886689473588,1762
438.63914091758113,1727
440.9889665880513,1730
443.33814616945835,1724
445.68667987257015,1691
448.03456790823395,1712
450.3818104873759,1697
452.72840782100013,1680
455.07436012019105,1665
457.41966759611057,1598
459.7643304600007,1630
462.10834892318155,1644
464.4517231970525,1650
466.79445349309174,1655
469.1365400228566,1672
471.4779829979826,1715
473.81878263018564,1709
476.15893913125876,1676
478.4984527130747,1703
480.8373235875855,1761
483.17555196682144,1829
485.5131380628919,1764
487.8500820879857,1854
490.1863842543697,1927
492.52204477439034,2042
494.8570638604725,2179
497.1914417251204,2456
499.52517858091653,2763
501.85827464052306,3106
504.19073011668036,3239
506.5225452222086,3349
508.85372017000566,3352
511.18425517304956,3388
513.514150444396,3595
515.8434061971808,4557
518.1720226446176,5595
520.4999999999999,5577
522.8273384766991,5363
525.1540382881666,4833
527.480099647932,4290
529.8055227696037,3515
532.1303078668694,2612
534.454455153496,2187
536.777964843328,1917
539.1008371502907,1797
541.4230722883866,1839
543.744670471698,1773
546.0656319143858,1726
548.3859568306899,1766
550.7056454349294,1653
553.0246979415016,1736
555.3431145648834,1697
557.6608955196306,1687
559.978041020377,1645
562.2945512818363,1729
564.6104265188006,1717
566.9256669461412,1660
569.2402727788082,1670
571.5542442318302,1603
573.8675815203156,1690
576.1802848594508,1718
578.4923544645015,1665
580.8037905508126,1644
583.114593333807,1668
585.4247630289875,1664
587.7342998519354,1661
590.0432040183106,1603
592.3514757438526,1665
594.6591152443794,1707
596.9661227357875,1711
599.2724984340531,1726
601.578242555231,1612
603.8833553154542,1594
606.1878369309362,1612
608.4916876179676,1677
610.7949075929192,1636
613.0974970722403,1650
615.3994562724587,1679
617.7007854101818,1663
620.0014847020951,1636
622.3015543649641,1639
624.6009946156324,1657
626.8998056710224,1707
629.1979877481361,1701
631.4955410640538,1647
633.7924658359349,1657
636.0887622810175,1646
638.3844306166192,1672
640.6794710601358,1711
642.9738838290426,1703
645.2676691408932,1687
647.5608272133207,1692
649.853358264037,1673
652.1452625108324,1663
654.4365401715764,1687
656.7271914642178,1658
659.0172166067838,1649
661.3066158173809,1685
663.5953893141935,1629
665.8835373154867,1640
668.1710600396028,1710
670.4579577049639,1669
672.7442305300709,1715
675.0298787335033,1738
677.3149025339197,1662
679.599302150058,1691
681.8830778007342,1662
684.1662297048437,1683
686.4487580813608,1692
688.7306631493387,1687
691.0119451279091,1595
693.2926042362834,1631
695.5726406937516,1692
697.8520547196814,1643
700.1308465335215,1681
702.4090163547982,1665
704.6865644031171,1689
706.9634908981619,1694
709.2397960596965,1674
711.5154801075631,1683
713.7905432616823,1701
716.0649857420548,1652
718.3388077687592,1632
720.612009561953,1704
722.8845913418733,1718
725.1565533288352,1678
727.427895743234,1672
729.6986188055427,1661
731.9687227363137,1661
734.238207756178,1649
736.5070740858458,1672
738.7753219461066,1675
741.0429515578281,1623
743.3099631419569,1670
745.5763569195191,1703
747.8421331116193,1677
750.1072919394409,1651
752.3718336242467,1655
754.6357583873777,1666
756.8990664502545,1676
759.1617580343765,1703
761.423833361321,1656
763.6852926527457,1670
765.9461361303862,1806
768.206364016058,1641
770.4659765316536,1677
772.7249738991469,1706
774.9833563405886,1669
777.2411240781092,1678
779.4982773339183,1753
781.7548163303044,1775
784.010741289634,1720
786.2660524343538,1746
788.5207499869881,1639
790.7748341701416,1721
793.0283052064964,1718
795.2811633188143,1757
797.5334087299362,1692
799.7850416627813,1728
802.0360623403484,1739
804.2864709857143,1770
806.5362678220353,1771
808.7854530725468,1756
811.0340269605625,1722
813.2819897094754,1688
815.5293415427581,1755
817.77608268396,1765
820.0222133567116,1690
822.2677337847211,1748
824.5126441917765,1711
826.7569448017433,1822
829.0006358385675,1686
831.2437175262731,1676
833.4861900889629,1726
835.7280537508192,1755
837.9693087361026,1717
840.2099552691533,1757
842.4499935743896,1720
844.689423876309,1780
846.9282463994886,1659
849.1664613685833,1740
851.4040690083276,1712
853.6410695435349,1694
855.877463199097,1783
858.1132501999847,1725
860.3484307712487,1732
862.5830051380175,1730
864.8169735254988,1714
867.0503361589791,1722
869.2830932638243,1753
871.5152450654786,1718
873.7467917894654,1714
875.9777336613873,1761
878.2080709069252,1708
880.4378037518389,1747
882.666932421968,1756
884.8954571432301,1801
887.1233781416219,1788
889.3506956432192,1782
891.5774098741766,1740
893.803521060728,1715
896.0290294291852,1837
898.2539352059397,1838
900.4782386174619,1753
902.7019398903011,1767
904.925039251085,1814
907.147536926521,1753
909.3694331433943,1782
911.59072812857,1735
913.8114221089921,1706
916.0315153116827,1764
918.2510079637437,1710
920.4699002923547,1746
922.6881925247761,1656
924.905884888345,1691
927.1229776104793,1749
929.3394709186747,1727
931.555365040506,1738
933.7706602036275,1646
935.9853566357709,1757
938.1994545647489,1766
940.4129542184515,1753
942.6258558248488,1763
944.8381596119883,1774
947.0498658079974,1735
949.2609746410825,1740
951.4714863395287,1745
953.6814011316998,1785
955.8907192460387,1752
958.0994409110671,1712
960.3075663553858,1736
962.5150958076741,1690
964.7220294966913,1783
966.928367651274,1799
969.1341105003388,1678
971.3392582728806,1690
973.5438111979742,1702
975.747769504772,1726
977.9511334225061,1684
980.153903180487,1631
982.3560790081052,1675
984.5576611348289,1679
986.7586497902058,1634
988.9590452038618,1580
991.158847605503,1599
993.3580572249133,1591
995.5566742919558,1563
997.7546990365728,1568
999.952131688785,1504
1002.1489724786926,1487
1004.3452216364743,1547
1006.5408793923874,1544
1008.7359459767691,1509
1010.9304216200343,1494
1013.1243065526781,1472
1015.3176010052733,1426
1017.510305208472,1470
1019.7024193930064,1440
1021.8939437896848,1431
1024.0848786293977,1468
1026.2752241431122,1429
1028.4649805618747,1503
1030.6541481168115,1396
1032.842727039127,1428
1035.0307175601051,1414
1037.2181199111074,1412
1039.4049343235752,1441
1041.591161029029,1387
1043.7768002590683,1386
1045.9618522453698,1472
1048.1463172196918,1377
1050.3301954138697,1419
1052.513487059818,1375
1054.69619238953,1393
1056.8783116350783,1343
1059.0598450286152,1341
1061.2407928023704,1370
1063.4211551886528,1391
1065.6009324198508,1331
1067.780124728432,1357
1069.9587323469414,1349
1072.1367555080046,1451
1074.314194444325,1406
1076.4910493886855,1376
1078.667320573947,1368
1080.843008233051,1321
1083.0181125990161,1350
1085.1926339049414,1384
1087.3665723840027,1372
1089.5399282694575,1379
1091.7127017946405,1380
1093.8848931929647,1347
1096.0565026979243,1314
1098.2275305430899,1310
1100.3979769621128,1264
1102.567842188722,1288
1104.737126456726,1298
1106.9058300000124,1337
1109.0739530525475,1291
1111.2414958483764,1294
1113.4084586216231,1314
1115.5748416064907,1290
1117.7406450372605,1318
1119.9058691482942,1280
1122.0705141740304,1326
1124.2345803489884,1372
1126.3980679077658,1310
1128.5609770850388,1346
1130.7233081155623,1272
1132.8850612341707,1270
1135.0462366757774,1298
1137.2068346753745,1304
1139.3668554680326,1290
1141.526299288901,1333
1143.68516637321,1326
1145.8434569562655,1308
1148.001171273455,1277
1150.158309560244,1307
1152.3148720521767,1363
1154.470858984876,1268
1156.626270594044,1289
1158.7811071154629,1302
1160.9353687849912,1304
1163.089055838569,1277
1165.242168512213,1235
1167.3947070420209,1329
1169.5466716641677,1319
1171.6980626149075,1295
1173.8488801305748,1276
1175.9991244475814,1327
1178.1487958024186,1309
1180.2978944316555,1262
1182.4464205719428,1282
1184.5943744600072,1265
1186.7417563326567,1286
1188.8885664267755,1216
1191.0348049793297,1274
1193.1804722273619,1294
1195.325568407995,1280
1197.4700937584303,1278
1199.614048515948,1319
1201.7574329179074,1321
1203.900247201746,1284
1206.042491604982,1323
1208.1841663652099,1281
1210.3252717201053,1238
1212.465807907422,1305
1214.6057751649923,1257
1216.7451737307279,1332
1218.8840038426192,1337
1221.0222657387353,1333
1223.1599596572241,1330
1225.2970858363137,1382
1227.4336445143094,1263
1229.5696359295966,1322
1231.705060320639,1337
1233.8399179259786,1342
1235.9742089842384,1350
1238.107933734118,1368
1240.2410924143974,1362
1242.373685263935,1386
1244.5057125216676,1366
1246.6371744266116,1342
1248.7680712178621,1281
1250.898403134593,1375
1253.028170416058,1359
1255.1573733015875,1396
1257.2860120305932,1382
1259.4140868425648,1381
1261.54159797707,1401
1263.6685456737569,1386
1265.7949301723515,1424
1267.9207517126597,1401
1270.046010534565,1352
1272.1707068780306,1458
1274.2948409830983,1417
1276.4184130898889,1454
1278.541423438603,1443
1280.6638722695184,1456
1282.785759822993,1434
1284.9070863394636,1493
1287.0278520594447,1441
1289.1480572235314,1492
1291.2677020723963,1464
1293.3867868467923,1517
1295.5053117875495,1492
1297.623277135579,1468
1299.740683131868,1513
1301.8575300174857,1505
1303.973818033578,1588
1306.0895474213703,1518
1308.2047184221678,1554
1310.3193312773528,1586
1312.4333862283888,1576
1314.5468835168163,1610
1316.659823384255,1649
1318.7722060724045,1565
1320.8840318230418,1584
1322.9953008780249,1600
1325.1060134792888,1615
1327.2161698688478,1626
1329.3257702887959,1604
1331.4348149813054,1610
1333.5433041886276,1691
1335.6512381530933,1499
1337.7586171171101,1543
1339.8654413231675,1555
1341.9717110138317,1589
1344.0774264317488,1600
1346.1825878196432,1543
1348.2871954203192,1576
1350.3912494766587,1560
1352.4947502316231,1516
1354.5976979282532,1486
1356.7000928096686,1545
1358.8019351190665,1500
1360.9032250997243,1480
1363.0039629949988,1453
1365.1041490483235,1564
1367.2037835032133,1420
1369.3028666032606,1457
1371.401398592137,1470
1373.4993797135926,1480
1375.5968102114575,1503
1377.6936903296396,1483
1379.7900203121262,1479
1381.8858004029835,1422
1383.9810308463561,1468
1386.075711886469,1458
1388.1698437676241,1451
1390.2634267342032,1463
1392.356461030667,1504
1394.4489469015557,1492
1396.5408845914872,1461
1398.6322743451592,1448
1400.7231164073469,1457
1402.813411022907,1454
1404.903158436773,1412
1406.9923588939578,1476
1409.0810126395531,1518
1411.1691199187303,1469
1413.2566809767386,1433
1415.343696058907,1444
1417.4301654106425,1465
1419.5160892774315,1475
1421.6014679048399,1536
1423.6863015385125,1547
1425.7705904241707,1466
1427.8543348076178,1416
1429.9375349347342,1428
1432.0201910514802,1444
1434.102303403894,1512
1436.1838722380944,1464
1438.2648978002767,1555
1440.3453803367174,1491
1442.4253200937692,1576
1444.5047173178677,1506
1446.5835722555234,1532
1448.6618851533285,1567
1450.739656257952,1549
1452.8168858161434,1565
1454.8935740747306,1567
1456.96972128062,1585
1459.045327680797,1613
1461.120393522327,1560
1463.1949190523528,1592
1465.2689045180973,1665
1467.3423501668608,1645
1469.415256246024,1596
1471.4876230030463,1724
1473.559450685465,1694
1475.6307395408976,1711
1477.7014898170391,1745
1479.771701761665,1735
1481.8413756226287,1733
1483.9105116478618,1746
1485.9791100853772,1694
1488.0471711832643,1698
1490.1146951896926,1768
1492.1816823529098,1784
1494.2481329212433,1783
1496.3140471430984,1812
1498.3794252669609,1775
1500.4442675413939,1827
1502.5085742150404,1768
1504.572345536622,1843
1506.6355817549388,1873
1508.6982831188702,1927
1510.7604498773744,1738
1512.8220822794883,1858
1514.8831805743293,1856
1516.9437450110909,1900
1519.003775839048,1896
1521.0632733075522,1917
1523.1222376660367,1900
1525.1806691640113,1973
1527.2385680510652,1942
1529.2959345768668,1951
1531.3527689911643,1999
1533.4090715437833,1999
1535.4648424846291,2045
1537.5200820636855,2052
1539.5747905310159,2054
1541.6289681367616,2084
1543.6826151311434,2113
1545.7357317644614,2144
1547.7883182870937,2161
1549.8403749494987,2221
1551.8919020022113,2301
1553.9428996958477,2272
1555.9933682811015,2324
1558.0433080087469,2397
1560.0927191296346,2381
1562.1416018946961,2444
1564.1899565549415,2452
1566.2377833614592,2495
1568.2850825654164,2437
1570.3318544180606,2396
1572.3780991707158,2421
1574.423817074788,2299
1576.4690083817595,2316
1578.5136733431923,2187
1580.5578122107272,2163
1582.601425236085,2148
1584.6445126710646,2048
1586.6870747675434,2042
1588.7291117774776,2050
1590.7706239529034,1927
1592.8116115459347,1895
1594.8520748087658,1867
1596.8920139936686,1822
1598.9314293529933,1836
1600.9703211391711,1789
1603.008689604711,1746
1605.0465350022005,1661
1607.0838575843068,1656
1609.1206576037753,1624
1611.1569353134305,1589
1613.1926909661765,1525
1615.2279248149953,1595
1617.2626371129481,1559
1619.2968281131757,1563
1621.3304980688963,1497
1623.3636472334088,1461
1625.39627586009,1449
1627.428384202396,1401
1629.459972513861,1393
1631.4910410480993,1436
1633.5215900588028,1459
1635.551619799744,1397
1637.5811305247717,1365
1639.6101224878166,1418
1641.6385959428862,1333
1643.6665511440683,1417
1645.693988345528,1410
1647.7209078015112,1348
1649.7473097663405,1353
1651.7731944944203,1449
1653.7985622402307,1351
1655.823413258333,1352
1657.847747803366,1388
1659.8715661300494,1390
1661.8948684931793,1356
1663.9176551476316,1342
1665.9399263483624,1335
1667.9616823504057,1368
1669.982923408873,1367
1672.0036497789574,1243
1674.0238617159293,1327
1676.043559475138,1342
1678.0627433120121,1292
1680.081413482059,1268
1682.0995702408654,1326
1684.117213844096,1272
1686.134344547495,1250
1688.1509626068864,1295
1690.1670682781705,1320
1692.182661817329,1323
1694.1977434804217,1305
1696.2123135235875,1334
1698.226372203043,1298
1700.2399197750851,1308
1702.2529564960905,1345
1704.2654826225112,1317
1706.277498410882,1312
1708.2890041178139,1280
1710.2999999999988,1319
1712.3104863142066,1308
1714.3204633172854,1337
1716.329931266163,1275
1718.3388904178469,1299
1720.3473410294214,1261
1722.3552833580516,1300
1724.3627176609807,1315
1726.3696441955308,1315
1728.3760632191033,1307
1730.3819749891782,1199
1732.3873797633146,1284
1734.3922777991502,1298
1736.3966693544012,1285
1738.4005546868639,1231
1740.4039340544127,1310
1742.406807715001,1304
1744.4091759266616,1321
1746.4110389475054,1271
1748.4123970357223,1290
1750.413250449582,1301
1752.4135994474318,1260
1754.4134442876993,1336
1756.4127852288902,1277
1758.4116225295893,1259
1760.4099564484595,1281
1762.407787244244,1200
1764.405115175764,1240
1766.4019405019203,1271
1768.3982634816916,1257
1770.3940843741357,1279
1772.3894034383907,1305
1774.3842209336717,1270
1776.378537119274,1286
1778.372352254571,1253
1780.3656665990156,1314
1782.3584804121397,1211
1784.3507939535534,1257
1786.3426074829463,1309
1788.3339212600863,1237
1790.3247355448211,1204
1792.3150505970766,1276
1794.3048666768573,1261
1796.2941840442477,1191
1798.2830029594106,1273
1800.2713236825884,1233
1802.2591464741004,1287
1804.2464715943465,1249
1806.2332993038058,1199
1808.2196298630352,1286
1810.2054635326708,1239
1812.190800573428,1275
1814.175641246101,1229
1816.1599858115628,1269
1818.1438345307652,1293
1820.127187664738,1244
1822.1100454745924,1245
1824.092408221516,1229
1826.0742761667766,1261
1828.055649571721,1284
1830.0365286977735,1248
1832.0169138064398,1195
1833.9968051593014,1252
1835.9762030180214,1235
1837.9551076443408,1216
1839.9335193000788,1240
1841.9114382471344,1251
1843.888864747485,1244
1845.8657990631878,1253
1847.842241456378,1198
1849.8181921892697,1241
1851.7936515241558,1171
1853.7686197234098,1219
1855.7430970494815,1221
1857.7170837649014,1223
1859.6905801322787,1239
1861.6635864143004,1223
1863.6361028737338,1253
1865.608129773424,1291
1867.5796673762961,1277
1869.5507159453537,1297
1871.521275743678,1267
1873.4913470344313,1234
1875.4609300808534,1290
1877.4300251462632,1299
1879.3986324940588,1239
1881.366752387717,1274
1883.3343850907936,1262
1885.3015308669228,1250
1887.268189979819,1213
1889.2343626932739,1318
1891.2000492711595,1286
1893.1652499774254,1266
1895.1299650761011,1270
1897.0941948312952,1234
1899.0579395071945,1245
1901.0211993680641,1207
1902.98397467825,1168
1904.9462657021745,1311
1906.9080727043415,1273
1908.869395949332,1212
1910.8302357018065,1212
1912.790592226504,1276
1914.7504657882428,1206
1916.7098566519212,1313
1918.6687650825133,1233
1920.6271913450764,1249
1922.5851357047422,1225
1924.5425984267245,1258
1926.499579776314,1223
1928.4560800188833,1220
1930.4120994198802,1270
1932.367638244833,1220
1934.32269675935,1249
1936.2772752291175,1281
1938.231373919899,1258
1940.1849930975404,1252
1942.1381330279637,1264
1944.0907939771696,1243
1946.0429762112412,1247
1947.9946799963363,1222
1949.9459055986945,1231
1951.896653284633,1238
1953.8469233205478,1196
1955.7967159729142,1202
1957.7460315082863,1229
1959.6948701932974,1231
1961.6432322946594,1215
1963.5911180791632,1201
1965.5385278136787,1179
1967.4854617651545,1213
1969.4319202006182,1226
1971.377903387176,1215
1973.3234115920136,1249
1975.268445082395,1217
1977.2130041256642,1240
1979.1570889892423,1196
1981.1006999406304,1255
1983.04383724741,1135
1984.986501177238,1210
1986.928691997853,1243
1988.8704099770712,1229
1990.811655382789,1258
1992.7524284829801,1207
1994.692729545698,1302
1996.6325588390755,1187
1998.5719166313224,1237
2000.5108031907307,1224
2002.4492187856677,1204
2004.387163684583,1215
2006.3246381560011,1216
2008.2616424685298,1206
2010.1981768908527,1261
2012.1342416917332,1220
2014.069837140014,1178
2016.0049635046162,1187
2017.9396210545406,1189
2019.8738100588666,1215
2021.8075307867502,1206
2023.740783507431,1240
2025.6735684902228,1204
2027.6058860045214,1211
2029.5377363198004,1256
2031.4691197056118,1226
2033.4000364315875,1193
2035.3304867674374,1205
2037.260470982952,1215
2039.189989347998,1198
2041.1190421325232,1212
2043.047629606554,1193
2044.9757520401945,1201
2046.9034097036288,1185
2048.8306028671195,1185
2050.7573318010086,1223
2052.683596775716,1215
2054.609398061742,1208
2056.5347359296647,1206
2058.4596106501403,1252
2060.384022493906,1220
2062.3079717317764,1173
2064.231458634646,1223
2066.1544834734873,1172
2068.077046519352,1225
2069.99914804337,1205
2071.9207883167524,1162
2073.8419676107865,1193
2075.7626861968406,1197
2077.6829443463607,1256
2079.6027423308715,1174
2081.522080421977,1214
2083.440958891362,1224
2085.359378010786,1192
2087.2773380520907,1224
2089.194839287196,1243
2091.111881988101,1290
2093.0284664268825,1212
2094.9445928756973,1213
2096.86026160678,1190
2098.775472892446,1222
2100.690227005088,1241
2102.604524217178,1226
2104.5183648012676,1183
2106.431749029985,1220
2108.34467717604,1232
2110.2571495122206,1242
2112.169166311393,1178
2114.080727846503,1164
2115.9918343905747,1227
2117.902486216711,1271
2119.8126835980956,1219
2121.722426807987,1217
2123.6317161197285,1219
2125.5405518067364,1207
2127.448934142509,1281
2129.356863400624,1224
2131.264339854737,1222
2133.1713637785815,1272
2135.077935445972,1209
2136.9840551308002,1210
2138.889723107037,1272
2140.7949396487334,1248
2142.699705030018,1278
2144.6040195250994,1202
2146.507883408264,1230
2148.4112969538774,1261
2150.3142604363848,1236
2152.2167741303097,1252
2154.1188383102535,1288
2156.0204532508997,1251
2157.9216192270064,1230
2159.822336513414,1230
2161.7226053850413,1232
2163.622426116884,1279
2165.5217989840185,1234
2167.4207242616,1273
2169.319202224862,1245
2171.2172331491165,1269
2173.1148173097563,1261
2175.0119549822507,1203
2176.90864644215,1248
2178.8048919650823,1257
2180.7006918267534,1240
2182.596046302952,1274
2184.4909556695407,1262
2186.3854202024645,1230
2188.279440177746,1277
2190.173015871487,1277
2192.066147559868,1259
2193.958835519149,1258
2195.851080025667,1216
2197.7428813558417,1203
2199.6342397861667,1201
2201.5251555932186,1229
2203.415629053651,1220
2205.3056604441986,1227
2207.19525004167,1226
2209.084398122958,1242
2210.9731049650327,1249
2212.861370844941,1238
2214.749196039812,1229
2216.636580826851,1242
2218.523525483344,1238
2220.410030286655,1260
2222.296095514226,1260
2224.1817214435805,1319
2226.066908352319,1280
2227.951656518121,1250
2229.835966218746,1203
2231.71983773203,1226
2233.6032713358913,1290
2235.486267308324,1302
2237.3688259274036,1239
2239.2509474712824,1268
2241.132632218193,1241
2243.013880446447,1259
2244.8946924344323,1280
2246.7750684606203,1282
2248.6550088035574,1268
2250.534513741871,1247
2252.413583554265,1296
2254.292218519526,1251
2256.170418916517,1218
2258.0481850241786,1249
2259.925517121534,1337
2261.8024154876825,1291
2263.678880401803,1252
2265.5549121431536,1219
2267.430510991071,1269
2269.305677224971,1289
2271.180411124348,1277
2273.0547129687766,1267
2274.9285830379076,1260
2276.8020216114737,1267
2278.6750289692845,1263
2280.5476053912294,1270
2282.4197511572766,1229
2284.2914665474727,1286
2286.162751841943,1268
2288.0336073208937,1273
2289.904033264608,1291
2291.774029953448,1257
2293.6435976678554,1282
2295.5127366883517,1245
2297.381447295534,1246
2299.2497297700825,1269
2301.1175843927526,1196
2302.9850114443825,1202
2304.852011205885,1197
2306.7185839582553,1179
2308.5847299825664,1143
2310.4504495599676,1155
2312.3157429716925,1184
2314.1806104990483,1149
2316.0450524234247,1175
2317.9090690262888,1151
2319.772660589186,1163
2321.635827393742,1153
2323.498569721661,1160
2325.3608878547248,1186
2327.2227820747967,1156
2329.0842526638157,1186
2330.945299903803,1146
2332.805924076857,1145
2334.6661254651535,1180
2336.525904350951,1227
2338.3852610165827,1132
2340.244195744464,1176
2342.102708817088,1187
2343.9608005170253,1134
2345.8184711269287,1132
2347.675720929526,1172
2349.532550207628,1182
2351.38895924412,1202
2353.24494832197,1192
2355.100517724223,1148
2356.955667734004,1156
2358.810398634514,1168
2360.664710709037,1165
2362.5186042409337,1138
2364.3720795136437,1126
2366.225136810686,1212
2368.0777764156583,1234
2369.929998612237,1152
2371.7818036841777,1170
2373.633191915315,1190
2375.484163589562,1198
2377.3347189909114,1202
2379.184858403434,1142
2381.03458211128,1203
2382.8838903986775,1159
2384.732783549936,1195
2386.5812618494406,1184
2388.4293255816588,1149
2390.2769750311327,1185
2392.1242104824883,1158
2393.971032220427,1187
2395.8174405297295,1173
2397.6634356952563,1199
2399.509018001947,1146
2401.3541877348193,1152
2403.1989451789705,1176
2405.043290619576,1172
2406.8872243418905,1176
2408.730746631247,1182
2410.5738577730594,1183
2412.4165580528183,1174
2414.258847756095,1160
2416.100727168537,1174
2417.9421965758734,1207
2419.783256263912,1208
2421.623906518538,1168
2423.4641476257157,1240
2425.303979871491,1221
2427.143403541984,1190
2428.9824189233977,1209
2430.821026302012,1176
2432.6592259641866,1185
2434.497018196361,1194
2436.33440328505,1195
2438.171381516851,1196
2440.00795317844,1199
2441.844118556569,1171
2443.6798779380724,1147
2445.5152316098606,1183
2447.3501798589255,1218
2449.1847229723357,1166
2451.0188612372403,1223
2452.8525949408663,1177
2454.6859243705203,1159
2456.518849813587,1186
2458.3513715575314,1186
2460.183489889895,1162
2462.015205098301,1210
2463.8465174704493,1142
2465.67742729412,1210
2467.5079348571717,1233
2469.338040447542,1185
2471.1677443532476,1214
2472.9970468623833,1201
2474.825948263123,1192
2476.6544488437207,1239
2478.482548892508,1191
2480.310248697896,1222
2482.137548548374,1216
2483.9644487325118,1188
2485.790949538956,1192
2487.617051256433,1166
2489.44275417375,1192
2491.26805857979,1220
2493.0929647635157,1192
2494.917473013971,1224
2496.741583620276,1180
2498.5652968716304,1193
2500.3886130573137,1156
2502.2115324666834,1178
2504.0340553891765,1223
2505.856182114308,1243
2507.6779129316733,1229
2509.499248130945,1226
2511.3201880018764,1240
2513.140732834298,1271
2514.9608829181198,1209
2516.780638543331,1232
2518.6,1214
2520.418967578273,1247
2522.237541568376,1256
2524.0557222606144,1246
2525.8735099453706,1235
2527.6909049131086,1270
2529.507907454368,1227
2531.32451785977,1242
2533.140736420014,1252
2534.9565634258774,1249
2536.771999168218,1272
2538.5870439379714,1274
2540.4016980261526,1301
2542.2159617238544,1254
2544.02983532225,1295
2545.8433191125914,1286
2547.656413386209,1315
2549.4691184345115,1229
2551.2814345489874,1348
2553.093362021204,1296
2554.904901142808,1345
2556.716052205523,1297
2558.526815501153,1359
2560.3371913215824,1339
2562.147179958771,1283
2563.956781704761,1346
2565.7659968516705,1307
2567.5748256916986,1336
2569.3832685171224,1340
2571.1913256202984,1363
2572.9989972936614,1311
2574.806283829725,1374
2576.613185521084,1404
2578.4197026604074,1337
2580.2258355404483,1341
2582.031584454035,1391
2583.836949694077,1337
2585.6419315535613,1361
2587.4465303255533,1402
2589.2507463032002,1375
2591.0545797797245,1420
2592.8580310484303,1368
2594.6611004026995,1436
2596.463788135992,1369
2598.266094541849,1400
2600.0680199138874,1306
2601.869564545807,1373
2603.670728731383,1344
2605.4715127644704,1366
2607.2719169390048,1431
2609.071941548998,1336
2610.8715868885433,1425
2612.670853251811,1416
2614.469740933052,1359
2616.268250226594,1372
2618.0663814268455,1368
2619.864134828292,1381
2621.6615107255006,1373
2623.458509413115,1346
2625.2551311858597,1354
2627.0513763385347,1340
2628.8472451660223,1347
2630.6427379632833,1326
2632.4378550253564,1310
2634.232596647359,1334
2636.026963124488,1294
2637.8209547520187,1296
2639.6145718253065,1318
2641.407814639785,1302
2643.200683490966,1331
2644.9931786744414,1336
2646.7853004858807,1297
2648.577049221034,1327
2650.3684251757277,1280
2652.1594286458712,1276
2653.9500599274484,1285
2655.740319316525,1260
2657.5302071092437,1278
2659.3197236018286,1315
2661.10886909058,1284
2662.8976438718782,1311
2664.686048242183,1276
2666.4740824980327,1218
2668.2617469360443,1277
2670.0490418529134,1279
2671.8359675454153,1193
2673.622524310403,1248
2675.408712444811,1233
2677.1945322456495,1245
2678.979984010009,1178
2680.76506803506,1217
2682.5497846180497,1198
2684.334134056306,1196
2686.1181166472343,1151
2687.9017326883213,1215
2689.6849824771293,1198
2691.4678663113013,1201
2693.2503844885596,1217
2695.032537306705,1235
2696.8143250636167,1217
2698.5957480572542,1233
2700.3768065856534,1201
2702.1575009469316,1157
2703.937831439283,1173
2705.717798360982,1204
2707.4974020103837,1193
2709.276642685917,1167
2711.055520686095,1158
2712.834036309506,1192
2714.612189854819,1165
2716.389981620782,1179
2718.1674119062204,1215
2719.944481010041,1204
2721.721189231226,1143
2723.4975368688415,1199
2725.273524222027,1243
2727.0491515900053,1171
2728.824419272075,1197
2730.5993275676146,1177
2732.3738767760838,1121
2734.148067197016,1148
2735.921899130031,1241
2737.6953728748194,1143
2739.468488731156,1103
2741.2412469988926,1183
2743.0136479779617,1124
2744.785691968372,1180
2746.5573792702116,1160
2748.3287101836504,1152
2750.099685008934,1142
2751.870304046388,1142
2753.640567596418,1148
2755.4104759595057,1151
2757.1800294362156,1162
2758.949228327187,1108
2760.7180729331412,1160
2762.486563554877,1090
2764.254700493272,1148
2766.022484049284,1080
2767.789914523947,1117
2769.5569922183786,1165
2771.3237174337705,1148
2773.090090471394,1126
2774.8561116326036,1101
2776.6217812188274,1097
2778.3870995315756,1184
2780.1520668724356,1174
2781.9166835430747,1106
2783.6809498452394,1112
2785.444866080754,1135
2787.2084325515225,1135
2788.971649559527,1173
2790.73451740683,1166
2792.4970363955713,1158
2794.2592068279705,1141
2796.0210290063264,1172
2797.7825032330147,1154
2799.543629810493,1199
2801.304409041296,1171
2803.0648412280366,1148
2804.8249266734088,1178
2806.5846656801846,1152
2808.344058551212,1147
2810.1031055894246,1170
2811.8618070978273,1148
2813.6201633795085,1147
2815.378174737636,1168
2817.1358414754536,1128
2818.893163896285,1163
2820.6501423035334,1185
2822.4067770006814,1152
2824.1630682912883,1119
2825.9190164789957,1110
2827.6746218675207,1176
2829.429884760661,1086
2831.184805462294,1148
2832.9393842763743,1180
2834.693621506936,1161
2836.4475174580916,1153
2838.201072434034,1152
2839.954286739034,1128
2841.707160677441,1082
2843.459694553685,1131
2845.2118886722724,1165
2846.96374333779,1132
2848.7152588549034,1134
2850.4664355283567,1162
2852.217273662973,1156
2853.9677735636546,1109
2855.7179355353833,1080
2857.4677598832186,1182
2859.217246912299,1145
2860.9663969278427,1144
2862.715210235146,1118
2864.4636871395846,1140
2866.211827946614,1168
2867.9596329617652,1124
2869.7071024906536,1119
2871.4542368389684,1132
2873.20103631248,1082
2874.947501217038,1152
2876.6936318585695,1154
2878.4394285430812,1153
2880.1848915766604,1157
2881.9300212654707,1116
2883.6748179157553,1164
2885.4192818338374,1118
2887.1634133261173,1140
2888.907212699077,1191
2890.6506802592744,1136
2892.393816313348,1147
2894.1366211680142,1108
2895.8790951300693,1163
2897.621238506388,1145
2899.363051603925,1130
2901.1045347297118,1143
2902.8456881908596,1158
2904.58651229456,1140
2906.327007348081,1141
2908.067173658772,1134
2909.8070115340597,1179
2911.5465212814497,1177
2913.285703208527,1150
2915.0245576229563,1113
2916.7630848324807,1111
2918.5012851449196,1148
2920.2391588681758,1160
2921.976706310227,1107
2923.7139277791334,1146
2925.4508235830313,1162
2927.187394030137,1142
2928.923639428745,1116
2930.6595600872306,1164
2932.395156314046,1144
2934.1304284177218,1089
2935.8653767068713,1137
2937.6000014901815,1152
2939.3343030764227,1155
2941.068281774442,1119
2942.8019378931644,1208
2944.5352717415976,1125
2946.2682836288236,1158
2948.0009738640065,1138
2949.7333427563885,1167
2951.465390615289,1128
2953.1971177501086,1108
2954.9285244703265,1164
2956.6596110855,1191
2958.3903779052657,1138
2960.1208252393385,1114
2961.8509533975125,1160
2963.5807626896617,1136
2965.3102534257378,1080
2967.0394259157715,1114
2968.768280469873,1156
2970.496817398232,1108
2972.2250370111146,1136
2973.952939618869,1108
2975.6805255319196,1126
2977.4077950607707,1122
2979.134748516006,1181
2980.861386208289,1149
2982.587708448359,1157
2984.313715547037,1192
2986.039407815222,1124
2987.764785563891,1096
2989.489849104102,1159
2991.2145987469908,1183
2992.9390348037705,1095
2994.6631575857346,1121
2996.3869674042576,1131
2998.1104645707887,1117
2999.83364939686,1109
3001.5565221940783,1134
3003.2790832741334,1170
3005.0013329487924,1139
3006.7232715298996,1106
3008.4448993293804,1119
3010.166216659239,1142
3011.887223831558,1092
3013.607921158498,1147
3015.3283089522993,1136
3017.0483875252826,1056
3018.7681571898443,1144
3020.4876182584626,1121
3022.2067710436927,1120
3023.9256158581707,1128
3025.644153014609,1105
3027.362382825801,1129
3029.0803056046193,1123
3030.797921664012,1110
3032.5152313170106,1093
3034.2322348767225,1094
3035.9489326563353,1093
3037.665324969115,1127
3039.3814121284063,1113
3041.097194447633,1096
3042.812672240299,1122
3044.5278458199855,1103
3046.2427155003525,1104
3047.9572815951406,1100
3049.671544418167,1079
3051.38550428333,1088
3053.0991615046073,1119
3054.812516396051,1133
3056.5255692717974,1147
3058.2383204460575,1098
3059.9507702331257,1169
3061.662918947372,1134
3063.3747669032446,1098
3065.0863144152736,1156
3066.7975617980674,1129
3068.508509366309,1090
3070.219157434767,1146
3071.9295063182844,1073
3073.639556331785,1159
3075.3493077902704,1060
3077.058761008821,1120
3078.7679163025964,1099
3080.476773986837,1089
3082.1853343768594,1093
3083.89359778806,1111
3085.6015645359153,1086
3087.3092349359786,1090
3089.016609303884,1171
3090.7236879553434,1169
3092.4304712061476,1086
3094.136959372166,1114
3095.843152769349,1126
3097.5490517137237,1116
3099.2546565213966,1135
3100.959967508554,1060
3102.66498499146,1115
3104.3697092864577,1122
3106.0741407099695,1103
3107.778279578498,1136
3109.482126208622,1167
3111.1856809170004,1132
3112.8889440203716,1091
3114.5919158355528,1170
3116.294596679439,1124
3117.996986869006,1112
3119.6990867213062,1139
3121.4008965534726,1137
3123.102416682717,1089
3124.803647426329,1139
3126.5045891016784,1108
3128.205242026213,1115
3129.90560651746,1110
3131.605682893025,1118
3133.3054714705922,1134
3135.0049725679282,1105
3136.7041865028714,1162
3138.4031135933465,1099
3140.101754157353,1149
3141.800108512971,1133
3143.498176978357,1116
3145.1959598717494,1135
3146.8934575114636,1147
3148.5906702158954,1103
3150.2875983035183,1093
3151.9842420928853,1120
3153.680601902627,1161
3155.376678051456,1118
3157.07247085816,1082
3158.767980641609,1108
3160.463207720748,1081
3162.158152414606,1158
3163.8528150422862,1123
3165.5471959229726,1087
3167.2412953759303,1132
3168.9351137204976,1144
3170.628651276098,1141
3172.3219083622307,1095
3174.014885298474,1083
3175.707582404485,1086
3177.4000000000005,1112
3179.092138404835,1111
3180.7839979388846,1158
3182.47557892212,1202
3184.166881674594,1150
3185.8579065164386,1161
3187.5486537678626,1084
3189.2391237491547,1139
3190.9293167806827,1094
3192.6192331828934,1084
3194.3088732763117,1108
3195.998237381542,1145
3197.687325819268,1135
3199.376138910251,1144
3201.064676975334,1142
3202.7529403354347,1133
3204.4409293115523,1093
3206.1286442247647,1117
3207.816085396229,1115
3209.5032531471825,1133
3211.190147798936,1097
3212.8767696728846,1077
3214.5631190905015,1066
3216.2491963733373,1068
3217.9350018430214,1123
3219.6205358212637,1043
3221.305798629851,1139
3222.990790590651,1061
3224.6755120256103,1080
3226.359963256751,1114
3228.0441446061795,1070
3229.7280563960758,1097
3231.411698948703,1090
3233.0950725863995,1081
3234.778177631587,1065
3236.461014406761,1096
3238.1435832345005,1107
3239.8258844374595,1139
3241.507918338374,1118
3243.1896852600576,1088
3244.8711855254023,1151
3246.552419457381,1117
3248.233387379042,1090
3249.914089613516,1191
3251.59452648401,1137
3253.274698313813,1111
3254.95460542629,1115
3256.6342481448855,1091
3258.313626793125,1097
3259.9927416946084,1092
3261.6715931730196,1079
3263.3501815521176,1103
3265.0285071557437,1069
3266.706570307815,1079
3268.3843713323286,1118
3270.0619105533615,1073
3271.739188295068,1118
3273.4162048816834,1096
3275.0929606375184,1116
3276.769455886966,1096
3278.445690954498,1132
3280.1216661646613,1096
3281.797381842087,1086
3283.4728383114807,1120
3285.1480358976296,1142
3286.8229749253996,1126
3288.4976557197333,1101
3290.172078605655,1141
3291.846243908266,1129
3293.5201519527463,1092
3295.193803064357,1124
3296.8671975684374,1080
3298.5403357904024,1098
3300.21321805575,1095
3301.8858446900567,1114
3303.558216018975,1112
3305.23033236824,1088
3306.9021940636603,1108
3308.57380143113,1148
3310.2451547966184,1113
3311.916254486174,1090
3313.5871008259246,1124
3315.2576941420766,1150
3316.9280347609147,1099
3318.5981230088046,1081
3320.2679592121895,1084
3321.9375436975924,1137
3323.606876791612,1106
3325.27595882093,1064
3326.944790112305,1029
3328.6133709925753,1049
3330.2817017886573,1047
3331.949782827547,1089
3333.617614436319,1122
3335.2851969421245,1083
3336.952530672199,1167
3338.619615953853,1122
3340.286453114475,1114
3341.9530424815357,1101
3343.619384382583,1102
3345.2854791452437,1107
3346.951327097224,1062
3348.6169285663073,1077
3350.2822838803577,1123
3351.947393367319,1115
3353.61225735521,1113
3355.2768761721345,1073
3356.9412501462693,1092
3358.605379605873,1106
3360.2692648792827,1134
3361.9329062949146,1146
3363.596304181263,1094
