CollectionTime,7/9/2024 4:09:40 PM
ExposureUsed,3
CalibratedSpectrum
-962.7078968117929,502
-959.9714848408522,533
-957.2358232597828,552
-954.5009119013725,537
-951.7667505983302,560
-949.0333391832855,541
-946.3006774887896,511
-943.5687653473143,560
-940.837602591253,560
-938.1071890529199,545
-935.3775245645503,528
-932.6486089583007,543
-929.9204420662485,558
-927.1930237203925,567
-924.4663537526524,561
-921.7404319948689,571
-919.0152582788041,563
-916.2908324361409,580
-913.5671542984834,583
-910.8442236973568,541
-908.1220404642074,538
-905.4006044304027,565
-902.679915427231,590
-899.959973285902,555
-897.2407778375464,553
-894.5223289132158,557
-891.8046263438832,572
-889.0876699604426,578
-886.3714595937089,556
-883.6559950744183,560
-880.9412762332282,567
-878.2273029007168,557
-875.5140749073835,530
-872.8015920836489,531
-870.0898542598545,569
-867.3788612662631,527
-864.6686129330585,523
-861.9591090903457,546
-859.2503495681506,549
-856.5423341964203,565
-853.8350628050229,537
-851.1285352237478,566
-848.4227512823054,569
-845.7177108103272,563
-843.0134136373656,563
-840.3098595928943,587
-837.6070485063082,559
-834.9049802069229,553
-832.2036545239757,544
-829.5030712866244,553
-826.8032303239481,598
-824.1041314649472,578
-821.4057745385428,556
-818.7081593735775,573
-816.0112857988148,542
-813.3151536429393,568
-810.6197627345566,578
-807.9251129021936,571
-805.2312039742981,563
-802.5380357792392,545
-799.8456081453069,567
-797.1539209007124,541
-794.462973873588,559
-791.772766891987,565
-789.083299783884,576
-786.3945723771743,568
-783.7065844996748,567
-781.0193359791231,542
-778.3328266431781,588
-775.6470563194197,580
-772.9620248353489,575
-770.2777320183878,591
-767.5941776958798,563
-764.9113616950891,611
-762.2292838432011,616
-759.5479439673222,600
-756.8673418944801,553
-754.1874774516235,580
-751.5083504656222,581
-748.8299607632671,586
-746.15230817127,566
-743.475392516264,573
-740.7992136248035,599
-738.1237713233636,597
-735.4490654383407,594
-732.7750957960521,604
-730.1018622227365,613
-727.4293645445534,595
-724.7576025875837,632
-722.0865761778291,605
-719.4162851412126,604
-716.7467293035781,600
-714.0779084906909,586
-711.409822528237,626
-708.7424712418238,608
-706.0758544569796,597
-703.4099719991541,586
-700.7448236937178,622
-698.0804093659622,601
-695.4167288411002,629
-692.7537819442656,600
-690.0915685005134,613
-687.4300883348199,606
-684.7693412720819,623
-682.1093271371178,629
-679.4500457546669,625
-676.7914969493897,630
-674.1336805458676,652
-671.4765963686034,641
-668.8202442420206,652
-666.1646239904642,640
-663.5097354382001,643
-660.8555784094151,630
-658.2021527282176,625
-655.5494582186366,644
-652.8974947046223,632
-650.2462620100463,632
-647.5957599587009,658
-644.9459883742998,692
-642.2969470804776,667
-639.6486359007902,672
-637.0010546587141,731
-634.3542031776476,672
-631.7080812809096,670
-629.0626887917401,641
-626.4180255333008,659
-623.7740913286734,669
-621.1308860008619,710
-618.4884093727904,708
-615.8466612673046,669
-613.2056415071715,662
-610.5653499150785,708
-607.9257863136347,686
-605.28695052537,673
-602.6488423727357,707
-600.0114616781036,683
-597.3748082637674,663
-594.7388819519412,681
-592.1036825647604,722
-589.4692099242818,758
-586.8354638524829,733
-584.2024441712624,746
-581.5701507024403,740
-578.9385832677575,730
-576.3077416888759,749
-573.6776257873787,689
-571.0482353847704,723
-568.4195703024757,730
-565.7916303618415,785
-563.164415384135,732
-560.5379251905453,727
-557.9121596021815,728
-555.2871184400748,737
-552.6628015251767,718
-550.0392086783606,714
-547.4163397204204,695
-544.794194472071,706
-542.1727727539491,731
-539.5520743866118,766
-536.9320991905377,837
-534.3128469861261,836
-531.6943175936979,839
-529.0765108334947,840
-526.4594265256793,871
-523.8430644903358,1057
-521.2274245474689,1163
-518.612506517005,1203
-515.9983102187913,1220
-513.3848354725959,1150
-510.77208209810846,1142
-508.16004991493924,1298
-505.5487387426199,1407
-502.9381484006032,1602
-500.3282787082628,1678
-497.71912948489364,1737
-495.1107005497117,1818
-492.5029917218539,1739
-489.8960028203786,1520
-487.28973366426493,1384
-484.68418407241325,1216
-482.07935386364494,1160
-479.47524285670266,1040
-476.87185087025,1051
-474.2691777228715,1022
-471.66722323307334,1030
-469.0659872192821,1000
-466.4654694998459,989
-463.86566989303384,981
-461.26658821703614,946
-458.66822428996414,1026
-456.07057792985,1017
-453.4736489546475,976
-450.877437182231,974
-448.28194243039627,958
-445.68716451686,956
-443.09310325926003,908
-440.49975847515555,938
-437.9071299820263,919
-435.31521759727354,912
-432.72402113821954,976
-430.13354042210767,996
-427.5437752661022,1026
-424.95472548728867,1028
-422.36639090267386,1046
-419.7787713291855,986
-417.1918665836721,1005
-414.60567648290385,1019
-412.0202008435715,1007
-409.4354394822874,993
-406.8513922155845,1002
-404.26805885991723,1064
-401.685439231661,1063
-399.103533147112,1089
-396.522340422488,1056
-393.9418608739278,1017
-391.3620943174908,1044
-388.7830405691583,1025
-386.2046994448317,926
-383.6270707603344,878
-381.05015433141045,830
-378.473949973725,819
-375.8984575028645,821
-373.32367673433623,763
-370.74960748356875,700
-368.1762495659117,714
-365.60360279663576,649
-363.03166699093265,589
-360.4604419639154,567
-357.8899275306178,567
-355.32012350599507,580
-352.7510297049233,571
-350.1826459421999,521
-347.61497203254316,522
-345.04800779059235,545
-342.4817530309082,597
-339.91620756797226,579
-337.35137121618743,552
-334.7872437898774,542
-332.22382510328725,590
-329.66111497058273,564
-327.09911320585127,537
-324.53781962310075,575
-321.9772340362607,561
-319.4173562591816,548
-316.8581861056348,556
-314.2997233893127,528
-311.7419679238294,563
-309.1849195227194,594
-306.62857799943856,624
-304.0729431673641,609
-301.51801483979375,623
-298.963792829947,555
-296.41027695096386,591
-293.85746701590574,640
-291.3053628377552,616
-288.7539642294155,642
-286.2032710037115,636
-283.65328297338897,597
-281.1039999511146,662
-278.5554217494762,666
-276.007548180983,630
-273.4603790580651,650
-270.9139141930734,653
-268.3681533982807,646
-265.8230964858798,658
-263.27874326798565,682
-260.7350935566336,651
-258.1921471637804,700
-255.6499039013039,697
-253.10836358100266,640
-250.56752601459698,668
-248.02739101372765,725
-245.48795838995704,747
-242.94922795476816,728
-240.41119951956557,720
-237.8738728956746,736
-235.33724789434166,784
-232.80132432673452,689
-230.2661020039418,711
-227.73158073697357,787
-225.19776033676033,958
-222.66464061415422,1003
-220.1322213799284,932
-217.60050244477725,814
-215.06948361931552,743
-212.53916471408013,789
-210.00954553952818,811
-207.48062590603843,775
-204.9524056239104,830
-202.4248845033651,951
-199.8980623545441,966
-197.37193898751036,939
-194.84651421224817,949
-192.32178783866232,921
-189.79775967657952,962
-187.27442953574644,1024
-184.7517972258321,979
-182.2298625564256,886
-179.7086253370378,1012
-177.18808537710026,920
-174.66824248596583,899
-172.14909647290835,1051
-169.6306471471229,1128
-167.11289431772548,1140
-164.59583779375328,1034
-162.07947738416453,1056
-159.5638128978386,1176
-157.04884414357605,1389
-154.53457093009854,1476
-152.02099306604828,1371
-149.50811035998936,1093
-146.99592262040665,1070
-144.48442965570587,1102
-141.97363127421409,1169
-139.46352728417958,1296
-136.95411749377126,1503
-134.44540171107985,1385
-131.93737974411636,1110
-129.43005140081357,1317
-126.92341648902493,1809
-124.41747481652521,2328
-121.91222619101006,2794
-119.40767042009657,3670
-116.90380731132257,4328
-114.40063667214702,4114
-111.8981583099503,3021
-109.3963720320337,2350
-106.89527764561933,2112
-104.39487495785067,2547
-101.89516377579241,3367
-99.39614390642998,5007
-96.89781515667039,5749
-94.40017733334128,5400
-91.90323024319173,4997
-89.40697369289148,5956
-86.91140748903172,8634
-84.41653143812482,8969
-81.92234534660395,6521
-79.42884902082358,5311
-76.93604226705907,8413
-74.4439248915071,16333
-71.95249670028534,24703
-69.46175749943245,27828
-66.97170709490854,25770
-64.48234529259423,21973
-61.99367189829195,17816
-59.50568671772464,15486
-57.01838955653636,10928
-54.53178022029283,9656
-52.045858514480074,12389
-49.560624244506016,15349
-47.07607721569923,17007
-44.59221723330904,17623
-42.10904410250669,15986
-39.62655762838392,15111
-37.14475761595372,12902
-34.66364387015028,11645
-32.18321619582866,11766
-29.70347439776515,11709
-27.224418280657005,13470
-24.74604764912317,16475
-22.26836230770266,23115
-19.7913620608565,41017
-17.315046712966478,65036
-14.83941606833514,65036
-12.36446993118659,65036
-9.89020810566592,65036
-7.416630395839093,65036
-4.94373660569363,65036
-2.471526539137585,65036
-6.821210263296962E-13,65036
2.47084320796705,65036
4.941003281093458,65036
7.410480415786196,65036
9.879274808531363,65036
12.347386655893956,65036
14.814816154518212,65036
17.28156350112681,65036
19.74762889252179,65036
22.21301252558385,65036
24.67771459727237,21649
27.141735304626195,4669
29.605074844762612,3738
32.06773341487792,3130
34.52971121224755,2657
36.99100843422559,2760
39.45162527824516,2615
41.91156194181792,2122
44.370818622535126,1938
46.82939551806646,1759
49.287292826160524,1954
51.74451074464503,2364
54.201049471426245,2254
56.65690920448981,1709
59.112090141899785,1722
61.56659248179983,1639
64.02041642241159,1447
66.4735621620365,1303
68.92602989905402,1259
71.37781983192338,1372
73.82893215918205,1450
76.27936707944684,1501
78.72912479141326,1365
81.17820549385567,1398
83.62660938562783,1489
86.07433666566146,1389
88.5213875329681,1092
90.96776218663751,1185
93.41346082583925,1254
95.85848364982041,1367
98.30283085790859,1235
100.7465026495089,1328
103.18949922410604,1341
105.63182078126385,1240
108.07346752062438,1336
110.51443964190923,1211
112.95473734491827,1052
115.39436082953114,1080
117.83331029570547,1076
120.27158594347827,988
122.7091879729652,1084
125.1461165843615,1014
127.58237197794062,977
130.01795435405518,1083
132.4528639131364,1265
134.88710085569494,1285
137.32066538231982,1242
139.75355769367923,1121
142.1857779905207,1076
144.61732647366978,963
147.04820334403132,974
149.47840880258934,1024
151.90794305040674,1092
154.33680628862487,1288
156.76499871846443,1461
159.19252054122433,1591
161.61937195828352,1667
164.04555317109896,1753
166.47106438120693,1867
168.89590579022217,2048
171.320077599839,2223
173.7435800118302,2462
176.16641322804742,2627
178.58857745042144,2641
181.01007288096173,2791
183.43089972175687,2888
185.85105817497413,2737
188.27054844285988,2598
190.6893707277394,2721
193.10752523201643,2723
195.5250121581745,2655
197.9418317087751,2832
200.3579840864594,2908
202.7734694939469,2867
205.18828813403627,2918
207.6024402096051,3059
210.01592592360964,3143
212.42874547908548,3002
214.84089907914665,2998
217.2523869269868,3076
219.66320922587727,3045
222.0733661791695,2975
224.48285799029293,2906
226.8916848627572,2803
229.29984700014882,2867
231.7073446061355,2896
234.11417788446204,2826
236.520347038953,2912
238.92585227351185,2909
241.33069379212054,2963
243.73487179884035,3083
246.1383864978112,3026
248.541238093252,2993
250.9434267894609,2842
253.34495279081432,2945
255.74581630176783,2868
258.1460175268563,2886
260.54555667069314,2803
262.9444339379703,2852
265.3426495334594,2865
267.7402036620107,2940
270.1370965285529,2952
272.53332833809407,2888
274.9288992957214,2775
277.32380960660055,2831
279.718059475976,2841
282.1116491091717,2899
284.5045787115897,2850
286.89684848871195,2867
289.2884586460981,2909
291.67940938938807,2868
294.0697009242996,2851
296.4593334566299,2976
298.84830719225477,2931
301.23662233712923,2919
303.6242790972866,2823
306.01127767884,2804
308.39761828798066,2681
310.78330113097934,2751
313.16832641418534,2719
315.5526943440269,2704
317.9364051270112,2749
320.3194589697242,2749
322.70185607883093,2650
325.0835966610754,2614
327.4646809232805,2592
329.8451090723478,2592
332.2248813152577,2635
334.6039978590701,2637
336.9824589109231,2567
339.36026467803447,2468
341.7374153677,2564
344.113911187295,2427
346.48975234427337,2469
348.8649390461686,2445
351.2394715005918,2471
353.61334991523415,2440
355.9865744978655,2472
358.35914545633375,2528
360.73106299856715,2565
363.10232733257146,2452
365.47293866643247,2449
367.84289720831396,2430
370.2122031664593,2401
372.5808567491905,2434
374.9488581649083,2379
377.31620762209275,2343
379.6829053293021,2337
382.0489514951745,2307
384.4143463284262,2318
386.7790900378528,2322
389.14318283232853,2327
391.50662492080653,2278
393.86941651231916,2261
396.23155781597745,2392
398.5930490409713,2264
400.9538903965696,2354
403.3140820921202,2364
405.6736243370498,2323
408.03251734086336,2336
410.3907613131465,2249
412.74835646356166,2245
415.10530300185144,2280
417.4616011378372,2310
419.81725108141893,2251
422.1722530425758,2218
424.5266072313656,2217
426.880313857925,2189
429.2333731324701,2268
431.58578526529516,2227
433.9375504667738,2266
436.2886689473588,2182
438.63914091758113,2140
440.9889665880513,2146
443.33814616945835,2237
445.68667987257015,2176
448.03456790823395,2210
450.3818104873759,2202
452.72840782100013,2182
455.07436012019105,2215
457.41966759611057,2200
459.7643304600007,2133
462.10834892318155,2181
464.4517231970525,2227
466.79445349309174,2193
469.1365400228566,2237
471.4779829979826,2314
473.81878263018564,2214
476.15893913125876,2273
478.4984527130747,2389
480.8373235875855,2399
483.17555196682144,2503
485.5131380628919,2647
487.8500820879857,2718
490.1863842543697,2931
492.52204477439034,3159
494.8570638604725,3519
497.1914417251204,3937
499.52517858091653,4071
501.85827464052306,3988
504.19073011668036,3909
506.5225452222086,3671
508.85372017000566,3746
511.18425517304956,3501
513.514150444396,3784
515.8434061971808,4701
518.1720226446176,6039
520.4999999999999,6308
522.8273384766991,5910
525.1540382881666,5280
527.480099647932,4629
529.8055227696037,3829
532.1303078668694,3126
534.454455153496,2590
536.777964843328,2582
539.1008371502907,2472
541.4230722883866,2416
543.744670471698,2325
546.0656319143858,2422
548.3859568306899,2400
550.7056454349294,2324
553.0246979415016,2281
555.3431145648834,2288
557.6608955196306,2266
559.978041020377,2266
562.2945512818363,2260
564.6104265188006,2375
566.9256669461412,2365
569.2402727788082,2415
571.5542442318302,2388
573.8675815203156,2444
576.1802848594508,2379
578.4923544645015,2357
580.8037905508126,2336
583.114593333807,2476
585.4247630289875,2386
587.7342998519354,2271
590.0432040183106,2403
592.3514757438526,2435
594.6591152443794,2391
596.9661227357875,2374
599.2724984340531,2410
601.578242555231,2310
603.8833553154542,2388
606.1878369309362,2413
608.4916876179676,2381
610.7949075929192,2391
613.0974970722403,2355
615.3994562724587,2333
617.7007854101818,2266
620.0014847020951,2366
622.3015543649641,2275
624.6009946156324,2376
626.8998056710224,2395
629.1979877481361,2198
631.4955410640538,2298
633.7924658359349,2249
636.0887622810175,2288
638.3844306166192,2272
640.6794710601358,2285
642.9738838290426,2279
645.2676691408932,2332
647.5608272133207,2292
649.853358264037,2298
652.1452625108324,2290
654.4365401715764,2251
656.7271914642178,2340
659.0172166067838,2271
661.3066158173809,2287
663.5953893141935,2316
665.8835373154867,2290
668.1710600396028,2236
670.4579577049639,2351
672.7442305300709,2305
675.0298787335033,2298
677.3149025339197,2253
679.599302150058,2316
681.8830778007342,2224
684.1662297048437,2240
686.4487580813608,2254
688.7306631493387,2288
691.0119451279091,2273
693.2926042362834,2257
695.5726406937516,2259
697.8520547196814,2278
700.1308465335215,2403
702.4090163547982,2313
704.6865644031171,2263
706.9634908981619,2273
709.2397960596965,2300
711.5154801075631,2304
713.7905432616823,2350
716.0649857420548,2280
718.3388077687592,2297
720.612009561953,2299
722.8845913418733,2334
725.1565533288352,2309
727.427895743234,2353
729.6986188055427,2334
731.9687227363137,2343
734.238207756178,2271
736.5070740858458,2251
738.7753219461066,2356
741.0429515578281,2349
743.3099631419569,2362
745.5763569195191,2305
747.8421331116193,2262
750.1072919394409,2251
752.3718336242467,2358
754.6357583873777,2344
756.8990664502545,2369
759.1617580343765,2316
761.423833361321,2267
763.6852926527457,2332
765.9461361303862,2376
768.206364016058,2327
770.4659765316536,2338
772.7249738991469,2365
774.9833563405886,2353
777.2411240781092,2361
779.4982773339183,2280
781.7548163303044,2406
784.010741289634,2357
786.2660524343538,2454
788.5207499869881,2375
790.7748341701416,2386
793.0283052064964,2398
795.2811633188143,2375
797.5334087299362,2358
799.7850416627813,2384
802.0360623403484,2389
804.2864709857143,2349
806.5362678220353,2387
808.7854530725468,2360
811.0340269605625,2459
813.2819897094754,2465
815.5293415427581,2324
817.77608268396,2346
820.0222133567116,2372
822.2677337847211,2430
824.5126441917765,2356
826.7569448017433,2396
829.0006358385675,2368
831.2437175262731,2464
833.4861900889629,2299
835.7280537508192,2400
837.9693087361026,2375
840.2099552691533,2369
842.4499935743896,2283
844.689423876309,2413
846.9282463994886,2410
849.1664613685833,2346
851.4040690083276,2329
853.6410695435349,2306
855.877463199097,2376
858.1132501999847,2406
860.3484307712487,2384
862.5830051380175,2430
864.8169735254988,2334
867.0503361589791,2416
869.2830932638243,2439
871.5152450654786,2375
873.7467917894654,2454
875.9777336613873,2441
878.2080709069252,2512
880.4378037518389,2517
882.666932421968,2442
884.8954571432301,2502
887.1233781416219,2515
889.3506956432192,2549
891.5774098741766,2520
893.803521060728,2442
896.0290294291852,2555
898.2539352059397,2473
900.4782386174619,2349
902.7019398903011,2417
904.925039251085,2377
907.147536926521,2364
909.3694331433943,2351
911.59072812857,2395
913.8114221089921,2330
916.0315153116827,2433
918.2510079637437,2338
920.4699002923547,2415
922.6881925247761,2381
924.905884888345,2365
927.1229776104793,2340
929.3394709186747,2334
931.555365040506,2349
933.7706602036275,2326
935.9853566357709,2336
938.1994545647489,2342
940.4129542184515,2364
942.6258558248488,2336
944.8381596119883,2325
947.0498658079974,2336
949.2609746410825,2320
951.4714863395287,2298
953.6814011316998,2275
955.8907192460387,2252
958.0994409110671,2267
960.3075663553858,2276
962.5150958076741,2274
964.7220294966913,2283
966.928367651274,2245
969.1341105003388,2210
971.3392582728806,2191
973.5438111979742,2174
975.747769504772,2176
977.9511334225061,2185
980.153903180487,2274
982.3560790081052,2270
984.5576611348289,2190
986.7586497902058,2128
988.9590452038618,2203
991.158847605503,2144
993.3580572249133,2104
995.5566742919558,2106
997.7546990365728,2071
999.952131688785,2020
1002.1489724786926,2011
1004.3452216364743,2082
1006.5408793923874,2039
1008.7359459767691,1941
1010.9304216200343,1995
1013.1243065526781,1907
1015.3176010052733,1889
1017.510305208472,1924
1019.7024193930064,1946
1021.8939437896848,1944
1024.0848786293977,1948
1026.2752241431122,1906
1028.4649805618747,1913
1030.6541481168115,1886
1032.842727039127,1985
1035.0307175601051,1849
1037.2181199111074,1885
1039.4049343235752,1886
1041.591161029029,1937
1043.7768002590683,1917
1045.9618522453698,1914
1048.1463172196918,1804
1050.3301954138697,1835
1052.513487059818,1917
1054.69619238953,1832
1056.8783116350783,1781
1059.0598450286152,1825
1061.2407928023704,1883
1063.4211551886528,1826
1065.6009324198508,1880
1067.780124728432,1832
1069.9587323469414,1900
1072.1367555080046,1794
1074.314194444325,1834
1076.4910493886855,1808
1078.667320573947,1757
1080.843008233051,1811
1083.0181125990161,1808
1085.1926339049414,1754
1087.3665723840027,1838
1089.5399282694575,1779
1091.7127017946405,1824
1093.8848931929647,1786
1096.0565026979243,1729
1098.2275305430899,1770
1100.3979769621128,1788
1102.567842188722,1789
1104.737126456726,1780
1106.9058300000124,1769
1109.0739530525475,1780
1111.2414958483764,1688
1113.4084586216231,1720
1115.5748416064907,1763
1117.7406450372605,1740
1119.9058691482942,1782
1122.0705141740304,1744
1124.2345803489884,1778
1126.3980679077658,1745
1128.5609770850388,1760
1130.7233081155623,1743
1132.8850612341707,1747
1135.0462366757774,1794
1137.2068346753745,1721
1139.3668554680326,1746
1141.526299288901,1762
1143.68516637321,1777
1145.8434569562655,1764
1148.001171273455,1773
1150.158309560244,1721
1152.3148720521767,1695
1154.470858984876,1688
1156.626270594044,1715
1158.7811071154629,1653
1160.9353687849912,1678
1163.089055838569,1711
1165.242168512213,1726
1167.3947070420209,1732
1169.5466716641677,1669
1171.6980626149075,1694
1173.8488801305748,1710
1175.9991244475814,1677
1178.1487958024186,1712
1180.2978944316555,1674
1182.4464205719428,1644
1184.5943744600072,1624
1186.7417563326567,1560
1188.8885664267755,1671
1191.0348049793297,1640
1193.1804722273619,1751
1195.325568407995,1713
1197.4700937584303,1777
1199.614048515948,1711
1201.7574329179074,1697
1203.900247201746,1692
1206.042491604982,1670
1208.1841663652099,1705
1210.3252717201053,1701
1212.465807907422,1685
1214.6057751649923,1714
1216.7451737307279,1705
1218.8840038426192,1620
1221.0222657387353,1649
1223.1599596572241,1692
1225.2970858363137,1786
1227.4336445143094,1705
1229.5696359295966,1683
1231.705060320639,1714
1233.8399179259786,1729
1235.9742089842384,1791
1238.107933734118,1728
1240.2410924143974,1756
1242.373685263935,1721
1244.5057125216676,1784
1246.6371744266116,1791
1248.7680712178621,1791
1250.898403134593,1772
1253.028170416058,1736
1255.1573733015875,1839
1257.2860120305932,1776
1259.4140868425648,1764
1261.54159797707,1745
1263.6685456737569,1822
1265.7949301723515,1752
1267.9207517126597,1792
1270.046010534565,1795
1272.1707068780306,1773
1274.2948409830983,1749
1276.4184130898889,1723
1278.541423438603,1803
1280.6638722695184,1769
1282.785759822993,1742
1284.9070863394636,1750
1287.0278520594447,1755
1289.1480572235314,1799
1291.2677020723963,1843
1293.3867868467923,1868
1295.5053117875495,1822
1297.623277135579,1814
1299.740683131868,1801
1301.8575300174857,1841
1303.973818033578,1783
1306.0895474213703,1825
1308.2047184221678,1783
1310.3193312773528,1823
1312.4333862283888,1818
1314.5468835168163,1780
1316.659823384255,1772
1318.7722060724045,1832
1320.8840318230418,1850
1322.9953008780249,1878
1325.1060134792888,1825
1327.2161698688478,1890
1329.3257702887959,1797
1331.4348149813054,1850
1333.5433041886276,1837
1335.6512381530933,1886
1337.7586171171101,1759
1339.8654413231675,1829
1341.9717110138317,1753
1344.0774264317488,1832
1346.1825878196432,1782
1348.2871954203192,1803
1350.3912494766587,1847
1352.4947502316231,1817
1354.5976979282532,1849
1356.7000928096686,1829
1358.8019351190665,1816
1360.9032250997243,1920
1363.0039629949988,1831
1365.1041490483235,1811
1367.2037835032133,1764
1369.3028666032606,1788
1371.401398592137,1828
1373.4993797135926,1819
1375.5968102114575,1829
1377.6936903296396,1771
1379.7900203121262,1832
1381.8858004029835,1859
1383.9810308463561,1813
1386.075711886469,1896
1388.1698437676241,1838
1390.2634267342032,1901
1392.356461030667,1849
1394.4489469015557,1888
1396.5408845914872,1901
1398.6322743451592,1885
1400.7231164073469,1816
1402.813411022907,1844
1404.903158436773,1843
1406.9923588939578,1831
1409.0810126395531,1902
1411.1691199187303,1951
1413.2566809767386,1898
1415.343696058907,1924
1417.4301654106425,1782
1419.5160892774315,1863
1421.6014679048399,1852
1423.6863015385125,1833
1425.7705904241707,1889
1427.8543348076178,1899
1429.9375349347342,1920
1432.0201910514802,1975
1434.102303403894,1948
1436.1838722380944,1895
1438.2648978002767,1913
1440.3453803367174,1893
1442.4253200937692,1974
1444.5047173178677,1956
1446.5835722555234,2041
1448.6618851533285,2021
1450.739656257952,1957
1452.8168858161434,2011
1454.8935740747306,2007
1456.96972128062,2027
1459.045327680797,2017
1461.120393522327,2060
1463.1949190523528,2063
1465.2689045180973,2069
1467.3423501668608,2012
1469.415256246024,2136
1471.4876230030463,2117
1473.559450685465,2141
1475.6307395408976,2146
1477.7014898170391,2175
1479.771701761665,2109
1481.8413756226287,2126
1483.9105116478618,2178
1485.9791100853772,2185
1488.0471711832643,2273
1490.1146951896926,2238
1492.1816823529098,2241
1494.2481329212433,2286
1496.3140471430984,2249
1498.3794252669609,2323
1500.4442675413939,2257
1502.5085742150404,2307
1504.572345536622,2210
1506.6355817549388,2361
1508.6982831188702,2394
1510.7604498773744,2353
1512.8220822794883,2430
1514.8831805743293,2415
1516.9437450110909,2483
1519.003775839048,2401
1521.0632733075522,2470
1523.1222376660367,2368
1525.1806691640113,2452
1527.2385680510652,2566
1529.2959345768668,2573
1531.3527689911643,2564
1533.4090715437833,2733
1535.4648424846291,2711
1537.5200820636855,2730
1539.5747905310159,2805
1541.6289681367616,2807
1543.6826151311434,2804
1545.7357317644614,2865
1547.7883182870937,2777
1549.8403749494987,2829
1551.8919020022113,2881
1553.9428996958477,3074
1555.9933682811015,3107
1558.0433080087469,3101
1560.0927191296346,3189
1562.1416018946961,3213
1564.1899565549415,3143
1566.2377833614592,3277
1568.2850825654164,3215
1570.3318544180606,3086
1572.3780991707158,3129
1574.423817074788,3010
1576.4690083817595,2964
1578.5136733431923,2802
1580.5578122107272,2721
1582.601425236085,2583
1584.6445126710646,2488
1586.6870747675434,2439
1588.7291117774776,2413
1590.7706239529034,2360
1592.8116115459347,2258
1594.8520748087658,2232
1596.8920139936686,2162
1598.9314293529933,2152
1600.9703211391711,2121
1603.008689604711,2105
1605.0465350022005,2048
1607.0838575843068,2056
1609.1206576037753,2008
1611.1569353134305,1969
1613.1926909661765,1965
1615.2279248149953,1931
1617.2626371129481,1953
1619.2968281131757,1928
1621.3304980688963,1914
1623.3636472334088,1945
1625.39627586009,1876
1627.428384202396,1995
1629.459972513861,1909
1631.4910410480993,1929
1633.5215900588028,1864
1635.551619799744,1878
1637.5811305247717,1850
1639.6101224878166,1859
1641.6385959428862,1903
1643.6665511440683,1812
1645.693988345528,1904
1647.7209078015112,1854
1649.7473097663405,1757
1651.7731944944203,1820
1653.7985622402307,1842
1655.823413258333,1791
1657.847747803366,1835
1659.8715661300494,1830
1661.8948684931793,1838
1663.9176551476316,1794
1665.9399263483624,1857
1667.9616823504057,1849
1669.982923408873,1864
1672.0036497789574,1796
1674.0238617159293,1803
1676.043559475138,1833
1678.0627433120121,1824
1680.081413482059,1840
1682.0995702408654,1788
1684.117213844096,1821
1686.134344547495,1821
1688.1509626068864,1821
1690.1670682781705,1842
1692.182661817329,1779
1694.1977434804217,1876
1696.2123135235875,1760
1698.226372203043,1835
1700.2399197750851,1803
1702.2529564960905,1834
1704.2654826225112,1843
1706.277498410882,1773
1708.2890041178139,1762
1710.2999999999988,1861
1712.3104863142066,1753
1714.3204633172854,1769
1716.329931266163,1798
1718.3388904178469,1812
1720.3473410294214,1764
1722.3552833580516,1724
1724.3627176609807,1834
1726.3696441955308,1832
1728.3760632191033,1794
1730.3819749891782,1777
1732.3873797633146,1790
1734.3922777991502,1766
1736.3966693544012,1796
1738.4005546868639,1756
1740.4039340544127,1780
1742.406807715001,1764
1744.4091759266616,1802
1746.4110389475054,1803
1748.4123970357223,1729
1750.413250449582,1783
1752.4135994474318,1739
1754.4134442876993,1762
1756.4127852288902,1785
1758.4116225295893,1759
1760.4099564484595,1751
1762.407787244244,1731
1764.405115175764,1844
1766.4019405019203,1755
1768.3982634816916,1738
1770.3940843741357,1778
1772.3894034383907,1747
1774.3842209336717,1796
1776.378537119274,1725
1778.372352254571,1781
1780.3656665990156,1739
1782.3584804121397,1729
1784.3507939535534,1736
1786.3426074829463,1725
1788.3339212600863,1788
1790.3247355448211,1770
1792.3150505970766,1712
1794.3048666768573,1725
1796.2941840442477,1703
1798.2830029594106,1807
1800.2713236825884,1766
1802.2591464741004,1799
1804.2464715943465,1750
1806.2332993038058,1742
1808.2196298630352,1787
1810.2054635326708,1744
1812.190800573428,1789
1814.175641246101,1816
1816.1599858115628,1781
1818.1438345307652,1867
1820.127187664738,1746
1822.1100454745924,1708
1824.092408221516,1754
1826.0742761667766,1679
1828.055649571721,1788
1830.0365286977735,1714
1832.0169138064398,1706
1833.9968051593014,1754
1835.9762030180214,1717
1837.9551076443408,1717
1839.9335193000788,1732
1841.9114382471344,1705
1843.888864747485,1806
1845.8657990631878,1677
1847.842241456378,1719
1849.8181921892697,1771
1851.7936515241558,1662
1853.7686197234098,1729
1855.7430970494815,1714
1857.7170837649014,1776
1859.6905801322787,1655
1861.6635864143004,1762
1863.6361028737338,1748
1865.608129773424,1697
1867.5796673762961,1669
1869.5507159453537,1653
1871.521275743678,1731
1873.4913470344313,1731
1875.4609300808534,1781
1877.4300251462632,1816
1879.3986324940588,1773
1881.366752387717,1718
1883.3343850907936,1735
1885.3015308669228,1671
1887.268189979819,1720
1889.2343626932739,1723
1891.2000492711595,1778
1893.1652499774254,1718
1895.1299650761011,1698
1897.0941948312952,1765
1899.0579395071945,1720
1901.0211993680641,1771
1902.98397467825,1739
1904.9462657021745,1680
1906.9080727043415,1700
1908.869395949332,1719
1910.8302357018065,1724
1912.790592226504,1755
1914.7504657882428,1746
1916.7098566519212,1717
1918.6687650825133,1692
1920.6271913450764,1688
1922.5851357047422,1724
1924.5425984267245,1684
1926.499579776314,1728
1928.4560800188833,1753
1930.4120994198802,1732
1932.367638244833,1736
1934.32269675935,1698
1936.2772752291175,1645
1938.231373919899,1732
1940.1849930975404,1719
1942.1381330279637,1708
1944.0907939771696,1730
1946.0429762112412,1686
1947.9946799963363,1651
1949.9459055986945,1762
1951.896653284633,1726
1953.8469233205478,1726
1955.7967159729142,1644
1957.7460315082863,1658
1959.6948701932974,1661
1961.6432322946594,1673
1963.5911180791632,1740
1965.5385278136787,1761
1967.4854617651545,1728
1969.4319202006182,1721
1971.377903387176,1708
1973.3234115920136,1760
1975.268445082395,1741
1977.2130041256642,1762
1979.1570889892423,1739
1981.1006999406304,1721
1983.04383724741,1669
1984.986501177238,1734
1986.928691997853,1689
1988.8704099770712,1732
1990.811655382789,1718
1992.7524284829801,1705
1994.692729545698,1738
1996.6325588390755,1730
1998.5719166313224,1760
2000.5108031907307,1784
2002.4492187856677,1732
2004.387163684583,1733
2006.3246381560011,1761
2008.2616424685298,1738
2010.1981768908527,1767
2012.1342416917332,1727
2014.069837140014,1654
2016.0049635046162,1749
2017.9396210545406,1725
2019.8738100588666,1765
2021.8075307867502,1719
2023.740783507431,1796
2025.6735684902228,1739
2027.6058860045214,1733
2029.5377363198004,1780
2031.4691197056118,1666
2033.4000364315875,1691
2035.3304867674374,1665
2037.260470982952,1610
2039.189989347998,1740
2041.1190421325232,1694
2043.047629606554,1670
2044.9757520401945,1689
2046.9034097036288,1690
2048.8306028671195,1744
2050.7573318010086,1763
2052.683596775716,1708
2054.609398061742,1729
2056.5347359296647,1725
2058.4596106501403,1693
2060.384022493906,1740
2062.3079717317764,1673
2064.231458634646,1697
2066.1544834734873,1743
2068.077046519352,1784
2069.99914804337,1737
2071.9207883167524,1736
2073.8419676107865,1671
2075.7626861968406,1646
2077.6829443463607,1682
2079.6027423308715,1724
2081.522080421977,1684
2083.440958891362,1747
2085.359378010786,1721
2087.2773380520907,1775
2089.194839287196,1647
2091.111881988101,1724
2093.0284664268825,1667
2094.9445928756973,1660
2096.86026160678,1656
2098.775472892446,1731
2100.690227005088,1776
2102.604524217178,1699
2104.5183648012676,1734
2106.431749029985,1719
2108.34467717604,1764
2110.2571495122206,1742
2112.169166311393,1693
2114.080727846503,1686
2115.9918343905747,1726
2117.902486216711,1711
2119.8126835980956,1701
2121.722426807987,1796
2123.6317161197285,1770
2125.5405518067364,1772
2127.448934142509,1793
2129.356863400624,1743
2131.264339854737,1653
2133.1713637785815,1707
2135.077935445972,1745
2136.9840551308002,1730
2138.889723107037,1742
2140.7949396487334,1778
2142.699705030018,1739
2144.6040195250994,1747
2146.507883408264,1794
2148.4112969538774,1807
2150.3142604363848,1779
2152.2167741303097,1751
2154.1188383102535,1772
2156.0204532508997,1712
2157.9216192270064,1711
2159.822336513414,1749
2161.7226053850413,1821
2163.622426116884,1807
2165.5217989840185,1796
2167.4207242616,1805
2169.319202224862,1825
2171.2172331491165,1825
2173.1148173097563,1816
2175.0119549822507,1794
2176.90864644215,1855
2178.8048919650823,1798
2180.7006918267534,1773
2182.596046302952,1817
2184.4909556695407,1877
2186.3854202024645,1823
2188.279440177746,1857
2190.173015871487,1835
2192.066147559868,1920
2193.958835519149,1787
2195.851080025667,1848
2197.7428813558417,1827
2199.6342397861667,1865
2201.5251555932186,1881
2203.415629053651,1860
2205.3056604441986,1923
2207.19525004167,1866
2209.084398122958,1838
2210.9731049650327,1869
2212.861370844941,1953
2214.749196039812,1968
2216.636580826851,1917
2218.523525483344,1921
2220.410030286655,1899
2222.296095514226,1871
2224.1817214435805,1972
2226.066908352319,1902
2227.951656518121,1913
2229.835966218746,1802
2231.71983773203,1923
2233.6032713358913,1916
2235.486267308324,1949
2237.3688259274036,1879
2239.2509474712824,1908
2241.132632218193,1915
2243.013880446447,1954
2244.8946924344323,1959
2246.7750684606203,1927
2248.6550088035574,1918
2250.534513741871,1934
2252.413583554265,1968
2254.292218519526,1842
2256.170418916517,1869
2258.0481850241786,1923
2259.925517121534,1835
2261.8024154876825,1872
2263.678880401803,1889
2265.5549121431536,1916
2267.430510991071,1954
2269.305677224971,1944
2271.180411124348,1874
2273.0547129687766,1905
2274.9285830379076,1857
2276.8020216114737,1821
2278.6750289692845,1884
2280.5476053912294,1915
2282.4197511572766,1940
2284.2914665474727,1968
2286.162751841943,1992
2288.0336073208937,2005
2289.904033264608,1966
2291.774029953448,1953
2293.6435976678554,1938
2295.5127366883517,1905
2297.381447295534,1777
2299.2497297700825,1797
2301.1175843927526,1680
2302.9850114443825,1740
2304.852011205885,1679
2306.7185839582553,1619
2308.5847299825664,1613
2310.4504495599676,1637
2312.3157429716925,1589
2314.1806104990483,1537
2316.0450524234247,1571
2317.9090690262888,1528
2319.772660589186,1519
2321.635827393742,1505
2323.498569721661,1565
2325.3608878547248,1520
2327.2227820747967,1569
2329.0842526638157,1505
2330.945299903803,1549
2332.805924076857,1614
2334.6661254651535,1541
2336.525904350951,1600
2338.3852610165827,1520
2340.244195744464,1541
2342.102708817088,1544
2343.9608005170253,1550
2345.8184711269287,1458
2347.675720929526,1517
2349.532550207628,1502
2351.38895924412,1554
2353.24494832197,1427
2355.100517724223,1526
2356.955667734004,1548
2358.810398634514,1522
2360.664710709037,1522
2362.5186042409337,1520
2364.3720795136437,1592
2366.225136810686,1576
2368.0777764156583,1440
2369.929998612237,1531
2371.7818036841777,1598
2373.633191915315,1505
2375.484163589562,1535
2377.3347189909114,1583
2379.184858403434,1547
2381.03458211128,1535
2382.8838903986775,1587
2384.732783549936,1544
2386.5812618494406,1551
2388.4293255816588,1476
2390.2769750311327,1522
2392.1242104824883,1526
2393.971032220427,1591
2395.8174405297295,1585
2397.6634356952563,1554
2399.509018001947,1555
2401.3541877348193,1547
2403.1989451789705,1571
2405.043290619576,1590
2406.8872243418905,1525
2408.730746631247,1522
2410.5738577730594,1563
2412.4165580528183,1497
2414.258847756095,1501
2416.100727168537,1533
2417.9421965758734,1557
2419.783256263912,1560
2421.623906518538,1537
2423.4641476257157,1514
2425.303979871491,1556
2427.143403541984,1587
2428.9824189233977,1537
2430.821026302012,1539
2432.6592259641866,1625
2434.497018196361,1547
2436.33440328505,1585
2438.171381516851,1604
2440.00795317844,1543
2441.844118556569,1589
2443.6798779380724,1616
2445.5152316098606,1551
2447.3501798589255,1562
2449.1847229723357,1560
2451.0188612372403,1563
2452.8525949408663,1529
2454.6859243705203,1512
2456.518849813587,1562
2458.3513715575314,1562
2460.183489889895,1556
2462.015205098301,1562
2463.8465174704493,1513
2465.67742729412,1564
2467.5079348571717,1509
2469.338040447542,1545
2471.1677443532476,1529
2472.9970468623833,1550
2474.825948263123,1568
2476.6544488437207,1571
2478.482548892508,1552
2480.310248697896,1569
2482.137548548374,1560
2483.9644487325118,1550
2485.790949538956,1550
2487.617051256433,1559
2489.44275417375,1555
2491.26805857979,1582
2493.0929647635157,1636
2494.917473013971,1553
2496.741583620276,1617
2498.5652968716304,1580
2500.3886130573137,1601
2502.2115324666834,1611
2504.0340553891765,1598
2505.856182114308,1641
2507.6779129316733,1574
2509.499248130945,1629
2511.3201880018764,1647
2513.140732834298,1592
2514.9608829181198,1591
2516.780638543331,1619
2518.6,1615
2520.418967578273,1593
2522.237541568376,1570
2524.0557222606144,1588
2525.8735099453706,1579
2527.6909049131086,1539
2529.507907454368,1612
2531.32451785977,1600
2533.140736420014,1605
2534.9565634258774,1654
2536.771999168218,1624
2538.5870439379714,1530
2540.4016980261526,1666
2542.2159617238544,1641
2544.02983532225,1662
2545.8433191125914,1663
2547.656413386209,1626
2549.4691184345115,1674
2551.2814345489874,1571
2553.093362021204,1653
2554.904901142808,1608
2556.716052205523,1697
2558.526815501153,1674
2560.3371913215824,1707
2562.147179958771,1659
2563.956781704761,1655
2565.7659968516705,1662
2567.5748256916986,1702
2569.3832685171224,1710
2571.1913256202984,1725
2572.9989972936614,1663
2574.806283829725,1727
2576.613185521084,1758
2578.4197026604074,1683
2580.2258355404483,1732
2582.031584454035,1742
2583.836949694077,1710
2585.6419315535613,1743
2587.4465303255533,1719
2589.2507463032002,1711
2591.0545797797245,1792
2592.8580310484303,1757
2594.6611004026995,1777
2596.463788135992,1793
2598.266094541849,1775
2600.0680199138874,1737
2601.869564545807,1734
2603.670728731383,1754
2605.4715127644704,1773
2607.2719169390048,1709
2609.071941548998,1833
2610.8715868885433,1832
2612.670853251811,1763
2614.469740933052,1822
2616.268250226594,1744
2618.0663814268455,1735
2619.864134828292,1787
2621.6615107255006,1763
2623.458509413115,1649
2625.2551311858597,1756
2627.0513763385347,1775
2628.8472451660223,1762
2630.6427379632833,1765
2632.4378550253564,1781
2634.232596647359,1766
2636.026963124488,1714
2637.8209547520187,1719
2639.6145718253065,1700
2641.407814639785,1675
2643.200683490966,1713
2644.9931786744414,1685
2646.7853004858807,1741
2648.577049221034,1688
2650.3684251757277,1672
2652.1594286458712,1716
2653.9500599274484,1695
2655.740319316525,1671
2657.5302071092437,1718
2659.3197236018286,1701
2661.10886909058,1707
2662.8976438718782,1625
2664.686048242183,1634
2666.4740824980327,1629
2668.2617469360443,1676
2670.0490418529134,1773
2671.8359675454153,1612
2673.622524310403,1675
2675.408712444811,1596
2677.1945322456495,1631
2678.979984010009,1616
2680.76506803506,1636
2682.5497846180497,1667
2684.334134056306,1599
2686.1181166472343,1591
2687.9017326883213,1643
2689.6849824771293,1548
2691.4678663113013,1620
2693.2503844885596,1569
2695.032537306705,1678
2696.8143250636167,1713
2698.5957480572542,1579
2700.3768065856534,1577
2702.1575009469316,1597
2703.937831439283,1604
2705.717798360982,1584
2707.4974020103837,1551
2709.276642685917,1552
2711.055520686095,1609
2712.834036309506,1538
2714.612189854819,1597
2716.389981620782,1622
2718.1674119062204,1553
2719.944481010041,1601
2721.721189231226,1592
2723.4975368688415,1536
2725.273524222027,1575
2727.0491515900053,1609
2728.824419272075,1581
2730.5993275676146,1636
2732.3738767760838,1572
2734.148067197016,1640
2735.921899130031,1559
2737.6953728748194,1597
2739.468488731156,1558
2741.2412469988926,1533
2743.0136479779617,1611
2744.785691968372,1538
2746.5573792702116,1562
2748.3287101836504,1580
2750.099685008934,1561
2751.870304046388,1542
2753.640567596418,1589
2755.4104759595057,1564
2757.1800294362156,1595
2758.949228327187,1624
2760.7180729331412,1561
2762.486563554877,1489
2764.254700493272,1554
2766.022484049284,1526
2767.789914523947,1494
2769.5569922183786,1581
2771.3237174337705,1589
2773.090090471394,1532
2774.8561116326036,1486
2776.6217812188274,1532
2778.3870995315756,1557
2780.1520668724356,1506
2781.9166835430747,1605
2783.6809498452394,1638
2785.444866080754,1584
2787.2084325515225,1579
2788.971649559527,1558
2790.73451740683,1565
2792.4970363955713,1588
2794.2592068279705,1601
2796.0210290063264,1577
2797.7825032330147,1524
2799.543629810493,1577
2801.304409041296,1517
2803.0648412280366,1511
2804.8249266734088,1547
2806.5846656801846,1559
2808.344058551212,1584
2810.1031055894246,1591
2811.8618070978273,1595
2813.6201633795085,1618
2815.378174737636,1545
2817.1358414754536,1598
2818.893163896285,1601
2820.6501423035334,1557
2822.4067770006814,1533
2824.1630682912883,1518
2825.9190164789957,1615
2827.6746218675207,1547
2829.429884760661,1629
2831.184805462294,1569
2832.9393842763743,1593
2834.693621506936,1544
2836.4475174580916,1606
2838.201072434034,1627
2839.954286739034,1519
2841.707160677441,1562
2843.459694553685,1580
2845.2118886722724,1568
2846.96374333779,1649
2848.7152588549034,1508
2850.4664355283567,1543
2852.217273662973,1530
2853.9677735636546,1620
2855.7179355353833,1584
2857.4677598832186,1569
2859.217246912299,1553
2860.9663969278427,1531
2862.715210235146,1532
2864.4636871395846,1577
2866.211827946614,1515
2867.9596329617652,1514
2869.7071024906536,1553
2871.4542368389684,1528
2873.20103631248,1583
2874.947501217038,1546
2876.6936318585695,1546
2878.4394285430812,1582
2880.1848915766604,1522
2881.9300212654707,1590
2883.6748179157553,1607
2885.4192818338374,1548
2887.1634133261173,1576
2888.907212699077,1618
2890.6506802592744,1543
2892.393816313348,1587
2894.1366211680142,1562
2895.8790951300693,1588
2897.621238506388,1572
2899.363051603925,1594
2901.1045347297118,1524
2902.8456881908596,1568
2904.58651229456,1544
2906.327007348081,1504
2908.067173658772,1491
2909.8070115340597,1588
2911.5465212814497,1569
2913.285703208527,1660
2915.0245576229563,1582
2916.7630848324807,1623
2918.5012851449196,1558
2920.2391588681758,1620
2921.976706310227,1598
2923.7139277791334,1570
2925.4508235830313,1606
2927.187394030137,1565
2928.923639428745,1574
2930.6595600872306,1656
2932.395156314046,1549
2934.1304284177218,1591
2935.8653767068713,1516
2937.6000014901815,1481
2939.3343030764227,1515
2941.068281774442,1573
2942.8019378931644,1595
2944.5352717415976,1547
2946.2682836288236,1547
2948.0009738640065,1566
2949.7333427563885,1558
2951.465390615289,1589
2953.1971177501086,1594
2954.9285244703265,1565
2956.6596110855,1534
2958.3903779052657,1623
2960.1208252393385,1582
2961.8509533975125,1586
2963.5807626896617,1584
2965.3102534257378,1545
2967.0394259157715,1541
2968.768280469873,1473
2970.496817398232,1591
2972.2250370111146,1535
2973.952939618869,1620
2975.6805255319196,1642
2977.4077950607707,1544
2979.134748516006,1660
2980.861386208289,1532
2982.587708448359,1590
2984.313715547037,1557
2986.039407815222,1571
2987.764785563891,1507
2989.489849104102,1485
2991.2145987469908,1567
2992.9390348037705,1572
2994.6631575857346,1561
2996.3869674042576,1608
2998.1104645707887,1590
2999.83364939686,1551
3001.5565221940783,1636
3003.2790832741334,1538
3005.0013329487924,1579
3006.7232715298996,1512
3008.4448993293804,1561
3010.166216659239,1552
3011.887223831558,1588
3013.607921158498,1560
3015.3283089522993,1575
3017.0483875252826,1517
3018.7681571898443,1579
3020.4876182584626,1521
3022.2067710436927,1581
3023.9256158581707,1601
3025.644153014609,1544
3027.362382825801,1540
3029.0803056046193,1531
3030.797921664012,1549
3032.5152313170106,1585
3034.2322348767225,1554
3035.9489326563353,1619
3037.665324969115,1559
3039.3814121284063,1552
3041.097194447633,1549
3042.812672240299,1575
3044.5278458199855,1506
3046.2427155003525,1599
3047.9572815951406,1533
3049.671544418167,1497
3051.38550428333,1584
3053.0991615046073,1567
3054.812516396051,1573
3056.5255692717974,1571
3058.2383204460575,1558
3059.9507702331257,1570
3061.662918947372,1539
3063.3747669032446,1530
3065.0863144152736,1513
3066.7975617980674,1553
3068.508509366309,1578
3070.219157434767,1582
3071.9295063182844,1600
3073.639556331785,1486
3075.3493077902704,1555
3077.058761008821,1577
3078.7679163025964,1537
3080.476773986837,1492
3082.1853343768594,1523
3083.89359778806,1593
3085.6015645359153,1555
3087.3092349359786,1584
3089.016609303884,1560
3090.7236879553434,1545
3092.4304712061476,1567
3094.136959372166,1537
3095.843152769349,1544
3097.5490517137237,1574
3099.2546565213966,1584
3100.959967508554,1546
3102.66498499146,1568
3104.3697092864577,1537
3106.0741407099695,1522
3107.778279578498,1544
3109.482126208622,1580
3111.1856809170004,1586
3112.8889440203716,1549
3114.5919158355528,1538
3116.294596679439,1525
3117.996986869006,1589
3119.6990867213062,1594
3121.4008965534726,1622
3123.102416682717,1554
3124.803647426329,1604
3126.5045891016784,1599
3128.205242026213,1538
3129.90560651746,1595
3131.605682893025,1614
3133.3054714705922,1609
3135.0049725679282,1607
3136.7041865028714,1539
3138.4031135933465,1546
3140.101754157353,1599
3141.800108512971,1596
3143.498176978357,1621
3145.1959598717494,1603
3146.8934575114636,1630
3148.5906702158954,1610
3150.2875983035183,1514
3151.9842420928853,1603
3153.680601902627,1565
3155.376678051456,1576
3157.07247085816,1572
3158.767980641609,1577
3160.463207720748,1556
3162.158152414606,1663
3163.8528150422862,1636
3165.5471959229726,1600
3167.2412953759303,1590
3168.9351137204976,1626
3170.628651276098,1555
3172.3219083622307,1596
3174.014885298474,1606
3175.707582404485,1545
3177.4000000000005,1511
3179.092138404835,1596
3180.7839979388846,1512
3182.47557892212,1519
3184.166881674594,1564
3185.8579065164386,1564
3187.5486537678626,1536
3189.2391237491547,1615
3190.9293167806827,1558
3192.6192331828934,1584
3194.3088732763117,1526
3195.998237381542,1557
3197.687325819268,1556
3199.376138910251,1512
3201.064676975334,1569
3202.7529403354347,1569
3204.4409293115523,1559
3206.1286442247647,1616
3207.816085396229,1586
3209.5032531471825,1536
3211.190147798936,1562
3212.8767696728846,1544
3214.5631190905015,1550
3216.2491963733373,1519
3217.9350018430214,1549
3219.6205358212637,1537
3221.305798629851,1544
3222.990790590651,1533
3224.6755120256103,1510
3226.359963256751,1516
3228.0441446061795,1530
3229.7280563960758,1579
3231.411698948703,1552
3233.0950725863995,1519
3234.778177631587,1589
3236.461014406761,1579
3238.1435832345005,1549
3239.8258844374595,1478
3241.507918338374,1561
3243.1896852600576,1569
3244.8711855254023,1551
3246.552419457381,1539
3248.233387379042,1536
3249.914089613516,1545
3251.59452648401,1544
3253.274698313813,1549
3254.95460542629,1508
3256.6342481448855,1539
3258.313626793125,1554
3259.9927416946084,1493
3261.6715931730196,1510
3263.3501815521176,1490
3265.0285071557437,1533
3266.706570307815,1550
3268.3843713323286,1593
3270.0619105533615,1578
3271.739188295068,1495
3273.4162048816834,1519
3275.0929606375184,1510
3276.769455886966,1494
3278.445690954498,1573
3280.1216661646613,1574
3281.797381842087,1568
3283.4728383114807,1573
3285.1480358976296,1530
3286.8229749253996,1524
3288.4976557197333,1546
3290.172078605655,1521
3291.846243908266,1556
3293.5201519527463,1550
3295.193803064357,1548
3296.8671975684374,1538
3298.5403357904024,1472
3300.21321805575,1604
3301.8858446900567,1523
3303.558216018975,1523
3305.23033236824,1552
3306.9021940636603,1617
3308.57380143113,1566
3310.2451547966184,1510
3311.916254486174,1580
3313.5871008259246,1547
3315.2576941420766,1600
3316.9280347609147,1567
3318.5981230088046,1592
3320.2679592121895,1542
3321.9375436975924,1491
3323.606876791612,1584
3325.27595882093,1521
3326.944790112305,1466
3328.6133709925753,1552
3330.2817017886573,1523
3331.949782827547,1554
3333.617614436319,1468
3335.2851969421245,1533
3336.952530672199,1557
3338.619615953853,1593
3340.286453114475,1522
3341.9530424815357,1553
3343.619384382583,1594
3345.2854791452437,1576
3346.951327097224,1635
3348.6169285663073,1582
3350.2822838803577,1572
3351.947393367319,1598
3353.61225735521,1593
3355.2768761721345,1574
3356.9412501462693,1543
3358.605379605873,1561
3360.2692648792827,1596
3361.9329062949146,1538
3363.596304181263,1604
