CollectionTime,7/9/2024 4:13:01 PM
ExposureUsed,3
CalibratedSpectrum
-962.7078968117929,674
-959.9714848408522,722
-957.2358232597828,745
-954.5009119013725,721
-951.7667505983302,720
-949.0333391832855,776
-946.3006774887896,740
-943.5687653473143,725
-940.837602591253,757
-938.1071890529199,694
-935.3775245645503,731
-932.6486089583007,721
-929.9204420662485,763
-927.1930237203925,756
-924.4663537526524,752
-921.7404319948689,760
-919.0152582788041,756
-916.2908324361409,796
-913.5671542984834,781
-910.8442236973568,763
-908.1220404642074,761
-905.4006044304027,754
-902.679915427231,755
-899.959973285902,742
-897.2407778375464,765
-894.5223289132158,739
-891.8046263438832,770
-889.0876699604426,747
-886.3714595937089,729
-883.6559950744183,736
-880.9412762332282,771
-878.2273029007168,748
-875.5140749073835,742
-872.8015920836489,723
-870.0898542598545,774
-867.3788612662631,780
-864.6686129330585,811
-861.9591090903457,786
-859.2503495681506,772
-856.5423341964203,740
-853.8350628050229,741
-851.1285352237478,795
-848.4227512823054,753
-845.7177108103272,787
-843.0134136373656,794
-840.3098595928943,779
-837.6070485063082,801
-834.9049802069229,772
-832.2036545239757,758
-829.5030712866244,771
-826.8032303239481,778
-824.1041314649472,800
-821.4057745385428,780
-818.7081593735775,787
-816.0112857988148,797
-813.3151536429393,786
-810.6197627345566,791
-807.9251129021936,750
-805.2312039742981,807
-802.5380357792392,828
-799.8456081453069,794
-797.1539209007124,840
-794.462973873588,807
-791.772766891987,822
-789.083299783884,808
-786.3945723771743,817
-783.7065844996748,808
-781.0193359791231,772
-778.3328266431781,801
-775.6470563194197,794
-772.9620248353489,786
-770.2777320183878,788
-767.5941776958798,781
-764.9113616950891,802
-762.2292838432011,820
-759.5479439673222,848
-756.8673418944801,821
-754.1874774516235,800
-751.5083504656222,826
-748.8299607632671,869
-746.15230817127,815
-743.475392516264,810
-740.7992136248035,875
-738.1237713233636,890
-735.4490654383407,841
-732.7750957960521,838
-730.1018622227365,900
-727.4293645445534,863
-724.7576025875837,839
-722.0865761778291,815
-719.4162851412126,849
-716.7467293035781,839
-714.0779084906909,851
-711.409822528237,833
-708.7424712418238,847
-706.0758544569796,880
-703.4099719991541,858
-700.7448236937178,864
-698.0804093659622,899
-695.4167288411002,867
-692.7537819442656,852
-690.0915685005134,815
-687.4300883348199,833
-684.7693412720819,913
-682.1093271371178,799
-679.4500457546669,844
-676.7914969493897,866
-674.1336805458676,841
-671.4765963686034,826
-668.8202442420206,874
-666.1646239904642,894
-663.5097354382001,852
-660.8555784094151,887
-658.2021527282176,888
-655.5494582186366,903
-652.8974947046223,908
-650.2462620100463,879
-647.5957599587009,866
-644.9459883742998,910
-642.2969470804776,900
-639.6486359007902,936
-637.0010546587141,943
-634.3542031776476,872
-631.7080812809096,952
-629.0626887917401,862
-626.4180255333008,893
-623.7740913286734,974
-621.1308860008619,924
-618.4884093727904,936
-615.8466612673046,948
-613.2056415071715,919
-610.5653499150785,894
-607.9257863136347,920
-605.28695052537,925
-602.6488423727357,937
-600.0114616781036,910
-597.3748082637674,934
-594.7388819519412,909
-592.1036825647604,1001
-589.4692099242818,996
-586.8354638524829,986
-584.2024441712624,971
-581.5701507024403,933
-578.9385832677575,961
-576.3077416888759,950
-573.6776257873787,981
-571.0482353847704,995
-568.4195703024757,969
-565.7916303618415,889
-563.164415384135,946
-560.5379251905453,897
-557.9121596021815,944
-555.2871184400748,978
-552.6628015251767,950
-550.0392086783606,939
-547.4163397204204,929
-544.794194472071,953
-542.1727727539491,946
-539.5520743866118,985
-536.9320991905377,965
-534.3128469861261,996
-531.6943175936979,1051
-529.0765108334947,1050
-526.4594265256793,1085
-523.8430644903358,1194
-521.2274245474689,1352
-518.612506517005,1468
-515.9983102187913,1383
-513.3848354725959,1372
-510.77208209810846,1376
-508.16004991493924,1392
-505.5487387426199,1544
-502.9381484006032,1714
-500.3282787082628,1886
-497.71912948489364,1914
-495.1107005497117,1939
-492.5029917218539,1763
-489.8960028203786,1638
-487.28973366426493,1544
-484.68418407241325,1344
-482.07935386364494,1316
-479.47524285670266,1228
-476.87185087025,1209
-474.2691777228715,1286
-471.66722323307334,1126
-469.0659872192821,1185
-466.4654694998459,1167
-463.86566989303384,1182
-461.26658821703614,1116
-458.66822428996414,1121
-456.07057792985,1152
-453.4736489546475,1154
-450.877437182231,1111
-448.28194243039627,1087
-445.68716451686,1058
-443.09310325926003,1113
-440.49975847515555,1093
-437.9071299820263,1085
-435.31521759727354,1134
-432.72402113821954,1153
-430.13354042210767,1113
-427.5437752661022,1165
-424.95472548728867,1123
-422.36639090267386,1146
-419.7787713291855,1156
-417.1918665836721,1242
-414.60567648290385,1278
-412.0202008435715,1180
-409.4354394822874,1216
-406.8513922155845,1251
-404.26805885991723,1195
-401.685439231661,1212
-399.103533147112,1282
-396.522340422488,1218
-393.9418608739278,1222
-391.3620943174908,1199
-388.7830405691583,1141
-386.2046994448317,1060
-383.6270707603344,1048
-381.05015433141045,1034
-378.473949973725,940
-375.8984575028645,911
-373.32367673433623,769
-370.74960748356875,761
-368.1762495659117,732
-365.60360279663576,684
-363.03166699093265,609
-360.4604419639154,579
-357.8899275306178,513
-355.32012350599507,522
-352.7510297049233,541
-350.1826459421999,490
-347.61497203254316,484
-345.04800779059235,475
-342.4817530309082,553
-339.91620756797226,541
-337.35137121618743,529
-334.7872437898774,491
-332.22382510328725,560
-329.66111497058273,519
-327.09911320585127,516
-324.53781962310075,526
-321.9772340362607,553
-319.4173562591816,513
-316.8581861056348,508
-314.2997233893127,508
-311.7419679238294,512
-309.1849195227194,544
-306.62857799943856,563
-304.0729431673641,594
-301.51801483979375,565
-298.963792829947,567
-296.41027695096386,622
-293.85746701590574,616
-291.3053628377552,578
-288.7539642294155,667
-286.2032710037115,603
-283.65328297338897,573
-281.1039999511146,667
-278.5554217494762,682
-276.007548180983,632
-273.4603790580651,602
-270.9139141930734,584
-268.3681533982807,598
-265.8230964858798,630
-263.27874326798565,693
-260.7350935566336,698
-258.1921471637804,676
-255.6499039013039,636
-253.10836358100266,699
-250.56752601459698,635
-248.02739101372765,662
-245.48795838995704,655
-242.94922795476816,638
-240.41119951956557,659
-237.8738728956746,718
-235.33724789434166,775
-232.80132432673452,759
-230.2661020039418,725
-227.73158073697357,693
-225.19776033676033,770
-222.66464061415422,793
-220.1322213799284,744
-217.60050244477725,707
-215.06948361931552,682
-212.53916471408013,762
-210.00954553952818,757
-207.48062590603843,715
-204.9524056239104,701
-202.4248845033651,782
-199.8980623545441,777
-197.37193898751036,761
-194.84651421224817,773
-192.32178783866232,814
-189.79775967657952,897
-187.27442953574644,886
-184.7517972258321,932
-182.2298625564256,874
-179.7086253370378,812
-177.18808537710026,794
-174.66824248596583,829
-172.14909647290835,887
-169.6306471471229,939
-167.11289431772548,904
-164.59583779375328,951
-162.07947738416453,889
-159.5638128978386,1058
-157.04884414357605,1157
-154.53457093009854,1274
-152.02099306604828,1201
-149.50811035998936,959
-146.99592262040665,994
-144.48442965570587,1141
-141.97363127421409,1183
-139.46352728417958,1204
-136.95411749377126,1294
-134.44540171107985,1294
-131.93737974411636,1016
-129.43005140081357,1166
-126.92341648902493,1533
-124.41747481652521,1865
-121.91222619101006,2303
-119.40767042009657,3149
-116.90380731132257,3631
-114.40063667214702,3504
-111.8981583099503,2901
-109.3963720320337,2097
-106.89527764561933,1981
-104.39487495785067,2096
-101.89516377579241,2638
-99.39614390642998,3760
-96.89781515667039,4430
-94.40017733334128,3916
-91.90323024319173,3706
-89.40697369289148,4806
-86.91140748903172,6925
-84.41653143812482,7173
-81.92234534660395,5367
-79.42884902082358,4421
-76.93604226705907,6980
-74.4439248915071,12817
-71.95249670028534,19612
-69.46175749943245,21784
-66.97170709490854,20298
-64.48234529259423,17630
-61.99367189829195,15290
-59.50568671772464,11997
-57.01838955653636,8811
-54.53178022029283,8137
-52.045858514480074,9862
-49.560624244506016,10666
-47.07607721569923,12590
-44.59221723330904,12966
-42.10904410250669,11581
-39.62655762838392,9764
-37.14475761595372,8130
-34.66364387015028,7774
-32.18321619582866,8075
-29.70347439776515,8974
-27.224418280657005,12092
-24.74604764912317,13978
-22.26836230770266,18206
-19.7913620608565,30768
-17.315046712966478,53082
-14.83941606833514,65037
-12.36446993118659,65037
-9.89020810566592,65037
-7.416630395839093,65037
-4.94373660569363,65037
-2.471526539137585,65037
-6.821210263296962E-13,65037
2.47084320796705,65037
4.941003281093458,65037
7.410480415786196,65037
9.879274808531363,65037
12.347386655893956,65037
14.814816154518212,65037
17.28156350112681,65037
19.74762889252179,65037
22.21301252558385,65037
24.67771459727237,20855
27.141735304626195,4408
29.605074844762612,2941
32.06773341487792,2364
34.52971121224755,2424
36.99100843422559,2531
39.45162527824516,2243
41.91156194181792,2174
44.370818622535126,2200
46.82939551806646,1710
49.287292826160524,1692
51.74451074464503,1428
54.201049471426245,1384
56.65690920448981,1451
59.112090141899785,1353
61.56659248179983,1290
64.02041642241159,1205
66.4735621620365,1170
68.92602989905402,1148
71.37781983192338,1065
73.82893215918205,1115
76.27936707944684,1278
78.72912479141326,1372
81.17820549385567,1339
83.62660938562783,1354
86.07433666566146,1130
88.5213875329681,963
90.96776218663751,942
93.41346082583925,961
95.85848364982041,1087
98.30283085790859,1278
100.7465026495089,1417
103.18949922410604,1198
105.63182078126385,1075
108.07346752062438,1084
110.51443964190923,1031
112.95473734491827,1077
115.39436082953114,1180
117.83331029570547,1174
120.27158594347827,1064
122.7091879729652,1167
125.1461165843615,1269
127.58237197794062,1227
130.01795435405518,1135
132.4528639131364,1217
134.88710085569494,1236
137.32066538231982,929
139.75355769367923,841
142.1857779905207,836
144.61732647366978,966
147.04820334403132,995
149.47840880258934,1084
151.90794305040674,1061
154.33680628862487,1159
156.76499871846443,1289
159.19252054122433,1454
161.61937195828352,1616
164.04555317109896,1889
166.47106438120693,2043
168.89590579022217,2122
171.320077599839,2278
173.7435800118302,2333
176.16641322804742,2453
178.58857745042144,2729
181.01007288096173,2901
183.43089972175687,2910
185.85105817497413,2806
188.27054844285988,2732
190.6893707277394,2834
193.10752523201643,2915
195.5250121581745,2990
197.9418317087751,3023
200.3579840864594,3045
202.7734694939469,2920
205.18828813403627,2955
207.6024402096051,3261
210.01592592360964,3277
212.42874547908548,3116
214.84089907914665,3251
217.2523869269868,3157
219.66320922587727,3052
222.0733661791695,3142
224.48285799029293,3118
226.8916848627572,3128
229.29984700014882,3154
231.7073446061355,3103
234.11417788446204,3025
236.520347038953,3041
238.92585227351185,3098
241.33069379212054,3130
243.73487179884035,3147
246.1383864978112,3126
248.541238093252,3151
250.9434267894609,3189
253.34495279081432,3222
255.74581630176783,3120
258.1460175268563,3095
260.54555667069314,3106
262.9444339379703,3085
265.3426495334594,3203
267.7402036620107,3255
270.1370965285529,3158
272.53332833809407,3077
274.9288992957214,2950
277.32380960660055,3047
279.718059475976,3132
282.1116491091717,3133
284.5045787115897,3110
286.89684848871195,3058
289.2884586460981,3039
291.67940938938807,3159
294.0697009242996,3148
296.4593334566299,3083
298.84830719225477,3031
301.23662233712923,2982
303.6242790972866,3013
306.01127767884,2971
308.39761828798066,2951
310.78330113097934,2959
313.16832641418534,2952
315.5526943440269,2853
317.9364051270112,2833
320.3194589697242,2898
322.70185607883093,2813
325.0835966610754,2757
327.4646809232805,2698
329.8451090723478,2792
332.2248813152577,2679
334.6039978590701,2755
336.9824589109231,2648
339.36026467803447,2620
341.7374153677,2703
344.113911187295,2667
346.48975234427337,2688
348.8649390461686,2648
351.2394715005918,2628
353.61334991523415,2615
355.9865744978655,2612
358.35914545633375,2579
360.73106299856715,2618
363.10232733257146,2591
365.47293866643247,2669
367.84289720831396,2628
370.2122031664593,2525
372.5808567491905,2550
374.9488581649083,2557
377.31620762209275,2569
379.6829053293021,2455
382.0489514951745,2497
384.4143463284262,2440
386.7790900378528,2491
389.14318283232853,2503
391.50662492080653,2480
393.86941651231916,2548
396.23155781597745,2576
398.5930490409713,2528
400.9538903965696,2493
403.3140820921202,2419
405.6736243370498,2511
408.03251734086336,2461
410.3907613131465,2416
412.74835646356166,2412
415.10530300185144,2447
417.4616011378372,2461
419.81725108141893,2470
422.1722530425758,2446
424.5266072313656,2368
426.880313857925,2468
429.2333731324701,2396
431.58578526529516,2405
433.9375504667738,2458
436.2886689473588,2408
438.63914091758113,2320
440.9889665880513,2348
443.33814616945835,2312
445.68667987257015,2305
448.03456790823395,2313
450.3818104873759,2345
452.72840782100013,2388
455.07436012019105,2351
457.41966759611057,2336
459.7643304600007,2343
462.10834892318155,2284
464.4517231970525,2354
466.79445349309174,2345
469.1365400228566,2453
471.4779829979826,2383
473.81878263018564,2448
476.15893913125876,2452
478.4984527130747,2498
480.8373235875855,2676
483.17555196682144,2608
485.5131380628919,2700
487.8500820879857,2811
490.1863842543697,3005
492.52204477439034,3342
494.8570638604725,3498
497.1914417251204,3803
499.52517858091653,3995
501.85827464052306,4084
504.19073011668036,3991
506.5225452222086,3877
508.85372017000566,3777
511.18425517304956,3641
513.514150444396,3970
515.8434061971808,4864
518.1720226446176,5939
520.4999999999999,6129
522.8273384766991,5807
525.1540382881666,5417
527.480099647932,4698
529.8055227696037,3934
532.1303078668694,3254
534.454455153496,2839
536.777964843328,2750
539.1008371502907,2637
541.4230722883866,2577
543.744670471698,2614
546.0656319143858,2570
548.3859568306899,2511
550.7056454349294,2552
553.0246979415016,2537
555.3431145648834,2490
557.6608955196306,2488
559.978041020377,2377
562.2945512818363,2434
564.6104265188006,2501
566.9256669461412,2582
569.2402727788082,2509
571.5542442318302,2535
573.8675815203156,2582
576.1802848594508,2612
578.4923544645015,2514
580.8037905508126,2540
583.114593333807,2635
585.4247630289875,2600
587.7342998519354,2521
590.0432040183106,2576
592.3514757438526,2547
594.6591152443794,2592
596.9661227357875,2612
599.2724984340531,2515
601.578242555231,2604
603.8833553154542,2626
606.1878369309362,2638
608.4916876179676,2564
610.7949075929192,2560
613.0974970722403,2517
615.3994562724587,2553
617.7007854101818,2483
620.0014847020951,2471
622.3015543649641,2534
624.6009946156324,2569
626.8998056710224,2596
629.1979877481361,2534
631.4955410640538,2540
633.7924658359349,2521
636.0887622810175,2537
638.3844306166192,2494
640.6794710601358,2567
642.9738838290426,2547
645.2676691408932,2479
647.5608272133207,2563
649.853358264037,2481
652.1452625108324,2525
654.4365401715764,2536
656.7271914642178,2565
659.0172166067838,2606
661.3066158173809,2481
663.5953893141935,2483
665.8835373154867,2458
668.1710600396028,2599
670.4579577049639,2561
672.7442305300709,2588
675.0298787335033,2562
677.3149025339197,2489
679.599302150058,2508
681.8830778007342,2476
684.1662297048437,2483
686.4487580813608,2539
688.7306631493387,2535
691.0119451279091,2566
693.2926042362834,2602
695.5726406937516,2611
697.8520547196814,2575
700.1308465335215,2481
702.4090163547982,2593
704.6865644031171,2556
706.9634908981619,2595
709.2397960596965,2563
711.5154801075631,2603
713.7905432616823,2682
716.0649857420548,2593
718.3388077687592,2537
720.612009561953,2596
722.8845913418733,2613
725.1565533288352,2597
727.427895743234,2598
729.6986188055427,2553
731.9687227363137,2618
734.238207756178,2580
736.5070740858458,2605
738.7753219461066,2529
741.0429515578281,2611
743.3099631419569,2666
745.5763569195191,2564
747.8421331116193,2604
750.1072919394409,2598
752.3718336242467,2571
754.6357583873777,2602
756.8990664502545,2521
759.1617580343765,2566
761.423833361321,2623
763.6852926527457,2555
765.9461361303862,2541
768.206364016058,2677
770.4659765316536,2627
772.7249738991469,2660
774.9833563405886,2716
777.2411240781092,2610
779.4982773339183,2647
781.7548163303044,2691
784.010741289634,2678
786.2660524343538,2679
788.5207499869881,2687
790.7748341701416,2641
793.0283052064964,2659
795.2811633188143,2663
797.5334087299362,2671
799.7850416627813,2649
802.0360623403484,2635
804.2864709857143,2647
806.5362678220353,2691
808.7854530725468,2677
811.0340269605625,2697
813.2819897094754,2737
815.5293415427581,2643
817.77608268396,2676
820.0222133567116,2590
822.2677337847211,2780
824.5126441917765,2577
826.7569448017433,2635
829.0006358385675,2651
831.2437175262731,2674
833.4861900889629,2683
835.7280537508192,2713
837.9693087361026,2725
840.2099552691533,2639
842.4499935743896,2712
844.689423876309,2670
846.9282463994886,2619
849.1664613685833,2758
851.4040690083276,2685
853.6410695435349,2643
855.877463199097,2731
858.1132501999847,2631
860.3484307712487,2708
862.5830051380175,2711
864.8169735254988,2739
867.0503361589791,2708
869.2830932638243,2719
871.5152450654786,2718
873.7467917894654,2677
875.9777336613873,2763
878.2080709069252,2763
880.4378037518389,2806
882.666932421968,2783
884.8954571432301,2794
887.1233781416219,2818
889.3506956432192,2808
891.5774098741766,2760
893.803521060728,2632
896.0290294291852,2793
898.2539352059397,2723
900.4782386174619,2798
902.7019398903011,2739
904.925039251085,2686
907.147536926521,2766
909.3694331433943,2659
911.59072812857,2716
913.8114221089921,2696
916.0315153116827,2745
918.2510079637437,2661
920.4699002923547,2614
922.6881925247761,2673
924.905884888345,2617
927.1229776104793,2586
929.3394709186747,2588
931.555365040506,2590
933.7706602036275,2576
935.9853566357709,2629
938.1994545647489,2658
940.4129542184515,2549
942.6258558248488,2531
944.8381596119883,2567
947.0498658079974,2534
949.2609746410825,2532
951.4714863395287,2571
953.6814011316998,2578
955.8907192460387,2554
958.0994409110671,2590
960.3075663553858,2541
962.5150958076741,2491
964.7220294966913,2621
966.928367651274,2542
969.1341105003388,2545
971.3392582728806,2507
973.5438111979742,2538
975.747769504772,2551
977.9511334225061,2515
980.153903180487,2464
982.3560790081052,2479
984.5576611348289,2468
986.7586497902058,2486
988.9590452038618,2381
991.158847605503,2460
993.3580572249133,2455
995.5566742919558,2361
997.7546990365728,2324
999.952131688785,2270
1002.1489724786926,2252
1004.3452216364743,2246
1006.5408793923874,2292
1008.7359459767691,2279
1010.9304216200343,2191
1013.1243065526781,2128
1015.3176010052733,2210
1017.510305208472,2222
1019.7024193930064,2257
1021.8939437896848,2122
1024.0848786293977,2217
1026.2752241431122,2179
1028.4649805618747,2122
1030.6541481168115,2172
1032.842727039127,2165
1035.0307175601051,2040
1037.2181199111074,2150
1039.4049343235752,1999
1041.591161029029,2094
1043.7768002590683,2062
1045.9618522453698,2082
1048.1463172196918,2099
1050.3301954138697,2152
1052.513487059818,2145
1054.69619238953,2148
1056.8783116350783,2048
1059.0598450286152,2024
1061.2407928023704,2110
1063.4211551886528,2074
1065.6009324198508,2160
1067.780124728432,2050
1069.9587323469414,2099
1072.1367555080046,2134
1074.314194444325,2081
1076.4910493886855,2127
1078.667320573947,2046
1080.843008233051,2042
1083.0181125990161,2109
1085.1926339049414,1965
1087.3665723840027,1989
1089.5399282694575,2075
1091.7127017946405,2016
1093.8848931929647,2072
1096.0565026979243,2074
1098.2275305430899,1980
1100.3979769621128,1997
1102.567842188722,2017
1104.737126456726,2016
1106.9058300000124,1954
1109.0739530525475,2018
1111.2414958483764,2015
1113.4084586216231,1961
1115.5748416064907,2014
1117.7406450372605,2025
1119.9058691482942,1959
1122.0705141740304,1973
1124.2345803489884,1905
1126.3980679077658,1942
1128.5609770850388,1995
1130.7233081155623,1937
1132.8850612341707,1996
1135.0462366757774,1917
1137.2068346753745,1950
1139.3668554680326,1906
1141.526299288901,1915
1143.68516637321,1877
1145.8434569562655,1931
1148.001171273455,1908
1150.158309560244,1956
1152.3148720521767,1941
1154.470858984876,1966
1156.626270594044,1915
1158.7811071154629,1946
1160.9353687849912,1943
1163.089055838569,1969
1165.242168512213,1906
1167.3947070420209,1941
1169.5466716641677,1964
1171.6980626149075,1880
1173.8488801305748,1936
1175.9991244475814,1889
1178.1487958024186,1813
1180.2978944316555,1924
1182.4464205719428,1943
1184.5943744600072,1866
1186.7417563326567,1866
1188.8885664267755,1929
1191.0348049793297,1880
1193.1804722273619,1872
1195.325568407995,1916
1197.4700937584303,1996
1199.614048515948,1856
1201.7574329179074,1883
1203.900247201746,1845
1206.042491604982,1973
1208.1841663652099,1930
1210.3252717201053,1905
1212.465807907422,1927
1214.6057751649923,1990
1216.7451737307279,1903
1218.8840038426192,1902
1221.0222657387353,1874
1223.1599596572241,1922
1225.2970858363137,1903
1227.4336445143094,1917
1229.5696359295966,1914
1231.705060320639,2020
1233.8399179259786,1920
1235.9742089842384,2004
1238.107933734118,1998
1240.2410924143974,2014
1242.373685263935,1969
1244.5057125216676,1972
1246.6371744266116,1990
1248.7680712178621,1939
1250.898403134593,2040
1253.028170416058,1961
1255.1573733015875,1980
1257.2860120305932,2022
1259.4140868425648,1920
1261.54159797707,2000
1263.6685456737569,1947
1265.7949301723515,2004
1267.9207517126597,2041
1270.046010534565,1954
1272.1707068780306,2017
1274.2948409830983,1996
1276.4184130898889,1954
1278.541423438603,1978
1280.6638722695184,2015
1282.785759822993,1991
1284.9070863394636,2062
1287.0278520594447,2021
1289.1480572235314,2039
1291.2677020723963,2041
1293.3867868467923,1983
1295.5053117875495,2071
1297.623277135579,2078
1299.740683131868,2036
1301.8575300174857,2087
1303.973818033578,2099
1306.0895474213703,2105
1308.2047184221678,2081
1310.3193312773528,2108
1312.4333862283888,2162
1314.5468835168163,2072
1316.659823384255,2100
1318.7722060724045,2088
1320.8840318230418,2107
1322.9953008780249,2176
1325.1060134792888,2084
1327.2161698688478,2114
1329.3257702887959,2113
1331.4348149813054,2099
1333.5433041886276,2064
1335.6512381530933,2167
1337.7586171171101,2070
1339.8654413231675,2044
1341.9717110138317,2077
1344.0774264317488,2057
1346.1825878196432,2126
1348.2871954203192,2084
1350.3912494766587,2133
1352.4947502316231,2041
1354.5976979282532,2033
1356.7000928096686,2068
1358.8019351190665,2111
1360.9032250997243,2069
1363.0039629949988,2127
1365.1041490483235,2030
1367.2037835032133,2136
1369.3028666032606,2021
1371.401398592137,2128
1373.4993797135926,2098
1375.5968102114575,2088
1377.6936903296396,2051
1379.7900203121262,2100
1381.8858004029835,2149
1383.9810308463561,2066
1386.075711886469,2136
1388.1698437676241,2184
1390.2634267342032,2168
1392.356461030667,2103
1394.4489469015557,2134
1396.5408845914872,2169
1398.6322743451592,2204
1400.7231164073469,2102
1402.813411022907,2131
1404.903158436773,2086
1406.9923588939578,2204
1409.0810126395531,2201
1411.1691199187303,2094
1413.2566809767386,2145
1415.343696058907,2169
1417.4301654106425,2217
1419.5160892774315,2136
1421.6014679048399,2218
1423.6863015385125,2165
1425.7705904241707,2239
1427.8543348076178,2159
1429.9375349347342,2263
1432.0201910514802,2198
1434.102303403894,2168
1436.1838722380944,2212
1438.2648978002767,2234
1440.3453803367174,2264
1442.4253200937692,2245
1444.5047173178677,2206
1446.5835722555234,2251
1448.6618851533285,2279
1450.739656257952,2316
1452.8168858161434,2279
1454.8935740747306,2321
1456.96972128062,2368
1459.045327680797,2326
1461.120393522327,2387
1463.1949190523528,2372
1465.2689045180973,2362
1467.3423501668608,2406
1469.415256246024,2339
1471.4876230030463,2337
1473.559450685465,2432
1475.6307395408976,2437
1477.7014898170391,2429
1479.771701761665,2511
1481.8413756226287,2467
1483.9105116478618,2453
1485.9791100853772,2603
1488.0471711832643,2526
1490.1146951896926,2535
1492.1816823529098,2590
1494.2481329212433,2564
1496.3140471430984,2677
1498.3794252669609,2528
1500.4442675413939,2599
1502.5085742150404,2698
1504.572345536622,2640
1506.6355817549388,2741
1508.6982831188702,2677
1510.7604498773744,2752
1512.8220822794883,2660
1514.8831805743293,2753
1516.9437450110909,2785
1519.003775839048,2901
1521.0632733075522,2797
1523.1222376660367,2825
1525.1806691640113,2984
1527.2385680510652,2883
1529.2959345768668,3008
1531.3527689911643,3050
1533.4090715437833,3058
1535.4648424846291,3140
1537.5200820636855,3114
1539.5747905310159,3247
1541.6289681367616,3246
1543.6826151311434,3214
1545.7357317644614,3287
1547.7883182870937,3281
1549.8403749494987,3374
1551.8919020022113,3475
1553.9428996958477,3466
1555.9933682811015,3481
1558.0433080087469,3544
1560.0927191296346,3639
1562.1416018946961,3605
1564.1899565549415,3703
1566.2377833614592,3593
1568.2850825654164,3579
1570.3318544180606,3573
1572.3780991707158,3454
1574.423817074788,3403
1576.4690083817595,3326
1578.5136733431923,3200
1580.5578122107272,3092
1582.601425236085,3074
1584.6445126710646,2847
1586.6870747675434,2891
1588.7291117774776,2876
1590.7706239529034,2777
1592.8116115459347,2686
1594.8520748087658,2606
1596.8920139936686,2640
1598.9314293529933,2533
1600.9703211391711,2382
1603.008689604711,2503
1605.0465350022005,2381
1607.0838575843068,2402
1609.1206576037753,2463
1611.1569353134305,2419
1613.1926909661765,2315
1615.2279248149953,2406
1617.2626371129481,2360
1619.2968281131757,2307
1621.3304980688963,2266
1623.3636472334088,2246
1625.39627586009,2278
1627.428384202396,2245
1629.459972513861,2203
1631.4910410480993,2198
1633.5215900588028,2241
1635.551619799744,2228
1637.5811305247717,2210
1639.6101224878166,2316
1641.6385959428862,2207
1643.6665511440683,2197
1645.693988345528,2190
1647.7209078015112,2167
1649.7473097663405,2182
1651.7731944944203,2217
1653.7985622402307,2153
1655.823413258333,2176
1657.847747803366,2247
1659.8715661300494,2175
1661.8948684931793,2216
1663.9176551476316,2146
1665.9399263483624,2182
1667.9616823504057,2146
1669.982923408873,2214
1672.0036497789574,2133
1674.0238617159293,2196
1676.043559475138,2231
1678.0627433120121,2198
1680.081413482059,2091
1682.0995702408654,2187
1684.117213844096,2163
1686.134344547495,2220
1688.1509626068864,2116
1690.1670682781705,2101
1692.182661817329,2111
1694.1977434804217,2165
1696.2123135235875,2150
1698.226372203043,2237
1700.2399197750851,2189
1702.2529564960905,2191
1704.2654826225112,2162
1706.277498410882,2095
1708.2890041178139,2176
1710.2999999999988,2173
1712.3104863142066,2210
1714.3204633172854,2071
1716.329931266163,2113
1718.3388904178469,2177
1720.3473410294214,2090
1722.3552833580516,2194
1724.3627176609807,2161
1726.3696441955308,2126
1728.3760632191033,2230
1730.3819749891782,2140
1732.3873797633146,2114
1734.3922777991502,2087
1736.3966693544012,2101
1738.4005546868639,2104
1740.4039340544127,2149
1742.406807715001,2056
1744.4091759266616,2126
1746.4110389475054,2056
1748.4123970357223,2105
1750.413250449582,2110
1752.4135994474318,2056
1754.4134442876993,2144
1756.4127852288902,2129
1758.4116225295893,2069
1760.4099564484595,2068
1762.407787244244,2109
1764.405115175764,2058
1766.4019405019203,2136
1768.3982634816916,2112
1770.3940843741357,2005
1772.3894034383907,2025
1774.3842209336717,2055
1776.378537119274,2079
1778.372352254571,2126
1780.3656665990156,2057
1782.3584804121397,2060
1784.3507939535534,2063
1786.3426074829463,2063
1788.3339212600863,2064
1790.3247355448211,2050
1792.3150505970766,2058
1794.3048666768573,2110
1796.2941840442477,2084
1798.2830029594106,2071
1800.2713236825884,2022
1802.2591464741004,1982
1804.2464715943465,2045
1806.2332993038058,2052
1808.2196298630352,2050
1810.2054635326708,2037
1812.190800573428,2065
1814.175641246101,2054
1816.1599858115628,2010
1818.1438345307652,2079
1820.127187664738,2119
1822.1100454745924,2072
1824.092408221516,2048
1826.0742761667766,2054
1828.055649571721,2087
1830.0365286977735,2089
1832.0169138064398,2080
1833.9968051593014,2036
1835.9762030180214,1998
1837.9551076443408,2045
1839.9335193000788,1987
1841.9114382471344,2043
1843.888864747485,2038
1845.8657990631878,2011
1847.842241456378,2031
1849.8181921892697,1941
1851.7936515241558,1959
1853.7686197234098,1931
1855.7430970494815,2032
1857.7170837649014,2010
1859.6905801322787,1970
1861.6635864143004,1999
1863.6361028737338,2016
1865.608129773424,2048
1867.5796673762961,1999
1869.5507159453537,1966
1871.521275743678,2014
1873.4913470344313,1997
1875.4609300808534,1940
1877.4300251462632,1992
1879.3986324940588,1977
1881.366752387717,2006
1883.3343850907936,1989
1885.3015308669228,1941
1887.268189979819,1987
1889.2343626932739,1964
1891.2000492711595,1963
1893.1652499774254,1934
1895.1299650761011,2013
1897.0941948312952,1995
1899.0579395071945,1998
1901.0211993680641,1982
1902.98397467825,1993
1904.9462657021745,1958
1906.9080727043415,1970
1908.869395949332,1988
1910.8302357018065,1959
1912.790592226504,1973
1914.7504657882428,1929
1916.7098566519212,1977
1918.6687650825133,1940
1920.6271913450764,1985
1922.5851357047422,1994
1924.5425984267245,1947
1926.499579776314,1979
1928.4560800188833,2033
1930.4120994198802,1926
1932.367638244833,1968
1934.32269675935,1949
1936.2772752291175,1957
1938.231373919899,1997
1940.1849930975404,1971
1942.1381330279637,1979
1944.0907939771696,1962
1946.0429762112412,1935
1947.9946799963363,1945
1949.9459055986945,2003
1951.896653284633,1985
1953.8469233205478,1931
1955.7967159729142,1929
1957.7460315082863,1971
1959.6948701932974,1959
1961.6432322946594,1997
1963.5911180791632,1974
1965.5385278136787,1906
1967.4854617651545,1928
1969.4319202006182,1966
1971.377903387176,1900
1973.3234115920136,2002
1975.268445082395,1937
1977.2130041256642,1954
1979.1570889892423,1961
1981.1006999406304,1912
1983.04383724741,1932
1984.986501177238,1937
1986.928691997853,1920
1988.8704099770712,1897
1990.811655382789,1948
1992.7524284829801,1890
1994.692729545698,1948
1996.6325588390755,1998
1998.5719166313224,1895
2000.5108031907307,1900
2002.4492187856677,1937
2004.387163684583,1908
2006.3246381560011,2002
2008.2616424685298,1921
2010.1981768908527,1950
2012.1342416917332,1932
2014.069837140014,1893
2016.0049635046162,1878
2017.9396210545406,1950
2019.8738100588666,1897
2021.8075307867502,1859
2023.740783507431,1952
2025.6735684902228,1951
2027.6058860045214,1916
2029.5377363198004,1888
2031.4691197056118,1949
2033.4000364315875,1932
2035.3304867674374,1891
2037.260470982952,1865
2039.189989347998,1916
2041.1190421325232,1920
2043.047629606554,1924
2044.9757520401945,1885
2046.9034097036288,1967
2048.8306028671195,1886
2050.7573318010086,1958
2052.683596775716,1996
2054.609398061742,1923
2056.5347359296647,1890
2058.4596106501403,1944
2060.384022493906,1877
2062.3079717317764,1920
2064.231458634646,1876
2066.1544834734873,1935
2068.077046519352,1932
2069.99914804337,1951
2071.9207883167524,1923
2073.8419676107865,1945
2075.7626861968406,2016
2077.6829443463607,2019
2079.6027423308715,1892
2081.522080421977,1957
2083.440958891362,1889
2085.359378010786,1948
2087.2773380520907,1921
2089.194839287196,1973
2091.111881988101,1960
2093.0284664268825,1967
2094.9445928756973,1897
2096.86026160678,1962
2098.775472892446,1947
2100.690227005088,1943
2102.604524217178,1925
2104.5183648012676,2016
2106.431749029985,1958
2108.34467717604,1970
2110.2571495122206,1940
2112.169166311393,1879
2114.080727846503,1963
2115.9918343905747,1952
2117.902486216711,1973
2119.8126835980956,1947
2121.722426807987,1976
2123.6317161197285,1983
2125.5405518067364,2001
2127.448934142509,2091
2129.356863400624,2051
2131.264339854737,1985
2133.1713637785815,1977
2135.077935445972,1975
2136.9840551308002,2047
2138.889723107037,1993
2140.7949396487334,2049
2142.699705030018,2043
2144.6040195250994,2001
2146.507883408264,1963
2148.4112969538774,2012
2150.3142604363848,2036
2152.2167741303097,2084
2154.1188383102535,2058
2156.0204532508997,2050
2157.9216192270064,1982
2159.822336513414,1985
2161.7226053850413,1980
2163.622426116884,2125
2165.5217989840185,2059
2167.4207242616,2059
2169.319202224862,2013
2171.2172331491165,2102
2173.1148173097563,2092
2175.0119549822507,2074
2176.90864644215,2086
2178.8048919650823,2088
2180.7006918267534,2079
2182.596046302952,2103
2184.4909556695407,2111
2186.3854202024645,2135
2188.279440177746,2101
2190.173015871487,2084
2192.066147559868,2126
2193.958835519149,2043
2195.851080025667,2120
2197.7428813558417,2098
2199.6342397861667,2081
2201.5251555932186,2128
2203.415629053651,2210
2205.3056604441986,2152
2207.19525004167,2227
2209.084398122958,2197
2210.9731049650327,2172
2212.861370844941,2124
2214.749196039812,2198
2216.636580826851,2202
2218.523525483344,2170
2220.410030286655,2139
2222.296095514226,2158
2224.1817214435805,2152
2226.066908352319,2142
2227.951656518121,2158
2229.835966218746,2172
2231.71983773203,2168
2233.6032713358913,2182
2235.486267308324,2212
2237.3688259274036,2153
2239.2509474712824,2168
2241.132632218193,2187
2243.013880446447,2221
2244.8946924344323,2205
2246.7750684606203,2153
2248.6550088035574,2159
2250.534513741871,2154
2252.413583554265,2213
2254.292218519526,2184
2256.170418916517,2098
2258.0481850241786,2167
2259.925517121534,2154
2261.8024154876825,2123
2263.678880401803,2113
2265.5549121431536,2176
2267.430510991071,2189
2269.305677224971,2139
2271.180411124348,2066
2273.0547129687766,2107
2274.9285830379076,2138
2276.8020216114737,2142
2278.6750289692845,2046
2280.5476053912294,2122
2282.4197511572766,2103
2284.2914665474727,2176
2286.162751841943,2220
2288.0336073208937,2211
2289.904033264608,2263
2291.774029953448,2161
2293.6435976678554,2144
2295.5127366883517,2090
2297.381447295534,2080
2299.2497297700825,2027
2301.1175843927526,2001
2302.9850114443825,1985
2304.852011205885,1904
2306.7185839582553,1831
2308.5847299825664,1906
2310.4504495599676,1825
2312.3157429716925,1849
2314.1806104990483,1818
2316.0450524234247,1793
2317.9090690262888,1852
2319.772660589186,1881
2321.635827393742,1828
2323.498569721661,1842
2325.3608878547248,1780
2327.2227820747967,1859
2329.0842526638157,1871
2330.945299903803,1817
2332.805924076857,1778
2334.6661254651535,1814
2336.525904350951,1789
2338.3852610165827,1814
2340.244195744464,1832
2342.102708817088,1830
2343.9608005170253,1881
2345.8184711269287,1814
2347.675720929526,1864
2349.532550207628,1848
2351.38895924412,1806
2353.24494832197,1854
2355.100517724223,1808
2356.955667734004,1825
2358.810398634514,1832
2360.664710709037,1819
2362.5186042409337,1756
2364.3720795136437,1835
2366.225136810686,1830
2368.0777764156583,1902
2369.929998612237,1826
2371.7818036841777,1895
2373.633191915315,1894
2375.484163589562,1852
2377.3347189909114,1831
2379.184858403434,1813
2381.03458211128,1838
2382.8838903986775,1836
2384.732783549936,1871
2386.5812618494406,1822
2388.4293255816588,1872
2390.2769750311327,1840
2392.1242104824883,1829
2393.971032220427,1872
2395.8174405297295,1881
2397.6634356952563,1792
2399.509018001947,1850
2401.3541877348193,1920
2403.1989451789705,1829
2405.043290619576,1874
2406.8872243418905,1852
2408.730746631247,1819
2410.5738577730594,1864
2412.4165580528183,1911
2414.258847756095,1905
2416.100727168537,1858
2417.9421965758734,1855
2419.783256263912,1860
2421.623906518538,1862
2423.4641476257157,1887
2425.303979871491,1963
2427.143403541984,1864
2428.9824189233977,1889
2430.821026302012,1878
2432.6592259641866,1909
2434.497018196361,1878
2436.33440328505,1803
2438.171381516851,1837
2440.00795317844,1872
2441.844118556569,1855
2443.6798779380724,1902
2445.5152316098606,1876
2447.3501798589255,1933
2449.1847229723357,1925
2451.0188612372403,1863
2452.8525949408663,1878
2454.6859243705203,1865
2456.518849813587,1919
2458.3513715575314,1796
2460.183489889895,1861
2462.015205098301,1902
2463.8465174704493,1791
2465.67742729412,1844
2467.5079348571717,1908
2469.338040447542,1866
2471.1677443532476,1842
2472.9970468623833,1850
2474.825948263123,1945
2476.6544488437207,1857
2478.482548892508,1860
2480.310248697896,1865
2482.137548548374,1915
2483.9644487325118,1856
2485.790949538956,1884
2487.617051256433,1839
2489.44275417375,1858
2491.26805857979,1905
2493.0929647635157,1857
2494.917473013971,1908
2496.741583620276,1844
2498.5652968716304,1919
2500.3886130573137,1912
2502.2115324666834,1916
2504.0340553891765,1883
2505.856182114308,1900
2507.6779129316733,1905
2509.499248130945,1907
2511.3201880018764,1868
2513.140732834298,1888
2514.9608829181198,1845
2516.780638543331,1825
2518.6,1827
2520.418967578273,1895
2522.237541568376,1893
2524.0557222606144,1901
2525.8735099453706,1897
2527.6909049131086,1809
2529.507907454368,1905
2531.32451785977,1830
2533.140736420014,1938
2534.9565634258774,1925
2536.771999168218,1903
2538.5870439379714,1940
2540.4016980261526,1929
2542.2159617238544,1920
2544.02983532225,1938
2545.8433191125914,2011
2547.656413386209,1930
2549.4691184345115,1936
2551.2814345489874,1945
2553.093362021204,1962
2554.904901142808,1925
2556.716052205523,1949
2558.526815501153,1986
2560.3371913215824,1983
2562.147179958771,1966
2563.956781704761,1887
2565.7659968516705,1975
2567.5748256916986,1981
2569.3832685171224,1934
2571.1913256202984,1988
2572.9989972936614,1912
2574.806283829725,1956
2576.613185521084,2024
2578.4197026604074,1966
2580.2258355404483,1952
2582.031584454035,1979
2583.836949694077,1956
2585.6419315535613,2026
2587.4465303255533,1928
2589.2507463032002,1999
2591.0545797797245,1989
2592.8580310484303,2037
2594.6611004026995,2011
2596.463788135992,2007
2598.266094541849,2078
2600.0680199138874,2075
2601.869564545807,1997
2603.670728731383,1985
2605.4715127644704,2043
2607.2719169390048,2012
2609.071941548998,2069
2610.8715868885433,2092
2612.670853251811,2045
2614.469740933052,2005
2616.268250226594,1984
2618.0663814268455,2049
2619.864134828292,2090
2621.6615107255006,2017
2623.458509413115,2015
2625.2551311858597,1963
2627.0513763385347,1971
2628.8472451660223,1959
2630.6427379632833,1987
2632.4378550253564,2000
2634.232596647359,1976
2636.026963124488,1991
2637.8209547520187,1939
2639.6145718253065,1946
2641.407814639785,1914
2643.200683490966,1974
2644.9931786744414,1985
2646.7853004858807,1932
2648.577049221034,1947
2650.3684251757277,1951
2652.1594286458712,1932
2653.9500599274484,1919
2655.740319316525,1958
2657.5302071092437,1940
2659.3197236018286,1904
2661.10886909058,1915
2662.8976438718782,1884
2664.686048242183,1863
2666.4740824980327,1880
2668.2617469360443,1930
2670.0490418529134,1951
2671.8359675454153,1872
2673.622524310403,1860
2675.408712444811,1825
2677.1945322456495,1869
2678.979984010009,1836
2680.76506803506,1862
2682.5497846180497,1865
2684.334134056306,1792
2686.1181166472343,1904
2687.9017326883213,1825
2689.6849824771293,1802
2691.4678663113013,1809
2693.2503844885596,1774
2695.032537306705,1797
2696.8143250636167,1744
2698.5957480572542,1821
2700.3768065856534,1788
2702.1575009469316,1772
2703.937831439283,1753
2705.717798360982,1850
2707.4974020103837,1814
2709.276642685917,1805
2711.055520686095,1818
2712.834036309506,1777
2714.612189854819,1764
2716.389981620782,1813
2718.1674119062204,1778
2719.944481010041,1775
2721.721189231226,1825
2723.4975368688415,1763
2725.273524222027,1788
2727.0491515900053,1775
2728.824419272075,1780
2730.5993275676146,1693
2732.3738767760838,1784
2734.148067197016,1747
2735.921899130031,1776
2737.6953728748194,1800
2739.468488731156,1784
2741.2412469988926,1805
2743.0136479779617,1737
2744.785691968372,1792
2746.5573792702116,1710
2748.3287101836504,1728
2750.099685008934,1780
2751.870304046388,1695
2753.640567596418,1777
2755.4104759595057,1823
2757.1800294362156,1795
2758.949228327187,1690
2760.7180729331412,1750
2762.486563554877,1780
2764.254700493272,1817
2766.022484049284,1788
2767.789914523947,1754
2769.5569922183786,1732
2771.3237174337705,1774
2773.090090471394,1744
2774.8561116326036,1736
2776.6217812188274,1762
2778.3870995315756,1703
2780.1520668724356,1735
2781.9166835430747,1720
2783.6809498452394,1778
2785.444866080754,1716
2787.2084325515225,1753
2788.971649559527,1721
2790.73451740683,1719
2792.4970363955713,1774
2794.2592068279705,1712
2796.0210290063264,1781
2797.7825032330147,1733
2799.543629810493,1796
2801.304409041296,1758
2803.0648412280366,1756
2804.8249266734088,1775
2806.5846656801846,1789
2808.344058551212,1813
2810.1031055894246,1797
2811.8618070978273,1776
2813.6201633795085,1753
2815.378174737636,1723
2817.1358414754536,1739
2818.893163896285,1772
2820.6501423035334,1758
2822.4067770006814,1795
2824.1630682912883,1765
2825.9190164789957,1778
2827.6746218675207,1809
2829.429884760661,1776
2831.184805462294,1755
2832.9393842763743,1779
2834.693621506936,1770
2836.4475174580916,1758
2838.201072434034,1731
2839.954286739034,1731
2841.707160677441,1709
2843.459694553685,1736
2845.2118886722724,1747
2846.96374333779,1774
2848.7152588549034,1754
2850.4664355283567,1822
2852.217273662973,1806
2853.9677735636546,1788
2855.7179355353833,1785
2857.4677598832186,1697
2859.217246912299,1736
2860.9663969278427,1753
2862.715210235146,1720
2864.4636871395846,1727
2866.211827946614,1743
2867.9596329617652,1756
2869.7071024906536,1764
2871.4542368389684,1751
2873.20103631248,1851
2874.947501217038,1698
2876.6936318585695,1772
2878.4394285430812,1763
2880.1848915766604,1798
2881.9300212654707,1786
2883.6748179157553,1773
2885.4192818338374,1781
2887.1634133261173,1761
2888.907212699077,1840
2890.6506802592744,1793
2892.393816313348,1766
2894.1366211680142,1782
2895.8790951300693,1718
2897.621238506388,1787
2899.363051603925,1765
2901.1045347297118,1776
2902.8456881908596,1816
2904.58651229456,1761
2906.327007348081,1816
2908.067173658772,1791
2909.8070115340597,1819
2911.5465212814497,1758
2913.285703208527,1747
2915.0245576229563,1829
2916.7630848324807,1696
2918.5012851449196,1771
2920.2391588681758,1693
2921.976706310227,1783
2923.7139277791334,1812
2925.4508235830313,1804
2927.187394030137,1790
2928.923639428745,1721
2930.6595600872306,1794
2932.395156314046,1816
2934.1304284177218,1757
2935.8653767068713,1733
2937.6000014901815,1810
2939.3343030764227,1808
2941.068281774442,1783
2942.8019378931644,1769
2944.5352717415976,1790
2946.2682836288236,1780
2948.0009738640065,1804
2949.7333427563885,1828
2951.465390615289,1815
2953.1971177501086,1815
2954.9285244703265,1768
2956.6596110855,1762
2958.3903779052657,1769
2960.1208252393385,1842
2961.8509533975125,1839
2963.5807626896617,1701
2965.3102534257378,1705
2967.0394259157715,1783
2968.768280469873,1807
2970.496817398232,1738
2972.2250370111146,1798
2973.952939618869,1825
2975.6805255319196,1876
2977.4077950607707,1814
2979.134748516006,1825
2980.861386208289,1805
2982.587708448359,1862
2984.313715547037,1760
2986.039407815222,1757
2987.764785563891,1757
2989.489849104102,1747
2991.2145987469908,1817
2992.9390348037705,1766
2994.6631575857346,1767
2996.3869674042576,1748
2998.1104645707887,1740
2999.83364939686,1803
3001.5565221940783,1715
3003.2790832741334,1731
3005.0013329487924,1782
3006.7232715298996,1827
3008.4448993293804,1773
3010.166216659239,1739
3011.887223831558,1787
3013.607921158498,1834
3015.3283089522993,1824
3017.0483875252826,1829
3018.7681571898443,1803
3020.4876182584626,1806
3022.2067710436927,1780
3023.9256158581707,1723
3025.644153014609,1791
3027.362382825801,1813
3029.0803056046193,1794
3030.797921664012,1768
3032.5152313170106,1777
3034.2322348767225,1768
3035.9489326563353,1749
3037.665324969115,1796
3039.3814121284063,1811
3041.097194447633,1766
3042.812672240299,1810
3044.5278458199855,1789
3046.2427155003525,1783
3047.9572815951406,1742
3049.671544418167,1786
3051.38550428333,1724
3053.0991615046073,1781
3054.812516396051,1794
3056.5255692717974,1729
3058.2383204460575,1763
3059.9507702331257,1785
3061.662918947372,1777
3063.3747669032446,1808
3065.0863144152736,1741
3066.7975617980674,1823
3068.508509366309,1745
3070.219157434767,1757
3071.9295063182844,1748
3073.639556331785,1721
3075.3493077902704,1745
3077.058761008821,1711
3078.7679163025964,1812
3080.476773986837,1794
3082.1853343768594,1763
3083.89359778806,1808
3085.6015645359153,1828
3087.3092349359786,1844
3089.016609303884,1820
3090.7236879553434,1848
3092.4304712061476,1787
3094.136959372166,1797
3095.843152769349,1835
3097.5490517137237,1862
3099.2546565213966,1827
3100.959967508554,1756
3102.66498499146,1798
3104.3697092864577,1761
3106.0741407099695,1794
3107.778279578498,1809
3109.482126208622,1814
3111.1856809170004,1838
3112.8889440203716,1734
3114.5919158355528,1773
3116.294596679439,1835
3117.996986869006,1805
3119.6990867213062,1888
3121.4008965534726,1832
3123.102416682717,1817
3124.803647426329,1873
3126.5045891016784,1882
3128.205242026213,1828
3129.90560651746,1854
3131.605682893025,1894
3133.3054714705922,1809
3135.0049725679282,1850
3136.7041865028714,1806
3138.4031135933465,1792
3140.101754157353,1862
3141.800108512971,1830
3143.498176978357,1823
3145.1959598717494,1818
3146.8934575114636,1821
3148.5906702158954,1771
3150.2875983035183,1763
3151.9842420928853,1768
3153.680601902627,1804
3155.376678051456,1777
3157.07247085816,1838
3158.767980641609,1821
3160.463207720748,1769
3162.158152414606,1875
3163.8528150422862,1798
3165.5471959229726,1825
3167.2412953759303,1841
3168.9351137204976,1824
3170.628651276098,1813
3172.3219083622307,1787
3174.014885298474,1778
3175.707582404485,1752
3177.4000000000005,1773
3179.092138404835,1834
3180.7839979388846,1806
3182.47557892212,1774
3184.166881674594,1844
3185.8579065164386,1801
3187.5486537678626,1807
3189.2391237491547,1845
3190.9293167806827,1804
3192.6192331828934,1831
3194.3088732763117,1766
3195.998237381542,1773
3197.687325819268,1856
3199.376138910251,1789
3201.064676975334,1778
3202.7529403354347,1806
3204.4409293115523,1770
3206.1286442247647,1822
3207.816085396229,1777
3209.5032531471825,1795
3211.190147798936,1804
3212.8767696728846,1839
3214.5631190905015,1783
3216.2491963733373,1742
3217.9350018430214,1764
3219.6205358212637,1734
3221.305798629851,1781
3222.990790590651,1720
3224.6755120256103,1753
3226.359963256751,1812
3228.0441446061795,1810
3229.7280563960758,1781
3231.411698948703,1720
3233.0950725863995,1841
3234.778177631587,1708
3236.461014406761,1804
3238.1435832345005,1796
3239.8258844374595,1780
3241.507918338374,1847
3243.1896852600576,1781
3244.8711855254023,1801
3246.552419457381,1852
3248.233387379042,1756
3249.914089613516,1831
3251.59452648401,1780
3253.274698313813,1748
3254.95460542629,1764
3256.6342481448855,1717
3258.313626793125,1744
3259.9927416946084,1717
3261.6715931730196,1743
3263.3501815521176,1749
3265.0285071557437,1702
3266.706570307815,1681
3268.3843713323286,1725
3270.0619105533615,1699
3271.739188295068,1752
3273.4162048816834,1777
3275.0929606375184,1770
3276.769455886966,1781
3278.445690954498,1821
3280.1216661646613,1761
3281.797381842087,1810
3283.4728383114807,1844
3285.1480358976296,1782
3286.8229749253996,1786
3288.4976557197333,1758
3290.172078605655,1753
3291.846243908266,1738
3293.5201519527463,1726
3295.193803064357,1730
3296.8671975684374,1776
3298.5403357904024,1713
3300.21321805575,1731
3301.8858446900567,1816
3303.558216018975,1799
3305.23033236824,1826
3306.9021940636603,1740
3308.57380143113,1810
3310.2451547966184,1805
3311.916254486174,1755
3313.5871008259246,1797
3315.2576941420766,1769
3316.9280347609147,1768
3318.5981230088046,1819
3320.2679592121895,1757
3321.9375436975924,1745
3323.606876791612,1730
3325.27595882093,1747
3326.944790112305,1725
3328.6133709925753,1721
3330.2817017886573,1666
3331.949782827547,1687
3333.617614436319,1687
3335.2851969421245,1765
3336.952530672199,1722
3338.619615953853,1729
3340.286453114475,1713
3341.9530424815357,1763
3343.619384382583,1683
3345.2854791452437,1747
3346.951327097224,1788
3348.6169285663073,1753
3350.2822838803577,1708
3351.947393367319,1756
3353.61225735521,1729
3355.2768761721345,1764
3356.9412501462693,1753
3358.605379605873,1740
3360.2692648792827,1686
3361.9329062949146,1714
3363.596304181263,1669
