CollectionTime,7/9/2024 4:10:16 PM
ExposureUsed,3
CalibratedSpectrum
-962.7078968117929,509
-959.9714848408522,526
-957.2358232597828,555
-954.5009119013725,555
-951.7667505983302,489
-949.0333391832855,555
-946.3006774887896,530
-943.5687653473143,552
-940.837602591253,529
-938.1071890529199,532
-935.3775245645503,540
-932.6486089583007,542
-929.9204420662485,548
-927.1930237203925,553
-924.4663537526524,542
-921.7404319948689,567
-919.0152582788041,581
-916.2908324361409,637
-913.5671542984834,593
-910.8442236973568,530
-908.1220404642074,572
-905.4006044304027,600
-902.679915427231,577
-899.959973285902,571
-897.2407778375464,556
-894.5223289132158,556
-891.8046263438832,543
-889.0876699604426,546
-886.3714595937089,537
-883.6559950744183,533
-880.9412762332282,540
-878.2273029007168,539
-875.5140749073835,549
-872.8015920836489,566
-870.0898542598545,560
-867.3788612662631,525
-864.6686129330585,552
-861.9591090903457,577
-859.2503495681506,594
-856.5423341964203,558
-853.8350628050229,530
-851.1285352237478,527
-848.4227512823054,582
-845.7177108103272,557
-843.0134136373656,559
-840.3098595928943,570
-837.6070485063082,612
-834.9049802069229,584
-832.2036545239757,581
-829.5030712866244,545
-826.8032303239481,571
-824.1041314649472,561
-821.4057745385428,572
-818.7081593735775,590
-816.0112857988148,559
-813.3151536429393,546
-810.6197627345566,572
-807.9251129021936,569
-805.2312039742981,553
-802.5380357792392,605
-799.8456081453069,589
-797.1539209007124,576
-794.462973873588,601
-791.772766891987,650
-789.083299783884,618
-786.3945723771743,557
-783.7065844996748,573
-781.0193359791231,555
-778.3328266431781,546
-775.6470563194197,563
-772.9620248353489,559
-770.2777320183878,570
-767.5941776958798,573
-764.9113616950891,569
-762.2292838432011,584
-759.5479439673222,567
-756.8673418944801,584
-754.1874774516235,616
-751.5083504656222,597
-748.8299607632671,609
-746.15230817127,575
-743.475392516264,575
-740.7992136248035,618
-738.1237713233636,604
-735.4490654383407,605
-732.7750957960521,617
-730.1018622227365,618
-727.4293645445534,600
-724.7576025875837,582
-722.0865761778291,626
-719.4162851412126,628
-716.7467293035781,628
-714.0779084906909,600
-711.409822528237,626
-708.7424712418238,598
-706.0758544569796,608
-703.4099719991541,641
-700.7448236937178,641
-698.0804093659622,622
-695.4167288411002,606
-692.7537819442656,622
-690.0915685005134,633
-687.4300883348199,607
-684.7693412720819,617
-682.1093271371178,608
-679.4500457546669,606
-676.7914969493897,628
-674.1336805458676,633
-671.4765963686034,626
-668.8202442420206,645
-666.1646239904642,636
-663.5097354382001,659
-660.8555784094151,640
-658.2021527282176,619
-655.5494582186366,638
-652.8974947046223,653
-650.2462620100463,638
-647.5957599587009,632
-644.9459883742998,654
-642.2969470804776,633
-639.6486359007902,620
-637.0010546587141,673
-634.3542031776476,672
-631.7080812809096,670
-629.0626887917401,688
-626.4180255333008,671
-623.7740913286734,689
-621.1308860008619,724
-618.4884093727904,705
-615.8466612673046,677
-613.2056415071715,614
-610.5653499150785,709
-607.9257863136347,703
-605.28695052537,707
-602.6488423727357,696
-600.0114616781036,660
-597.3748082637674,672
-594.7388819519412,738
-592.1036825647604,747
-589.4692099242818,769
-586.8354638524829,787
-584.2024441712624,729
-581.5701507024403,759
-578.9385832677575,692
-576.3077416888759,742
-573.6776257873787,727
-571.0482353847704,693
-568.4195703024757,667
-565.7916303618415,676
-563.164415384135,695
-560.5379251905453,715
-557.9121596021815,759
-555.2871184400748,733
-552.6628015251767,727
-550.0392086783606,760
-547.4163397204204,740
-544.794194472071,770
-542.1727727539491,738
-539.5520743866118,769
-536.9320991905377,796
-534.3128469861261,857
-531.6943175936979,857
-529.0765108334947,840
-526.4594265256793,908
-523.8430644903358,1007
-521.2274245474689,1161
-518.612506517005,1197
-515.9983102187913,1232
-513.3848354725959,1181
-510.77208209810846,1180
-508.16004991493924,1311
-505.5487387426199,1404
-502.9381484006032,1557
-500.3282787082628,1675
-497.71912948489364,1844
-495.1107005497117,1720
-492.5029917218539,1585
-489.8960028203786,1488
-487.28973366426493,1289
-484.68418407241325,1202
-482.07935386364494,1077
-479.47524285670266,1037
-476.87185087025,951
-474.2691777228715,966
-471.66722323307334,983
-469.0659872192821,927
-466.4654694998459,961
-463.86566989303384,916
-461.26658821703614,950
-458.66822428996414,920
-456.07057792985,904
-453.4736489546475,889
-450.877437182231,911
-448.28194243039627,901
-445.68716451686,891
-443.09310325926003,914
-440.49975847515555,900
-437.9071299820263,887
-435.31521759727354,880
-432.72402113821954,955
-430.13354042210767,989
-427.5437752661022,965
-424.95472548728867,961
-422.36639090267386,969
-419.7787713291855,984
-417.1918665836721,1081
-414.60567648290385,1110
-412.0202008435715,961
-409.4354394822874,1017
-406.8513922155845,1095
-404.26805885991723,1052
-401.685439231661,1050
-399.103533147112,1060
-396.522340422488,1050
-393.9418608739278,992
-391.3620943174908,1008
-388.7830405691583,947
-386.2046994448317,942
-383.6270707603344,920
-381.05015433141045,873
-378.473949973725,840
-375.8984575028645,790
-373.32367673433623,715
-370.74960748356875,674
-368.1762495659117,667
-365.60360279663576,677
-363.03166699093265,622
-360.4604419639154,559
-357.8899275306178,572
-355.32012350599507,547
-352.7510297049233,539
-350.1826459421999,499
-347.61497203254316,479
-345.04800779059235,525
-342.4817530309082,526
-339.91620756797226,561
-337.35137121618743,585
-334.7872437898774,557
-332.22382510328725,539
-329.66111497058273,567
-327.09911320585127,539
-324.53781962310075,587
-321.9772340362607,583
-319.4173562591816,504
-316.8581861056348,540
-314.2997233893127,559
-311.7419679238294,520
-309.1849195227194,549
-306.62857799943856,615
-304.0729431673641,671
-301.51801483979375,632
-298.963792829947,619
-296.41027695096386,650
-293.85746701590574,684
-291.3053628377552,664
-288.7539642294155,734
-286.2032710037115,635
-283.65328297338897,579
-281.1039999511146,648
-278.5554217494762,658
-276.007548180983,663
-273.4603790580651,644
-270.9139141930734,635
-268.3681533982807,583
-265.8230964858798,653
-263.27874326798565,704
-260.7350935566336,699
-258.1921471637804,727
-255.6499039013039,696
-253.10836358100266,708
-250.56752601459698,673
-248.02739101372765,673
-245.48795838995704,744
-242.94922795476816,699
-240.41119951956557,723
-237.8738728956746,785
-235.33724789434166,854
-232.80132432673452,752
-230.2661020039418,738
-227.73158073697357,767
-225.19776033676033,805
-222.66464061415422,787
-220.1322213799284,746
-217.60050244477725,721
-215.06948361931552,721
-212.53916471408013,772
-210.00954553952818,905
-207.48062590603843,804
-204.9524056239104,805
-202.4248845033651,915
-199.8980623545441,917
-197.37193898751036,863
-194.84651421224817,880
-192.32178783866232,926
-189.79775967657952,931
-187.27442953574644,949
-184.7517972258321,964
-182.2298625564256,965
-179.7086253370378,900
-177.18808537710026,821
-174.66824248596583,925
-172.14909647290835,1024
-169.6306471471229,969
-167.11289431772548,1063
-164.59583779375328,1013
-162.07947738416453,987
-159.5638128978386,1118
-157.04884414357605,1185
-154.53457093009854,1419
-152.02099306604828,1214
-149.50811035998936,963
-146.99592262040665,1025
-144.48442965570587,1243
-141.97363127421409,1177
-139.46352728417958,1272
-136.95411749377126,1417
-134.44540171107985,1337
-131.93737974411636,1142
-129.43005140081357,1269
-126.92341648902493,1633
-124.41747481652521,2003
-121.91222619101006,2414
-119.40767042009657,3272
-116.90380731132257,3825
-114.40063667214702,3564
-111.8981583099503,2840
-109.3963720320337,2186
-106.89527764561933,2060
-104.39487495785067,2213
-101.89516377579241,2774
-99.39614390642998,4112
-96.89781515667039,4592
-94.40017733334128,4021
-91.90323024319173,3924
-89.40697369289148,5540
-86.91140748903172,8153
-84.41653143812482,7772
-81.92234534660395,5733
-79.42884902082358,4693
-76.93604226705907,8109
-74.4439248915071,15686
-71.95249670028534,23722
-69.46175749943245,25924
-66.97170709490854,23815
-64.48234529259423,19917
-61.99367189829195,16887
-59.50568671772464,13246
-57.01838955653636,9052
-54.53178022029283,7186
-52.045858514480074,7217
-49.560624244506016,7348
-47.07607721569923,8455
-44.59221723330904,8579
-42.10904410250669,8151
-39.62655762838392,8024
-37.14475761595372,7673
-34.66364387015028,8500
-32.18321619582866,9041
-29.70347439776515,9477
-27.224418280657005,12002
-24.74604764912317,14282
-22.26836230770266,19371
-19.7913620608565,35055
-17.315046712966478,63055
-14.83941606833514,65036
-12.36446993118659,65036
-9.89020810566592,65036
-7.416630395839093,65036
-4.94373660569363,65036
-2.471526539137585,65036
-6.821210263296962E-13,65036
2.47084320796705,65036
4.941003281093458,65036
7.410480415786196,65036
9.879274808531363,65036
12.347386655893956,65036
14.814816154518212,65036
17.28156350112681,65036
19.74762889252179,65036
22.21301252558385,65036
24.67771459727237,21141
27.141735304626195,4944
29.605074844762612,3275
32.06773341487792,2542
34.52971121224755,2690
36.99100843422559,2574
39.45162527824516,2560
41.91156194181792,2676
44.370818622535126,2304
46.82939551806646,1831
49.287292826160524,1845
51.74451074464503,1751
54.201049471426245,1519
56.65690920448981,1650
59.112090141899785,1580
61.56659248179983,1348
64.02041642241159,1253
66.4735621620365,1152
68.92602989905402,1194
71.37781983192338,1259
73.82893215918205,1356
76.27936707944684,1614
78.72912479141326,1643
81.17820549385567,1759
83.62660938562783,1654
86.07433666566146,1230
88.5213875329681,1034
90.96776218663751,1099
93.41346082583925,1005
95.85848364982041,1151
98.30283085790859,1366
100.7465026495089,1505
103.18949922410604,1354
105.63182078126385,1239
108.07346752062438,1292
110.51443964190923,1145
112.95473734491827,1243
115.39436082953114,1275
117.83331029570547,1288
120.27158594347827,1183
122.7091879729652,1242
125.1461165843615,1473
127.58237197794062,1470
130.01795435405518,1243
132.4528639131364,1187
134.88710085569494,1205
137.32066538231982,1071
139.75355769367923,1000
142.1857779905207,1018
144.61732647366978,1019
147.04820334403132,998
149.47840880258934,1006
151.90794305040674,1117
154.33680628862487,1260
156.76499871846443,1393
159.19252054122433,1540
161.61937195828352,1640
164.04555317109896,1810
166.47106438120693,1948
168.89590579022217,2089
171.320077599839,2095
173.7435800118302,2281
176.16641322804742,2420
178.58857745042144,2568
181.01007288096173,2751
183.43089972175687,2757
185.85105817497413,2735
188.27054844285988,2671
190.6893707277394,2641
193.10752523201643,2557
195.5250121581745,2698
197.9418317087751,2792
200.3579840864594,2781
202.7734694939469,2763
205.18828813403627,2844
207.6024402096051,2891
210.01592592360964,2968
212.42874547908548,2946
214.84089907914665,2930
217.2523869269868,2880
219.66320922587727,2667
222.0733661791695,2669
224.48285799029293,2803
226.8916848627572,2692
229.29984700014882,2815
231.7073446061355,2914
234.11417788446204,2880
236.520347038953,2766
238.92585227351185,2825
241.33069379212054,2803
243.73487179884035,2861
246.1383864978112,2858
248.541238093252,2891
250.9434267894609,2864
253.34495279081432,2811
255.74581630176783,2839
258.1460175268563,2777
260.54555667069314,2921
262.9444339379703,2855
265.3426495334594,2925
267.7402036620107,2930
270.1370965285529,2907
272.53332833809407,2882
274.9288992957214,2829
277.32380960660055,2720
279.718059475976,2847
282.1116491091717,2823
284.5045787115897,2910
286.89684848871195,2865
289.2884586460981,2888
291.67940938938807,2881
294.0697009242996,2914
296.4593334566299,2860
298.84830719225477,2745
301.23662233712923,2733
303.6242790972866,2807
306.01127767884,2675
308.39761828798066,2765
310.78330113097934,2799
313.16832641418534,2728
315.5526943440269,2544
317.9364051270112,2604
320.3194589697242,2607
322.70185607883093,2631
325.0835966610754,2593
327.4646809232805,2540
329.8451090723478,2579
332.2248813152577,2518
334.6039978590701,2491
336.9824589109231,2484
339.36026467803447,2498
341.7374153677,2463
344.113911187295,2386
346.48975234427337,2454
348.8649390461686,2397
351.2394715005918,2443
353.61334991523415,2500
355.9865744978655,2398
358.35914545633375,2428
360.73106299856715,2453
363.10232733257146,2375
365.47293866643247,2407
367.84289720831396,2365
370.2122031664593,2317
372.5808567491905,2329
374.9488581649083,2341
377.31620762209275,2304
379.6829053293021,2256
382.0489514951745,2271
384.4143463284262,2293
386.7790900378528,2343
389.14318283232853,2316
391.50662492080653,2274
393.86941651231916,2376
396.23155781597745,2446
398.5930490409713,2291
400.9538903965696,2283
403.3140820921202,2245
405.6736243370498,2227
408.03251734086336,2245
410.3907613131465,2183
412.74835646356166,2175
415.10530300185144,2238
417.4616011378372,2220
419.81725108141893,2177
422.1722530425758,2214
424.5266072313656,2158
426.880313857925,2137
429.2333731324701,2229
431.58578526529516,2134
433.9375504667738,2198
436.2886689473588,2198
438.63914091758113,2185
440.9889665880513,2129
443.33814616945835,2056
445.68667987257015,2080
448.03456790823395,2123
450.3818104873759,2192
452.72840782100013,2153
455.07436012019105,2118
457.41966759611057,2071
459.7643304600007,2153
462.10834892318155,2144
464.4517231970525,2163
466.79445349309174,2149
469.1365400228566,2149
471.4779829979826,2193
473.81878263018564,2195
476.15893913125876,2187
478.4984527130747,2336
480.8373235875855,2346
483.17555196682144,2502
485.5131380628919,2480
487.8500820879857,2604
490.1863842543697,2798
492.52204477439034,2981
494.8570638604725,3480
497.1914417251204,3740
499.52517858091653,3941
501.85827464052306,3976
504.19073011668036,3832
506.5225452222086,3742
508.85372017000566,3570
511.18425517304956,3595
513.514150444396,3872
515.8434061971808,4760
518.1720226446176,5882
520.4999999999999,6265
522.8273384766991,5857
525.1540382881666,5256
527.480099647932,4601
529.8055227696037,3688
532.1303078668694,3079
534.454455153496,2670
536.777964843328,2499
539.1008371502907,2361
541.4230722883866,2275
543.744670471698,2225
546.0656319143858,2316
548.3859568306899,2265
550.7056454349294,2303
553.0246979415016,2210
555.3431145648834,2293
557.6608955196306,2189
559.978041020377,2154
562.2945512818363,2247
564.6104265188006,2267
566.9256669461412,2238
569.2402727788082,2248
571.5542442318302,2353
573.8675815203156,2263
576.1802848594508,2292
578.4923544645015,2411
580.8037905508126,2250
583.114593333807,2307
585.4247630289875,2345
587.7342998519354,2236
590.0432040183106,2259
592.3514757438526,2343
594.6591152443794,2309
596.9661227357875,2282
599.2724984340531,2264
601.578242555231,2327
603.8833553154542,2306
606.1878369309362,2265
608.4916876179676,2196
610.7949075929192,2206
613.0974970722403,2298
615.3994562724587,2284
617.7007854101818,2193
620.0014847020951,2248
622.3015543649641,2263
624.6009946156324,2187
626.8998056710224,2330
629.1979877481361,2187
631.4955410640538,2294
633.7924658359349,2267
636.0887622810175,2304
638.3844306166192,2274
640.6794710601358,2209
642.9738838290426,2219
645.2676691408932,2308
647.5608272133207,2248
649.853358264037,2346
652.1452625108324,2284
654.4365401715764,2297
656.7271914642178,2286
659.0172166067838,2306
661.3066158173809,2296
663.5953893141935,2257
665.8835373154867,2252
668.1710600396028,2292
670.4579577049639,2197
672.7442305300709,2239
675.0298787335033,2236
677.3149025339197,2265
679.599302150058,2330
681.8830778007342,2278
684.1662297048437,2209
686.4487580813608,2198
688.7306631493387,2288
691.0119451279091,2258
693.2926042362834,2313
695.5726406937516,2262
697.8520547196814,2298
700.1308465335215,2172
702.4090163547982,2245
704.6865644031171,2122
706.9634908981619,2200
709.2397960596965,2234
711.5154801075631,2224
713.7905432616823,2167
716.0649857420548,2273
718.3388077687592,2272
720.612009561953,2246
722.8845913418733,2294
725.1565533288352,2322
727.427895743234,2208
729.6986188055427,2317
731.9687227363137,2222
734.238207756178,2272
736.5070740858458,2262
738.7753219461066,2277
741.0429515578281,2182
743.3099631419569,2303
745.5763569195191,2419
747.8421331116193,2223
750.1072919394409,2253
752.3718336242467,2260
754.6357583873777,2237
756.8990664502545,2253
759.1617580343765,2256
761.423833361321,2249
763.6852926527457,2251
765.9461361303862,2238
768.206364016058,2375
770.4659765316536,2271
772.7249738991469,2319
774.9833563405886,2361
777.2411240781092,2315
779.4982773339183,2273
781.7548163303044,2281
784.010741289634,2307
786.2660524343538,2402
788.5207499869881,2271
790.7748341701416,2352
793.0283052064964,2329
795.2811633188143,2360
797.5334087299362,2351
799.7850416627813,2319
802.0360623403484,2312
804.2864709857143,2258
806.5362678220353,2357
808.7854530725468,2387
811.0340269605625,2387
813.2819897094754,2309
815.5293415427581,2388
817.77608268396,2332
820.0222133567116,2323
822.2677337847211,2282
824.5126441917765,2286
826.7569448017433,2338
829.0006358385675,2308
831.2437175262731,2316
833.4861900889629,2256
835.7280537508192,2284
837.9693087361026,2393
840.2099552691533,2272
842.4499935743896,2320
844.689423876309,2229
846.9282463994886,2321
849.1664613685833,2359
851.4040690083276,2329
853.6410695435349,2319
855.877463199097,2264
858.1132501999847,2222
860.3484307712487,2290
862.5830051380175,2260
864.8169735254988,2320
867.0503361589791,2380
869.2830932638243,2368
871.5152450654786,2368
873.7467917894654,2437
875.9777336613873,2439
878.2080709069252,2320
880.4378037518389,2416
882.666932421968,2342
884.8954571432301,2397
887.1233781416219,2460
889.3506956432192,2480
891.5774098741766,2407
893.803521060728,2369
896.0290294291852,2366
898.2539352059397,2390
900.4782386174619,2368
902.7019398903011,2331
904.925039251085,2392
907.147536926521,2370
909.3694331433943,2292
911.59072812857,2288
913.8114221089921,2334
916.0315153116827,2308
918.2510079637437,2312
920.4699002923547,2268
922.6881925247761,2309
924.905884888345,2267
927.1229776104793,2247
929.3394709186747,2258
931.555365040506,2262
933.7706602036275,2196
935.9853566357709,2329
938.1994545647489,2240
940.4129542184515,2349
942.6258558248488,2281
944.8381596119883,2238
947.0498658079974,2234
949.2609746410825,2317
951.4714863395287,2261
953.6814011316998,2243
955.8907192460387,2240
958.0994409110671,2131
960.3075663553858,2160
962.5150958076741,2193
964.7220294966913,2228
966.928367651274,2161
969.1341105003388,2204
971.3392582728806,2105
973.5438111979742,2165
975.747769504772,2237
977.9511334225061,2116
980.153903180487,2077
982.3560790081052,2065
984.5576611348289,2109
986.7586497902058,2035
988.9590452038618,2106
991.158847605503,2101
993.3580572249133,2112
995.5566742919558,2095
997.7546990365728,2075
999.952131688785,1939
1002.1489724786926,2034
1004.3452216364743,1929
1006.5408793923874,1847
1008.7359459767691,1952
1010.9304216200343,1888
1013.1243065526781,1882
1015.3176010052733,1910
1017.510305208472,1937
1019.7024193930064,1885
1021.8939437896848,1850
1024.0848786293977,1921
1026.2752241431122,1847
1028.4649805618747,1882
1030.6541481168115,1829
1032.842727039127,1894
1035.0307175601051,1842
1037.2181199111074,1803
1039.4049343235752,1759
1041.591161029029,1730
1043.7768002590683,1864
1045.9618522453698,1770
1048.1463172196918,1805
1050.3301954138697,1779
1052.513487059818,1789
1054.69619238953,1794
1056.8783116350783,1755
1059.0598450286152,1821
1061.2407928023704,1799
1063.4211551886528,1749
1065.6009324198508,1765
1067.780124728432,1769
1069.9587323469414,1778
1072.1367555080046,1817
1074.314194444325,1789
1076.4910493886855,1777
1078.667320573947,1801
1080.843008233051,1737
1083.0181125990161,1745
1085.1926339049414,1762
1087.3665723840027,1669
1089.5399282694575,1687
1091.7127017946405,1796
1093.8848931929647,1736
1096.0565026979243,1731
1098.2275305430899,1738
1100.3979769621128,1717
1102.567842188722,1688
1104.737126456726,1706
1106.9058300000124,1692
1109.0739530525475,1787
1111.2414958483764,1749
1113.4084586216231,1710
1115.5748416064907,1728
1117.7406450372605,1709
1119.9058691482942,1672
1122.0705141740304,1723
1124.2345803489884,1702
1126.3980679077658,1669
1128.5609770850388,1659
1130.7233081155623,1678
1132.8850612341707,1677
1135.0462366757774,1659
1137.2068346753745,1714
1139.3668554680326,1711
1141.526299288901,1644
1143.68516637321,1622
1145.8434569562655,1641
1148.001171273455,1731
1150.158309560244,1706
1152.3148720521767,1667
1154.470858984876,1630
1156.626270594044,1679
1158.7811071154629,1667
1160.9353687849912,1675
1163.089055838569,1636
1165.242168512213,1707
1167.3947070420209,1612
1169.5466716641677,1670
1171.6980626149075,1644
1173.8488801305748,1597
1175.9991244475814,1658
1178.1487958024186,1630
1180.2978944316555,1661
1182.4464205719428,1653
1184.5943744600072,1702
1186.7417563326567,1673
1188.8885664267755,1659
1191.0348049793297,1579
1193.1804722273619,1573
1195.325568407995,1609
1197.4700937584303,1591
1199.614048515948,1656
1201.7574329179074,1615
1203.900247201746,1605
1206.042491604982,1625
1208.1841663652099,1643
1210.3252717201053,1631
1212.465807907422,1639
1214.6057751649923,1601
1216.7451737307279,1622
1218.8840038426192,1588
1221.0222657387353,1686
1223.1599596572241,1629
1225.2970858363137,1663
1227.4336445143094,1700
1229.5696359295966,1701
1231.705060320639,1650
1233.8399179259786,1710
1235.9742089842384,1743
1238.107933734118,1734
1240.2410924143974,1749
1242.373685263935,1735
1244.5057125216676,1768
1246.6371744266116,1692
1248.7680712178621,1659
1250.898403134593,1693
1253.028170416058,1686
1255.1573733015875,1660
1257.2860120305932,1670
1259.4140868425648,1716
1261.54159797707,1672
1263.6685456737569,1684
1265.7949301723515,1673
1267.9207517126597,1704
1270.046010534565,1713
1272.1707068780306,1727
1274.2948409830983,1651
1276.4184130898889,1694
1278.541423438603,1734
1280.6638722695184,1663
1282.785759822993,1683
1284.9070863394636,1740
1287.0278520594447,1743
1289.1480572235314,1782
1291.2677020723963,1700
1293.3867868467923,1750
1295.5053117875495,1735
1297.623277135579,1769
1299.740683131868,1810
1301.8575300174857,1724
1303.973818033578,1773
1306.0895474213703,1754
1308.2047184221678,1867
1310.3193312773528,1778
1312.4333862283888,1765
1314.5468835168163,1766
1316.659823384255,1796
1318.7722060724045,1739
1320.8840318230418,1741
1322.9953008780249,1734
1325.1060134792888,1856
1327.2161698688478,1817
1329.3257702887959,1856
1331.4348149813054,1846
1333.5433041886276,1814
1335.6512381530933,1808
1337.7586171171101,1791
1339.8654413231675,1786
1341.9717110138317,1831
1344.0774264317488,1775
1346.1825878196432,1763
1348.2871954203192,1838
1350.3912494766587,1766
1352.4947502316231,1787
1354.5976979282532,1788
1356.7000928096686,1796
1358.8019351190665,1720
1360.9032250997243,1860
1363.0039629949988,1741
1365.1041490483235,1743
1367.2037835032133,1708
1369.3028666032606,1788
1371.401398592137,1745
1373.4993797135926,1803
1375.5968102114575,1757
1377.6936903296396,1752
1379.7900203121262,1783
1381.8858004029835,1852
1383.9810308463561,1830
1386.075711886469,1762
1388.1698437676241,1775
1390.2634267342032,1832
1392.356461030667,1779
1394.4489469015557,1863
1396.5408845914872,1842
1398.6322743451592,1793
1400.7231164073469,1809
1402.813411022907,1837
1404.903158436773,1815
1406.9923588939578,1861
1409.0810126395531,1892
1411.1691199187303,1846
1413.2566809767386,1814
1415.343696058907,1881
1417.4301654106425,1851
1419.5160892774315,1834
1421.6014679048399,1827
1423.6863015385125,1874
1425.7705904241707,1809
1427.8543348076178,1889
1429.9375349347342,1808
1432.0201910514802,1916
1434.102303403894,1848
1436.1838722380944,1895
1438.2648978002767,1845
1440.3453803367174,1956
1442.4253200937692,1854
1444.5047173178677,1896
1446.5835722555234,1876
1448.6618851533285,1921
1450.739656257952,2005
1452.8168858161434,1938
1454.8935740747306,1964
1456.96972128062,1968
1459.045327680797,1990
1461.120393522327,1941
1463.1949190523528,1995
1465.2689045180973,2046
1467.3423501668608,2100
1469.415256246024,2061
1471.4876230030463,1967
1473.559450685465,2094
1475.6307395408976,2099
1477.7014898170391,2093
1479.771701761665,2132
1481.8413756226287,2126
1483.9105116478618,2107
1485.9791100853772,2154
1488.0471711832643,2174
1490.1146951896926,2154
1492.1816823529098,2244
1494.2481329212433,2244
1496.3140471430984,2253
1498.3794252669609,2237
1500.4442675413939,2208
1502.5085742150404,2327
1504.572345536622,2310
1506.6355817549388,2289
1508.6982831188702,2311
1510.7604498773744,2341
1512.8220822794883,2305
1514.8831805743293,2376
1516.9437450110909,2437
1519.003775839048,2435
1521.0632733075522,2450
1523.1222376660367,2475
1525.1806691640113,2507
1527.2385680510652,2529
1529.2959345768668,2557
1531.3527689911643,2626
1533.4090715437833,2692
1535.4648424846291,2754
1537.5200820636855,2738
1539.5747905310159,2801
1541.6289681367616,2775
1543.6826151311434,2770
1545.7357317644614,2837
1547.7883182870937,2913
1549.8403749494987,2899
1551.8919020022113,2917
1553.9428996958477,3001
1555.9933682811015,3050
1558.0433080087469,3092
1560.0927191296346,3171
1562.1416018946961,3183
1564.1899565549415,3137
1566.2377833614592,3232
1568.2850825654164,3281
1570.3318544180606,3092
1572.3780991707158,3040
1574.423817074788,3012
1576.4690083817595,2877
1578.5136733431923,2831
1580.5578122107272,2705
1582.601425236085,2622
1584.6445126710646,2543
1586.6870747675434,2511
1588.7291117774776,2451
1590.7706239529034,2342
1592.8116115459347,2240
1594.8520748087658,2221
1596.8920139936686,2255
1598.9314293529933,2159
1600.9703211391711,2065
1603.008689604711,2113
1605.0465350022005,2036
1607.0838575843068,2060
1609.1206576037753,1979
1611.1569353134305,1989
1613.1926909661765,1965
1615.2279248149953,1949
1617.2626371129481,1881
1619.2968281131757,1889
1621.3304980688963,1900
1623.3636472334088,1870
1625.39627586009,1850
1627.428384202396,1902
1629.459972513861,1835
1631.4910410480993,1841
1633.5215900588028,1809
1635.551619799744,1834
1637.5811305247717,1827
1639.6101224878166,1845
1641.6385959428862,1768
1643.6665511440683,1760
1645.693988345528,1814
1647.7209078015112,1795
1649.7473097663405,1706
1651.7731944944203,1798
1653.7985622402307,1819
1655.823413258333,1750
1657.847747803366,1778
1659.8715661300494,1815
1661.8948684931793,1880
1663.9176551476316,1798
1665.9399263483624,1814
1667.9616823504057,1818
1669.982923408873,1833
1672.0036497789574,1776
1674.0238617159293,1766
1676.043559475138,1729
1678.0627433120121,1815
1680.081413482059,1740
1682.0995702408654,1695
1684.117213844096,1798
1686.134344547495,1818
1688.1509626068864,1778
1690.1670682781705,1727
1692.182661817329,1774
1694.1977434804217,1765
1696.2123135235875,1848
1698.226372203043,1780
1700.2399197750851,1791
1702.2529564960905,1829
1704.2654826225112,1819
1706.277498410882,1872
1708.2890041178139,1724
1710.2999999999988,1800
1712.3104863142066,1790
1714.3204633172854,1739
1716.329931266163,1738
1718.3388904178469,1816
1720.3473410294214,1687
1722.3552833580516,1740
1724.3627176609807,1802
1726.3696441955308,1804
1728.3760632191033,1875
1730.3819749891782,1752
1732.3873797633146,1738
1734.3922777991502,1774
1736.3966693544012,1699
1738.4005546868639,1816
1740.4039340544127,1771
1742.406807715001,1830
1744.4091759266616,1765
1746.4110389475054,1769
1748.4123970357223,1797
1750.413250449582,1763
1752.4135994474318,1717
1754.4134442876993,1772
1756.4127852288902,1774
1758.4116225295893,1750
1760.4099564484595,1803
1762.407787244244,1691
1764.405115175764,1816
1766.4019405019203,1698
1768.3982634816916,1696
1770.3940843741357,1716
1772.3894034383907,1779
1774.3842209336717,1776
1776.378537119274,1755
1778.372352254571,1699
1780.3656665990156,1736
1782.3584804121397,1733
1784.3507939535534,1693
1786.3426074829463,1701
1788.3339212600863,1767
1790.3247355448211,1770
1792.3150505970766,1689
1794.3048666768573,1783
1796.2941840442477,1761
1798.2830029594106,1712
1800.2713236825884,1736
1802.2591464741004,1689
1804.2464715943465,1741
1806.2332993038058,1768
1808.2196298630352,1676
1810.2054635326708,1739
1812.190800573428,1692
1814.175641246101,1692
1816.1599858115628,1755
1818.1438345307652,1741
1820.127187664738,1741
1822.1100454745924,1769
1824.092408221516,1793
1826.0742761667766,1724
1828.055649571721,1700
1830.0365286977735,1704
1832.0169138064398,1710
1833.9968051593014,1679
1835.9762030180214,1704
1837.9551076443408,1776
1839.9335193000788,1710
1841.9114382471344,1712
1843.888864747485,1713
1845.8657990631878,1662
1847.842241456378,1730
1849.8181921892697,1713
1851.7936515241558,1632
1853.7686197234098,1615
1855.7430970494815,1668
1857.7170837649014,1660
1859.6905801322787,1712
1861.6635864143004,1648
1863.6361028737338,1691
1865.608129773424,1678
1867.5796673762961,1669
1869.5507159453537,1659
1871.521275743678,1678
1873.4913470344313,1690
1875.4609300808534,1668
1877.4300251462632,1658
1879.3986324940588,1705
1881.366752387717,1747
1883.3343850907936,1745
1885.3015308669228,1692
1887.268189979819,1711
1889.2343626932739,1678
1891.2000492711595,1715
1893.1652499774254,1694
1895.1299650761011,1659
1897.0941948312952,1698
1899.0579395071945,1685
1901.0211993680641,1711
1902.98397467825,1663
1904.9462657021745,1659
1906.9080727043415,1705
1908.869395949332,1670
1910.8302357018065,1801
1912.790592226504,1697
1914.7504657882428,1692
1916.7098566519212,1651
1918.6687650825133,1640
1920.6271913450764,1690
1922.5851357047422,1670
1924.5425984267245,1606
1926.499579776314,1703
1928.4560800188833,1703
1930.4120994198802,1719
1932.367638244833,1674
1934.32269675935,1632
1936.2772752291175,1682
1938.231373919899,1728
1940.1849930975404,1684
1942.1381330279637,1685
1944.0907939771696,1655
1946.0429762112412,1660
1947.9946799963363,1651
1949.9459055986945,1661
1951.896653284633,1711
1953.8469233205478,1672
1955.7967159729142,1684
1957.7460315082863,1669
1959.6948701932974,1647
1961.6432322946594,1639
1963.5911180791632,1699
1965.5385278136787,1647
1967.4854617651545,1641
1969.4319202006182,1695
1971.377903387176,1674
1973.3234115920136,1644
1975.268445082395,1633
1977.2130041256642,1642
1979.1570889892423,1679
1981.1006999406304,1670
1983.04383724741,1715
1984.986501177238,1645
1986.928691997853,1618
1988.8704099770712,1613
1990.811655382789,1635
1992.7524284829801,1653
1994.692729545698,1681
1996.6325588390755,1675
1998.5719166313224,1742
2000.5108031907307,1572
2002.4492187856677,1624
2004.387163684583,1671
2006.3246381560011,1658
2008.2616424685298,1633
2010.1981768908527,1659
2012.1342416917332,1666
2014.069837140014,1662
2016.0049635046162,1634
2017.9396210545406,1607
2019.8738100588666,1603
2021.8075307867502,1605
2023.740783507431,1636
2025.6735684902228,1627
2027.6058860045214,1613
2029.5377363198004,1598
2031.4691197056118,1582
2033.4000364315875,1627
2035.3304867674374,1558
2037.260470982952,1639
2039.189989347998,1725
2041.1190421325232,1660
2043.047629606554,1656
2044.9757520401945,1682
2046.9034097036288,1660
2048.8306028671195,1672
2050.7573318010086,1703
2052.683596775716,1691
2054.609398061742,1655
2056.5347359296647,1615
2058.4596106501403,1606
2060.384022493906,1642
2062.3079717317764,1700
2064.231458634646,1617
2066.1544834734873,1668
2068.077046519352,1563
2069.99914804337,1676
2071.9207883167524,1659
2073.8419676107865,1591
2075.7626861968406,1662
2077.6829443463607,1647
2079.6027423308715,1640
2081.522080421977,1668
2083.440958891362,1596
2085.359378010786,1624
2087.2773380520907,1623
2089.194839287196,1687
2091.111881988101,1638
2093.0284664268825,1673
2094.9445928756973,1655
2096.86026160678,1627
2098.775472892446,1647
2100.690227005088,1672
2102.604524217178,1650
2104.5183648012676,1656
2106.431749029985,1661
2108.34467717604,1624
2110.2571495122206,1679
2112.169166311393,1689
2114.080727846503,1611
2115.9918343905747,1683
2117.902486216711,1612
2119.8126835980956,1749
2121.722426807987,1664
2123.6317161197285,1632
2125.5405518067364,1659
2127.448934142509,1636
2129.356863400624,1650
2131.264339854737,1656
2133.1713637785815,1678
2135.077935445972,1697
2136.9840551308002,1688
2138.889723107037,1664
2140.7949396487334,1685
2142.699705030018,1699
2144.6040195250994,1730
2146.507883408264,1687
2148.4112969538774,1686
2150.3142604363848,1691
2152.2167741303097,1702
2154.1188383102535,1773
2156.0204532508997,1756
2157.9216192270064,1729
2159.822336513414,1751
2161.7226053850413,1710
2163.622426116884,1788
2165.5217989840185,1697
2167.4207242616,1700
2169.319202224862,1770
2171.2172331491165,1698
2173.1148173097563,1789
2175.0119549822507,1711
2176.90864644215,1764
2178.8048919650823,1760
2180.7006918267534,1739
2182.596046302952,1723
2184.4909556695407,1792
2186.3854202024645,1773
2188.279440177746,1780
2190.173015871487,1739
2192.066147559868,1726
2193.958835519149,1774
2195.851080025667,1741
2197.7428813558417,1830
2199.6342397861667,1738
2201.5251555932186,1796
2203.415629053651,1814
2205.3056604441986,1901
2207.19525004167,1840
2209.084398122958,1828
2210.9731049650327,1916
2212.861370844941,1894
2214.749196039812,1842
2216.636580826851,1847
2218.523525483344,1900
2220.410030286655,1832
2222.296095514226,1857
2224.1817214435805,1834
2226.066908352319,1895
2227.951656518121,1829
2229.835966218746,1840
2231.71983773203,1864
2233.6032713358913,1876
2235.486267308324,1903
2237.3688259274036,1887
2239.2509474712824,1876
2241.132632218193,1822
2243.013880446447,1861
2244.8946924344323,1881
2246.7750684606203,1893
2248.6550088035574,1793
2250.534513741871,1788
2252.413583554265,1876
2254.292218519526,1820
2256.170418916517,1881
2258.0481850241786,1843
2259.925517121534,1835
2261.8024154876825,1773
2263.678880401803,1850
2265.5549121431536,1864
2267.430510991071,1864
2269.305677224971,1900
2271.180411124348,1793
2273.0547129687766,1833
2274.9285830379076,1853
2276.8020216114737,1750
2278.6750289692845,1823
2280.5476053912294,1850
2282.4197511572766,1889
2284.2914665474727,1956
2286.162751841943,1895
2288.0336073208937,1875
2289.904033264608,1864
2291.774029953448,1903
2293.6435976678554,1854
2295.5127366883517,1822
2297.381447295534,1815
2299.2497297700825,1696
2301.1175843927526,1702
2302.9850114443825,1612
2304.852011205885,1627
2306.7185839582553,1578
2308.5847299825664,1546
2310.4504495599676,1550
2312.3157429716925,1515
2314.1806104990483,1565
2316.0450524234247,1523
2317.9090690262888,1491
2319.772660589186,1508
2321.635827393742,1502
2323.498569721661,1488
2325.3608878547248,1515
2327.2227820747967,1459
2329.0842526638157,1441
2330.945299903803,1500
2332.805924076857,1476
2334.6661254651535,1461
2336.525904350951,1442
2338.3852610165827,1483
2340.244195744464,1481
2342.102708817088,1482
2343.9608005170253,1475
2345.8184711269287,1472
2347.675720929526,1529
2349.532550207628,1438
2351.38895924412,1508
2353.24494832197,1517
2355.100517724223,1557
2356.955667734004,1510
2358.810398634514,1508
2360.664710709037,1478
2362.5186042409337,1501
2364.3720795136437,1484
2366.225136810686,1489
2368.0777764156583,1522
2369.929998612237,1448
2371.7818036841777,1578
2373.633191915315,1387
2375.484163589562,1465
2377.3347189909114,1507
2379.184858403434,1473
2381.03458211128,1481
2382.8838903986775,1512
2384.732783549936,1476
2386.5812618494406,1485
2388.4293255816588,1502
2390.2769750311327,1523
2392.1242104824883,1470
2393.971032220427,1497
2395.8174405297295,1488
2397.6634356952563,1535
2399.509018001947,1503
2401.3541877348193,1554
2403.1989451789705,1483
2405.043290619576,1501
2406.8872243418905,1527
2408.730746631247,1514
2410.5738577730594,1548
2412.4165580528183,1480
2414.258847756095,1540
2416.100727168537,1501
2417.9421965758734,1476
2419.783256263912,1517
2421.623906518538,1524
2423.4641476257157,1495
2425.303979871491,1511
2427.143403541984,1541
2428.9824189233977,1536
2430.821026302012,1555
2432.6592259641866,1492
2434.497018196361,1525
2436.33440328505,1529
2438.171381516851,1517
2440.00795317844,1485
2441.844118556569,1512
2443.6798779380724,1528
2445.5152316098606,1566
2447.3501798589255,1545
2449.1847229723357,1564
2451.0188612372403,1556
2452.8525949408663,1586
2454.6859243705203,1533
2456.518849813587,1473
2458.3513715575314,1491
2460.183489889895,1535
2462.015205098301,1525
2463.8465174704493,1576
2465.67742729412,1536
2467.5079348571717,1531
2469.338040447542,1530
2471.1677443532476,1542
2472.9970468623833,1480
2474.825948263123,1542
2476.6544488437207,1472
2478.482548892508,1541
2480.310248697896,1488
2482.137548548374,1490
2483.9644487325118,1468
2485.790949538956,1492
2487.617051256433,1551
2489.44275417375,1541
2491.26805857979,1498
2493.0929647635157,1496
2494.917473013971,1512
2496.741583620276,1553
2498.5652968716304,1532
2500.3886130573137,1558
2502.2115324666834,1548
2504.0340553891765,1597
2505.856182114308,1524
2507.6779129316733,1517
2509.499248130945,1535
2511.3201880018764,1621
2513.140732834298,1627
2514.9608829181198,1558
2516.780638543331,1540
2518.6,1507
2520.418967578273,1474
2522.237541568376,1563
2524.0557222606144,1556
2525.8735099453706,1598
2527.6909049131086,1595
2529.507907454368,1532
2531.32451785977,1596
2533.140736420014,1561
2534.9565634258774,1572
2536.771999168218,1556
2538.5870439379714,1584
2540.4016980261526,1524
2542.2159617238544,1628
2544.02983532225,1608
2545.8433191125914,1613
2547.656413386209,1592
2549.4691184345115,1666
2551.2814345489874,1620
2553.093362021204,1587
2554.904901142808,1566
2556.716052205523,1606
2558.526815501153,1632
2560.3371913215824,1579
2562.147179958771,1615
2563.956781704761,1570
2565.7659968516705,1642
2567.5748256916986,1647
2569.3832685171224,1645
2571.1913256202984,1612
2572.9989972936614,1630
2574.806283829725,1579
2576.613185521084,1647
2578.4197026604074,1671
2580.2258355404483,1651
2582.031584454035,1615
2583.836949694077,1652
2585.6419315535613,1642
2587.4465303255533,1707
2589.2507463032002,1734
2591.0545797797245,1712
2592.8580310484303,1751
2594.6611004026995,1696
2596.463788135992,1694
2598.266094541849,1697
2600.0680199138874,1705
2601.869564545807,1665
2603.670728731383,1691
2605.4715127644704,1753
2607.2719169390048,1767
2609.071941548998,1826
2610.8715868885433,1735
2612.670853251811,1736
2614.469740933052,1753
2616.268250226594,1774
2618.0663814268455,1721
2619.864134828292,1739
2621.6615107255006,1702
2623.458509413115,1762
2625.2551311858597,1694
2627.0513763385347,1641
2628.8472451660223,1712
2630.6427379632833,1726
2632.4378550253564,1664
2634.232596647359,1698
2636.026963124488,1735
2637.8209547520187,1739
2639.6145718253065,1643
2641.407814639785,1703
2643.200683490966,1695
2644.9931786744414,1722
2646.7853004858807,1600
2648.577049221034,1727
2650.3684251757277,1695
2652.1594286458712,1707
2653.9500599274484,1717
2655.740319316525,1651
2657.5302071092437,1582
2659.3197236018286,1667
2661.10886909058,1639
2662.8976438718782,1569
2664.686048242183,1555
2666.4740824980327,1571
2668.2617469360443,1598
2670.0490418529134,1600
2671.8359675454153,1624
2673.622524310403,1559
2675.408712444811,1602
2677.1945322456495,1583
2678.979984010009,1621
2680.76506803506,1600
2682.5497846180497,1575
2684.334134056306,1603
2686.1181166472343,1592
2687.9017326883213,1534
2689.6849824771293,1522
2691.4678663113013,1503
2693.2503844885596,1540
2695.032537306705,1539
2696.8143250636167,1593
2698.5957480572542,1630
2700.3768065856534,1567
2702.1575009469316,1611
2703.937831439283,1524
2705.717798360982,1561
2707.4974020103837,1555
2709.276642685917,1504
2711.055520686095,1555
2712.834036309506,1577
2714.612189854819,1569
2716.389981620782,1547
2718.1674119062204,1520
2719.944481010041,1491
2721.721189231226,1521
2723.4975368688415,1501
2725.273524222027,1559
2727.0491515900053,1542
2728.824419272075,1535
2730.5993275676146,1564
2732.3738767760838,1507
2734.148067197016,1538
2735.921899130031,1456
2737.6953728748194,1565
2739.468488731156,1460
2741.2412469988926,1508
2743.0136479779617,1510
2744.785691968372,1544
2746.5573792702116,1424
2748.3287101836504,1488
2750.099685008934,1504
2751.870304046388,1479
2753.640567596418,1485
2755.4104759595057,1476
2757.1800294362156,1540
2758.949228327187,1536
2760.7180729331412,1528
2762.486563554877,1550
2764.254700493272,1471
2766.022484049284,1511
2767.789914523947,1534
2769.5569922183786,1515
2771.3237174337705,1536
2773.090090471394,1465
2774.8561116326036,1520
2776.6217812188274,1528
2778.3870995315756,1489
2780.1520668724356,1528
2781.9166835430747,1515
2783.6809498452394,1483
2785.444866080754,1530
2787.2084325515225,1506
2788.971649559527,1532
2790.73451740683,1505
2792.4970363955713,1510
2794.2592068279705,1471
2796.0210290063264,1545
2797.7825032330147,1532
2799.543629810493,1584
2801.304409041296,1495
2803.0648412280366,1518
2804.8249266734088,1500
2806.5846656801846,1509
2808.344058551212,1561
2810.1031055894246,1524
2811.8618070978273,1513
2813.6201633795085,1481
2815.378174737636,1522
2817.1358414754536,1550
2818.893163896285,1524
2820.6501423035334,1512
2822.4067770006814,1562
2824.1630682912883,1539
2825.9190164789957,1475
2827.6746218675207,1512
2829.429884760661,1561
2831.184805462294,1518
2832.9393842763743,1525
2834.693621506936,1572
2836.4475174580916,1567
2838.201072434034,1542
2839.954286739034,1516
2841.707160677441,1535
2843.459694553685,1531
2845.2118886722724,1566
2846.96374333779,1568
2848.7152588549034,1522
2850.4664355283567,1490
2852.217273662973,1568
2853.9677735636546,1628
2855.7179355353833,1514
2857.4677598832186,1561
2859.217246912299,1539
2860.9663969278427,1410
2862.715210235146,1483
2864.4636871395846,1538
2866.211827946614,1466
2867.9596329617652,1500
2869.7071024906536,1451
2871.4542368389684,1540
2873.20103631248,1518
2874.947501217038,1544
2876.6936318585695,1607
2878.4394285430812,1500
2880.1848915766604,1473
2881.9300212654707,1476
2883.6748179157553,1530
2885.4192818338374,1590
2887.1634133261173,1536
2888.907212699077,1503
2890.6506802592744,1544
2892.393816313348,1542
2894.1366211680142,1562
2895.8790951300693,1609
2897.621238506388,1494
2899.363051603925,1514
2901.1045347297118,1522
2902.8456881908596,1536
2904.58651229456,1502
2906.327007348081,1514
2908.067173658772,1507
2909.8070115340597,1534
2911.5465212814497,1547
2913.285703208527,1507
2915.0245576229563,1474
2916.7630848324807,1489
2918.5012851449196,1500
2920.2391588681758,1509
2921.976706310227,1515
2923.7139277791334,1461
2925.4508235830313,1496
2927.187394030137,1492
2928.923639428745,1523
2930.6595600872306,1527
2932.395156314046,1551
2934.1304284177218,1489
2935.8653767068713,1557
2937.6000014901815,1533
2939.3343030764227,1519
2941.068281774442,1509
2942.8019378931644,1454
2944.5352717415976,1562
2946.2682836288236,1570
2948.0009738640065,1561
2949.7333427563885,1516
2951.465390615289,1499
2953.1971177501086,1550
2954.9285244703265,1561
2956.6596110855,1554
2958.3903779052657,1515
2960.1208252393385,1540
2961.8509533975125,1510
2963.5807626896617,1560
2965.3102534257378,1524
2967.0394259157715,1548
2968.768280469873,1502
2970.496817398232,1498
2972.2250370111146,1539
2973.952939618869,1490
2975.6805255319196,1562
2977.4077950607707,1515
2979.134748516006,1594
2980.861386208289,1577
2982.587708448359,1596
2984.313715547037,1539
2986.039407815222,1517
2987.764785563891,1542
2989.489849104102,1554
2991.2145987469908,1489
2992.9390348037705,1505
2994.6631575857346,1507
2996.3869674042576,1525
2998.1104645707887,1528
2999.83364939686,1518
3001.5565221940783,1534
3003.2790832741334,1499
3005.0013329487924,1438
3006.7232715298996,1553
3008.4448993293804,1512
3010.166216659239,1481
3011.887223831558,1482
3013.607921158498,1483
3015.3283089522993,1536
3017.0483875252826,1531
3018.7681571898443,1563
3020.4876182584626,1527
3022.2067710436927,1452
3023.9256158581707,1499
3025.644153014609,1496
3027.362382825801,1531
3029.0803056046193,1505
3030.797921664012,1440
3032.5152313170106,1556
3034.2322348767225,1507
3035.9489326563353,1503
3037.665324969115,1484
3039.3814121284063,1496
3041.097194447633,1508
3042.812672240299,1526
3044.5278458199855,1527
3046.2427155003525,1501
3047.9572815951406,1440
3049.671544418167,1524
3051.38550428333,1438
3053.0991615046073,1471
3054.812516396051,1463
3056.5255692717974,1469
3058.2383204460575,1507
3059.9507702331257,1435
3061.662918947372,1499
3063.3747669032446,1505
3065.0863144152736,1526
3066.7975617980674,1451
3068.508509366309,1494
3070.219157434767,1414
3071.9295063182844,1522
3073.639556331785,1431
3075.3493077902704,1456
3077.058761008821,1494
3078.7679163025964,1515
3080.476773986837,1482
3082.1853343768594,1503
3083.89359778806,1535
3085.6015645359153,1538
3087.3092349359786,1488
3089.016609303884,1523
3090.7236879553434,1479
3092.4304712061476,1526
3094.136959372166,1546
3095.843152769349,1528
3097.5490517137237,1500
3099.2546565213966,1558
3100.959967508554,1492
3102.66498499146,1532
3104.3697092864577,1509
3106.0741407099695,1537
3107.778279578498,1533
3109.482126208622,1463
3111.1856809170004,1469
3112.8889440203716,1527
3114.5919158355528,1471
3116.294596679439,1464
3117.996986869006,1535
3119.6990867213062,1551
3121.4008965534726,1556
3123.102416682717,1557
3124.803647426329,1580
3126.5045891016784,1482
3128.205242026213,1570
3129.90560651746,1499
3131.605682893025,1553
3133.3054714705922,1476
3135.0049725679282,1490
3136.7041865028714,1466
3138.4031135933465,1475
3140.101754157353,1535
3141.800108512971,1500
3143.498176978357,1528
3145.1959598717494,1460
3146.8934575114636,1455
3148.5906702158954,1467
3150.2875983035183,1557
3151.9842420928853,1461
3153.680601902627,1542
3155.376678051456,1544
3157.07247085816,1526
3158.767980641609,1547
3160.463207720748,1526
3162.158152414606,1532
3163.8528150422862,1475
3165.5471959229726,1543
3167.2412953759303,1555
3168.9351137204976,1471
3170.628651276098,1486
3172.3219083622307,1515
3174.014885298474,1533
3175.707582404485,1456
3177.4000000000005,1559
3179.092138404835,1505
3180.7839979388846,1528
3182.47557892212,1537
3184.166881674594,1489
3185.8579065164386,1516
3187.5486537678626,1445
3189.2391237491547,1538
3190.9293167806827,1419
3192.6192331828934,1499
3194.3088732763117,1513
3195.998237381542,1513
3197.687325819268,1461
3199.376138910251,1502
3201.064676975334,1454
3202.7529403354347,1463
3204.4409293115523,1478
3206.1286442247647,1513
3207.816085396229,1514
3209.5032531471825,1474
3211.190147798936,1481
3212.8767696728846,1396
3214.5631190905015,1523
3216.2491963733373,1479
3217.9350018430214,1460
3219.6205358212637,1524
3221.305798629851,1415
3222.990790590651,1465
3224.6755120256103,1484
3226.359963256751,1475
3228.0441446061795,1496
3229.7280563960758,1484
3231.411698948703,1513
3233.0950725863995,1526
3234.778177631587,1459
3236.461014406761,1515
3238.1435832345005,1495
3239.8258844374595,1477
3241.507918338374,1506
3243.1896852600576,1528
3244.8711855254023,1519
3246.552419457381,1515
3248.233387379042,1508
3249.914089613516,1504
3251.59452648401,1481
3253.274698313813,1517
3254.95460542629,1498
3256.6342481448855,1523
3258.313626793125,1446
3259.9927416946084,1397
3261.6715931730196,1455
3263.3501815521176,1424
3265.0285071557437,1414
3266.706570307815,1433
3268.3843713323286,1457
3270.0619105533615,1431
3271.739188295068,1486
3273.4162048816834,1502
3275.0929606375184,1568
3276.769455886966,1498
3278.445690954498,1409
3280.1216661646613,1488
3281.797381842087,1602
3283.4728383114807,1501
3285.1480358976296,1539
3286.8229749253996,1514
3288.4976557197333,1488
3290.172078605655,1482
3291.846243908266,1460
3293.5201519527463,1427
3295.193803064357,1512
3296.8671975684374,1505
3298.5403357904024,1459
3300.21321805575,1479
3301.8858446900567,1501
3303.558216018975,1480
3305.23033236824,1469
3306.9021940636603,1556
3308.57380143113,1498
3310.2451547966184,1532
3311.916254486174,1512
3313.5871008259246,1500
3315.2576941420766,1466
3316.9280347609147,1521
3318.5981230088046,1469
3320.2679592121895,1454
3321.9375436975924,1452
3323.606876791612,1465
3325.27595882093,1503
3326.944790112305,1471
3328.6133709925753,1502
3330.2817017886573,1445
3331.949782827547,1451
3333.617614436319,1535
3335.2851969421245,1553
3336.952530672199,1468
3338.619615953853,1492
3340.286453114475,1411
3341.9530424815357,1429
3343.619384382583,1553
3345.2854791452437,1468
3346.951327097224,1482
3348.6169285663073,1565
3350.2822838803577,1507
3351.947393367319,1524
3353.61225735521,1528
3355.2768761721345,1521
3356.9412501462693,1441
3358.605379605873,1478
3360.2692648792827,1459
3361.9329062949146,1484
3363.596304181263,1456
