CollectionTime,7/9/2024 4:13:11 PM
ExposureUsed,3
CalibratedSpectrum
-962.7078968117929,789
-959.9714848408522,857
-957.2358232597828,867
-954.5009119013725,860
-951.7667505983302,879
-949.0333391832855,880
-946.3006774887896,857
-943.5687653473143,896
-940.837602591253,896
-938.1071890529199,859
-935.3775245645503,846
-932.6486089583007,903
-929.9204420662485,874
-927.1930237203925,902
-924.4663537526524,885
-921.7404319948689,886
-919.0152582788041,886
-916.2908324361409,969
-913.5671542984834,944
-910.8442236973568,904
-908.1220404642074,884
-905.4006044304027,931
-902.679915427231,951
-899.959973285902,926
-897.2407778375464,872
-894.5223289132158,896
-891.8046263438832,879
-889.0876699604426,884
-886.3714595937089,894
-883.6559950744183,910
-880.9412762332282,855
-878.2273029007168,918
-875.5140749073835,892
-872.8015920836489,917
-870.0898542598545,938
-867.3788612662631,918
-864.6686129330585,968
-861.9591090903457,951
-859.2503495681506,929
-856.5423341964203,890
-853.8350628050229,906
-851.1285352237478,894
-848.4227512823054,956
-845.7177108103272,950
-843.0134136373656,931
-840.3098595928943,971
-837.6070485063082,966
-834.9049802069229,967
-832.2036545239757,933
-829.5030712866244,925
-826.8032303239481,952
-824.1041314649472,917
-821.4057745385428,985
-818.7081593735775,1019
-816.0112857988148,965
-813.3151536429393,971
-810.6197627345566,961
-807.9251129021936,977
-805.2312039742981,981
-802.5380357792392,942
-799.8456081453069,964
-797.1539209007124,935
-794.462973873588,947
-791.772766891987,1016
-789.083299783884,983
-786.3945723771743,985
-783.7065844996748,963
-781.0193359791231,948
-778.3328266431781,935
-775.6470563194197,961
-772.9620248353489,984
-770.2777320183878,959
-767.5941776958798,979
-764.9113616950891,990
-762.2292838432011,980
-759.5479439673222,976
-756.8673418944801,977
-754.1874774516235,979
-751.5083504656222,1005
-748.8299607632671,1031
-746.15230817127,982
-743.475392516264,991
-740.7992136248035,1001
-738.1237713233636,1030
-735.4490654383407,1017
-732.7750957960521,1009
-730.1018622227365,1008
-727.4293645445534,1007
-724.7576025875837,1006
-722.0865761778291,1035
-719.4162851412126,1012
-716.7467293035781,1042
-714.0779084906909,1067
-711.409822528237,1059
-708.7424712418238,1038
-706.0758544569796,1056
-703.4099719991541,1046
-700.7448236937178,1053
-698.0804093659622,1031
-695.4167288411002,1041
-692.7537819442656,1024
-690.0915685005134,991
-687.4300883348199,1030
-684.7693412720819,1077
-682.1093271371178,1041
-679.4500457546669,1007
-676.7914969493897,1077
-674.1336805458676,1053
-671.4765963686034,1087
-668.8202442420206,1081
-666.1646239904642,1045
-663.5097354382001,1032
-660.8555784094151,1076
-658.2021527282176,1098
-655.5494582186366,1071
-652.8974947046223,1080
-650.2462620100463,1070
-647.5957599587009,1045
-644.9459883742998,1123
-642.2969470804776,1118
-639.6486359007902,1132
-637.0010546587141,1155
-634.3542031776476,1125
-631.7080812809096,1120
-629.0626887917401,1138
-626.4180255333008,1114
-623.7740913286734,1102
-621.1308860008619,1122
-618.4884093727904,1125
-615.8466612673046,1135
-613.2056415071715,1147
-610.5653499150785,1066
-607.9257863136347,1091
-605.28695052537,1146
-602.6488423727357,1153
-600.0114616781036,1126
-597.3748082637674,1125
-594.7388819519412,1132
-592.1036825647604,1158
-589.4692099242818,1172
-586.8354638524829,1230
-584.2024441712624,1210
-581.5701507024403,1172
-578.9385832677575,1191
-576.3077416888759,1241
-573.6776257873787,1169
-571.0482353847704,1122
-568.4195703024757,1098
-565.7916303618415,1169
-563.164415384135,1175
-560.5379251905453,1123
-557.9121596021815,1149
-555.2871184400748,1158
-552.6628015251767,1176
-550.0392086783606,1149
-547.4163397204204,1172
-544.794194472071,1108
-542.1727727539491,1183
-539.5520743866118,1213
-536.9320991905377,1236
-534.3128469861261,1213
-531.6943175936979,1231
-529.0765108334947,1263
-526.4594265256793,1302
-523.8430644903358,1426
-521.2274245474689,1574
-518.612506517005,1644
-515.9983102187913,1544
-513.3848354725959,1607
-510.77208209810846,1545
-508.16004991493924,1677
-505.5487387426199,1674
-502.9381484006032,1923
-500.3282787082628,2084
-497.71912948489364,2159
-495.1107005497117,2075
-492.5029917218539,2093
-489.8960028203786,1914
-487.28973366426493,1729
-484.68418407241325,1646
-482.07935386364494,1484
-479.47524285670266,1447
-476.87185087025,1354
-474.2691777228715,1449
-471.66722323307334,1371
-469.0659872192821,1382
-466.4654694998459,1353
-463.86566989303384,1368
-461.26658821703614,1329
-458.66822428996414,1328
-456.07057792985,1335
-453.4736489546475,1380
-450.877437182231,1391
-448.28194243039627,1296
-445.68716451686,1292
-443.09310325926003,1307
-440.49975847515555,1282
-437.9071299820263,1255
-435.31521759727354,1330
-432.72402113821954,1386
-430.13354042210767,1316
-427.5437752661022,1293
-424.95472548728867,1359
-422.36639090267386,1349
-419.7787713291855,1339
-417.1918665836721,1418
-414.60567648290385,1423
-412.0202008435715,1406
-409.4354394822874,1431
-406.8513922155845,1458
-404.26805885991723,1399
-401.685439231661,1431
-399.103533147112,1381
-396.522340422488,1387
-393.9418608739278,1368
-391.3620943174908,1348
-388.7830405691583,1324
-386.2046994448317,1279
-383.6270707603344,1163
-381.05015433141045,1129
-378.473949973725,1028
-375.8984575028645,960
-373.32367673433623,873
-370.74960748356875,827
-368.1762495659117,764
-365.60360279663576,724
-363.03166699093265,654
-360.4604419639154,617
-357.8899275306178,549
-355.32012350599507,549
-352.7510297049233,525
-350.1826459421999,464
-347.61497203254316,477
-345.04800779059235,512
-342.4817530309082,513
-339.91620756797226,565
-337.35137121618743,527
-334.7872437898774,507
-332.22382510328725,589
-329.66111497058273,517
-327.09911320585127,503
-324.53781962310075,510
-321.9772340362607,528
-319.4173562591816,505
-316.8581861056348,483
-314.2997233893127,553
-311.7419679238294,517
-309.1849195227194,538
-306.62857799943856,584
-304.0729431673641,596
-301.51801483979375,579
-298.963792829947,572
-296.41027695096386,586
-293.85746701590574,630
-291.3053628377552,612
-288.7539642294155,595
-286.2032710037115,603
-283.65328297338897,575
-281.1039999511146,630
-278.5554217494762,694
-276.007548180983,654
-273.4603790580651,640
-270.9139141930734,644
-268.3681533982807,623
-265.8230964858798,614
-263.27874326798565,655
-260.7350935566336,635
-258.1921471637804,691
-255.6499039013039,651
-253.10836358100266,655
-250.56752601459698,642
-248.02739101372765,643
-245.48795838995704,672
-242.94922795476816,632
-240.41119951956557,658
-237.8738728956746,750
-235.33724789434166,795
-232.80132432673452,727
-230.2661020039418,706
-227.73158073697357,718
-225.19776033676033,788
-222.66464061415422,800
-220.1322213799284,757
-217.60050244477725,691
-215.06948361931552,683
-212.53916471408013,762
-210.00954553952818,745
-207.48062590603843,712
-204.9524056239104,724
-202.4248845033651,861
-199.8980623545441,822
-197.37193898751036,824
-194.84651421224817,794
-192.32178783866232,844
-189.79775967657952,843
-187.27442953574644,909
-184.7517972258321,964
-182.2298625564256,905
-179.7086253370378,857
-177.18808537710026,829
-174.66824248596583,822
-172.14909647290835,888
-169.6306471471229,962
-167.11289431772548,955
-164.59583779375328,949
-162.07947738416453,916
-159.5638128978386,1066
-157.04884414357605,1111
-154.53457093009854,1266
-152.02099306604828,1192
-149.50811035998936,1017
-146.99592262040665,1078
-144.48442965570587,1177
-141.97363127421409,1042
-139.46352728417958,1195
-136.95411749377126,1223
-134.44540171107985,1287
-131.93737974411636,1049
-129.43005140081357,1193
-126.92341648902493,1545
-124.41747481652521,1944
-121.91222619101006,2334
-119.40767042009657,3021
-116.90380731132257,3499
-114.40063667214702,3578
-111.8981583099503,2923
-109.3963720320337,2186
-106.89527764561933,1983
-104.39487495785067,2129
-101.89516377579241,2797
-99.39614390642998,4017
-96.89781515667039,4688
-94.40017733334128,4247
-91.90323024319173,3848
-89.40697369289148,4836
-86.91140748903172,6948
-84.41653143812482,7487
-81.92234534660395,5992
-79.42884902082358,4835
-76.93604226705907,7183
-74.4439248915071,13354
-71.95249670028534,20717
-69.46175749943245,22747
-66.97170709490854,21453
-64.48234529259423,18931
-61.99367189829195,16010
-59.50568671772464,12883
-57.01838955653636,9330
-54.53178022029283,9294
-52.045858514480074,11757
-49.560624244506016,13268
-47.07607721569923,15375
-44.59221723330904,16067
-42.10904410250669,14696
-39.62655762838392,12159
-37.14475761595372,9418
-34.66364387015028,8849
-32.18321619582866,8862
-29.70347439776515,10235
-27.224418280657005,13229
-24.74604764912317,15047
-22.26836230770266,19555
-19.7913620608565,31002
-17.315046712966478,51007
-14.83941606833514,65036
-12.36446993118659,65036
-9.89020810566592,65036
-7.416630395839093,65036
-4.94373660569363,65036
-2.471526539137585,65036
-6.821210263296962E-13,65036
2.47084320796705,65036
4.941003281093458,65036
7.410480415786196,65036
9.879274808531363,65036
12.347386655893956,65036
14.814816154518212,65036
17.28156350112681,65036
19.74762889252179,65036
22.21301252558385,65036
24.67771459727237,21044
27.141735304626195,4435
29.605074844762612,2970
32.06773341487792,2437
34.52971121224755,2567
36.99100843422559,2537
39.45162527824516,2239
41.91156194181792,2200
44.370818622535126,2147
46.82939551806646,1627
49.287292826160524,1634
51.74451074464503,1530
54.201049471426245,1729
56.65690920448981,1652
59.112090141899785,1490
61.56659248179983,1399
64.02041642241159,1292
66.4735621620365,1269
68.92602989905402,1264
71.37781983192338,1097
73.82893215918205,1223
76.27936707944684,1323
78.72912479141326,1368
81.17820549385567,1340
83.62660938562783,1376
86.07433666566146,1153
88.5213875329681,977
90.96776218663751,978
93.41346082583925,994
95.85848364982041,1128
98.30283085790859,1335
100.7465026495089,1379
103.18949922410604,1217
105.63182078126385,1108
108.07346752062438,1211
110.51443964190923,1101
112.95473734491827,1143
115.39436082953114,1104
117.83331029570547,1074
120.27158594347827,1003
122.7091879729652,1073
125.1461165843615,1176
127.58237197794062,1134
130.01795435405518,1084
132.4528639131364,1243
134.88710085569494,1297
137.32066538231982,1033
139.75355769367923,935
142.1857779905207,972
144.61732647366978,971
147.04820334403132,1017
149.47840880258934,1044
151.90794305040674,1085
154.33680628862487,1208
156.76499871846443,1510
159.19252054122433,1664
161.61937195828352,1710
164.04555317109896,1901
166.47106438120693,1959
168.89590579022217,2243
171.320077599839,2470
173.7435800118302,2580
176.16641322804742,2610
178.58857745042144,2734
181.01007288096173,3080
183.43089972175687,3217
185.85105817497413,3041
188.27054844285988,2950
190.6893707277394,2954
193.10752523201643,3092
195.5250121581745,3114
197.9418317087751,3256
200.3579840864594,3246
202.7734694939469,3164
205.18828813403627,3284
207.6024402096051,3324
210.01592592360964,3553
212.42874547908548,3366
214.84089907914665,3415
217.2523869269868,3371
219.66320922587727,3295
222.0733661791695,3394
224.48285799029293,3333
226.8916848627572,3239
229.29984700014882,3381
231.7073446061355,3336
234.11417788446204,3241
236.520347038953,3366
238.92585227351185,3291
241.33069379212054,3290
243.73487179884035,3326
246.1383864978112,3461
248.541238093252,3347
250.9434267894609,3372
253.34495279081432,3408
255.74581630176783,3329
258.1460175268563,3363
260.54555667069314,3231
262.9444339379703,3300
265.3426495334594,3407
267.7402036620107,3431
270.1370965285529,3427
272.53332833809407,3393
274.9288992957214,3210
277.32380960660055,3369
279.718059475976,3216
282.1116491091717,3305
284.5045787115897,3280
286.89684848871195,3194
289.2884586460981,3295
291.67940938938807,3281
294.0697009242996,3268
296.4593334566299,3322
298.84830719225477,3271
301.23662233712923,3201
303.6242790972866,3191
306.01127767884,3246
308.39761828798066,3207
310.78330113097934,3125
313.16832641418534,3110
315.5526943440269,3106
317.9364051270112,3033
320.3194589697242,3073
322.70185607883093,3049
325.0835966610754,3072
327.4646809232805,3054
329.8451090723478,3037
332.2248813152577,3013
334.6039978590701,2943
336.9824589109231,2916
339.36026467803447,2904
341.7374153677,2903
344.113911187295,2848
346.48975234427337,2818
348.8649390461686,2856
351.2394715005918,2829
353.61334991523415,2819
355.9865744978655,2857
358.35914545633375,2868
360.73106299856715,2853
363.10232733257146,2901
365.47293866643247,2807
367.84289720831396,2774
370.2122031664593,2791
372.5808567491905,2753
374.9488581649083,2721
377.31620762209275,2775
379.6829053293021,2678
382.0489514951745,2702
384.4143463284262,2633
386.7790900378528,2785
389.14318283232853,2655
391.50662492080653,2662
393.86941651231916,2675
396.23155781597745,2720
398.5930490409713,2677
400.9538903965696,2664
403.3140820921202,2724
405.6736243370498,2701
408.03251734086336,2683
410.3907613131465,2706
412.74835646356166,2711
415.10530300185144,2647
417.4616011378372,2550
419.81725108141893,2603
422.1722530425758,2665
424.5266072313656,2617
426.880313857925,2576
429.2333731324701,2670
431.58578526529516,2558
433.9375504667738,2572
436.2886689473588,2637
438.63914091758113,2557
440.9889665880513,2595
443.33814616945835,2506
445.68667987257015,2538
448.03456790823395,2586
450.3818104873759,2543
452.72840782100013,2514
455.07436012019105,2583
457.41966759611057,2573
459.7643304600007,2509
462.10834892318155,2547
464.4517231970525,2503
466.79445349309174,2552
469.1365400228566,2549
471.4779829979826,2563
473.81878263018564,2569
476.15893913125876,2692
478.4984527130747,2686
480.8373235875855,2743
483.17555196682144,2868
485.5131380628919,2885
487.8500820879857,3043
490.1863842543697,3108
492.52204477439034,3469
494.8570638604725,3728
497.1914417251204,3988
499.52517858091653,4222
501.85827464052306,4320
504.19073011668036,4128
506.5225452222086,4019
508.85372017000566,3865
511.18425517304956,3901
513.514150444396,4095
515.8434061971808,5026
518.1720226446176,6239
520.4999999999999,6518
522.8273384766991,6148
525.1540382881666,5548
527.480099647932,4955
529.8055227696037,4266
532.1303078668694,3428
534.454455153496,3115
536.777964843328,2922
539.1008371502907,2802
541.4230722883866,2845
543.744670471698,2813
546.0656319143858,2751
548.3859568306899,2778
550.7056454349294,2764
553.0246979415016,2739
555.3431145648834,2641
557.6608955196306,2671
559.978041020377,2588
562.2945512818363,2661
564.6104265188006,2718
566.9256669461412,2766
569.2402727788082,2705
571.5542442318302,2664
573.8675815203156,2671
576.1802848594508,2689
578.4923544645015,2730
580.8037905508126,2835
583.114593333807,2850
585.4247630289875,2666
587.7342998519354,2789
590.0432040183106,2773
592.3514757438526,2786
594.6591152443794,2812
596.9661227357875,2755
599.2724984340531,2751
601.578242555231,2731
603.8833553154542,2677
606.1878369309362,2812
608.4916876179676,2755
610.7949075929192,2783
613.0974970722403,2773
615.3994562724587,2637
617.7007854101818,2670
620.0014847020951,2566
622.3015543649641,2746
624.6009946156324,2633
626.8998056710224,2707
629.1979877481361,2699
631.4955410640538,2699
633.7924658359349,2641
636.0887622810175,2630
638.3844306166192,2725
640.6794710601358,2570
642.9738838290426,2723
645.2676691408932,2777
647.5608272133207,2764
649.853358264037,2739
652.1452625108324,2668
654.4365401715764,2772
656.7271914642178,2799
659.0172166067838,2805
661.3066158173809,2690
663.5953893141935,2625
665.8835373154867,2696
668.1710600396028,2683
670.4579577049639,2656
672.7442305300709,2699
675.0298787335033,2637
677.3149025339197,2662
679.599302150058,2706
681.8830778007342,2671
684.1662297048437,2720
686.4487580813608,2729
688.7306631493387,2805
691.0119451279091,2667
693.2926042362834,2704
695.5726406937516,2771
697.8520547196814,2792
700.1308465335215,2691
702.4090163547982,2716
704.6865644031171,2684
706.9634908981619,2647
709.2397960596965,2748
711.5154801075631,2672
713.7905432616823,2714
716.0649857420548,2777
718.3388077687592,2824
720.612009561953,2816
722.8845913418733,2683
725.1565533288352,2740
727.427895743234,2790
729.6986188055427,2766
731.9687227363137,2730
734.238207756178,2817
736.5070740858458,2764
738.7753219461066,2793
741.0429515578281,2751
743.3099631419569,2785
745.5763569195191,2743
747.8421331116193,2817
750.1072919394409,2795
752.3718336242467,2814
754.6357583873777,2851
756.8990664502545,2759
759.1617580343765,2726
761.423833361321,2747
763.6852926527457,2785
765.9461361303862,2802
768.206364016058,2923
770.4659765316536,2858
772.7249738991469,2848
774.9833563405886,2910
777.2411240781092,2824
779.4982773339183,2724
781.7548163303044,2856
784.010741289634,2946
786.2660524343538,2999
788.5207499869881,2900
790.7748341701416,2952
793.0283052064964,2918
795.2811633188143,2899
797.5334087299362,2857
799.7850416627813,2887
802.0360623403484,2841
804.2864709857143,2833
806.5362678220353,2913
808.7854530725468,2880
811.0340269605625,2899
813.2819897094754,2924
815.5293415427581,2990
817.77608268396,2874
820.0222133567116,2845
822.2677337847211,2916
824.5126441917765,2967
826.7569448017433,2909
829.0006358385675,2901
831.2437175262731,2903
833.4861900889629,2843
835.7280537508192,2886
837.9693087361026,2939
840.2099552691533,2914
842.4499935743896,2933
844.689423876309,2918
846.9282463994886,2924
849.1664613685833,2954
851.4040690083276,2890
853.6410695435349,2910
855.877463199097,2849
858.1132501999847,2926
860.3484307712487,2892
862.5830051380175,2882
864.8169735254988,2889
867.0503361589791,2923
869.2830932638243,2897
871.5152450654786,3005
873.7467917894654,2998
875.9777336613873,2908
878.2080709069252,2943
880.4378037518389,2907
882.666932421968,3080
884.8954571432301,3012
887.1233781416219,3042
889.3506956432192,3065
891.5774098741766,3009
893.803521060728,2994
896.0290294291852,2970
898.2539352059397,2964
900.4782386174619,3014
902.7019398903011,2899
904.925039251085,2965
907.147536926521,2971
909.3694331433943,2805
911.59072812857,3015
913.8114221089921,2913
916.0315153116827,2902
918.2510079637437,2952
920.4699002923547,2964
922.6881925247761,2869
924.905884888345,2843
927.1229776104793,2853
929.3394709186747,2894
931.555365040506,2878
933.7706602036275,2850
935.9853566357709,2835
938.1994545647489,2883
940.4129542184515,2915
942.6258558248488,2831
944.8381596119883,2855
947.0498658079974,2917
949.2609746410825,2879
951.4714863395287,2793
953.6814011316998,2799
955.8907192460387,2791
958.0994409110671,2751
960.3075663553858,2783
962.5150958076741,2806
964.7220294966913,2832
966.928367651274,2805
969.1341105003388,2821
971.3392582728806,2734
973.5438111979742,2786
975.747769504772,2770
977.9511334225061,2733
980.153903180487,2789
982.3560790081052,2713
984.5576611348289,2754
986.7586497902058,2708
988.9590452038618,2719
991.158847605503,2688
993.3580572249133,2665
995.5566742919558,2688
997.7546990365728,2651
999.952131688785,2558
1002.1489724786926,2516
1004.3452216364743,2505
1006.5408793923874,2526
1008.7359459767691,2541
1010.9304216200343,2493
1013.1243065526781,2499
1015.3176010052733,2424
1017.510305208472,2412
1019.7024193930064,2522
1021.8939437896848,2405
1024.0848786293977,2392
1026.2752241431122,2532
1028.4649805618747,2346
1030.6541481168115,2437
1032.842727039127,2405
1035.0307175601051,2409
1037.2181199111074,2351
1039.4049343235752,2403
1041.591161029029,2420
1043.7768002590683,2367
1045.9618522453698,2406
1048.1463172196918,2452
1050.3301954138697,2388
1052.513487059818,2423
1054.69619238953,2394
1056.8783116350783,2435
1059.0598450286152,2335
1061.2407928023704,2428
1063.4211551886528,2359
1065.6009324198508,2364
1067.780124728432,2411
1069.9587323469414,2361
1072.1367555080046,2329
1074.314194444325,2298
1076.4910493886855,2414
1078.667320573947,2372
1080.843008233051,2279
1083.0181125990161,2308
1085.1926339049414,2431
1087.3665723840027,2201
1089.5399282694575,2273
1091.7127017946405,2344
1093.8848931929647,2358
1096.0565026979243,2358
1098.2275305430899,2253
1100.3979769621128,2285
1102.567842188722,2202
1104.737126456726,2222
1106.9058300000124,2254
1109.0739530525475,2194
1111.2414958483764,2229
1113.4084586216231,2270
1115.5748416064907,2279
1117.7406450372605,2277
1119.9058691482942,2232
1122.0705141740304,2170
1124.2345803489884,2175
1126.3980679077658,2266
1128.5609770850388,2312
1130.7233081155623,2245
1132.8850612341707,2258
1135.0462366757774,2183
1137.2068346753745,2195
1139.3668554680326,2257
1141.526299288901,2135
1143.68516637321,2236
1145.8434569562655,2202
1148.001171273455,2151
1150.158309560244,2170
1152.3148720521767,2182
1154.470858984876,2131
1156.626270594044,2147
1158.7811071154629,2112
1160.9353687849912,2164
1163.089055838569,2145
1165.242168512213,2145
1167.3947070420209,2095
1169.5466716641677,2187
1171.6980626149075,2176
1173.8488801305748,2090
1175.9991244475814,2172
1178.1487958024186,2154
1180.2978944316555,2164
1182.4464205719428,2164
1184.5943744600072,2186
1186.7417563326567,2104
1188.8885664267755,2079
1191.0348049793297,2109
1193.1804722273619,2153
1195.325568407995,2166
1197.4700937584303,2192
1199.614048515948,2148
1201.7574329179074,2135
1203.900247201746,2207
1206.042491604982,2112
1208.1841663652099,2103
1210.3252717201053,2162
1212.465807907422,2077
1214.6057751649923,2172
1216.7451737307279,2176
1218.8840038426192,2135
1221.0222657387353,2180
1223.1599596572241,2246
1225.2970858363137,2139
1227.4336445143094,2108
1229.5696359295966,2267
1231.705060320639,2173
1233.8399179259786,2334
1235.9742089842384,2260
1238.107933734118,2114
1240.2410924143974,2130
1242.373685263935,2191
1244.5057125216676,2195
1246.6371744266116,2187
1248.7680712178621,2202
1250.898403134593,2164
1253.028170416058,2139
1255.1573733015875,2280
1257.2860120305932,2131
1259.4140868425648,2146
1261.54159797707,2182
1263.6685456737569,2192
1265.7949301723515,2191
1267.9207517126597,2162
1270.046010534565,2242
1272.1707068780306,2217
1274.2948409830983,2191
1276.4184130898889,2265
1278.541423438603,2227
1280.6638722695184,2239
1282.785759822993,2247
1284.9070863394636,2228
1287.0278520594447,2301
1289.1480572235314,2242
1291.2677020723963,2213
1293.3867868467923,2303
1295.5053117875495,2246
1297.623277135579,2353
1299.740683131868,2285
1301.8575300174857,2234
1303.973818033578,2319
1306.0895474213703,2273
1308.2047184221678,2314
1310.3193312773528,2226
1312.4333862283888,2311
1314.5468835168163,2232
1316.659823384255,2286
1318.7722060724045,2326
1320.8840318230418,2294
1322.9953008780249,2298
1325.1060134792888,2262
1327.2161698688478,2319
1329.3257702887959,2259
1331.4348149813054,2375
1333.5433041886276,2341
1335.6512381530933,2313
1337.7586171171101,2256
1339.8654413231675,2239
1341.9717110138317,2335
1344.0774264317488,2254
1346.1825878196432,2274
1348.2871954203192,2304
1350.3912494766587,2313
1352.4947502316231,2272
1354.5976979282532,2327
1356.7000928096686,2277
1358.8019351190665,2249
1360.9032250997243,2256
1363.0039629949988,2278
1365.1041490483235,2278
1367.2037835032133,2246
1369.3028666032606,2197
1371.401398592137,2281
1373.4993797135926,2218
1375.5968102114575,2304
1377.6936903296396,2364
1379.7900203121262,2369
1381.8858004029835,2306
1383.9810308463561,2309
1386.075711886469,2345
1388.1698437676241,2244
1390.2634267342032,2316
1392.356461030667,2376
1394.4489469015557,2405
1396.5408845914872,2342
1398.6322743451592,2437
1400.7231164073469,2383
1402.813411022907,2271
1404.903158436773,2326
1406.9923588939578,2303
1409.0810126395531,2363
1411.1691199187303,2360
1413.2566809767386,2370
1415.343696058907,2462
1417.4301654106425,2307
1419.5160892774315,2391
1421.6014679048399,2410
1423.6863015385125,2408
1425.7705904241707,2395
1427.8543348076178,2377
1429.9375349347342,2497
1432.0201910514802,2440
1434.102303403894,2374
1436.1838722380944,2401
1438.2648978002767,2441
1440.3453803367174,2418
1442.4253200937692,2481
1444.5047173178677,2471
1446.5835722555234,2482
1448.6618851533285,2509
1450.739656257952,2499
1452.8168858161434,2486
1454.8935740747306,2505
1456.96972128062,2472
1459.045327680797,2565
1461.120393522327,2614
1463.1949190523528,2583
1465.2689045180973,2611
1467.3423501668608,2610
1469.415256246024,2579
1471.4876230030463,2579
1473.559450685465,2618
1475.6307395408976,2607
1477.7014898170391,2760
1479.771701761665,2628
1481.8413756226287,2691
1483.9105116478618,2750
1485.9791100853772,2737
1488.0471711832643,2767
1490.1146951896926,2874
1492.1816823529098,2810
1494.2481329212433,2748
1496.3140471430984,2766
1498.3794252669609,2815
1500.4442675413939,2821
1502.5085742150404,2861
1504.572345536622,2893
1506.6355817549388,2856
1508.6982831188702,2862
1510.7604498773744,3034
1512.8220822794883,2924
1514.8831805743293,2899
1516.9437450110909,3015
1519.003775839048,3004
1521.0632733075522,3054
1523.1222376660367,3100
1525.1806691640113,3316
1527.2385680510652,3120
1529.2959345768668,3195
1531.3527689911643,3320
1533.4090715437833,3344
1535.4648424846291,3348
1537.5200820636855,3417
1539.5747905310159,3533
1541.6289681367616,3447
1543.6826151311434,3499
1545.7357317644614,3493
1547.7883182870937,3606
1549.8403749494987,3678
1551.8919020022113,3711
1553.9428996958477,3661
1555.9933682811015,3780
1558.0433080087469,3697
1560.0927191296346,3829
1562.1416018946961,3896
1564.1899565549415,3939
1566.2377833614592,3898
1568.2850825654164,3813
1570.3318544180606,3754
1572.3780991707158,3723
1574.423817074788,3743
1576.4690083817595,3590
1578.5136733431923,3419
1580.5578122107272,3287
1582.601425236085,3357
1584.6445126710646,3200
1586.6870747675434,3164
1588.7291117774776,2978
1590.7706239529034,2923
1592.8116115459347,2836
1594.8520748087658,2921
1596.8920139936686,2787
1598.9314293529933,2831
1600.9703211391711,2765
1603.008689604711,2704
1605.0465350022005,2673
1607.0838575843068,2710
1609.1206576037753,2641
1611.1569353134305,2602
1613.1926909661765,2596
1615.2279248149953,2588
1617.2626371129481,2577
1619.2968281131757,2520
1621.3304980688963,2552
1623.3636472334088,2550
1625.39627586009,2511
1627.428384202396,2466
1629.459972513861,2494
1631.4910410480993,2466
1633.5215900588028,2471
1635.551619799744,2574
1637.5811305247717,2480
1639.6101224878166,2435
1641.6385959428862,2488
1643.6665511440683,2470
1645.693988345528,2443
1647.7209078015112,2352
1649.7473097663405,2451
1651.7731944944203,2488
1653.7985622402307,2490
1655.823413258333,2500
1657.847747803366,2471
1659.8715661300494,2407
1661.8948684931793,2443
1663.9176551476316,2455
1665.9399263483624,2404
1667.9616823504057,2492
1669.982923408873,2474
1672.0036497789574,2429
1674.0238617159293,2479
1676.043559475138,2416
1678.0627433120121,2396
1680.081413482059,2445
1682.0995702408654,2379
1684.117213844096,2388
1686.134344547495,2372
1688.1509626068864,2399
1690.1670682781705,2429
1692.182661817329,2401
1694.1977434804217,2409
1696.2123135235875,2447
1698.226372203043,2441
1700.2399197750851,2392
1702.2529564960905,2479
1704.2654826225112,2491
1706.277498410882,2463
1708.2890041178139,2389
1710.2999999999988,2420
1712.3104863142066,2368
1714.3204633172854,2343
1716.329931266163,2381
1718.3388904178469,2444
1720.3473410294214,2403
1722.3552833580516,2392
1724.3627176609807,2375
1726.3696441955308,2339
1728.3760632191033,2432
1730.3819749891782,2407
1732.3873797633146,2413
1734.3922777991502,2448
1736.3966693544012,2441
1738.4005546868639,2373
1740.4039340544127,2420
1742.406807715001,2411
1744.4091759266616,2371
1746.4110389475054,2441
1748.4123970357223,2452
1750.413250449582,2395
1752.4135994474318,2436
1754.4134442876993,2312
1756.4127852288902,2342
1758.4116225295893,2399
1760.4099564484595,2347
1762.407787244244,2335
1764.405115175764,2406
1766.4019405019203,2414
1768.3982634816916,2384
1770.3940843741357,2413
1772.3894034383907,2349
1774.3842209336717,2290
1776.378537119274,2407
1778.372352254571,2398
1780.3656665990156,2365
1782.3584804121397,2342
1784.3507939535534,2379
1786.3426074829463,2301
1788.3339212600863,2404
1790.3247355448211,2375
1792.3150505970766,2408
1794.3048666768573,2367
1796.2941840442477,2332
1798.2830029594106,2360
1800.2713236825884,2320
1802.2591464741004,2409
1804.2464715943465,2426
1806.2332993038058,2379
1808.2196298630352,2319
1810.2054635326708,2322
1812.190800573428,2407
1814.175641246101,2336
1816.1599858115628,2373
1818.1438345307652,2335
1820.127187664738,2371
1822.1100454745924,2319
1824.092408221516,2201
1826.0742761667766,2334
1828.055649571721,2332
1830.0365286977735,2321
1832.0169138064398,2347
1833.9968051593014,2310
1835.9762030180214,2333
1837.9551076443408,2275
1839.9335193000788,2372
1841.9114382471344,2297
1843.888864747485,2329
1845.8657990631878,2335
1847.842241456378,2303
1849.8181921892697,2259
1851.7936515241558,2320
1853.7686197234098,2295
1855.7430970494815,2298
1857.7170837649014,2263
1859.6905801322787,2302
1861.6635864143004,2235
1863.6361028737338,2180
1865.608129773424,2292
1867.5796673762961,2231
1869.5507159453537,2242
1871.521275743678,2263
1873.4913470344313,2191
1875.4609300808534,2236
1877.4300251462632,2209
1879.3986324940588,2209
1881.366752387717,2285
1883.3343850907936,2249
1885.3015308669228,2283
1887.268189979819,2354
1889.2343626932739,2309
1891.2000492711595,2340
1893.1652499774254,2341
1895.1299650761011,2281
1897.0941948312952,2257
1899.0579395071945,2296
1901.0211993680641,2294
1902.98397467825,2275
1904.9462657021745,2293
1906.9080727043415,2246
1908.869395949332,2216
1910.8302357018065,2264
1912.790592226504,2298
1914.7504657882428,2236
1916.7098566519212,2276
1918.6687650825133,2260
1920.6271913450764,2230
1922.5851357047422,2225
1924.5425984267245,2230
1926.499579776314,2272
1928.4560800188833,2259
1930.4120994198802,2297
1932.367638244833,2185
1934.32269675935,2198
1936.2772752291175,2174
1938.231373919899,2248
1940.1849930975404,2258
1942.1381330279637,2214
1944.0907939771696,2234
1946.0429762112412,2200
1947.9946799963363,2219
1949.9459055986945,2235
1951.896653284633,2217
1953.8469233205478,2179
1955.7967159729142,2268
1957.7460315082863,2299
1959.6948701932974,2217
1961.6432322946594,2280
1963.5911180791632,2160
1965.5385278136787,2161
1967.4854617651545,2228
1969.4319202006182,2208
1971.377903387176,2173
1973.3234115920136,2105
1975.268445082395,2233
1977.2130041256642,2239
1979.1570889892423,2147
1981.1006999406304,2167
1983.04383724741,2144
1984.986501177238,2242
1986.928691997853,2240
1988.8704099770712,2192
1990.811655382789,2121
1992.7524284829801,2165
1994.692729545698,2175
1996.6325588390755,2250
1998.5719166313224,2228
2000.5108031907307,2154
2002.4492187856677,2141
2004.387163684583,2192
2006.3246381560011,2148
2008.2616424685298,2123
2010.1981768908527,2125
2012.1342416917332,2174
2014.069837140014,2149
2016.0049635046162,2229
2017.9396210545406,2233
2019.8738100588666,2198
2021.8075307867502,2176
2023.740783507431,2112
2025.6735684902228,2156
2027.6058860045214,2182
2029.5377363198004,2224
2031.4691197056118,2104
2033.4000364315875,2245
2035.3304867674374,2203
2037.260470982952,2100
2039.189989347998,2148
2041.1190421325232,2182
2043.047629606554,2117
2044.9757520401945,2152
2046.9034097036288,2135
2048.8306028671195,2169
2050.7573318010086,2193
2052.683596775716,2140
2054.609398061742,2125
2056.5347359296647,2165
2058.4596106501403,2186
2060.384022493906,2170
2062.3079717317764,2155
2064.231458634646,2117
2066.1544834734873,2106
2068.077046519352,2155
2069.99914804337,2130
2071.9207883167524,2147
2073.8419676107865,2114
2075.7626861968406,2097
2077.6829443463607,2181
2079.6027423308715,2171
2081.522080421977,2176
2083.440958891362,2138
2085.359378010786,2167
2087.2773380520907,2251
2089.194839287196,2176
2091.111881988101,2184
2093.0284664268825,2145
2094.9445928756973,2158
2096.86026160678,2164
2098.775472892446,2129
2100.690227005088,2223
2102.604524217178,2224
2104.5183648012676,2173
2106.431749029985,2217
2108.34467717604,2169
2110.2571495122206,2255
2112.169166311393,2160
2114.080727846503,2153
2115.9918343905747,2120
2117.902486216711,2160
2119.8126835980956,2249
2121.722426807987,2184
2123.6317161197285,2215
2125.5405518067364,2272
2127.448934142509,2177
2129.356863400624,2224
2131.264339854737,2205
2133.1713637785815,2241
2135.077935445972,2297
2136.9840551308002,2248
2138.889723107037,2192
2140.7949396487334,2190
2142.699705030018,2268
2144.6040195250994,2262
2146.507883408264,2317
2148.4112969538774,2216
2150.3142604363848,2218
2152.2167741303097,2216
2154.1188383102535,2271
2156.0204532508997,2285
2157.9216192270064,2293
2159.822336513414,2279
2161.7226053850413,2291
2163.622426116884,2256
2165.5217989840185,2221
2167.4207242616,2334
2169.319202224862,2277
2171.2172331491165,2346
2173.1148173097563,2230
2175.0119549822507,2292
2176.90864644215,2333
2178.8048919650823,2294
2180.7006918267534,2342
2182.596046302952,2308
2184.4909556695407,2277
2186.3854202024645,2333
2188.279440177746,2280
2190.173015871487,2172
2192.066147559868,2195
2193.958835519149,2352
2195.851080025667,2371
2197.7428813558417,2356
2199.6342397861667,2362
2201.5251555932186,2298
2203.415629053651,2332
2205.3056604441986,2291
2207.19525004167,2392
2209.084398122958,2339
2210.9731049650327,2346
2212.861370844941,2390
2214.749196039812,2422
2216.636580826851,2458
2218.523525483344,2334
2220.410030286655,2413
2222.296095514226,2380
2224.1817214435805,2480
2226.066908352319,2428
2227.951656518121,2424
2229.835966218746,2341
2231.71983773203,2395
2233.6032713358913,2391
2235.486267308324,2449
2237.3688259274036,2350
2239.2509474712824,2396
2241.132632218193,2456
2243.013880446447,2449
2244.8946924344323,2411
2246.7750684606203,2437
2248.6550088035574,2356
2250.534513741871,2392
2252.413583554265,2432
2254.292218519526,2406
2256.170418916517,2351
2258.0481850241786,2292
2259.925517121534,2391
2261.8024154876825,2400
2263.678880401803,2410
2265.5549121431536,2412
2267.430510991071,2365
2269.305677224971,2372
2271.180411124348,2356
2273.0547129687766,2377
2274.9285830379076,2312
2276.8020216114737,2356
2278.6750289692845,2333
2280.5476053912294,2396
2282.4197511572766,2432
2284.2914665474727,2434
2286.162751841943,2459
2288.0336073208937,2471
2289.904033264608,2478
2291.774029953448,2418
2293.6435976678554,2400
2295.5127366883517,2339
2297.381447295534,2307
2299.2497297700825,2289
2301.1175843927526,2327
2302.9850114443825,2161
2304.852011205885,2209
2306.7185839582553,2224
2308.5847299825664,2168
2310.4504495599676,2056
2312.3157429716925,2166
2314.1806104990483,2196
2316.0450524234247,2152
2317.9090690262888,2128
2319.772660589186,2192
2321.635827393742,2128
2323.498569721661,2048
2325.3608878547248,2050
2327.2227820747967,2033
2329.0842526638157,2112
2330.945299903803,2057
2332.805924076857,2066
2334.6661254651535,2104
2336.525904350951,2101
2338.3852610165827,2131
2340.244195744464,2052
2342.102708817088,2024
2343.9608005170253,2021
2345.8184711269287,2093
2347.675720929526,2136
2349.532550207628,2087
2351.38895924412,2049
2353.24494832197,2120
2355.100517724223,2043
2356.955667734004,2105
2358.810398634514,2086
2360.664710709037,2086
2362.5186042409337,2042
2364.3720795136437,2096
2366.225136810686,2144
2368.0777764156583,2092
2369.929998612237,2062
2371.7818036841777,2186
2373.633191915315,2056
2375.484163589562,2105
2377.3347189909114,2184
2379.184858403434,2107
2381.03458211128,2113
2382.8838903986775,2107
2384.732783549936,2112
2386.5812618494406,2088
2388.4293255816588,2170
2390.2769750311327,2120
2392.1242104824883,2156
2393.971032220427,2097
2395.8174405297295,2172
2397.6634356952563,2145
2399.509018001947,2193
2401.3541877348193,2129
2403.1989451789705,2109
2405.043290619576,2085
2406.8872243418905,2104
2408.730746631247,2132
2410.5738577730594,2182
2412.4165580528183,2131
2414.258847756095,2065
2416.100727168537,2138
2417.9421965758734,2171
2419.783256263912,2124
2421.623906518538,2161
2423.4641476257157,2121
2425.303979871491,2148
2427.143403541984,2117
2428.9824189233977,2069
2430.821026302012,2153
2432.6592259641866,2087
2434.497018196361,2183
2436.33440328505,2138
2438.171381516851,2129
2440.00795317844,2108
2441.844118556569,2122
2443.6798779380724,2096
2445.5152316098606,2182
2447.3501798589255,2204
2449.1847229723357,2139
2451.0188612372403,2144
2452.8525949408663,2126
2454.6859243705203,2212
2456.518849813587,2119
2458.3513715575314,2179
2460.183489889895,2065
2462.015205098301,2217
2463.8465174704493,2137
2465.67742729412,2141
2467.5079348571717,2138
2469.338040447542,2140
2471.1677443532476,2113
2472.9970468623833,2083
2474.825948263123,2133
2476.6544488437207,2113
2478.482548892508,2089
2480.310248697896,2111
2482.137548548374,2128
2483.9644487325118,2154
2485.790949538956,2080
2487.617051256433,2164
2489.44275417375,2186
2491.26805857979,2102
2493.0929647635157,2083
2494.917473013971,2171
2496.741583620276,2144
2498.5652968716304,2140
2500.3886130573137,2158
2502.2115324666834,2177
2504.0340553891765,2265
2505.856182114308,2150
2507.6779129316733,2145
2509.499248130945,2160
2511.3201880018764,2117
2513.140732834298,2139
2514.9608829181198,2142
2516.780638543331,2134
2518.6,2140
2520.418967578273,2180
2522.237541568376,2206
2524.0557222606144,2132
2525.8735099453706,2110
2527.6909049131086,2147
2529.507907454368,2125
2531.32451785977,2140
2533.140736420014,2223
2534.9565634258774,2153
2536.771999168218,2243
2538.5870439379714,2268
2540.4016980261526,2179
2542.2159617238544,2196
2544.02983532225,2225
2545.8433191125914,2205
2547.656413386209,2198
2549.4691184345115,2111
2551.2814345489874,2196
2553.093362021204,2233
2554.904901142808,2143
2556.716052205523,2206
2558.526815501153,2297
2560.3371913215824,2269
2562.147179958771,2251
2563.956781704761,2230
2565.7659968516705,2179
2567.5748256916986,2176
2569.3832685171224,2155
2571.1913256202984,2209
2572.9989972936614,2298
2574.806283829725,2221
2576.613185521084,2245
2578.4197026604074,2259
2580.2258355404483,2285
2582.031584454035,2257
2583.836949694077,2263
2585.6419315535613,2259
2587.4465303255533,2293
2589.2507463032002,2215
2591.0545797797245,2279
2592.8580310484303,2317
2594.6611004026995,2322
2596.463788135992,2324
2598.266094541849,2225
2600.0680199138874,2316
2601.869564545807,2286
2603.670728731383,2296
2605.4715127644704,2238
2607.2719169390048,2358
2609.071941548998,2345
2610.8715868885433,2224
2612.670853251811,2235
2614.469740933052,2313
2616.268250226594,2246
2618.0663814268455,2248
2619.864134828292,2235
2621.6615107255006,2278
2623.458509413115,2296
2625.2551311858597,2276
2627.0513763385347,2361
2628.8472451660223,2310
2630.6427379632833,2272
2632.4378550253564,2267
2634.232596647359,2234
2636.026963124488,2272
2637.8209547520187,2261
2639.6145718253065,2217
2641.407814639785,2240
2643.200683490966,2185
2644.9931786744414,2213
2646.7853004858807,2107
2648.577049221034,2123
2650.3684251757277,2274
2652.1594286458712,2145
2653.9500599274484,2198
2655.740319316525,2205
2657.5302071092437,2140
2659.3197236018286,2109
2661.10886909058,2148
2662.8976438718782,2107
2664.686048242183,2119
2666.4740824980327,2153
2668.2617469360443,2167
2670.0490418529134,2122
2671.8359675454153,2169
2673.622524310403,2164
2675.408712444811,2089
2677.1945322456495,2091
2678.979984010009,2129
2680.76506803506,2084
2682.5497846180497,2140
2684.334134056306,2044
2686.1181166472343,2053
2687.9017326883213,2098
2689.6849824771293,1966
2691.4678663113013,2046
2693.2503844885596,2019
2695.032537306705,2112
2696.8143250636167,2047
2698.5957480572542,2084
2700.3768065856534,1988
2702.1575009469316,2037
2703.937831439283,2127
2705.717798360982,2046
2707.4974020103837,1928
2709.276642685917,1997
2711.055520686095,2065
2712.834036309506,2060
2714.612189854819,2078
2716.389981620782,2017
2718.1674119062204,2154
2719.944481010041,2080
2721.721189231226,1973
2723.4975368688415,1998
2725.273524222027,1956
2727.0491515900053,1962
2728.824419272075,1921
2730.5993275676146,2019
2732.3738767760838,2053
2734.148067197016,2010
2735.921899130031,1934
2737.6953728748194,1932
2739.468488731156,1992
2741.2412469988926,2010
2743.0136479779617,1895
2744.785691968372,1983
2746.5573792702116,1986
2748.3287101836504,1856
2750.099685008934,1923
2751.870304046388,2024
2753.640567596418,2023
2755.4104759595057,1907
2757.1800294362156,2016
2758.949228327187,1935
2760.7180729331412,1994
2762.486563554877,1948
2764.254700493272,1905
2766.022484049284,2019
2767.789914523947,1935
2769.5569922183786,1984
2771.3237174337705,1961
2773.090090471394,1952
2774.8561116326036,1960
2776.6217812188274,2039
2778.3870995315756,1972
2780.1520668724356,1942
2781.9166835430747,1933
2783.6809498452394,1982
2785.444866080754,2013
2787.2084325515225,2034
2788.971649559527,1960
2790.73451740683,1933
2792.4970363955713,1960
2794.2592068279705,1951
2796.0210290063264,1989
2797.7825032330147,2031
2799.543629810493,1947
2801.304409041296,2004
2803.0648412280366,2043
2804.8249266734088,1987
2806.5846656801846,1984
2808.344058551212,1938
2810.1031055894246,1946
2811.8618070978273,1984
2813.6201633795085,1975
2815.378174737636,1999
2817.1358414754536,1962
2818.893163896285,1947
2820.6501423035334,1974
2822.4067770006814,1919
2824.1630682912883,1930
2825.9190164789957,2045
2827.6746218675207,1973
2829.429884760661,1971
2831.184805462294,2019
2832.9393842763743,1987
2834.693621506936,1969
2836.4475174580916,1960
2838.201072434034,1943
2839.954286739034,1944
2841.707160677441,2007
2843.459694553685,1904
2845.2118886722724,1978
2846.96374333779,1927
2848.7152588549034,1948
2850.4664355283567,1997
2852.217273662973,1970
2853.9677735636546,1954
2855.7179355353833,1964
2857.4677598832186,1963
2859.217246912299,1955
2860.9663969278427,1968
2862.715210235146,1961
2864.4636871395846,1970
2866.211827946614,1960
2867.9596329617652,1993
2869.7071024906536,1903
2871.4542368389684,1943
2873.20103631248,2013
2874.947501217038,1953
2876.6936318585695,1926
2878.4394285430812,1912
2880.1848915766604,1943
2881.9300212654707,1904
2883.6748179157553,1905
2885.4192818338374,1889
2887.1634133261173,1962
2888.907212699077,1948
2890.6506802592744,1969
2892.393816313348,1981
2894.1366211680142,1961
2895.8790951300693,1939
2897.621238506388,1938
2899.363051603925,1892
2901.1045347297118,1904
2902.8456881908596,1954
2904.58651229456,1927
2906.327007348081,1961
2908.067173658772,1934
2909.8070115340597,1907
2911.5465212814497,1874
2913.285703208527,1929
2915.0245576229563,1933
2916.7630848324807,1905
2918.5012851449196,1958
2920.2391588681758,1972
2921.976706310227,1921
2923.7139277791334,1964
2925.4508235830313,2051
2927.187394030137,1915
2928.923639428745,2010
2930.6595600872306,1935
2932.395156314046,2006
2934.1304284177218,1916
2935.8653767068713,1943
2937.6000014901815,1945
2939.3343030764227,1848
2941.068281774442,1997
2942.8019378931644,1925
2944.5352717415976,1909
2946.2682836288236,1998
2948.0009738640065,1947
2949.7333427563885,2010
2951.465390615289,1956
2953.1971177501086,1969
2954.9285244703265,2000
2956.6596110855,2025
2958.3903779052657,1999
2960.1208252393385,2002
2961.8509533975125,1963
2963.5807626896617,1927
2965.3102534257378,1926
2967.0394259157715,1952
2968.768280469873,1975
2970.496817398232,1960
2972.2250370111146,1946
2973.952939618869,2001
2975.6805255319196,2003
2977.4077950607707,2047
2979.134748516006,2052
2980.861386208289,1974
2982.587708448359,1992
2984.313715547037,1989
2986.039407815222,1993
2987.764785563891,1983
2989.489849104102,1921
2991.2145987469908,1911
2992.9390348037705,2016
2994.6631575857346,1874
2996.3869674042576,1983
2998.1104645707887,1978
2999.83364939686,1900
3001.5565221940783,2016
3003.2790832741334,1990
3005.0013329487924,1930
3006.7232715298996,1923
3008.4448993293804,1963
3010.166216659239,1950
3011.887223831558,1914
3013.607921158498,1928
3015.3283089522993,1993
3017.0483875252826,1991
3018.7681571898443,1969
3020.4876182584626,1963
3022.2067710436927,1947
3023.9256158581707,1960
3025.644153014609,2015
3027.362382825801,2038
3029.0803056046193,1938
3030.797921664012,1961
3032.5152313170106,1968
3034.2322348767225,1951
3035.9489326563353,1968
3037.665324969115,1944
3039.3814121284063,1973
3041.097194447633,1962
3042.812672240299,2026
3044.5278458199855,1967
3046.2427155003525,1960
3047.9572815951406,1967
3049.671544418167,1960
3051.38550428333,1946
3053.0991615046073,1922
3054.812516396051,1975
3056.5255692717974,1940
3058.2383204460575,1947
3059.9507702331257,1968
3061.662918947372,1960
3063.3747669032446,1964
3065.0863144152736,1977
3066.7975617980674,1985
3068.508509366309,1989
3070.219157434767,1977
3071.9295063182844,1939
3073.639556331785,1973
3075.3493077902704,1990
3077.058761008821,1979
3078.7679163025964,1929
3080.476773986837,2041
3082.1853343768594,1930
3083.89359778806,1954
3085.6015645359153,2015
3087.3092349359786,1969
3089.016609303884,1982
3090.7236879553434,1927
3092.4304712061476,1947
3094.136959372166,2017
3095.843152769349,1986
3097.5490517137237,1921
3099.2546565213966,1998
3100.959967508554,1949
3102.66498499146,1940
3104.3697092864577,1980
3106.0741407099695,2003
3107.778279578498,2032
3109.482126208622,1997
3111.1856809170004,1927
3112.8889440203716,2014
3114.5919158355528,2066
3116.294596679439,2055
3117.996986869006,2019
3119.6990867213062,2070
3121.4008965534726,2025
3123.102416682717,2115
3124.803647426329,2018
3126.5045891016784,2080
3128.205242026213,2034
3129.90560651746,2087
3131.605682893025,2087
3133.3054714705922,2094
3135.0049725679282,2004
3136.7041865028714,2022
3138.4031135933465,2042
3140.101754157353,2007
3141.800108512971,2128
3143.498176978357,2064
3145.1959598717494,2057
3146.8934575114636,2030
3148.5906702158954,2070
3150.2875983035183,1992
3151.9842420928853,1964
3153.680601902627,1982
3155.376678051456,2019
3157.07247085816,2007
3158.767980641609,1959
3160.463207720748,2025
3162.158152414606,2093
3163.8528150422862,1995
3165.5471959229726,2063
3167.2412953759303,2000
3168.9351137204976,2099
3170.628651276098,2038
3172.3219083622307,2012
3174.014885298474,2083
3175.707582404485,2068
3177.4000000000005,2047
3179.092138404835,2004
3180.7839979388846,2026
3182.47557892212,2079
3184.166881674594,2026
3185.8579065164386,1983
3187.5486537678626,1995
3189.2391237491547,2061
3190.9293167806827,2030
3192.6192331828934,2126
3194.3088732763117,2092
3195.998237381542,2014
3197.687325819268,2025
3199.376138910251,1928
3201.064676975334,2042
3202.7529403354347,2006
3204.4409293115523,1976
3206.1286442247647,2017
3207.816085396229,1990
3209.5032531471825,1952
3211.190147798936,1968
3212.8767696728846,1997
3214.5631190905015,1977
3216.2491963733373,1935
3217.9350018430214,1952
3219.6205358212637,1954
3221.305798629851,1963
3222.990790590651,1907
3224.6755120256103,1969
3226.359963256751,1921
3228.0441446061795,1979
3229.7280563960758,1921
3231.411698948703,1956
3233.0950725863995,2086
3234.778177631587,1997
3236.461014406761,2037
3238.1435832345005,1999
3239.8258844374595,2061
3241.507918338374,1938
3243.1896852600576,2041
3244.8711855254023,2074
3246.552419457381,2002
3248.233387379042,2010
3249.914089613516,2026
3251.59452648401,2025
3253.274698313813,2008
3254.95460542629,1927
3256.6342481448855,1978
3258.313626793125,2040
3259.9927416946084,1920
3261.6715931730196,1908
3263.3501815521176,1933
3265.0285071557437,1945
3266.706570307815,2026
3268.3843713323286,2011
3270.0619105533615,1976
3271.739188295068,1983
3273.4162048816834,2020
3275.0929606375184,2019
3276.769455886966,1987
3278.445690954498,1980
3280.1216661646613,2006
3281.797381842087,1987
3283.4728383114807,2033
3285.1480358976296,1999
3286.8229749253996,1998
3288.4976557197333,1994
3290.172078605655,1947
3291.846243908266,1960
3293.5201519527463,1961
3295.193803064357,1973
3296.8671975684374,1954
3298.5403357904024,1929
3300.21321805575,1972
3301.8858446900567,1943
3303.558216018975,1992
3305.23033236824,1917
3306.9021940636603,1937
3308.57380143113,1944
3310.2451547966184,1963
3311.916254486174,1982
3313.5871008259246,1984
3315.2576941420766,1919
3316.9280347609147,2012
3318.5981230088046,1924
3320.2679592121895,1924
3321.9375436975924,1973
3323.606876791612,1878
3325.27595882093,1886
3326.944790112305,1879
3328.6133709925753,1935
3330.2817017886573,1877
3331.949782827547,1923
3333.617614436319,1952
3335.2851969421245,1967
3336.952530672199,1873
3338.619615953853,1878
3340.286453114475,1964
3341.9530424815357,1892
3343.619384382583,1935
3345.2854791452437,1924
3346.951327097224,1961
3348.6169285663073,1940
3350.2822838803577,1993
3351.947393367319,1929
3353.61225735521,1929
3355.2768761721345,1971
3356.9412501462693,1978
3358.605379605873,1881
3360.2692648792827,1945
3361.9329062949146,1831
3363.596304181263,1851
