CollectionTime,7/9/2024 4:10:53 PM
ExposureUsed,3
CalibratedSpectrum
-962.7078968117929,517
-959.9714848408522,558
-957.2358232597828,528
-954.5009119013725,529
-951.7667505983302,529
-949.0333391832855,507
-946.3006774887896,527
-943.5687653473143,549
-940.837602591253,533
-938.1071890529199,513
-935.3775245645503,519
-932.6486089583007,539
-929.9204420662485,556
-927.1930237203925,543
-924.4663537526524,536
-921.7404319948689,551
-919.0152582788041,566
-916.2908324361409,620
-913.5671542984834,568
-910.8442236973568,557
-908.1220404642074,560
-905.4006044304027,568
-902.679915427231,548
-899.959973285902,567
-897.2407778375464,514
-894.5223289132158,546
-891.8046263438832,542
-889.0876699604426,548
-886.3714595937089,551
-883.6559950744183,541
-880.9412762332282,528
-878.2273029007168,576
-875.5140749073835,559
-872.8015920836489,543
-870.0898542598545,543
-867.3788612662631,545
-864.6686129330585,525
-861.9591090903457,534
-859.2503495681506,540
-856.5423341964203,538
-853.8350628050229,535
-851.1285352237478,538
-848.4227512823054,559
-845.7177108103272,569
-843.0134136373656,562
-840.3098595928943,573
-837.6070485063082,552
-834.9049802069229,555
-832.2036545239757,573
-829.5030712866244,556
-826.8032303239481,549
-824.1041314649472,562
-821.4057745385428,559
-818.7081593735775,537
-816.0112857988148,535
-813.3151536429393,552
-810.6197627345566,596
-807.9251129021936,545
-805.2312039742981,567
-802.5380357792392,553
-799.8456081453069,566
-797.1539209007124,569
-794.462973873588,540
-791.772766891987,608
-789.083299783884,567
-786.3945723771743,558
-783.7065844996748,558
-781.0193359791231,541
-778.3328266431781,573
-775.6470563194197,559
-772.9620248353489,552
-770.2777320183878,564
-767.5941776958798,597
-764.9113616950891,589
-762.2292838432011,590
-759.5479439673222,567
-756.8673418944801,577
-754.1874774516235,556
-751.5083504656222,565
-748.8299607632671,588
-746.15230817127,580
-743.475392516264,589
-740.7992136248035,612
-738.1237713233636,621
-735.4490654383407,591
-732.7750957960521,599
-730.1018622227365,609
-727.4293645445534,582
-724.7576025875837,603
-722.0865761778291,610
-719.4162851412126,585
-716.7467293035781,612
-714.0779084906909,590
-711.409822528237,595
-708.7424712418238,571
-706.0758544569796,583
-703.4099719991541,554
-700.7448236937178,632
-698.0804093659622,606
-695.4167288411002,600
-692.7537819442656,590
-690.0915685005134,605
-687.4300883348199,613
-684.7693412720819,581
-682.1093271371178,581
-679.4500457546669,608
-676.7914969493897,614
-674.1336805458676,609
-671.4765963686034,621
-668.8202442420206,634
-666.1646239904642,616
-663.5097354382001,606
-660.8555784094151,647
-658.2021527282176,630
-655.5494582186366,607
-652.8974947046223,625
-650.2462620100463,657
-647.5957599587009,603
-644.9459883742998,678
-642.2969470804776,730
-639.6486359007902,676
-637.0010546587141,690
-634.3542031776476,684
-631.7080812809096,617
-629.0626887917401,675
-626.4180255333008,631
-623.7740913286734,665
-621.1308860008619,686
-618.4884093727904,674
-615.8466612673046,694
-613.2056415071715,668
-610.5653499150785,648
-607.9257863136347,661
-605.28695052537,683
-602.6488423727357,697
-600.0114616781036,686
-597.3748082637674,676
-594.7388819519412,678
-592.1036825647604,726
-589.4692099242818,775
-586.8354638524829,711
-584.2024441712624,723
-581.5701507024403,714
-578.9385832677575,756
-576.3077416888759,748
-573.6776257873787,727
-571.0482353847704,717
-568.4195703024757,679
-565.7916303618415,667
-563.164415384135,757
-560.5379251905453,718
-557.9121596021815,714
-555.2871184400748,725
-552.6628015251767,722
-550.0392086783606,738
-547.4163397204204,720
-544.794194472071,700
-542.1727727539491,711
-539.5520743866118,732
-536.9320991905377,774
-534.3128469861261,842
-531.6943175936979,813
-529.0765108334947,841
-526.4594265256793,894
-523.8430644903358,971
-521.2274245474689,1168
-518.612506517005,1261
-515.9983102187913,1172
-513.3848354725959,1108
-510.77208209810846,1128
-508.16004991493924,1174
-505.5487387426199,1299
-502.9381484006032,1570
-500.3282787082628,1579
-497.71912948489364,1679
-495.1107005497117,1671
-492.5029917218539,1535
-489.8960028203786,1412
-487.28973366426493,1196
-484.68418407241325,1157
-482.07935386364494,1069
-479.47524285670266,963
-476.87185087025,969
-474.2691777228715,998
-471.66722323307334,957
-469.0659872192821,959
-466.4654694998459,934
-463.86566989303384,921
-461.26658821703614,992
-458.66822428996414,976
-456.07057792985,970
-453.4736489546475,928
-450.877437182231,904
-448.28194243039627,858
-445.68716451686,871
-443.09310325926003,869
-440.49975847515555,902
-437.9071299820263,871
-435.31521759727354,912
-432.72402113821954,956
-430.13354042210767,947
-427.5437752661022,970
-424.95472548728867,981
-422.36639090267386,956
-419.7787713291855,1011
-417.1918665836721,1029
-414.60567648290385,973
-412.0202008435715,1039
-409.4354394822874,977
-406.8513922155845,1056
-404.26805885991723,976
-401.685439231661,978
-399.103533147112,1003
-396.522340422488,1049
-393.9418608739278,956
-391.3620943174908,953
-388.7830405691583,1018
-386.2046994448317,937
-383.6270707603344,943
-381.05015433141045,885
-378.473949973725,772
-375.8984575028645,772
-373.32367673433623,722
-370.74960748356875,704
-368.1762495659117,678
-365.60360279663576,624
-363.03166699093265,590
-360.4604419639154,558
-357.8899275306178,534
-355.32012350599507,489
-352.7510297049233,526
-350.1826459421999,507
-347.61497203254316,524
-345.04800779059235,518
-342.4817530309082,556
-339.91620756797226,571
-337.35137121618743,552
-334.7872437898774,551
-332.22382510328725,558
-329.66111497058273,499
-327.09911320585127,497
-324.53781962310075,534
-321.9772340362607,560
-319.4173562591816,525
-316.8581861056348,524
-314.2997233893127,537
-311.7419679238294,529
-309.1849195227194,561
-306.62857799943856,580
-304.0729431673641,549
-301.51801483979375,522
-298.963792829947,556
-296.41027695096386,610
-293.85746701590574,624
-291.3053628377552,616
-288.7539642294155,626
-286.2032710037115,592
-283.65328297338897,606
-281.1039999511146,666
-278.5554217494762,648
-276.007548180983,620
-273.4603790580651,616
-270.9139141930734,623
-268.3681533982807,628
-265.8230964858798,646
-263.27874326798565,669
-260.7350935566336,633
-258.1921471637804,718
-255.6499039013039,674
-253.10836358100266,642
-250.56752601459698,629
-248.02739101372765,664
-245.48795838995704,698
-242.94922795476816,677
-240.41119951956557,694
-237.8738728956746,688
-235.33724789434166,808
-232.80132432673452,695
-230.2661020039418,645
-227.73158073697357,729
-225.19776033676033,803
-222.66464061415422,906
-220.1322213799284,822
-217.60050244477725,737
-215.06948361931552,732
-212.53916471408013,771
-210.00954553952818,792
-207.48062590603843,703
-204.9524056239104,747
-202.4248845033651,859
-199.8980623545441,818
-197.37193898751036,846
-194.84651421224817,922
-192.32178783866232,859
-189.79775967657952,876
-187.27442953574644,915
-184.7517972258321,980
-182.2298625564256,863
-179.7086253370378,886
-177.18808537710026,904
-174.66824248596583,914
-172.14909647290835,973
-169.6306471471229,959
-167.11289431772548,971
-164.59583779375328,905
-162.07947738416453,939
-159.5638128978386,1059
-157.04884414357605,1178
-154.53457093009854,1403
-152.02099306604828,1377
-149.50811035998936,1113
-146.99592262040665,1092
-144.48442965570587,1071
-141.97363127421409,1039
-139.46352728417958,1138
-136.95411749377126,1370
-134.44540171107985,1373
-131.93737974411636,1044
-129.43005140081357,1103
-126.92341648902493,1584
-124.41747481652521,1974
-121.91222619101006,2261
-119.40767042009657,2952
-116.90380731132257,3727
-114.40063667214702,3593
-111.8981583099503,2802
-109.3963720320337,1979
-106.89527764561933,1996
-104.39487495785067,2305
-101.89516377579241,2848
-99.39614390642998,4066
-96.89781515667039,4597
-94.40017733334128,4415
-91.90323024319173,4298
-89.40697369289148,5611
-86.91140748903172,7847
-84.41653143812482,7782
-81.92234534660395,5640
-79.42884902082358,4197
-76.93604226705907,7244
-74.4439248915071,14359
-71.95249670028534,21250
-69.46175749943245,23982
-66.97170709490854,21582
-64.48234529259423,18355
-61.99367189829195,15635
-59.50568671772464,13919
-57.01838955653636,10285
-54.53178022029283,9797
-52.045858514480074,13478
-49.560624244506016,15949
-47.07607721569923,17524
-44.59221723330904,17768
-42.10904410250669,16452
-39.62655762838392,14801
-37.14475761595372,11712
-34.66364387015028,10210
-32.18321619582866,10165
-29.70347439776515,10717
-27.224418280657005,13085
-24.74604764912317,15524
-22.26836230770266,21278
-19.7913620608565,35555
-17.315046712966478,62403
-14.83941606833514,65036
-12.36446993118659,65036
-9.89020810566592,65036
-7.416630395839093,65036
-4.94373660569363,65036
-2.471526539137585,65036
-6.821210263296962E-13,65036
2.47084320796705,65036
4.941003281093458,65036
7.410480415786196,65036
9.879274808531363,65036
12.347386655893956,65036
14.814816154518212,65036
17.28156350112681,65036
19.74762889252179,65036
22.21301252558385,65036
24.67771459727237,21342
27.141735304626195,4334
29.605074844762612,3200
32.06773341487792,2831
34.52971121224755,2555
36.99100843422559,2469
39.45162527824516,2153
41.91156194181792,2017
44.370818622535126,1907
46.82939551806646,1661
49.287292826160524,1656
51.74451074464503,1900
54.201049471426245,2101
56.65690920448981,1681
59.112090141899785,1476
61.56659248179983,1507
64.02041642241159,1355
66.4735621620365,1326
68.92602989905402,1276
71.37781983192338,1136
73.82893215918205,1291
76.27936707944684,1319
78.72912479141326,1302
81.17820549385567,1302
83.62660938562783,1460
86.07433666566146,1324
88.5213875329681,1090
90.96776218663751,1028
93.41346082583925,1115
95.85848364982041,1186
98.30283085790859,1314
100.7465026495089,1289
103.18949922410604,1244
105.63182078126385,1215
108.07346752062438,1212
110.51443964190923,1104
112.95473734491827,992
115.39436082953114,1028
117.83331029570547,983
120.27158594347827,1011
122.7091879729652,1044
125.1461165843615,1076
127.58237197794062,953
130.01795435405518,1006
132.4528639131364,1303
134.88710085569494,1379
137.32066538231982,1147
139.75355769367923,1083
142.1857779905207,986
144.61732647366978,990
147.04820334403132,889
149.47840880258934,983
151.90794305040674,1050
154.33680628862487,1301
156.76499871846443,1541
159.19252054122433,1584
161.61937195828352,1663
164.04555317109896,1736
166.47106438120693,1839
168.89590579022217,1976
171.320077599839,2238
173.7435800118302,2433
176.16641322804742,2328
178.58857745042144,2473
181.01007288096173,2581
183.43089972175687,2562
185.85105817497413,2490
188.27054844285988,2416
190.6893707277394,2541
193.10752523201643,2608
195.5250121581745,2697
197.9418317087751,2811
200.3579840864594,2742
202.7734694939469,2758
205.18828813403627,2798
207.6024402096051,2754
210.01592592360964,2881
212.42874547908548,2911
214.84089907914665,2951
217.2523869269868,2924
219.66320922587727,2879
222.0733661791695,2817
224.48285799029293,2788
226.8916848627572,2788
229.29984700014882,2770
231.7073446061355,2847
234.11417788446204,2844
236.520347038953,2873
238.92585227351185,2806
241.33069379212054,2814
243.73487179884035,2977
246.1383864978112,3018
248.541238093252,2925
250.9434267894609,2859
253.34495279081432,2848
255.74581630176783,2816
258.1460175268563,2805
260.54555667069314,2892
262.9444339379703,2814
265.3426495334594,2813
267.7402036620107,2886
270.1370965285529,2916
272.53332833809407,2817
274.9288992957214,2784
277.32380960660055,2853
279.718059475976,2810
282.1116491091717,2818
284.5045787115897,2748
286.89684848871195,2764
289.2884586460981,2841
291.67940938938807,2772
294.0697009242996,2753
296.4593334566299,2734
298.84830719225477,2745
301.23662233712923,2767
303.6242790972866,2711
306.01127767884,2643
308.39761828798066,2657
310.78330113097934,2563
313.16832641418534,2653
315.5526943440269,2644
317.9364051270112,2656
320.3194589697242,2553
322.70185607883093,2569
325.0835966610754,2561
327.4646809232805,2471
329.8451090723478,2501
332.2248813152577,2552
334.6039978590701,2458
336.9824589109231,2493
339.36026467803447,2509
341.7374153677,2430
344.113911187295,2421
346.48975234427337,2424
348.8649390461686,2393
351.2394715005918,2378
353.61334991523415,2349
355.9865744978655,2371
358.35914545633375,2233
360.73106299856715,2357
363.10232733257146,2359
365.47293866643247,2314
367.84289720831396,2305
370.2122031664593,2312
372.5808567491905,2314
374.9488581649083,2318
377.31620762209275,2281
379.6829053293021,2344
382.0489514951745,2251
384.4143463284262,2218
386.7790900378528,2237
389.14318283232853,2242
391.50662492080653,2272
393.86941651231916,2214
396.23155781597745,2276
398.5930490409713,2234
400.9538903965696,2261
403.3140820921202,2239
405.6736243370498,2240
408.03251734086336,2186
410.3907613131465,2236
412.74835646356166,2173
415.10530300185144,2172
417.4616011378372,2228
419.81725108141893,2195
422.1722530425758,2218
424.5266072313656,2207
426.880313857925,2167
429.2333731324701,2142
431.58578526529516,2194
433.9375504667738,2157
436.2886689473588,2134
438.63914091758113,2141
440.9889665880513,2051
443.33814616945835,2056
445.68667987257015,2063
448.03456790823395,1999
450.3818104873759,2122
452.72840782100013,2090
455.07436012019105,2116
457.41966759611057,2089
459.7643304600007,2168
462.10834892318155,2138
464.4517231970525,2163
466.79445349309174,2176
469.1365400228566,2129
471.4779829979826,2159
473.81878263018564,2203
476.15893913125876,2215
478.4984527130747,2281
480.8373235875855,2321
483.17555196682144,2487
485.5131380628919,2503
487.8500820879857,2553
490.1863842543697,2827
492.52204477439034,3012
494.8570638604725,3390
497.1914417251204,3632
499.52517858091653,3900
501.85827464052306,3931
504.19073011668036,3787
506.5225452222086,3624
508.85372017000566,3574
511.18425517304956,3477
513.514150444396,3758
515.8434061971808,4673
518.1720226446176,5815
520.4999999999999,5960
522.8273384766991,5755
525.1540382881666,5212
527.480099647932,4520
529.8055227696037,3846
532.1303078668694,3047
534.454455153496,2648
536.777964843328,2516
539.1008371502907,2423
541.4230722883866,2408
543.744670471698,2372
546.0656319143858,2294
548.3859568306899,2378
550.7056454349294,2353
553.0246979415016,2293
555.3431145648834,2255
557.6608955196306,2213
559.978041020377,2194
562.2945512818363,2235
564.6104265188006,2260
566.9256669461412,2384
569.2402727788082,2321
571.5542442318302,2396
573.8675815203156,2366
576.1802848594508,2362
578.4923544645015,2373
580.8037905508126,2399
583.114593333807,2465
585.4247630289875,2371
587.7342998519354,2268
590.0432040183106,2348
592.3514757438526,2373
594.6591152443794,2361
596.9661227357875,2332
599.2724984340531,2340
601.578242555231,2372
603.8833553154542,2391
606.1878369309362,2314
608.4916876179676,2264
610.7949075929192,2203
613.0974970722403,2246
615.3994562724587,2240
617.7007854101818,2261
620.0014847020951,2213
622.3015543649641,2268
624.6009946156324,2295
626.8998056710224,2312
629.1979877481361,2239
631.4955410640538,2235
633.7924658359349,2309
636.0887622810175,2209
638.3844306166192,2205
640.6794710601358,2286
642.9738838290426,2299
645.2676691408932,2276
647.5608272133207,2310
649.853358264037,2395
652.1452625108324,2266
654.4365401715764,2295
656.7271914642178,2307
659.0172166067838,2291
661.3066158173809,2241
663.5953893141935,2249
665.8835373154867,2256
668.1710600396028,2221
670.4579577049639,2221
672.7442305300709,2183
675.0298787335033,2199
677.3149025339197,2214
679.599302150058,2292
681.8830778007342,2266
684.1662297048437,2333
686.4487580813608,2264
688.7306631493387,2332
691.0119451279091,2279
693.2926042362834,2189
695.5726406937516,2215
697.8520547196814,2232
700.1308465335215,2210
702.4090163547982,2193
704.6865644031171,2237
706.9634908981619,2235
709.2397960596965,2200
711.5154801075631,2229
713.7905432616823,2328
716.0649857420548,2286
718.3388077687592,2219
720.612009561953,2263
722.8845913418733,2304
725.1565533288352,2254
727.427895743234,2297
729.6986188055427,2293
731.9687227363137,2239
734.238207756178,2283
736.5070740858458,2278
738.7753219461066,2247
741.0429515578281,2161
743.3099631419569,2284
745.5763569195191,2270
747.8421331116193,2328
750.1072919394409,2297
752.3718336242467,2255
754.6357583873777,2236
756.8990664502545,2260
759.1617580343765,2272
761.423833361321,2260
763.6852926527457,2231
765.9461361303862,2275
768.206364016058,2307
770.4659765316536,2280
772.7249738991469,2317
774.9833563405886,2370
777.2411240781092,2397
779.4982773339183,2307
781.7548163303044,2309
784.010741289634,2389
786.2660524343538,2395
788.5207499869881,2315
790.7748341701416,2363
793.0283052064964,2347
795.2811633188143,2382
797.5334087299362,2302
799.7850416627813,2317
802.0360623403484,2327
804.2864709857143,2361
806.5362678220353,2349
808.7854530725468,2415
811.0340269605625,2396
813.2819897094754,2344
815.5293415427581,2329
817.77608268396,2335
820.0222133567116,2351
822.2677337847211,2345
824.5126441917765,2336
826.7569448017433,2354
829.0006358385675,2464
831.2437175262731,2362
833.4861900889629,2354
835.7280537508192,2260
837.9693087361026,2312
840.2099552691533,2238
842.4499935743896,2279
844.689423876309,2262
846.9282463994886,2248
849.1664613685833,2353
851.4040690083276,2328
853.6410695435349,2384
855.877463199097,2370
858.1132501999847,2323
860.3484307712487,2311
862.5830051380175,2293
864.8169735254988,2327
867.0503361589791,2350
869.2830932638243,2328
871.5152450654786,2326
873.7467917894654,2346
875.9777336613873,2347
878.2080709069252,2410
880.4378037518389,2464
882.666932421968,2430
884.8954571432301,2416
887.1233781416219,2436
889.3506956432192,2392
891.5774098741766,2408
893.803521060728,2447
896.0290294291852,2500
898.2539352059397,2418
900.4782386174619,2391
902.7019398903011,2393
904.925039251085,2380
907.147536926521,2405
909.3694331433943,2417
911.59072812857,2394
913.8114221089921,2342
916.0315153116827,2279
918.2510079637437,2326
920.4699002923547,2283
922.6881925247761,2327
924.905884888345,2254
927.1229776104793,2355
929.3394709186747,2259
931.555365040506,2314
933.7706602036275,2258
935.9853566357709,2251
938.1994545647489,2280
940.4129542184515,2318
942.6258558248488,2286
944.8381596119883,2314
947.0498658079974,2234
949.2609746410825,2267
951.4714863395287,2220
953.6814011316998,2317
955.8907192460387,2323
958.0994409110671,2232
960.3075663553858,2276
962.5150958076741,2238
964.7220294966913,2244
966.928367651274,2225
969.1341105003388,2236
971.3392582728806,2184
973.5438111979742,2295
975.747769504772,2161
977.9511334225061,2105
980.153903180487,2149
982.3560790081052,2165
984.5576611348289,2159
986.7586497902058,2076
988.9590452038618,2119
991.158847605503,2095
993.3580572249133,2166
995.5566742919558,2104
997.7546990365728,2045
999.952131688785,2051
1002.1489724786926,1979
1004.3452216364743,2022
1006.5408793923874,1887
1008.7359459767691,1910
1010.9304216200343,1894
1013.1243065526781,1915
1015.3176010052733,1907
1017.510305208472,1965
1019.7024193930064,1863
1021.8939437896848,1884
1024.0848786293977,1900
1026.2752241431122,1850
1028.4649805618747,1875
1030.6541481168115,1867
1032.842727039127,1818
1035.0307175601051,1843
1037.2181199111074,1867
1039.4049343235752,1857
1041.591161029029,1875
1043.7768002590683,1817
1045.9618522453698,1816
1048.1463172196918,1869
1050.3301954138697,1786
1052.513487059818,1777
1054.69619238953,1828
1056.8783116350783,1852
1059.0598450286152,1754
1061.2407928023704,1824
1063.4211551886528,1778
1065.6009324198508,1792
1067.780124728432,1780
1069.9587323469414,1797
1072.1367555080046,1794
1074.314194444325,1807
1076.4910493886855,1803
1078.667320573947,1798
1080.843008233051,1692
1083.0181125990161,1779
1085.1926339049414,1684
1087.3665723840027,1795
1089.5399282694575,1796
1091.7127017946405,1749
1093.8848931929647,1774
1096.0565026979243,1745
1098.2275305430899,1722
1100.3979769621128,1766
1102.567842188722,1701
1104.737126456726,1760
1106.9058300000124,1769
1109.0739530525475,1744
1111.2414958483764,1681
1113.4084586216231,1710
1115.5748416064907,1690
1117.7406450372605,1762
1119.9058691482942,1754
1122.0705141740304,1702
1124.2345803489884,1625
1126.3980679077658,1713
1128.5609770850388,1745
1130.7233081155623,1716
1132.8850612341707,1682
1135.0462366757774,1624
1137.2068346753745,1744
1139.3668554680326,1728
1141.526299288901,1630
1143.68516637321,1674
1145.8434569562655,1730
1148.001171273455,1644
1150.158309560244,1619
1152.3148720521767,1674
1154.470858984876,1669
1156.626270594044,1649
1158.7811071154629,1658
1160.9353687849912,1645
1163.089055838569,1654
1165.242168512213,1616
1167.3947070420209,1662
1169.5466716641677,1660
1171.6980626149075,1625
1173.8488801305748,1652
1175.9991244475814,1625
1178.1487958024186,1684
1180.2978944316555,1675
1182.4464205719428,1645
1184.5943744600072,1676
1186.7417563326567,1647
1188.8885664267755,1675
1191.0348049793297,1681
1193.1804722273619,1652
1195.325568407995,1638
1197.4700937584303,1613
1199.614048515948,1670
1201.7574329179074,1676
1203.900247201746,1659
1206.042491604982,1688
1208.1841663652099,1614
1210.3252717201053,1638
1212.465807907422,1676
1214.6057751649923,1686
1216.7451737307279,1671
1218.8840038426192,1635
1221.0222657387353,1648
1223.1599596572241,1692
1225.2970858363137,1745
1227.4336445143094,1646
1229.5696359295966,1734
1231.705060320639,1757
1233.8399179259786,1659
1235.9742089842384,1679
1238.107933734118,1688
1240.2410924143974,1684
1242.373685263935,1656
1244.5057125216676,1705
1246.6371744266116,1642
1248.7680712178621,1648
1250.898403134593,1678
1253.028170416058,1608
1255.1573733015875,1680
1257.2860120305932,1660
1259.4140868425648,1649
1261.54159797707,1687
1263.6685456737569,1724
1265.7949301723515,1712
1267.9207517126597,1754
1270.046010534565,1673
1272.1707068780306,1748
1274.2948409830983,1672
1276.4184130898889,1740
1278.541423438603,1713
1280.6638722695184,1775
1282.785759822993,1684
1284.9070863394636,1770
1287.0278520594447,1739
1289.1480572235314,1741
1291.2677020723963,1859
1293.3867868467923,1800
1295.5053117875495,1809
1297.623277135579,1791
1299.740683131868,1797
1301.8575300174857,1817
1303.973818033578,1756
1306.0895474213703,1785
1308.2047184221678,1780
1310.3193312773528,1838
1312.4333862283888,1806
1314.5468835168163,1821
1316.659823384255,1849
1318.7722060724045,1800
1320.8840318230418,1738
1322.9953008780249,1817
1325.1060134792888,1805
1327.2161698688478,1816
1329.3257702887959,1834
1331.4348149813054,1766
1333.5433041886276,1840
1335.6512381530933,1825
1337.7586171171101,1795
1339.8654413231675,1760
1341.9717110138317,1809
1344.0774264317488,1771
1346.1825878196432,1813
1348.2871954203192,1827
1350.3912494766587,1819
1352.4947502316231,1850
1354.5976979282532,1757
1356.7000928096686,1816
1358.8019351190665,1761
1360.9032250997243,1824
1363.0039629949988,1826
1365.1041490483235,1793
1367.2037835032133,1742
1369.3028666032606,1821
1371.401398592137,1803
1373.4993797135926,1828
1375.5968102114575,1830
1377.6936903296396,1771
1379.7900203121262,1789
1381.8858004029835,1792
1383.9810308463561,1789
1386.075711886469,1759
1388.1698437676241,1814
1390.2634267342032,1845
1392.356461030667,1872
1394.4489469015557,1870
1396.5408845914872,1813
1398.6322743451592,1779
1400.7231164073469,1891
1402.813411022907,1819
1404.903158436773,1838
1406.9923588939578,1843
1409.0810126395531,1856
1411.1691199187303,1849
1413.2566809767386,1842
1415.343696058907,1839
1417.4301654106425,1837
1419.5160892774315,1823
1421.6014679048399,1874
1423.6863015385125,1834
1425.7705904241707,1820
1427.8543348076178,1775
1429.9375349347342,1942
1432.0201910514802,1944
1434.102303403894,1899
1436.1838722380944,1922
1438.2648978002767,1926
1440.3453803367174,1853
1442.4253200937692,1885
1444.5047173178677,1929
1446.5835722555234,1888
1448.6618851533285,2009
1450.739656257952,1966
1452.8168858161434,2024
1454.8935740747306,1983
1456.96972128062,2013
1459.045327680797,2021
1461.120393522327,2010
1463.1949190523528,2050
1465.2689045180973,1999
1467.3423501668608,2075
1469.415256246024,2037
1471.4876230030463,2036
1473.559450685465,2088
1475.6307395408976,2110
1477.7014898170391,2032
1479.771701761665,2113
1481.8413756226287,2198
1483.9105116478618,2149
1485.9791100853772,2175
1488.0471711832643,2170
1490.1146951896926,2251
1492.1816823529098,2165
1494.2481329212433,2222
1496.3140471430984,2191
1498.3794252669609,2243
1500.4442675413939,2280
1502.5085742150404,2263
1504.572345536622,2265
1506.6355817549388,2320
1508.6982831188702,2304
1510.7604498773744,2341
1512.8220822794883,2278
1514.8831805743293,2359
1516.9437450110909,2414
1519.003775839048,2463
1521.0632733075522,2425
1523.1222376660367,2443
1525.1806691640113,2535
1527.2385680510652,2561
1529.2959345768668,2630
1531.3527689911643,2631
1533.4090715437833,2631
1535.4648424846291,2714
1537.5200820636855,2755
1539.5747905310159,2800
1541.6289681367616,2779
1543.6826151311434,2893
1545.7357317644614,2868
1547.7883182870937,2882
1549.8403749494987,2929
1551.8919020022113,3104
1553.9428996958477,3069
1555.9933682811015,3081
1558.0433080087469,3127
1560.0927191296346,3216
1562.1416018946961,3286
1564.1899565549415,3164
1566.2377833614592,3334
1568.2850825654164,3225
1570.3318544180606,3256
1572.3780991707158,3071
1574.423817074788,2979
1576.4690083817595,2954
1578.5136733431923,2804
1580.5578122107272,2693
1582.601425236085,2614
1584.6445126710646,2490
1586.6870747675434,2452
1588.7291117774776,2346
1590.7706239529034,2320
1592.8116115459347,2339
1594.8520748087658,2276
1596.8920139936686,2165
1598.9314293529933,2079
1600.9703211391711,2041
1603.008689604711,2040
1605.0465350022005,2071
1607.0838575843068,2006
1609.1206576037753,1971
1611.1569353134305,1966
1613.1926909661765,1945
1615.2279248149953,1921
1617.2626371129481,1914
1619.2968281131757,1910
1621.3304980688963,1864
1623.3636472334088,1903
1625.39627586009,1903
1627.428384202396,1846
1629.459972513861,1825
1631.4910410480993,1858
1633.5215900588028,1842
1635.551619799744,1821
1637.5811305247717,1807
1639.6101224878166,1801
1641.6385959428862,1808
1643.6665511440683,1823
1645.693988345528,1725
1647.7209078015112,1785
1649.7473097663405,1871
1651.7731944944203,1768
1653.7985622402307,1766
1655.823413258333,1872
1657.847747803366,1803
1659.8715661300494,1813
1661.8948684931793,1829
1663.9176551476316,1804
1665.9399263483624,1747
1667.9616823504057,1778
1669.982923408873,1776
1672.0036497789574,1755
1674.0238617159293,1775
1676.043559475138,1762
1678.0627433120121,1790
1680.081413482059,1783
1682.0995702408654,1723
1684.117213844096,1783
1686.134344547495,1757
1688.1509626068864,1689
1690.1670682781705,1773
1692.182661817329,1755
1694.1977434804217,1731
1696.2123135235875,1788
1698.226372203043,1772
1700.2399197750851,1810
1702.2529564960905,1729
1704.2654826225112,1771
1706.277498410882,1845
1708.2890041178139,1790
1710.2999999999988,1799
1712.3104863142066,1810
1714.3204633172854,1785
1716.329931266163,1776
1718.3388904178469,1790
1720.3473410294214,1846
1722.3552833580516,1709
1724.3627176609807,1807
1726.3696441955308,1767
1728.3760632191033,1799
1730.3819749891782,1789
1732.3873797633146,1700
1734.3922777991502,1779
1736.3966693544012,1731
1738.4005546868639,1753
1740.4039340544127,1731
1742.406807715001,1759
1744.4091759266616,1815
1746.4110389475054,1781
1748.4123970357223,1789
1750.413250449582,1776
1752.4135994474318,1713
1754.4134442876993,1726
1756.4127852288902,1689
1758.4116225295893,1667
1760.4099564484595,1685
1762.407787244244,1729
1764.405115175764,1784
1766.4019405019203,1757
1768.3982634816916,1727
1770.3940843741357,1817
1772.3894034383907,1736
1774.3842209336717,1774
1776.378537119274,1764
1778.372352254571,1691
1780.3656665990156,1722
1782.3584804121397,1704
1784.3507939535534,1712
1786.3426074829463,1711
1788.3339212600863,1732
1790.3247355448211,1727
1792.3150505970766,1710
1794.3048666768573,1773
1796.2941840442477,1735
1798.2830029594106,1795
1800.2713236825884,1632
1802.2591464741004,1775
1804.2464715943465,1701
1806.2332993038058,1757
1808.2196298630352,1712
1810.2054635326708,1751
1812.190800573428,1716
1814.175641246101,1815
1816.1599858115628,1765
1818.1438345307652,1682
1820.127187664738,1726
1822.1100454745924,1828
1824.092408221516,1720
1826.0742761667766,1723
1828.055649571721,1784
1830.0365286977735,1684
1832.0169138064398,1694
1833.9968051593014,1743
1835.9762030180214,1719
1837.9551076443408,1669
1839.9335193000788,1727
1841.9114382471344,1695
1843.888864747485,1671
1845.8657990631878,1733
1847.842241456378,1655
1849.8181921892697,1787
1851.7936515241558,1657
1853.7686197234098,1636
1855.7430970494815,1706
1857.7170837649014,1656
1859.6905801322787,1626
1861.6635864143004,1671
1863.6361028737338,1743
1865.608129773424,1716
1867.5796673762961,1667
1869.5507159453537,1751
1871.521275743678,1725
1873.4913470344313,1642
1875.4609300808534,1600
1877.4300251462632,1668
1879.3986324940588,1708
1881.366752387717,1744
1883.3343850907936,1698
1885.3015308669228,1699
1887.268189979819,1682
1889.2343626932739,1719
1891.2000492711595,1624
1893.1652499774254,1770
1895.1299650761011,1675
1897.0941948312952,1681
1899.0579395071945,1679
1901.0211993680641,1674
1902.98397467825,1737
1904.9462657021745,1717
1906.9080727043415,1714
1908.869395949332,1748
1910.8302357018065,1727
1912.790592226504,1637
1914.7504657882428,1714
1916.7098566519212,1715
1918.6687650825133,1706
1920.6271913450764,1730
1922.5851357047422,1691
1924.5425984267245,1668
1926.499579776314,1748
1928.4560800188833,1659
1930.4120994198802,1726
1932.367638244833,1735
1934.32269675935,1665
1936.2772752291175,1692
1938.231373919899,1681
1940.1849930975404,1700
1942.1381330279637,1639
1944.0907939771696,1602
1946.0429762112412,1622
1947.9946799963363,1730
1949.9459055986945,1636
1951.896653284633,1759
1953.8469233205478,1657
1955.7967159729142,1679
1957.7460315082863,1732
1959.6948701932974,1717
1961.6432322946594,1711
1963.5911180791632,1625
1965.5385278136787,1721
1967.4854617651545,1686
1969.4319202006182,1690
1971.377903387176,1729
1973.3234115920136,1700
1975.268445082395,1573
1977.2130041256642,1712
1979.1570889892423,1690
1981.1006999406304,1648
1983.04383724741,1714
1984.986501177238,1707
1986.928691997853,1661
1988.8704099770712,1768
1990.811655382789,1687
1992.7524284829801,1628
1994.692729545698,1731
1996.6325588390755,1760
1998.5719166313224,1683
2000.5108031907307,1712
2002.4492187856677,1639
2004.387163684583,1661
2006.3246381560011,1712
2008.2616424685298,1701
2010.1981768908527,1668
2012.1342416917332,1692
2014.069837140014,1704
2016.0049635046162,1632
2017.9396210545406,1728
2019.8738100588666,1648
2021.8075307867502,1702
2023.740783507431,1685
2025.6735684902228,1683
2027.6058860045214,1687
2029.5377363198004,1693
2031.4691197056118,1672
2033.4000364315875,1682
2035.3304867674374,1720
2037.260470982952,1647
2039.189989347998,1713
2041.1190421325232,1706
2043.047629606554,1678
2044.9757520401945,1684
2046.9034097036288,1653
2048.8306028671195,1670
2050.7573318010086,1650
2052.683596775716,1645
2054.609398061742,1637
2056.5347359296647,1673
2058.4596106501403,1725
2060.384022493906,1632
2062.3079717317764,1646
2064.231458634646,1688
2066.1544834734873,1669
2068.077046519352,1675
2069.99914804337,1645
2071.9207883167524,1680
2073.8419676107865,1649
2075.7626861968406,1697
2077.6829443463607,1625
2079.6027423308715,1697
2081.522080421977,1646
2083.440958891362,1704
2085.359378010786,1624
2087.2773380520907,1719
2089.194839287196,1723
2091.111881988101,1679
2093.0284664268825,1675
2094.9445928756973,1745
2096.86026160678,1711
2098.775472892446,1712
2100.690227005088,1774
2102.604524217178,1692
2104.5183648012676,1736
2106.431749029985,1673
2108.34467717604,1636
2110.2571495122206,1665
2112.169166311393,1710
2114.080727846503,1704
2115.9918343905747,1729
2117.902486216711,1697
2119.8126835980956,1724
2121.722426807987,1628
2123.6317161197285,1729
2125.5405518067364,1685
2127.448934142509,1723
2129.356863400624,1732
2131.264339854737,1731
2133.1713637785815,1701
2135.077935445972,1745
2136.9840551308002,1675
2138.889723107037,1703
2140.7949396487334,1733
2142.699705030018,1685
2144.6040195250994,1723
2146.507883408264,1742
2148.4112969538774,1762
2150.3142604363848,1744
2152.2167741303097,1728
2154.1188383102535,1769
2156.0204532508997,1728
2157.9216192270064,1722
2159.822336513414,1699
2161.7226053850413,1791
2163.622426116884,1759
2165.5217989840185,1732
2167.4207242616,1716
2169.319202224862,1793
2171.2172331491165,1810
2173.1148173097563,1785
2175.0119549822507,1816
2176.90864644215,1822
2178.8048919650823,1762
2180.7006918267534,1783
2182.596046302952,1820
2184.4909556695407,1849
2186.3854202024645,1889
2188.279440177746,1809
2190.173015871487,1752
2192.066147559868,1785
2193.958835519149,1821
2195.851080025667,1774
2197.7428813558417,1762
2199.6342397861667,1843
2201.5251555932186,1788
2203.415629053651,1752
2205.3056604441986,1851
2207.19525004167,1863
2209.084398122958,1846
2210.9731049650327,1762
2212.861370844941,1829
2214.749196039812,1873
2216.636580826851,1855
2218.523525483344,1862
2220.410030286655,1896
2222.296095514226,1906
2224.1817214435805,1789
2226.066908352319,1844
2227.951656518121,1866
2229.835966218746,1833
2231.71983773203,1852
2233.6032713358913,1915
2235.486267308324,1881
2237.3688259274036,1847
2239.2509474712824,1815
2241.132632218193,1810
2243.013880446447,1791
2244.8946924344323,1842
2246.7750684606203,1847
2248.6550088035574,1884
2250.534513741871,1828
2252.413583554265,1832
2254.292218519526,1794
2256.170418916517,1806
2258.0481850241786,1839
2259.925517121534,1870
2261.8024154876825,1787
2263.678880401803,1814
2265.5549121431536,1859
2267.430510991071,1806
2269.305677224971,1864
2271.180411124348,1747
2273.0547129687766,1812
2274.9285830379076,1777
2276.8020216114737,1743
2278.6750289692845,1829
2280.5476053912294,1820
2282.4197511572766,1841
2284.2914665474727,1793
2286.162751841943,1812
2288.0336073208937,1939
2289.904033264608,1934
2291.774029953448,1902
2293.6435976678554,1858
2295.5127366883517,1830
2297.381447295534,1724
2299.2497297700825,1697
2301.1175843927526,1689
2302.9850114443825,1658
2304.852011205885,1576
2306.7185839582553,1614
2308.5847299825664,1510
2310.4504495599676,1476
2312.3157429716925,1514
2314.1806104990483,1489
2316.0450524234247,1571
2317.9090690262888,1539
2319.772660589186,1482
2321.635827393742,1546
2323.498569721661,1506
2325.3608878547248,1528
2327.2227820747967,1521
2329.0842526638157,1515
2330.945299903803,1536
2332.805924076857,1522
2334.6661254651535,1492
2336.525904350951,1510
2338.3852610165827,1511
2340.244195744464,1519
2342.102708817088,1520
2343.9608005170253,1423
2345.8184711269287,1448
2347.675720929526,1409
2349.532550207628,1528
2351.38895924412,1497
2353.24494832197,1536
2355.100517724223,1472
2356.955667734004,1480
2358.810398634514,1492
2360.664710709037,1440
2362.5186042409337,1455
2364.3720795136437,1491
2366.225136810686,1493
2368.0777764156583,1520
2369.929998612237,1532
2371.7818036841777,1479
2373.633191915315,1457
2375.484163589562,1498
2377.3347189909114,1534
2379.184858403434,1480
2381.03458211128,1524
2382.8838903986775,1462
2384.732783549936,1477
2386.5812618494406,1532
2388.4293255816588,1547
2390.2769750311327,1506
2392.1242104824883,1511
2393.971032220427,1502
2395.8174405297295,1533
2397.6634356952563,1539
2399.509018001947,1519
2401.3541877348193,1497
2403.1989451789705,1512
2405.043290619576,1506
2406.8872243418905,1519
2408.730746631247,1472
2410.5738577730594,1517
2412.4165580528183,1489
2414.258847756095,1475
2416.100727168537,1516
2417.9421965758734,1496
2419.783256263912,1496
2421.623906518538,1514
2423.4641476257157,1623
2425.303979871491,1515
2427.143403541984,1534
2428.9824189233977,1512
2430.821026302012,1569
2432.6592259641866,1434
2434.497018196361,1509
2436.33440328505,1478
2438.171381516851,1537
2440.00795317844,1508
2441.844118556569,1501
2443.6798779380724,1511
2445.5152316098606,1516
2447.3501798589255,1498
2449.1847229723357,1527
2451.0188612372403,1488
2452.8525949408663,1545
2454.6859243705203,1550
2456.518849813587,1488
2458.3513715575314,1514
2460.183489889895,1483
2462.015205098301,1493
2463.8465174704493,1538
2465.67742729412,1544
2467.5079348571717,1530
2469.338040447542,1497
2471.1677443532476,1487
2472.9970468623833,1502
2474.825948263123,1514
2476.6544488437207,1501
2478.482548892508,1505
2480.310248697896,1530
2482.137548548374,1519
2483.9644487325118,1486
2485.790949538956,1455
2487.617051256433,1479
2489.44275417375,1471
2491.26805857979,1507
2493.0929647635157,1550
2494.917473013971,1513
2496.741583620276,1580
2498.5652968716304,1546
2500.3886130573137,1558
2502.2115324666834,1603
2504.0340553891765,1579
2505.856182114308,1586
2507.6779129316733,1581
2509.499248130945,1569
2511.3201880018764,1532
2513.140732834298,1533
2514.9608829181198,1599
2516.780638543331,1527
2518.6,1514
2520.418967578273,1551
2522.237541568376,1535
2524.0557222606144,1500
2525.8735099453706,1629
2527.6909049131086,1525
2529.507907454368,1500
2531.32451785977,1517
2533.140736420014,1624
2534.9565634258774,1578
2536.771999168218,1581
2538.5870439379714,1537
2540.4016980261526,1545
2542.2159617238544,1564
2544.02983532225,1596
2545.8433191125914,1585
2547.656413386209,1552
2549.4691184345115,1515
2551.2814345489874,1629
2553.093362021204,1620
2554.904901142808,1582
2556.716052205523,1619
2558.526815501153,1648
2560.3371913215824,1623
2562.147179958771,1594
2563.956781704761,1569
2565.7659968516705,1612
2567.5748256916986,1602
2569.3832685171224,1660
2571.1913256202984,1564
2572.9989972936614,1659
2574.806283829725,1675
2576.613185521084,1652
2578.4197026604074,1624
2580.2258355404483,1663
2582.031584454035,1657
2583.836949694077,1690
2585.6419315535613,1648
2587.4465303255533,1696
2589.2507463032002,1693
2591.0545797797245,1711
2592.8580310484303,1727
2594.6611004026995,1642
2596.463788135992,1698
2598.266094541849,1748
2600.0680199138874,1730
2601.869564545807,1682
2603.670728731383,1658
2605.4715127644704,1742
2607.2719169390048,1710
2609.071941548998,1701
2610.8715868885433,1762
2612.670853251811,1779
2614.469740933052,1759
2616.268250226594,1722
2618.0663814268455,1767
2619.864134828292,1730
2621.6615107255006,1801
2623.458509413115,1725
2625.2551311858597,1722
2627.0513763385347,1738
2628.8472451660223,1739
2630.6427379632833,1668
2632.4378550253564,1653
2634.232596647359,1728
2636.026963124488,1657
2637.8209547520187,1702
2639.6145718253065,1721
2641.407814639785,1674
2643.200683490966,1660
2644.9931786744414,1644
2646.7853004858807,1661
2648.577049221034,1723
2650.3684251757277,1641
2652.1594286458712,1733
2653.9500599274484,1655
2655.740319316525,1693
2657.5302071092437,1596
2659.3197236018286,1627
2661.10886909058,1652
2662.8976438718782,1612
2664.686048242183,1666
2666.4740824980327,1649
2668.2617469360443,1624
2670.0490418529134,1609
2671.8359675454153,1540
2673.622524310403,1519
2675.408712444811,1588
2677.1945322456495,1561
2678.979984010009,1632
2680.76506803506,1570
2682.5497846180497,1570
2684.334134056306,1605
2686.1181166472343,1556
2687.9017326883213,1512
2689.6849824771293,1615
2691.4678663113013,1594
2693.2503844885596,1601
2695.032537306705,1512
2696.8143250636167,1562
2698.5957480572542,1573
2700.3768065856534,1551
2702.1575009469316,1558
2703.937831439283,1533
2705.717798360982,1508
2707.4974020103837,1569
2709.276642685917,1564
2711.055520686095,1538
2712.834036309506,1552
2714.612189854819,1496
2716.389981620782,1495
2718.1674119062204,1544
2719.944481010041,1506
2721.721189231226,1541
2723.4975368688415,1556
2725.273524222027,1511
2727.0491515900053,1506
2728.824419272075,1532
2730.5993275676146,1494
2732.3738767760838,1521
2734.148067197016,1466
2735.921899130031,1540
2737.6953728748194,1528
2739.468488731156,1577
2741.2412469988926,1506
2743.0136479779617,1537
2744.785691968372,1534
2746.5573792702116,1464
2748.3287101836504,1494
2750.099685008934,1462
2751.870304046388,1459
2753.640567596418,1464
2755.4104759595057,1475
2757.1800294362156,1485
2758.949228327187,1522
2760.7180729331412,1515
2762.486563554877,1481
2764.254700493272,1499
2766.022484049284,1512
2767.789914523947,1489
2769.5569922183786,1412
2771.3237174337705,1580
2773.090090471394,1477
2774.8561116326036,1449
2776.6217812188274,1425
2778.3870995315756,1503
2780.1520668724356,1526
2781.9166835430747,1565
2783.6809498452394,1477
2785.444866080754,1534
2787.2084325515225,1492
2788.971649559527,1577
2790.73451740683,1537
2792.4970363955713,1538
2794.2592068279705,1487
2796.0210290063264,1483
2797.7825032330147,1445
2799.543629810493,1522
2801.304409041296,1488
2803.0648412280366,1534
2804.8249266734088,1542
2806.5846656801846,1541
2808.344058551212,1550
2810.1031055894246,1582
2811.8618070978273,1536
2813.6201633795085,1535
2815.378174737636,1537
2817.1358414754536,1552
2818.893163896285,1516
2820.6501423035334,1537
2822.4067770006814,1489
2824.1630682912883,1467
2825.9190164789957,1588
2827.6746218675207,1539
2829.429884760661,1510
2831.184805462294,1520
2832.9393842763743,1491
2834.693621506936,1561
2836.4475174580916,1490
2838.201072434034,1514
2839.954286739034,1538
2841.707160677441,1526
2843.459694553685,1486
2845.2118886722724,1501
2846.96374333779,1515
2848.7152588549034,1527
2850.4664355283567,1468
2852.217273662973,1550
2853.9677735636546,1551
2855.7179355353833,1517
2857.4677598832186,1514
2859.217246912299,1544
2860.9663969278427,1501
2862.715210235146,1540
2864.4636871395846,1471
2866.211827946614,1513
2867.9596329617652,1522
2869.7071024906536,1526
2871.4542368389684,1551
2873.20103631248,1570
2874.947501217038,1505
2876.6936318585695,1464
2878.4394285430812,1459
2880.1848915766604,1483
2881.9300212654707,1537
2883.6748179157553,1496
2885.4192818338374,1498
2887.1634133261173,1523
2888.907212699077,1582
2890.6506802592744,1556
2892.393816313348,1493
2894.1366211680142,1502
2895.8790951300693,1475
2897.621238506388,1463
2899.363051603925,1518
2901.1045347297118,1488
2902.8456881908596,1436
2904.58651229456,1520
2906.327007348081,1496
2908.067173658772,1515
2909.8070115340597,1479
2911.5465212814497,1505
2913.285703208527,1496
2915.0245576229563,1528
2916.7630848324807,1527
2918.5012851449196,1515
2920.2391588681758,1456
2921.976706310227,1556
2923.7139277791334,1509
2925.4508235830313,1502
2927.187394030137,1473
2928.923639428745,1564
2930.6595600872306,1585
2932.395156314046,1493
2934.1304284177218,1507
2935.8653767068713,1524
2937.6000014901815,1590
2939.3343030764227,1517
2941.068281774442,1482
2942.8019378931644,1518
2944.5352717415976,1470
2946.2682836288236,1504
2948.0009738640065,1559
2949.7333427563885,1507
2951.465390615289,1537
2953.1971177501086,1496
2954.9285244703265,1546
2956.6596110855,1457
2958.3903779052657,1509
2960.1208252393385,1526
2961.8509533975125,1465
2963.5807626896617,1450
2965.3102534257378,1469
2967.0394259157715,1504
2968.768280469873,1531
2970.496817398232,1599
2972.2250370111146,1578
2973.952939618869,1559
2975.6805255319196,1554
2977.4077950607707,1537
2979.134748516006,1510
2980.861386208289,1524
2982.587708448359,1522
2984.313715547037,1510
2986.039407815222,1530
2987.764785563891,1530
2989.489849104102,1465
2991.2145987469908,1510
2992.9390348037705,1473
2994.6631575857346,1532
2996.3869674042576,1467
2998.1104645707887,1490
2999.83364939686,1504
3001.5565221940783,1497
3003.2790832741334,1500
3005.0013329487924,1487
3006.7232715298996,1479
3008.4448993293804,1525
3010.166216659239,1538
3011.887223831558,1457
3013.607921158498,1525
3015.3283089522993,1482
3017.0483875252826,1444
3018.7681571898443,1539
3020.4876182584626,1536
3022.2067710436927,1497
3023.9256158581707,1493
3025.644153014609,1515
3027.362382825801,1515
3029.0803056046193,1517
3030.797921664012,1497
3032.5152313170106,1528
3034.2322348767225,1505
3035.9489326563353,1428
3037.665324969115,1520
3039.3814121284063,1500
3041.097194447633,1483
3042.812672240299,1508
3044.5278458199855,1511
3046.2427155003525,1501
3047.9572815951406,1479
3049.671544418167,1511
3051.38550428333,1523
3053.0991615046073,1501
3054.812516396051,1576
3056.5255692717974,1488
3058.2383204460575,1506
3059.9507702331257,1481
3061.662918947372,1504
3063.3747669032446,1464
3065.0863144152736,1494
3066.7975617980674,1531
3068.508509366309,1431
3070.219157434767,1497
3071.9295063182844,1475
3073.639556331785,1515
3075.3493077902704,1522
3077.058761008821,1478
3078.7679163025964,1535
3080.476773986837,1469
3082.1853343768594,1499
3083.89359778806,1560
3085.6015645359153,1445
3087.3092349359786,1464
3089.016609303884,1540
3090.7236879553434,1517
3092.4304712061476,1554
3094.136959372166,1482
3095.843152769349,1530
3097.5490517137237,1489
3099.2546565213966,1489
3100.959967508554,1525
3102.66498499146,1523
3104.3697092864577,1511
3106.0741407099695,1517
3107.778279578498,1486
3109.482126208622,1497
3111.1856809170004,1486
3112.8889440203716,1560
3114.5919158355528,1509
3116.294596679439,1491
3117.996986869006,1500
3119.6990867213062,1570
3121.4008965534726,1550
3123.102416682717,1544
3124.803647426329,1546
3126.5045891016784,1557
3128.205242026213,1541
3129.90560651746,1506
3131.605682893025,1544
3133.3054714705922,1528
3135.0049725679282,1550
3136.7041865028714,1515
3138.4031135933465,1533
3140.101754157353,1532
3141.800108512971,1476
3143.498176978357,1539
3145.1959598717494,1504
3146.8934575114636,1513
3148.5906702158954,1523
3150.2875983035183,1469
3151.9842420928853,1490
3153.680601902627,1536
3155.376678051456,1554
3157.07247085816,1486
3158.767980641609,1473
3160.463207720748,1472
3162.158152414606,1484
3163.8528150422862,1489
3165.5471959229726,1482
3167.2412953759303,1505
3168.9351137204976,1472
3170.628651276098,1471
3172.3219083622307,1536
3174.014885298474,1488
3175.707582404485,1550
3177.4000000000005,1481
3179.092138404835,1493
3180.7839979388846,1530
3182.47557892212,1456
3184.166881674594,1441
3185.8579065164386,1511
3187.5486537678626,1551
3189.2391237491547,1432
3190.9293167806827,1498
3192.6192331828934,1527
3194.3088732763117,1477
3195.998237381542,1503
3197.687325819268,1521
3199.376138910251,1475
3201.064676975334,1466
3202.7529403354347,1481
3204.4409293115523,1482
3206.1286442247647,1498
3207.816085396229,1468
3209.5032531471825,1497
3211.190147798936,1481
3212.8767696728846,1489
3214.5631190905015,1429
3216.2491963733373,1508
3217.9350018430214,1573
3219.6205358212637,1525
3221.305798629851,1472
3222.990790590651,1443
3224.6755120256103,1421
3226.359963256751,1496
3228.0441446061795,1463
3229.7280563960758,1513
3231.411698948703,1497
3233.0950725863995,1494
3234.778177631587,1528
3236.461014406761,1512
3238.1435832345005,1517
3239.8258844374595,1507
3241.507918338374,1534
3243.1896852600576,1498
3244.8711855254023,1499
3246.552419457381,1496
3248.233387379042,1469
3249.914089613516,1489
3251.59452648401,1548
3253.274698313813,1543
3254.95460542629,1541
3256.6342481448855,1512
3258.313626793125,1473
3259.9927416946084,1451
3261.6715931730196,1495
3263.3501815521176,1470
3265.0285071557437,1471
3266.706570307815,1459
3268.3843713323286,1482
3270.0619105533615,1485
3271.739188295068,1518
3273.4162048816834,1452
3275.0929606375184,1488
3276.769455886966,1551
3278.445690954498,1505
3280.1216661646613,1472
3281.797381842087,1508
3283.4728383114807,1544
3285.1480358976296,1463
3286.8229749253996,1504
3288.4976557197333,1491
3290.172078605655,1466
3291.846243908266,1414
3293.5201519527463,1483
3295.193803064357,1491
3296.8671975684374,1483
3298.5403357904024,1502
3300.21321805575,1496
3301.8858446900567,1512
3303.558216018975,1463
3305.23033236824,1503
3306.9021940636603,1497
3308.57380143113,1523
3310.2451547966184,1511
3311.916254486174,1492
3313.5871008259246,1488
3315.2576941420766,1486
3316.9280347609147,1471
3318.5981230088046,1449
3320.2679592121895,1485
3321.9375436975924,1470
3323.606876791612,1522
3325.27595882093,1516
3326.944790112305,1454
3328.6133709925753,1464
3330.2817017886573,1509
3331.949782827547,1517
3333.617614436319,1463
3335.2851969421245,1441
3336.952530672199,1498
3338.619615953853,1523
3340.286453114475,1504
3341.9530424815357,1426
3343.619384382583,1469
3345.2854791452437,1484
3346.951327097224,1516
3348.6169285663073,1457
3350.2822838803577,1468
3351.947393367319,1486
3353.61225735521,1491
3355.2768761721345,1477
3356.9412501462693,1501
3358.605379605873,1483
3360.2692648792827,1553
3361.9329062949146,1488
3363.596304181263,1489
