CollectionTime,6/26/2024 2:20:19 PM
ExposureUsed,3
CalibratedSpectrum
-962.7078968117929,499
-959.9714848408522,532
-957.2358232597828,491
-954.5009119013725,513
-951.7667505983302,513
-949.0333391832855,513
-946.3006774887896,534
-943.5687653473143,530
-940.837602591253,519
-938.1071890529199,547
-935.3775245645503,526
-932.6486089583007,534
-929.9204420662485,576
-927.1930237203925,543
-924.4663537526524,547
-921.7404319948689,524
-919.0152582788041,537
-916.2908324361409,543
-913.5671542984834,567
-910.8442236973568,571
-908.1220404642074,545
-905.4006044304027,531
-902.679915427231,548
-899.959973285902,557
-897.2407778375464,544
-894.5223289132158,505
-891.8046263438832,517
-889.0876699604426,472
-886.3714595937089,470
-883.6559950744183,478
-880.9412762332282,484
-878.2273029007168,473
-875.5140749073835,505
-872.8015920836489,498
-870.0898542598545,478
-867.3788612662631,512
-864.6686129330585,455
-861.9591090903457,483
-859.2503495681506,499
-856.5423341964203,501
-853.8350628050229,501
-851.1285352237478,522
-848.4227512823054,485
-845.7177108103272,514
-843.0134136373656,500
-840.3098595928943,487
-837.6070485063082,508
-834.9049802069229,497
-832.2036545239757,501
-829.5030712866244,513
-826.8032303239481,482
-824.1041314649472,508
-821.4057745385428,481
-818.7081593735775,519
-816.0112857988148,506
-813.3151536429393,522
-810.6197627345566,486
-807.9251129021936,507
-805.2312039742981,540
-802.5380357792392,521
-799.8456081453069,511
-797.1539209007124,487
-794.462973873588,486
-791.772766891987,496
-789.083299783884,501
-786.3945723771743,488
-783.7065844996748,502
-781.0193359791231,511
-778.3328266431781,501
-775.6470563194197,551
-772.9620248353489,548
-770.2777320183878,514
-767.5941776958798,489
-764.9113616950891,519
-762.2292838432011,502
-759.5479439673222,496
-756.8673418944801,529
-754.1874774516235,524
-751.5083504656222,524
-748.8299607632671,520
-746.15230817127,555
-743.475392516264,517
-740.7992136248035,531
-738.1237713233636,530
-735.4490654383407,510
-732.7750957960521,510
-730.1018622227365,520
-727.4293645445534,510
-724.7576025875837,507
-722.0865761778291,537
-719.4162851412126,539
-716.7467293035781,530
-714.0779084906909,550
-711.409822528237,597
-708.7424712418238,539
-706.0758544569796,517
-703.4099719991541,510
-700.7448236937178,543
-698.0804093659622,555
-695.4167288411002,530
-692.7537819442656,512
-690.0915685005134,531
-687.4300883348199,555
-684.7693412720819,542
-682.1093271371178,545
-679.4500457546669,504
-676.7914969493897,530
-674.1336805458676,549
-671.4765963686034,580
-668.8202442420206,591
-666.1646239904642,589
-663.5097354382001,562
-660.8555784094151,537
-658.2021527282176,537
-655.5494582186366,585
-652.8974947046223,559
-650.2462620100463,594
-647.5957599587009,611
-644.9459883742998,614
-642.2969470804776,622
-639.6486359007902,618
-637.0010546587141,615
-634.3542031776476,610
-631.7080812809096,592
-629.0626887917401,574
-626.4180255333008,604
-623.7740913286734,564
-621.1308860008619,578
-618.4884093727904,570
-615.8466612673046,544
-613.2056415071715,577
-610.5653499150785,557
-607.9257863136347,578
-605.28695052537,554
-602.6488423727357,573
-600.0114616781036,587
-597.3748082637674,593
-594.7388819519412,596
-592.1036825647604,584
-589.4692099242818,598
-586.8354638524829,608
-584.2024441712624,595
-581.5701507024403,608
-578.9385832677575,630
-576.3077416888759,626
-573.6776257873787,630
-571.0482353847704,584
-568.4195703024757,572
-565.7916303618415,634
-563.164415384135,647
-560.5379251905453,637
-557.9121596021815,614
-555.2871184400748,631
-552.6628015251767,647
-550.0392086783606,629
-547.4163397204204,617
-544.794194472071,632
-542.1727727539491,667
-539.5520743866118,653
-536.9320991905377,688
-534.3128469861261,724
-531.6943175936979,745
-529.0765108334947,743
-526.4594265256793,833
-523.8430644903358,955
-521.2274245474689,1133
-518.612506517005,1218
-515.9983102187913,1312
-513.3848354725959,1581
-510.77208209810846,1919
-508.16004991493924,2162
-505.5487387426199,2419
-502.9381484006032,2479
-500.3282787082628,2323
-497.71912948489364,2288
-495.1107005497117,2020
-492.5029917218539,1630
-489.8960028203786,1356
-487.28973366426493,1123
-484.68418407241325,995
-482.07935386364494,928
-479.47524285670266,875
-476.87185087025,909
-474.2691777228715,916
-471.66722323307334,845
-469.0659872192821,842
-466.4654694998459,816
-463.86566989303384,817
-461.26658821703614,786
-458.66822428996414,772
-456.07057792985,791
-453.4736489546475,777
-450.877437182231,778
-448.28194243039627,785
-445.68716451686,760
-443.09310325926003,780
-440.49975847515555,746
-437.9071299820263,752
-435.31521759727354,807
-432.72402113821954,808
-430.13354042210767,814
-427.5437752661022,827
-424.95472548728867,825
-422.36639090267386,885
-419.7787713291855,837
-417.1918665836721,828
-414.60567648290385,838
-412.0202008435715,798
-409.4354394822874,822
-406.8513922155845,847
-404.26805885991723,859
-401.685439231661,832
-399.103533147112,914
-396.522340422488,856
-393.9418608739278,873
-391.3620943174908,898
-388.7830405691583,911
-386.2046994448317,847
-383.6270707603344,781
-381.05015433141045,807
-378.473949973725,705
-375.8984575028645,692
-373.32367673433623,644
-370.74960748356875,653
-368.1762495659117,665
-365.60360279663576,660
-363.03166699093265,609
-360.4604419639154,566
-357.8899275306178,510
-355.32012350599507,524
-352.7510297049233,506
-350.1826459421999,523
-347.61497203254316,530
-345.04800779059235,493
-342.4817530309082,517
-339.91620756797226,488
-337.35137121618743,524
-334.7872437898774,567
-332.22382510328725,565
-329.66111497058273,554
-327.09911320585127,544
-324.53781962310075,610
-321.9772340362607,548
-319.4173562591816,537
-316.8581861056348,562
-314.2997233893127,616
-311.7419679238294,579
-309.1849195227194,546
-306.62857799943856,530
-304.0729431673641,539
-301.51801483979375,533
-298.963792829947,544
-296.41027695096386,572
-293.85746701590574,587
-291.3053628377552,692
-288.7539642294155,660
-286.2032710037115,608
-283.65328297338897,662
-281.1039999511146,723
-278.5554217494762,762
-276.007548180983,665
-273.4603790580651,638
-270.9139141930734,607
-268.3681533982807,665
-265.8230964858798,677
-263.27874326798565,718
-260.7350935566336,745
-258.1921471637804,842
-255.6499039013039,812
-253.10836358100266,773
-250.56752601459698,726
-248.02739101372765,771
-245.48795838995704,805
-242.94922795476816,729
-240.41119951956557,711
-237.8738728956746,799
-235.33724789434166,899
-232.80132432673452,1067
-230.2661020039418,1056
-227.73158073697357,859
-225.19776033676033,808
-222.66464061415422,877
-220.1322213799284,755
-217.60050244477725,778
-215.06948361931552,824
-212.53916471408013,876
-210.00954553952818,803
-207.48062590603843,804
-204.9524056239104,859
-202.4248845033651,894
-199.8980623545441,776
-197.37193898751036,741
-194.84651421224817,847
-192.32178783866232,961
-189.79775967657952,914
-187.27442953574644,863
-184.7517972258321,872
-182.2298625564256,906
-179.7086253370378,994
-177.18808537710026,1016
-174.66824248596583,1130
-172.14909647290835,1135
-169.6306471471229,1053
-167.11289431772548,945
-164.59583779375328,944
-162.07947738416453,947
-159.5638128978386,952
-157.04884414357605,1080
-154.53457093009854,1162
-152.02099306604828,1153
-149.50811035998936,1077
-146.99592262040665,1099
-144.48442965570587,1148
-141.97363127421409,1132
-139.46352728417958,1199
-136.95411749377126,1099
-134.44540171107985,1207
-131.93737974411636,1276
-129.43005140081357,1321
-126.92341648902493,1330
-124.41747481652521,1188
-121.91222619101006,1239
-119.40767042009657,1145
-116.90380731132257,1103
-114.40063667214702,1173
-111.8981583099503,1367
-109.3963720320337,1384
-106.89527764561933,1237
-104.39487495785067,1430
-101.89516377579241,1568
-99.39614390642998,1654
-96.89781515667039,1860
-94.40017733334128,2090
-91.90323024319173,1986
-89.40697369289148,1906
-86.91140748903172,1594
-84.41653143812482,1569
-81.92234534660395,1849
-79.42884902082358,1787
-76.93604226705907,1832
-74.4439248915071,1722
-71.95249670028534,1614
-69.46175749943245,1988
-66.97170709490854,2238
-64.48234529259423,2365
-61.99367189829195,2272
-59.50568671772464,2361
-57.01838955653636,2934
-54.53178022029283,2806
-52.045858514480074,2931
-49.560624244506016,3373
-47.07607721569923,3408
-44.59221723330904,3503
-42.10904410250669,3545
-39.62655762838392,4365
-37.14475761595372,4851
-34.66364387015028,5189
-32.18321619582866,5124
-29.70347439776515,5794
-27.224418280657005,8073
-24.74604764912317,11225
-22.26836230770266,15512
-19.7913620608565,26451
-17.315046712966478,37645
-14.83941606833514,39066
-12.36446993118659,65040
-9.89020810566592,65040
-7.416630395839093,65040
-4.94373660569363,65040
-2.471526539137585,65040
-6.821210263296962E-13,65040
2.47084320796705,65040
4.941003281093458,65040
7.410480415786196,65040
9.879274808531363,65040
12.347386655893956,65040
14.814816154518212,65040
17.28156350112681,65040
19.74762889252179,65040
22.21301252558385,65040
24.67771459727237,65040
27.141735304626195,47547
29.605074844762612,17412
32.06773341487792,14506
34.52971121224755,11753
36.99100843422559,10829
39.45162527824516,8407
41.91156194181792,8627
44.370818622535126,10202
46.82939551806646,10355
49.287292826160524,9204
51.74451074464503,7414
54.201049471426245,4677
56.65690920448981,3537
59.112090141899785,3586
61.56659248179983,3807
64.02041642241159,3625
66.4735621620365,3325
68.92602989905402,2471
71.37781983192338,2480
73.82893215918205,3055
76.27936707944684,3213
78.72912479141326,3126
81.17820549385567,3144
83.62660938562783,2976
86.07433666566146,2804
88.5213875329681,2906
90.96776218663751,2499
93.41346082583925,2539
95.85848364982041,1977
98.30283085790859,1843
100.7465026495089,1920
103.18949922410604,1932
105.63182078126385,1881
108.07346752062438,1923
110.51443964190923,2003
112.95473734491827,1613
115.39436082953114,1644
117.83331029570547,1803
120.27158594347827,1943
122.7091879729652,1565
125.1461165843615,1459
127.58237197794062,1443
130.01795435405518,1323
132.4528639131364,1364
134.88710085569494,1575
137.32066538231982,1344
139.75355769367923,1425
142.1857779905207,1427
144.61732647366978,1188
147.04820334403132,995
149.47840880258934,1155
151.90794305040674,1412
154.33680628862487,1343
156.76499871846443,1353
159.19252054122433,1463
161.61937195828352,1337
164.04555317109896,1446
166.47106438120693,1652
168.89590579022217,1756
171.320077599839,1708
173.7435800118302,1714
176.16641322804742,1634
178.58857745042144,1699
181.01007288096173,1861
183.43089972175687,1800
185.85105817497413,1865
188.27054844285988,1910
190.6893707277394,1885
193.10752523201643,1917
195.5250121581745,1940
197.9418317087751,2010
200.3579840864594,2076
202.7734694939469,1975
205.18828813403627,1929
207.6024402096051,2007
210.01592592360964,2106
212.42874547908548,2027
214.84089907914665,1929
217.2523869269868,2018
219.66320922587727,2136
222.0733661791695,2036
224.48285799029293,2049
226.8916848627572,2255
229.29984700014882,2257
231.7073446061355,2149
234.11417788446204,2169
236.520347038953,2116
238.92585227351185,2259
241.33069379212054,2374
243.73487179884035,2390
246.1383864978112,2152
248.541238093252,2137
250.9434267894609,2192
253.34495279081432,2264
255.74581630176783,2231
258.1460175268563,2405
260.54555667069314,2370
262.9444339379703,2132
265.3426495334594,2170
267.7402036620107,2230
270.1370965285529,2229
272.53332833809407,2213
274.9288992957214,2172
277.32380960660055,2188
279.718059475976,2240
282.1116491091717,2220
284.5045787115897,2370
286.89684848871195,2341
289.2884586460981,2326
291.67940938938807,2254
294.0697009242996,2319
296.4593334566299,2305
298.84830719225477,2230
301.23662233712923,2207
303.6242790972866,2221
306.01127767884,2160
308.39761828798066,2202
310.78330113097934,2209
313.16832641418534,2100
315.5526943440269,2145
317.9364051270112,2099
320.3194589697242,2031
322.70185607883093,1994
325.0835966610754,2008
327.4646809232805,1977
329.8451090723478,2016
332.2248813152577,2014
334.6039978590701,1983
336.9824589109231,1925
339.36026467803447,1940
341.7374153677,1922
344.113911187295,1863
346.48975234427337,1890
348.8649390461686,1914
351.2394715005918,1900
353.61334991523415,1828
355.9865744978655,1833
358.35914545633375,1862
360.73106299856715,1823
363.10232733257146,1786
365.47293866643247,1800
367.84289720831396,1805
370.2122031664593,1807
372.5808567491905,1790
374.9488581649083,1804
377.31620762209275,1868
379.6829053293021,1880
382.0489514951745,1901
384.4143463284262,1768
386.7790900378528,1781
389.14318283232853,1746
391.50662492080653,1819
393.86941651231916,1793
396.23155781597745,1802
398.5930490409713,1775
400.9538903965696,1746
403.3140820921202,1672
405.6736243370498,1691
408.03251734086336,1669
410.3907613131465,1606
412.74835646356166,1651
415.10530300185144,1682
417.4616011378372,1706
419.81725108141893,1751
422.1722530425758,1718
424.5266072313656,1708
426.880313857925,1715
429.2333731324701,1696
431.58578526529516,1631
433.9375504667738,1628
436.2886689473588,1596
438.63914091758113,1587
440.9889665880513,1606
443.33814616945835,1624
445.68667987257015,1581
448.03456790823395,1562
450.3818104873759,1626
452.72840782100013,1649
455.07436012019105,1606
457.41966759611057,1555
459.7643304600007,1546
462.10834892318155,1660
464.4517231970525,1644
466.79445349309174,1722
469.1365400228566,1665
471.4779829979826,1650
473.81878263018564,1661
476.15893913125876,1668
478.4984527130747,1624
480.8373235875855,1712
483.17555196682144,1799
485.5131380628919,1828
487.8500820879857,1919
490.1863842543697,1973
492.52204477439034,2138
494.8570638604725,2307
497.1914417251204,2626
499.52517858091653,3053
501.85827464052306,3729
504.19073011668036,4050
506.5225452222086,4447
508.85372017000566,4547
511.18425517304956,4528
513.514150444396,4744
515.8434061971808,4931
518.1720226446176,4830
520.4999999999999,4748
522.8273384766991,4651
525.1540382881666,4534
527.480099647932,4428
529.8055227696037,3667
532.1303078668694,2692
534.454455153496,2028
536.777964843328,1815
539.1008371502907,1685
541.4230722883866,1644
543.744670471698,1663
546.0656319143858,1546
548.3859568306899,1584
550.7056454349294,1555
553.0246979415016,1491
555.3431145648834,1498
557.6608955196306,1509
559.978041020377,1505
562.2945512818363,1454
564.6104265188006,1511
566.9256669461412,1474
569.2402727788082,1431
571.5542442318302,1463
573.8675815203156,1471
576.1802848594508,1446
578.4923544645015,1452
580.8037905508126,1520
583.114593333807,1464
585.4247630289875,1442
587.7342998519354,1439
590.0432040183106,1419
592.3514757438526,1493
594.6591152443794,1367
596.9661227357875,1430
599.2724984340531,1498
601.578242555231,1483
603.8833553154542,1493
606.1878369309362,1533
608.4916876179676,1583
610.7949075929192,1545
613.0974970722403,1536
615.3994562724587,1459
617.7007854101818,1404
620.0014847020951,1493
622.3015543649641,1477
624.6009946156324,1455
626.8998056710224,1383
629.1979877481361,1476
631.4955410640538,1489
633.7924658359349,1464
636.0887622810175,1489
638.3844306166192,1465
640.6794710601358,1439
642.9738838290426,1460
645.2676691408932,1498
647.5608272133207,1447
649.853358264037,1461
652.1452625108324,1450
654.4365401715764,1479
656.7271914642178,1486
659.0172166067838,1453
661.3066158173809,1443
663.5953893141935,1526
665.8835373154867,1485
668.1710600396028,1465
670.4579577049639,1457
672.7442305300709,1486
675.0298787335033,1505
677.3149025339197,1478
679.599302150058,1540
681.8830778007342,1484
684.1662297048437,1471
686.4487580813608,1484
688.7306631493387,1478
691.0119451279091,1523
693.2926042362834,1479
695.5726406937516,1448
697.8520547196814,1559
700.1308465335215,1439
702.4090163547982,1454
704.6865644031171,1450
706.9634908981619,1502
709.2397960596965,1482
711.5154801075631,1427
713.7905432616823,1467
716.0649857420548,1458
718.3388077687592,1528
720.612009561953,1515
722.8845913418733,1453
725.1565533288352,1442
727.427895743234,1558
729.6986188055427,1572
731.9687227363137,1527
734.238207756178,1515
736.5070740858458,1525
738.7753219461066,1471
741.0429515578281,1468
743.3099631419569,1532
745.5763569195191,1540
747.8421331116193,1482
750.1072919394409,1543
752.3718336242467,1476
754.6357583873777,1493
756.8990664502545,1484
759.1617580343765,1511
761.423833361321,1476
763.6852926527457,1451
765.9461361303862,1500
768.206364016058,1536
770.4659765316536,1501
772.7249738991469,1505
774.9833563405886,1471
777.2411240781092,1520
779.4982773339183,1534
781.7548163303044,1584
784.010741289634,1564
786.2660524343538,1612
788.5207499869881,1511
790.7748341701416,1575
793.0283052064964,1523
795.2811633188143,1583
797.5334087299362,1562
799.7850416627813,1574
802.0360623403484,1563
804.2864709857143,1560
806.5362678220353,1515
808.7854530725468,1539
811.0340269605625,1536
813.2819897094754,1538
815.5293415427581,1607
817.77608268396,1559
820.0222133567116,1572
822.2677337847211,1514
824.5126441917765,1540
826.7569448017433,1561
829.0006358385675,1504
831.2437175262731,1488
833.4861900889629,1588
835.7280537508192,1572
837.9693087361026,1536
840.2099552691533,1574
842.4499935743896,1481
844.689423876309,1492
846.9282463994886,1505
849.1664613685833,1558
851.4040690083276,1605
853.6410695435349,1545
855.877463199097,1433
858.1132501999847,1501
860.3484307712487,1527
862.5830051380175,1514
864.8169735254988,1535
867.0503361589791,1584
869.2830932638243,1531
871.5152450654786,1525
873.7467917894654,1562
875.9777336613873,1545
878.2080709069252,1544
880.4378037518389,1578
882.666932421968,1515
884.8954571432301,1575
887.1233781416219,1589
889.3506956432192,1585
891.5774098741766,1605
893.803521060728,1516
896.0290294291852,1519
898.2539352059397,1593
900.4782386174619,1548
902.7019398903011,1589
904.925039251085,1544
907.147536926521,1554
909.3694331433943,1603
911.59072812857,1618
913.8114221089921,1650
916.0315153116827,1573
918.2510079637437,1588
920.4699002923547,1596
922.6881925247761,1667
924.905884888345,1559
927.1229776104793,1650
929.3394709186747,1597
931.555365040506,1632
933.7706602036275,1581
935.9853566357709,1627
938.1994545647489,1632
940.4129542184515,1641
942.6258558248488,1596
944.8381596119883,1599
947.0498658079974,1595
949.2609746410825,1617
951.4714863395287,1587
953.6814011316998,1605
955.8907192460387,1603
958.0994409110671,1583
960.3075663553858,1560
962.5150958076741,1600
964.7220294966913,1553
966.928367651274,1500
969.1341105003388,1586
971.3392582728806,1532
973.5438111979742,1454
975.747769504772,1497
977.9511334225061,1477
980.153903180487,1464
982.3560790081052,1491
984.5576611348289,1475
986.7586497902058,1446
988.9590452038618,1482
991.158847605503,1400
993.3580572249133,1442
995.5566742919558,1391
997.7546990365728,1390
999.952131688785,1298
1002.1489724786926,1284
1004.3452216364743,1329
1006.5408793923874,1311
1008.7359459767691,1312
1010.9304216200343,1279
1013.1243065526781,1297
1015.3176010052733,1247
1017.510305208472,1247
1019.7024193930064,1207
1021.8939437896848,1201
1024.0848786293977,1255
1026.2752241431122,1216
1028.4649805618747,1231
1030.6541481168115,1193
1032.842727039127,1208
1035.0307175601051,1161
1037.2181199111074,1173
1039.4049343235752,1167
1041.591161029029,1180
1043.7768002590683,1186
1045.9618522453698,1206
1048.1463172196918,1261
1050.3301954138697,1183
1052.513487059818,1169
1054.69619238953,1149
1056.8783116350783,1182
1059.0598450286152,1189
1061.2407928023704,1167
1063.4211551886528,1191
1065.6009324198508,1117
1067.780124728432,1153
1069.9587323469414,1097
1072.1367555080046,1138
1074.314194444325,1134
1076.4910493886855,1096
1078.667320573947,1178
1080.843008233051,1127
1083.0181125990161,1097
1085.1926339049414,1124
1087.3665723840027,1152
1089.5399282694575,1162
1091.7127017946405,1084
1093.8848931929647,1113
1096.0565026979243,1102
1098.2275305430899,1092
1100.3979769621128,1074
1102.567842188722,1060
1104.737126456726,1072
1106.9058300000124,1108
1109.0739530525475,1079
1111.2414958483764,1097
1113.4084586216231,1152
1115.5748416064907,1148
1117.7406450372605,1122
1119.9058691482942,1080
1122.0705141740304,1107
1124.2345803489884,1079
1126.3980679077658,1122
1128.5609770850388,1091
1130.7233081155623,1065
1132.8850612341707,1089
1135.0462366757774,1127
1137.2068346753745,1064
1139.3668554680326,1057
1141.526299288901,1096
1143.68516637321,1049
1145.8434569562655,1055
1148.001171273455,1048
1150.158309560244,1075
1152.3148720521767,1083
1154.470858984876,1057
1156.626270594044,1063
1158.7811071154629,1073
1160.9353687849912,1100
1163.089055838569,1075
1165.242168512213,1114
1167.3947070420209,1071
1169.5466716641677,1090
1171.6980626149075,1075
1173.8488801305748,1041
1175.9991244475814,1037
1178.1487958024186,1078
1180.2978944316555,1057
1182.4464205719428,1095
1184.5943744600072,1044
1186.7417563326567,1045
1188.8885664267755,1057
1191.0348049793297,1065
1193.1804722273619,1104
1195.325568407995,1105
1197.4700937584303,1118
1199.614048515948,1065
1201.7574329179074,1029
1203.900247201746,1029
1206.042491604982,1088
1208.1841663652099,1052
1210.3252717201053,1009
1212.465807907422,1047
1214.6057751649923,1041
1216.7451737307279,1051
1218.8840038426192,1020
1221.0222657387353,1039
1223.1599596572241,1046
1225.2970858363137,1079
1227.4336445143094,1093
1229.5696359295966,1021
1231.705060320639,1071
1233.8399179259786,1050
1235.9742089842384,1026
1238.107933734118,1072
1240.2410924143974,1050
1242.373685263935,1097
1244.5057125216676,1119
1246.6371744266116,1051
1248.7680712178621,1046
1250.898403134593,1020
1253.028170416058,1042
1255.1573733015875,1073
1257.2860120305932,1071
1259.4140868425648,1016
1261.54159797707,1035
1263.6685456737569,1021
1265.7949301723515,1063
1267.9207517126597,1057
1270.046010534565,1066
1272.1707068780306,1057
1274.2948409830983,1067
1276.4184130898889,1076
1278.541423438603,1114
1280.6638722695184,1053
1282.785759822993,1040
1284.9070863394636,1055
1287.0278520594447,1036
1289.1480572235314,1070
1291.2677020723963,1067
1293.3867868467923,1114
1295.5053117875495,1050
1297.623277135579,1110
1299.740683131868,1086
1301.8575300174857,1037
1303.973818033578,1112
1306.0895474213703,1045
1308.2047184221678,1109
1310.3193312773528,1056
1312.4333862283888,1027
1314.5468835168163,1052
1316.659823384255,1052
1318.7722060724045,1064
1320.8840318230418,1044
1322.9953008780249,1049
1325.1060134792888,1085
1327.2161698688478,1066
1329.3257702887959,1113
1331.4348149813054,1075
1333.5433041886276,1089
1335.6512381530933,1064
1337.7586171171101,1047
1339.8654413231675,1044
1341.9717110138317,1060
1344.0774264317488,1083
1346.1825878196432,1043
1348.2871954203192,1041
1350.3912494766587,1067
1352.4947502316231,1037
1354.5976979282532,1079
1356.7000928096686,1093
1358.8019351190665,1048
1360.9032250997243,1060
1363.0039629949988,1062
1365.1041490483235,1080
1367.2037835032133,1069
1369.3028666032606,1055
1371.401398592137,1103
1373.4993797135926,1061
1375.5968102114575,1054
1377.6936903296396,1060
1379.7900203121262,1077
1381.8858004029835,1061
1383.9810308463561,1129
1386.075711886469,1100
1388.1698437676241,1044
1390.2634267342032,1091
1392.356461030667,1138
1394.4489469015557,1098
1396.5408845914872,1114
1398.6322743451592,1136
1400.7231164073469,1136
1402.813411022907,1067
1404.903158436773,1129
1406.9923588939578,1038
1409.0810126395531,1083
1411.1691199187303,1146
1413.2566809767386,1095
1415.343696058907,1037
1417.4301654106425,1031
1419.5160892774315,1074
1421.6014679048399,1112
1423.6863015385125,1085
1425.7705904241707,1055
1427.8543348076178,1037
1429.9375349347342,1065
1432.0201910514802,1064
1434.102303403894,1095
1436.1838722380944,1044
1438.2648978002767,1085
1440.3453803367174,1005
1442.4253200937692,1088
1444.5047173178677,1103
1446.5835722555234,1114
1448.6618851533285,1102
1450.739656257952,1063
1452.8168858161434,1088
1454.8935740747306,1056
1456.96972128062,1013
1459.045327680797,1061
1461.120393522327,1100
1463.1949190523528,1080
1465.2689045180973,1064
1467.3423501668608,1076
1469.415256246024,1064
1471.4876230030463,1078
1473.559450685465,1076
1475.6307395408976,1074
1477.7014898170391,1083
1479.771701761665,1092
1481.8413756226287,1082
1483.9105116478618,1091
1485.9791100853772,1089
1488.0471711832643,1067
1490.1146951896926,1052
1492.1816823529098,1064
1494.2481329212433,1079
1496.3140471430984,1074
1498.3794252669609,1063
1500.4442675413939,1044
1502.5085742150404,1061
1504.572345536622,1069
1506.6355817549388,1068
1508.6982831188702,1064
1510.7604498773744,1076
1512.8220822794883,1080
1514.8831805743293,1124
1516.9437450110909,1084
1519.003775839048,1075
1521.0632733075522,1044
1523.1222376660367,1098
1525.1806691640113,1063
1527.2385680510652,1041
1529.2959345768668,1054
1531.3527689911643,1078
1533.4090715437833,1057
1535.4648424846291,1050
1537.5200820636855,1023
1539.5747905310159,1076
1541.6289681367616,1072
1543.6826151311434,1067
1545.7357317644614,1080
1547.7883182870937,1081
1549.8403749494987,1079
1551.8919020022113,1085
1553.9428996958477,1083
1555.9933682811015,1132
1558.0433080087469,1088
1560.0927191296346,1082
1562.1416018946961,1078
1564.1899565549415,1092
1566.2377833614592,1075
1568.2850825654164,1072
1570.3318544180606,1046
1572.3780991707158,1099
1574.423817074788,1073
1576.4690083817595,1046
1578.5136733431923,1103
1580.5578122107272,1086
1582.601425236085,1076
1584.6445126710646,1101
1586.6870747675434,1083
1588.7291117774776,1101
1590.7706239529034,1125
1592.8116115459347,1058
1594.8520748087658,1059
1596.8920139936686,1088
1598.9314293529933,1097
1600.9703211391711,1085
1603.008689604711,1085
1605.0465350022005,1133
1607.0838575843068,1068
1609.1206576037753,1086
1611.1569353134305,1105
1613.1926909661765,1082
1615.2279248149953,1099
1617.2626371129481,1084
1619.2968281131757,1130
1621.3304980688963,1078
1623.3636472334088,1044
1625.39627586009,1069
1627.428384202396,1099
1629.459972513861,1101
1631.4910410480993,1079
1633.5215900588028,1112
1635.551619799744,1082
1637.5811305247717,1057
1639.6101224878166,1040
1641.6385959428862,1082
1643.6665511440683,1114
1645.693988345528,1086
1647.7209078015112,1096
1649.7473097663405,1106
1651.7731944944203,1077
1653.7985622402307,1091
1655.823413258333,1082
1657.847747803366,1052
1659.8715661300494,1058
1661.8948684931793,1088
1663.9176551476316,1106
1665.9399263483624,1086
1667.9616823504057,1093
1669.982923408873,1096
1672.0036497789574,1085
1674.0238617159293,1051
1676.043559475138,1071
1678.0627433120121,1091
1680.081413482059,1135
1682.0995702408654,1101
1684.117213844096,1087
1686.134344547495,1055
1688.1509626068864,1073
1690.1670682781705,1072
1692.182661817329,1066
1694.1977434804217,1083
1696.2123135235875,1067
1698.226372203043,1092
1700.2399197750851,1100
1702.2529564960905,1064
1704.2654826225112,1096
1706.277498410882,1078
1708.2890041178139,1154
1710.2999999999988,1111
1712.3104863142066,1072
1714.3204633172854,1049
1716.329931266163,1110
1718.3388904178469,1103
1720.3473410294214,1101
1722.3552833580516,1188
1724.3627176609807,1130
1726.3696441955308,1103
1728.3760632191033,1103
1730.3819749891782,1025
1732.3873797633146,1068
1734.3922777991502,1097
1736.3966693544012,1109
1738.4005546868639,1077
1740.4039340544127,1090
1742.406807715001,1156
1744.4091759266616,1058
1746.4110389475054,1124
1748.4123970357223,1111
1750.413250449582,1092
1752.4135994474318,1112
1754.4134442876993,1082
1756.4127852288902,1118
1758.4116225295893,1119
1760.4099564484595,1092
1762.407787244244,1106
1764.405115175764,1071
1766.4019405019203,1125
1768.3982634816916,1117
1770.3940843741357,1093
1772.3894034383907,1061
1774.3842209336717,1095
1776.378537119274,1088
1778.372352254571,1110
1780.3656665990156,1072
1782.3584804121397,1065
1784.3507939535534,1099
1786.3426074829463,1105
1788.3339212600863,1095
1790.3247355448211,1049
1792.3150505970766,1075
1794.3048666768573,1096
1796.2941840442477,1072
1798.2830029594106,1105
1800.2713236825884,1081
1802.2591464741004,1060
1804.2464715943465,1122
1806.2332993038058,1058
1808.2196298630352,1072
1810.2054635326708,1111
1812.190800573428,1057
1814.175641246101,1069
1816.1599858115628,1054
1818.1438345307652,1094
1820.127187664738,1096
1822.1100454745924,1075
1824.092408221516,1058
1826.0742761667766,1089
1828.055649571721,1071
1830.0365286977735,1121
1832.0169138064398,1081
1833.9968051593014,1138
1835.9762030180214,1132
1837.9551076443408,1051
1839.9335193000788,1135
1841.9114382471344,1082
1843.888864747485,1088
1845.8657990631878,1017
1847.842241456378,1099
1849.8181921892697,1109
1851.7936515241558,1076
1853.7686197234098,1138
1855.7430970494815,1022
1857.7170837649014,1095
1859.6905801322787,1060
1861.6635864143004,1090
1863.6361028737338,1109
1865.608129773424,1121
1867.5796673762961,1097
1869.5507159453537,1055
1871.521275743678,1082
1873.4913470344313,1121
1875.4609300808534,1106
1877.4300251462632,1109
1879.3986324940588,1115
1881.366752387717,1101
1883.3343850907936,1055
1885.3015308669228,1089
1887.268189979819,1099
1889.2343626932739,1103
1891.2000492711595,1149
1893.1652499774254,1137
1895.1299650761011,1131
1897.0941948312952,1118
1899.0579395071945,1133
1901.0211993680641,1108
1902.98397467825,1125
1904.9462657021745,1141
1906.9080727043415,1113
1908.869395949332,1096
1910.8302357018065,1077
1912.790592226504,1109
1914.7504657882428,1113
1916.7098566519212,1119
1918.6687650825133,1071
1920.6271913450764,1088
1922.5851357047422,1107
1924.5425984267245,1133
1926.499579776314,1084
1928.4560800188833,1118
1930.4120994198802,1127
1932.367638244833,1067
1934.32269675935,1057
1936.2772752291175,1133
1938.231373919899,1062
1940.1849930975404,1129
1942.1381330279637,1098
1944.0907939771696,1074
1946.0429762112412,1123
1947.9946799963363,1075
1949.9459055986945,1060
1951.896653284633,1121
1953.8469233205478,1073
1955.7967159729142,1058
1957.7460315082863,1127
1959.6948701932974,1099
1961.6432322946594,1095
1963.5911180791632,1092
1965.5385278136787,1076
1967.4854617651545,1106
1969.4319202006182,1115
1971.377903387176,1106
1973.3234115920136,1112
1975.268445082395,1160
1977.2130041256642,1116
1979.1570889892423,1060
1981.1006999406304,1151
1983.04383724741,1106
1984.986501177238,1116
1986.928691997853,1144
1988.8704099770712,1121
1990.811655382789,1158
1992.7524284829801,1157
1994.692729545698,1153
1996.6325588390755,1079
1998.5719166313224,1133
2000.5108031907307,1116
2002.4492187856677,1095
2004.387163684583,1093
2006.3246381560011,1065
2008.2616424685298,1114
2010.1981768908527,1054
2012.1342416917332,1092
2014.069837140014,1061
2016.0049635046162,1101
2017.9396210545406,1107
2019.8738100588666,1126
2021.8075307867502,1145
2023.740783507431,1182
2025.6735684902228,1086
2027.6058860045214,1125
2029.5377363198004,1115
2031.4691197056118,1130
2033.4000364315875,1126
2035.3304867674374,1114
2037.260470982952,1086
2039.189989347998,1107
2041.1190421325232,1107
2043.047629606554,1084
2044.9757520401945,1075
2046.9034097036288,1133
2048.8306028671195,1076
2050.7573318010086,1141
2052.683596775716,1141
2054.609398061742,1097
2056.5347359296647,1094
2058.4596106501403,1053
2060.384022493906,1099
2062.3079717317764,1114
2064.231458634646,1165
2066.1544834734873,1076
2068.077046519352,1121
2069.99914804337,1121
2071.9207883167524,1077
2073.8419676107865,1145
2075.7626861968406,1075
2077.6829443463607,1060
2079.6027423308715,1130
2081.522080421977,1087
2083.440958891362,1057
2085.359378010786,1051
2087.2773380520907,1116
2089.194839287196,1144
2091.111881988101,1118
2093.0284664268825,1120
2094.9445928756973,1109
2096.86026160678,1126
2098.775472892446,1112
2100.690227005088,1117
2102.604524217178,1109
2104.5183648012676,1160
2106.431749029985,1072
2108.34467717604,1069
2110.2571495122206,1082
2112.169166311393,1074
2114.080727846503,1073
2115.9918343905747,1070
2117.902486216711,1133
2119.8126835980956,1090
2121.722426807987,1075
2123.6317161197285,1120
2125.5405518067364,1132
2127.448934142509,1177
2129.356863400624,1061
2131.264339854737,1067
2133.1713637785815,1077
2135.077935445972,1107
2136.9840551308002,1101
2138.889723107037,1136
2140.7949396487334,1082
2142.699705030018,1110
2144.6040195250994,1114
2146.507883408264,1127
2148.4112969538774,1139
2150.3142604363848,1122
2152.2167741303097,1096
2154.1188383102535,1065
2156.0204532508997,1104
2157.9216192270064,1140
2159.822336513414,1082
2161.7226053850413,1083
2163.622426116884,1106
2165.5217989840185,1074
2167.4207242616,1083
2169.319202224862,1132
2171.2172331491165,1088
2173.1148173097563,1066
2175.0119549822507,1120
2176.90864644215,1096
2178.8048919650823,1079
2180.7006918267534,1136
2182.596046302952,1033
2184.4909556695407,1105
2186.3854202024645,1125
2188.279440177746,1064
2190.173015871487,1028
2192.066147559868,1062
2193.958835519149,1071
2195.851080025667,1064
2197.7428813558417,1080
2199.6342397861667,1148
2201.5251555932186,1051
2203.415629053651,1077
2205.3056604441986,1136
2207.19525004167,1093
2209.084398122958,1055
2210.9731049650327,1137
2212.861370844941,1109
2214.749196039812,1079
2216.636580826851,1120
2218.523525483344,1118
2220.410030286655,1084
2222.296095514226,1151
2224.1817214435805,1104
2226.066908352319,1109
2227.951656518121,1115
2229.835966218746,1086
2231.71983773203,1124
2233.6032713358913,1088
2235.486267308324,1116
2237.3688259274036,1140
2239.2509474712824,1136
2241.132632218193,1114
2243.013880446447,1106
2244.8946924344323,1064
2246.7750684606203,1163
2248.6550088035574,1119
2250.534513741871,1142
2252.413583554265,1098
2254.292218519526,1058
2256.170418916517,1045
2258.0481850241786,1136
2259.925517121534,1115
2261.8024154876825,1141
2263.678880401803,1109
2265.5549121431536,1108
2267.430510991071,1101
2269.305677224971,1113
2271.180411124348,1096
2273.0547129687766,1092
2274.9285830379076,1083
2276.8020216114737,1109
2278.6750289692845,1097
2280.5476053912294,1143
2282.4197511572766,1087
2284.2914665474727,1072
2286.162751841943,1078
2288.0336073208937,1106
2289.904033264608,1100
2291.774029953448,1128
2293.6435976678554,1076
2295.5127366883517,1133
2297.381447295534,1079
2299.2497297700825,1095
2301.1175843927526,1106
2302.9850114443825,1088
2304.852011205885,1129
2306.7185839582553,1097
2308.5847299825664,1107
2310.4504495599676,1132
2312.3157429716925,1100
2314.1806104990483,1097
2316.0450524234247,1110
2317.9090690262888,1052
2319.772660589186,1137
2321.635827393742,1113
2323.498569721661,1122
2325.3608878547248,1082
2327.2227820747967,1099
2329.0842526638157,1131
2330.945299903803,1042
2332.805924076857,1110
2334.6661254651535,1068
2336.525904350951,1024
2338.3852610165827,1105
2340.244195744464,1091
2342.102708817088,1093
2343.9608005170253,1077
2345.8184711269287,1131
2347.675720929526,1129
2349.532550207628,1057
2351.38895924412,1118
2353.24494832197,1084
2355.100517724223,1098
2356.955667734004,1089
2358.810398634514,1075
2360.664710709037,1077
2362.5186042409337,1128
2364.3720795136437,1107
2366.225136810686,1097
2368.0777764156583,1096
2369.929998612237,1089
2371.7818036841777,1094
2373.633191915315,1067
2375.484163589562,1096
2377.3347189909114,1112
2379.184858403434,1084
2381.03458211128,1141
2382.8838903986775,1099
2384.732783549936,1123
2386.5812618494406,1144
2388.4293255816588,1076
2390.2769750311327,1108
2392.1242104824883,1120
2393.971032220427,1122
2395.8174405297295,1126
2397.6634356952563,1059
2399.509018001947,1067
2401.3541877348193,1124
2403.1989451789705,1116
2405.043290619576,1116
2406.8872243418905,1088
2408.730746631247,1123
2410.5738577730594,1049
2412.4165580528183,1097
2414.258847756095,1105
2416.100727168537,1107
2417.9421965758734,1114
2419.783256263912,1151
2421.623906518538,1079
2423.4641476257157,1158
2425.303979871491,1134
2427.143403541984,1097
2428.9824189233977,1126
2430.821026302012,1101
2432.6592259641866,1156
2434.497018196361,1161
2436.33440328505,1156
2438.171381516851,1091
2440.00795317844,1121
2441.844118556569,1120
2443.6798779380724,1094
2445.5152316098606,1109
2447.3501798589255,1108
2449.1847229723357,1161
2451.0188612372403,1138
2452.8525949408663,1110
2454.6859243705203,1131
2456.518849813587,1126
2458.3513715575314,1106
2460.183489889895,1157
2462.015205098301,1152
2463.8465174704493,1105
2465.67742729412,1105
2467.5079348571717,1127
2469.338040447542,1139
2471.1677443532476,1141
2472.9970468623833,1054
2474.825948263123,1092
2476.6544488437207,1131
2478.482548892508,1147
2480.310248697896,1146
2482.137548548374,1107
2483.9644487325118,1118
2485.790949538956,1139
2487.617051256433,1062
2489.44275417375,1047
2491.26805857979,1059
2493.0929647635157,1127
2494.917473013971,1106
2496.741583620276,1088
2498.5652968716304,1149
2500.3886130573137,1120
2502.2115324666834,1115
2504.0340553891765,1113
2505.856182114308,1078
2507.6779129316733,1083
2509.499248130945,1091
2511.3201880018764,1084
2513.140732834298,1108
2514.9608829181198,1112
2516.780638543331,1129
2518.6,1161
2520.418967578273,1070
2522.237541568376,1104
2524.0557222606144,1108
2525.8735099453706,1123
2527.6909049131086,1082
2529.507907454368,1052
2531.32451785977,1128
2533.140736420014,1025
2534.9565634258774,1090
2536.771999168218,1091
2538.5870439379714,1056
2540.4016980261526,1116
2542.2159617238544,1111
2544.02983532225,1117
2545.8433191125914,1101
2547.656413386209,1077
2549.4691184345115,1090
2551.2814345489874,1105
2553.093362021204,1075
2554.904901142808,1128
2556.716052205523,1116
2558.526815501153,1129
2560.3371913215824,1093
2562.147179958771,1086
2563.956781704761,1087
2565.7659968516705,1089
2567.5748256916986,1081
2569.3832685171224,1149
2571.1913256202984,1090
2572.9989972936614,1059
2574.806283829725,1115
2576.613185521084,1080
2578.4197026604074,1139
2580.2258355404483,1113
2582.031584454035,1132
2583.836949694077,1098
2585.6419315535613,1091
2587.4465303255533,1079
2589.2507463032002,1054
2591.0545797797245,1086
2592.8580310484303,1097
2594.6611004026995,1067
2596.463788135992,1126
2598.266094541849,1109
2600.0680199138874,1054
2601.869564545807,1089
2603.670728731383,1067
2605.4715127644704,1088
2607.2719169390048,1082
2609.071941548998,1154
2610.8715868885433,1033
2612.670853251811,1115
2614.469740933052,1090
2616.268250226594,1100
2618.0663814268455,1063
2619.864134828292,1115
2621.6615107255006,1049
2623.458509413115,1127
2625.2551311858597,1089
2627.0513763385347,1130
2628.8472451660223,1079
2630.6427379632833,1136
2632.4378550253564,1133
2634.232596647359,1064
2636.026963124488,1105
2637.8209547520187,1092
2639.6145718253065,1081
2641.407814639785,1084
2643.200683490966,1134
2644.9931786744414,1075
2646.7853004858807,1076
2648.577049221034,1054
2650.3684251757277,1088
2652.1594286458712,1046
2653.9500599274484,1098
2655.740319316525,1086
2657.5302071092437,1081
2659.3197236018286,1118
2661.10886909058,1064
2662.8976438718782,1060
2664.686048242183,1088
2666.4740824980327,1109
2668.2617469360443,1055
2670.0490418529134,1090
2671.8359675454153,1096
2673.622524310403,1098
2675.408712444811,1109
2677.1945322456495,1067
2678.979984010009,1086
2680.76506803506,1119
2682.5497846180497,1088
2684.334134056306,1086
2686.1181166472343,1062
2687.9017326883213,1066
2689.6849824771293,1130
2691.4678663113013,1080
2693.2503844885596,1130
2695.032537306705,1111
2696.8143250636167,1058
2698.5957480572542,1063
2700.3768065856534,1091
2702.1575009469316,1096
2703.937831439283,1070
2705.717798360982,1081
2707.4974020103837,1064
2709.276642685917,1065
2711.055520686095,1102
2712.834036309506,1092
2714.612189854819,1116
2716.389981620782,1116
2718.1674119062204,1047
2719.944481010041,1053
2721.721189231226,1072
2723.4975368688415,1024
2725.273524222027,1085
2727.0491515900053,1100
2728.824419272075,1072
2730.5993275676146,1069
2732.3738767760838,1067
2734.148067197016,1073
2735.921899130031,1056
2737.6953728748194,1051
2739.468488731156,1103
2741.2412469988926,1087
2743.0136479779617,1070
2744.785691968372,1061
2746.5573792702116,1096
2748.3287101836504,1114
2750.099685008934,1098
2751.870304046388,1113
2753.640567596418,1054
2755.4104759595057,1076
2757.1800294362156,1066
2758.949228327187,1051
2760.7180729331412,1093
2762.486563554877,1055
2764.254700493272,1116
2766.022484049284,1024
2767.789914523947,1080
2769.5569922183786,1076
2771.3237174337705,1069
2773.090090471394,1097
2774.8561116326036,1081
2776.6217812188274,1047
2778.3870995315756,1065
2780.1520668724356,1082
2781.9166835430747,1113
2783.6809498452394,1087
2785.444866080754,1109
2787.2084325515225,1073
2788.971649559527,1097
2790.73451740683,1105
2792.4970363955713,1098
2794.2592068279705,1065
2796.0210290063264,1076
2797.7825032330147,1060
2799.543629810493,1071
2801.304409041296,1096
2803.0648412280366,1076
2804.8249266734088,1103
2806.5846656801846,1093
2808.344058551212,1082
2810.1031055894246,1053
2811.8618070978273,1083
2813.6201633795085,1136
2815.378174737636,1064
2817.1358414754536,1070
2818.893163896285,1078
2820.6501423035334,1060
2822.4067770006814,1090
2824.1630682912883,1100
2825.9190164789957,1088
2827.6746218675207,1111
2829.429884760661,1100
2831.184805462294,1076
2832.9393842763743,1067
2834.693621506936,1113
2836.4475174580916,1033
2838.201072434034,1079
2839.954286739034,1115
2841.707160677441,1016
2843.459694553685,1076
2845.2118886722724,1085
2846.96374333779,1094
2848.7152588549034,1065
2850.4664355283567,1122
2852.217273662973,1083
2853.9677735636546,1096
2855.7179355353833,1093
2857.4677598832186,1073
2859.217246912299,1073
2860.9663969278427,1069
2862.715210235146,1113
2864.4636871395846,1055
2866.211827946614,1082
2867.9596329617652,1108
2869.7071024906536,1088
2871.4542368389684,1074
2873.20103631248,1041
2874.947501217038,1043
2876.6936318585695,1099
2878.4394285430812,1095
2880.1848915766604,1118
2881.9300212654707,1095
2883.6748179157553,1089
2885.4192818338374,1095
2887.1634133261173,1153
2888.907212699077,1104
2890.6506802592744,1104
2892.393816313348,1134
2894.1366211680142,1083
2895.8790951300693,1062
2897.621238506388,1084
2899.363051603925,1067
2901.1045347297118,1071
2902.8456881908596,1080
2904.58651229456,1108
2906.327007348081,1104
2908.067173658772,1114
2909.8070115340597,1131
2911.5465212814497,1117
2913.285703208527,1072
2915.0245576229563,1047
2916.7630848324807,1063
2918.5012851449196,1058
2920.2391588681758,1045
2921.976706310227,1050
2923.7139277791334,1108
2925.4508235830313,1076
2927.187394030137,1093
2928.923639428745,1107
2930.6595600872306,1062
2932.395156314046,1084
2934.1304284177218,1066
2935.8653767068713,1114
2937.6000014901815,1127
2939.3343030764227,1140
2941.068281774442,1091
2942.8019378931644,1085
2944.5352717415976,1113
2946.2682836288236,1134
2948.0009738640065,1093
2949.7333427563885,1123
2951.465390615289,1126
2953.1971177501086,1068
2954.9285244703265,1088
2956.6596110855,1076
2958.3903779052657,1099
2960.1208252393385,1100
2961.8509533975125,1096
2963.5807626896617,1071
2965.3102534257378,1088
2967.0394259157715,1084
2968.768280469873,1123
2970.496817398232,1065
2972.2250370111146,1091
2973.952939618869,1062
2975.6805255319196,1056
2977.4077950607707,1067
2979.134748516006,1093
2980.861386208289,1117
2982.587708448359,1051
2984.313715547037,1156
2986.039407815222,1108
2987.764785563891,1121
2989.489849104102,1065
2991.2145987469908,1061
2992.9390348037705,1065
2994.6631575857346,1090
2996.3869674042576,1098
2998.1104645707887,1093
2999.83364939686,1082
3001.5565221940783,1103
3003.2790832741334,1069
3005.0013329487924,1057
3006.7232715298996,1083
3008.4448993293804,1076
3010.166216659239,1069
3011.887223831558,1040
3013.607921158498,1069
3015.3283089522993,1092
3017.0483875252826,1100
3018.7681571898443,1090
3020.4876182584626,1079
3022.2067710436927,1028
3023.9256158581707,1080
3025.644153014609,1082
3027.362382825801,1020
3029.0803056046193,1093
3030.797921664012,1095
3032.5152313170106,1079
3034.2322348767225,1099
3035.9489326563353,1050
3037.665324969115,1047
3039.3814121284063,1065
3041.097194447633,1086
3042.812672240299,1062
3044.5278458199855,1069
3046.2427155003525,1031
3047.9572815951406,1069
3049.671544418167,1049
3051.38550428333,1056
3053.0991615046073,1057
3054.812516396051,1038
3056.5255692717974,1020
3058.2383204460575,1097
3059.9507702331257,1086
3061.662918947372,1066
3063.3747669032446,1096
3065.0863144152736,1044
3066.7975617980674,1078
3068.508509366309,1108
3070.219157434767,1090
3071.9295063182844,1109
3073.639556331785,1043
3075.3493077902704,1079
3077.058761008821,1083
3078.7679163025964,1110
3080.476773986837,1076
3082.1853343768594,1055
3083.89359778806,1118
3085.6015645359153,1095
3087.3092349359786,1093
3089.016609303884,1095
3090.7236879553434,1084
3092.4304712061476,1057
3094.136959372166,1104
3095.843152769349,1048
3097.5490517137237,1076
3099.2546565213966,1089
3100.959967508554,1088
3102.66498499146,1066
3104.3697092864577,1107
3106.0741407099695,1083
3107.778279578498,1101
3109.482126208622,1058
3111.1856809170004,1039
3112.8889440203716,1069
3114.5919158355528,1066
3116.294596679439,1085
3117.996986869006,1077
3119.6990867213062,1130
3121.4008965534726,1067
3123.102416682717,1099
3124.803647426329,1110
3126.5045891016784,1095
3128.205242026213,1089
3129.90560651746,1057
3131.605682893025,1099
3133.3054714705922,1088
3135.0049725679282,1110
3136.7041865028714,1097
3138.4031135933465,1107
3140.101754157353,1069
3141.800108512971,1062
3143.498176978357,1073
3145.1959598717494,1063
3146.8934575114636,1058
3148.5906702158954,1076
3150.2875983035183,1096
3151.9842420928853,1116
3153.680601902627,1041
3155.376678051456,1096
3157.07247085816,1105
3158.767980641609,1062
3160.463207720748,1092
3162.158152414606,1070
3163.8528150422862,1081
3165.5471959229726,1019
3167.2412953759303,1062
3168.9351137204976,1103
3170.628651276098,1104
3172.3219083622307,1035
3174.014885298474,1123
3175.707582404485,1101
3177.4000000000005,1056
3179.092138404835,1073
3180.7839979388846,1086
3182.47557892212,1073
3184.166881674594,1046
3185.8579065164386,1103
3187.5486537678626,1077
3189.2391237491547,1050
3190.9293167806827,1076
3192.6192331828934,1090
3194.3088732763117,1105
3195.998237381542,1083
3197.687325819268,1081
3199.376138910251,1091
3201.064676975334,1116
3202.7529403354347,1053
3204.4409293115523,1100
3206.1286442247647,1074
3207.816085396229,1091
3209.5032531471825,1055
3211.190147798936,1087
3212.8767696728846,1092
3214.5631190905015,1047
3216.2491963733373,1060
3217.9350018430214,1053
3219.6205358212637,1039
3221.305798629851,1064
3222.990790590651,1013
3224.6755120256103,1089
3226.359963256751,1058
3228.0441446061795,1055
3229.7280563960758,1064
3231.411698948703,1065
3233.0950725863995,1062
3234.778177631587,1031
3236.461014406761,1049
3238.1435832345005,1062
3239.8258844374595,1117
3241.507918338374,1092
3243.1896852600576,1055
3244.8711855254023,1061
3246.552419457381,1064
3248.233387379042,1073
3249.914089613516,1079
3251.59452648401,1107
3253.274698313813,1013
3254.95460542629,1020
3256.6342481448855,1043
3258.313626793125,1079
3259.9927416946084,1074
3261.6715931730196,1011
3263.3501815521176,1058
3265.0285071557437,1012
3266.706570307815,1033
3268.3843713323286,1055
3270.0619105533615,1066
3271.739188295068,1065
3273.4162048816834,1069
3275.0929606375184,1094
3276.769455886966,1079
3278.445690954498,1079
3280.1216661646613,1060
3281.797381842087,1086
3283.4728383114807,1116
3285.1480358976296,1091
3286.8229749253996,1074
3288.4976557197333,1062
3290.172078605655,1043
3291.846243908266,1015
3293.5201519527463,1074
3295.193803064357,1018
3296.8671975684374,1051
3298.5403357904024,1043
3300.21321805575,1007
3301.8858446900567,1068
3303.558216018975,1043
3305.23033236824,1078
3306.9021940636603,1064
3308.57380143113,1099
3310.2451547966184,1073
3311.916254486174,1039
3313.5871008259246,1065
3315.2576941420766,1080
3316.9280347609147,1077
3318.5981230088046,1054
3320.2679592121895,1035
3321.9375436975924,1052
3323.606876791612,1056
3325.27595882093,971
3326.944790112305,1000
3328.6133709925753,1009
3330.2817017886573,1069
3331.949782827547,1081
3333.617614436319,1059
3335.2851969421245,1070
3336.952530672199,1072
3338.619615953853,1036
3340.286453114475,1084
3341.9530424815357,1130
3343.619384382583,1090
3345.2854791452437,1031
3346.951327097224,1052
3348.6169285663073,1077
3350.2822838803577,1108
3351.947393367319,1072
3353.61225735521,1133
3355.2768761721345,1047
3356.9412501462693,1081
3358.605379605873,1084
3360.2692648792827,1052
3361.9329062949146,1120
3363.596304181263,1051
