CollectionTime,6/26/2024 2:19:33 PM
ExposureUsed,3
CalibratedSpectrum
-962.7078968117929,490
-959.9714848408522,512
-957.2358232597828,489
-954.5009119013725,509
-951.7667505983302,536
-949.0333391832855,531
-946.3006774887896,524
-943.5687653473143,521
-940.837602591253,548
-938.1071890529199,523
-935.3775245645503,528
-932.6486089583007,527
-929.9204420662485,560
-927.1930237203925,546
-924.4663537526524,530
-921.7404319948689,545
-919.0152582788041,533
-916.2908324361409,553
-913.5671542984834,582
-910.8442236973568,551
-908.1220404642074,551
-905.4006044304027,552
-902.679915427231,538
-899.959973285902,563
-897.2407778375464,561
-894.5223289132158,537
-891.8046263438832,518
-889.0876699604426,487
-886.3714595937089,514
-883.6559950744183,523
-880.9412762332282,487
-878.2273029007168,499
-875.5140749073835,508
-872.8015920836489,521
-870.0898542598545,492
-867.3788612662631,451
-864.6686129330585,474
-861.9591090903457,479
-859.2503495681506,507
-856.5423341964203,501
-853.8350628050229,520
-851.1285352237478,527
-848.4227512823054,514
-845.7177108103272,494
-843.0134136373656,517
-840.3098595928943,508
-837.6070485063082,530
-834.9049802069229,538
-832.2036545239757,534
-829.5030712866244,515
-826.8032303239481,516
-824.1041314649472,489
-821.4057745385428,506
-818.7081593735775,480
-816.0112857988148,517
-813.3151536429393,515
-810.6197627345566,503
-807.9251129021936,521
-805.2312039742981,516
-802.5380357792392,498
-799.8456081453069,522
-797.1539209007124,510
-794.462973873588,514
-791.772766891987,502
-789.083299783884,510
-786.3945723771743,536
-783.7065844996748,503
-781.0193359791231,491
-778.3328266431781,542
-775.6470563194197,567
-772.9620248353489,550
-770.2777320183878,511
-767.5941776958798,506
-764.9113616950891,517
-762.2292838432011,517
-759.5479439673222,507
-756.8673418944801,521
-754.1874774516235,499
-751.5083504656222,517
-748.8299607632671,501
-746.15230817127,537
-743.475392516264,562
-740.7992136248035,527
-738.1237713233636,519
-735.4490654383407,515
-732.7750957960521,496
-730.1018622227365,536
-727.4293645445534,502
-724.7576025875837,519
-722.0865761778291,541
-719.4162851412126,545
-716.7467293035781,519
-714.0779084906909,550
-711.409822528237,593
-708.7424712418238,538
-706.0758544569796,534
-703.4099719991541,527
-700.7448236937178,565
-698.0804093659622,550
-695.4167288411002,534
-692.7537819442656,531
-690.0915685005134,547
-687.4300883348199,538
-684.7693412720819,537
-682.1093271371178,528
-679.4500457546669,516
-676.7914969493897,523
-674.1336805458676,555
-671.4765963686034,555
-668.8202442420206,562
-666.1646239904642,608
-663.5097354382001,565
-660.8555784094151,551
-658.2021527282176,584
-655.5494582186366,598
-652.8974947046223,582
-650.2462620100463,607
-647.5957599587009,593
-644.9459883742998,579
-642.2969470804776,629
-639.6486359007902,614
-637.0010546587141,617
-634.3542031776476,593
-631.7080812809096,596
-629.0626887917401,579
-626.4180255333008,598
-623.7740913286734,577
-621.1308860008619,565
-618.4884093727904,621
-615.8466612673046,581
-613.2056415071715,542
-610.5653499150785,571
-607.9257863136347,579
-605.28695052537,574
-602.6488423727357,564
-600.0114616781036,588
-597.3748082637674,627
-594.7388819519412,632
-592.1036825647604,599
-589.4692099242818,635
-586.8354638524829,627
-584.2024441712624,589
-581.5701507024403,590
-578.9385832677575,642
-576.3077416888759,618
-573.6776257873787,647
-571.0482353847704,607
-568.4195703024757,632
-565.7916303618415,678
-563.164415384135,660
-560.5379251905453,639
-557.9121596021815,645
-555.2871184400748,627
-552.6628015251767,645
-550.0392086783606,625
-547.4163397204204,642
-544.794194472071,656
-542.1727727539491,660
-539.5520743866118,698
-536.9320991905377,743
-534.3128469861261,798
-531.6943175936979,763
-529.0765108334947,755
-526.4594265256793,804
-523.8430644903358,949
-521.2274245474689,1084
-518.612506517005,1260
-515.9983102187913,1352
-513.3848354725959,1602
-510.77208209810846,1867
-508.16004991493924,2135
-505.5487387426199,2332
-502.9381484006032,2504
-500.3282787082628,2445
-497.71912948489364,2327
-495.1107005497117,2103
-492.5029917218539,1745
-489.8960028203786,1366
-487.28973366426493,1151
-484.68418407241325,1069
-482.07935386364494,961
-479.47524285670266,876
-476.87185087025,897
-474.2691777228715,911
-471.66722323307334,874
-469.0659872192821,810
-466.4654694998459,831
-463.86566989303384,803
-461.26658821703614,762
-458.66822428996414,793
-456.07057792985,829
-453.4736489546475,814
-450.877437182231,851
-448.28194243039627,860
-445.68716451686,795
-443.09310325926003,801
-440.49975847515555,731
-437.9071299820263,765
-435.31521759727354,758
-432.72402113821954,778
-430.13354042210767,806
-427.5437752661022,816
-424.95472548728867,912
-422.36639090267386,894
-419.7787713291855,841
-417.1918665836721,873
-414.60567648290385,855
-412.0202008435715,838
-409.4354394822874,840
-406.8513922155845,875
-404.26805885991723,855
-401.685439231661,877
-399.103533147112,865
-396.522340422488,852
-393.9418608739278,861
-391.3620943174908,950
-388.7830405691583,931
-386.2046994448317,922
-383.6270707603344,826
-381.05015433141045,790
-378.473949973725,723
-375.8984575028645,723
-373.32367673433623,661
-370.74960748356875,659
-368.1762495659117,658
-365.60360279663576,635
-363.03166699093265,625
-360.4604419639154,573
-357.8899275306178,534
-355.32012350599507,525
-352.7510297049233,529
-350.1826459421999,539
-347.61497203254316,532
-345.04800779059235,522
-342.4817530309082,539
-339.91620756797226,522
-337.35137121618743,524
-334.7872437898774,573
-332.22382510328725,594
-329.66111497058273,578
-327.09911320585127,596
-324.53781962310075,610
-321.9772340362607,572
-319.4173562591816,569
-316.8581861056348,626
-314.2997233893127,625
-311.7419679238294,607
-309.1849195227194,603
-306.62857799943856,531
-304.0729431673641,525
-301.51801483979375,531
-298.963792829947,577
-296.41027695096386,571
-293.85746701590574,608
-291.3053628377552,713
-288.7539642294155,669
-286.2032710037115,640
-283.65328297338897,658
-281.1039999511146,722
-278.5554217494762,755
-276.007548180983,671
-273.4603790580651,603
-270.9139141930734,603
-268.3681533982807,711
-265.8230964858798,708
-263.27874326798565,709
-260.7350935566336,818
-258.1921471637804,814
-255.6499039013039,832
-253.10836358100266,750
-250.56752601459698,722
-248.02739101372765,776
-245.48795838995704,788
-242.94922795476816,754
-240.41119951956557,729
-237.8738728956746,788
-235.33724789434166,857
-232.80132432673452,1026
-230.2661020039418,1088
-227.73158073697357,916
-225.19776033676033,765
-222.66464061415422,898
-220.1322213799284,885
-217.60050244477725,831
-215.06948361931552,875
-212.53916471408013,842
-210.00954553952818,872
-207.48062590603843,812
-204.9524056239104,896
-202.4248845033651,949
-199.8980623545441,858
-197.37193898751036,803
-194.84651421224817,851
-192.32178783866232,972
-189.79775967657952,926
-187.27442953574644,866
-184.7517972258321,915
-182.2298625564256,903
-179.7086253370378,1096
-177.18808537710026,1038
-174.66824248596583,1115
-172.14909647290835,1147
-169.6306471471229,1008
-167.11289431772548,991
-164.59583779375328,922
-162.07947738416453,932
-159.5638128978386,970
-157.04884414357605,1122
-154.53457093009854,1221
-152.02099306604828,1101
-149.50811035998936,1097
-146.99592262040665,1146
-144.48442965570587,1171
-141.97363127421409,1279
-139.46352728417958,1378
-136.95411749377126,1219
-134.44540171107985,1245
-131.93737974411636,1397
-129.43005140081357,1400
-126.92341648902493,1413
-124.41747481652521,1257
-121.91222619101006,1319
-119.40767042009657,1234
-116.90380731132257,1158
-114.40063667214702,1299
-111.8981583099503,1427
-109.3963720320337,1411
-106.89527764561933,1316
-104.39487495785067,1558
-101.89516377579241,1720
-99.39614390642998,1686
-96.89781515667039,1834
-94.40017733334128,2214
-91.90323024319173,2100
-89.40697369289148,2166
-86.91140748903172,1838
-84.41653143812482,1708
-81.92234534660395,1991
-79.42884902082358,1947
-76.93604226705907,1891
-74.4439248915071,1869
-71.95249670028534,1683
-69.46175749943245,2148
-66.97170709490854,2354
-64.48234529259423,2624
-61.99367189829195,2486
-59.50568671772464,2591
-57.01838955653636,3247
-54.53178022029283,3046
-52.045858514480074,3202
-49.560624244506016,3545
-47.07607721569923,3483
-44.59221723330904,3629
-42.10904410250669,3775
-39.62655762838392,4705
-37.14475761595372,5292
-34.66364387015028,5578
-32.18321619582866,5760
-29.70347439776515,6225
-27.224418280657005,8533
-24.74604764912317,11895
-22.26836230770266,16053
-19.7913620608565,25956
-17.315046712966478,36603
-14.83941606833514,38883
-12.36446993118659,65039
-9.89020810566592,65039
-7.416630395839093,65039
-4.94373660569363,65039
-2.471526539137585,65039
-6.821210263296962E-13,65039
2.47084320796705,65039
4.941003281093458,65039
7.410480415786196,65039
9.879274808531363,65039
12.347386655893956,65039
14.814816154518212,65039
17.28156350112681,65039
19.74762889252179,65039
22.21301252558385,65039
24.67771459727237,65039
27.141735304626195,48290
29.605074844762612,17501
32.06773341487792,14061
34.52971121224755,11988
36.99100843422559,11584
39.45162527824516,8467
41.91156194181792,8180
44.370818622535126,10120
46.82939551806646,10653
49.287292826160524,9959
51.74451074464503,8041
54.201049471426245,5200
56.65690920448981,3831
59.112090141899785,3943
61.56659248179983,4458
64.02041642241159,4162
66.4735621620365,3483
68.92602989905402,2572
71.37781983192338,2711
73.82893215918205,3344
76.27936707944684,3234
78.72912479141326,3009
81.17820549385567,3056
83.62660938562783,3177
86.07433666566146,2881
88.5213875329681,2763
90.96776218663751,2527
93.41346082583925,2502
95.85848364982041,2049
98.30283085790859,1987
100.7465026495089,2160
103.18949922410604,2001
105.63182078126385,1883
108.07346752062438,2000
110.51443964190923,2021
112.95473734491827,1714
115.39436082953114,1657
117.83331029570547,1879
120.27158594347827,2033
122.7091879729652,1548
125.1461165843615,1523
127.58237197794062,1497
130.01795435405518,1308
132.4528639131364,1492
134.88710085569494,1644
137.32066538231982,1416
139.75355769367923,1449
142.1857779905207,1532
144.61732647366978,1253
147.04820334403132,1136
149.47840880258934,1134
151.90794305040674,1434
154.33680628862487,1512
156.76499871846443,1406
159.19252054122433,1443
161.61937195828352,1400
164.04555317109896,1410
166.47106438120693,1627
168.89590579022217,1827
171.320077599839,1760
173.7435800118302,1718
176.16641322804742,1802
178.58857745042144,1758
181.01007288096173,1795
183.43089972175687,1936
185.85105817497413,1897
188.27054844285988,1969
190.6893707277394,1934
193.10752523201643,1959
195.5250121581745,2033
197.9418317087751,1937
200.3579840864594,2027
202.7734694939469,2054
205.18828813403627,2013
207.6024402096051,2060
210.01592592360964,2131
212.42874547908548,2054
214.84089907914665,2050
217.2523869269868,2055
219.66320922587727,2152
222.0733661791695,2088
224.48285799029293,2143
226.8916848627572,2282
229.29984700014882,2264
231.7073446061355,2212
234.11417788446204,2112
236.520347038953,2239
238.92585227351185,2348
241.33069379212054,2513
243.73487179884035,2404
246.1383864978112,2203
248.541238093252,2121
250.9434267894609,2279
253.34495279081432,2382
255.74581630176783,2382
258.1460175268563,2473
260.54555667069314,2374
262.9444339379703,2274
265.3426495334594,2266
267.7402036620107,2345
270.1370965285529,2246
272.53332833809407,2262
274.9288992957214,2160
277.32380960660055,2165
279.718059475976,2239
282.1116491091717,2308
284.5045787115897,2395
286.89684848871195,2339
289.2884586460981,2363
291.67940938938807,2300
294.0697009242996,2400
296.4593334566299,2327
298.84830719225477,2278
301.23662233712923,2356
303.6242790972866,2348
306.01127767884,2216
308.39761828798066,2224
310.78330113097934,2147
313.16832641418534,2159
315.5526943440269,2187
317.9364051270112,2150
320.3194589697242,2051
322.70185607883093,2053
325.0835966610754,2065
327.4646809232805,2103
329.8451090723478,2047
332.2248813152577,2082
334.6039978590701,2015
336.9824589109231,1972
339.36026467803447,1945
341.7374153677,1991
344.113911187295,1929
346.48975234427337,1847
348.8649390461686,1901
351.2394715005918,1860
353.61334991523415,1894
355.9865744978655,1900
358.35914545633375,1904
360.73106299856715,1878
363.10232733257146,1838
365.47293866643247,1828
367.84289720831396,1896
370.2122031664593,1847
372.5808567491905,1817
374.9488581649083,1928
377.31620762209275,1940
379.6829053293021,1877
382.0489514951745,1817
384.4143463284262,1856
386.7790900378528,1797
389.14318283232853,1739
391.50662492080653,1829
393.86941651231916,1804
396.23155781597745,1735
398.5930490409713,1822
400.9538903965696,1714
403.3140820921202,1770
405.6736243370498,1672
408.03251734086336,1775
410.3907613131465,1707
412.74835646356166,1678
415.10530300185144,1711
417.4616011378372,1781
419.81725108141893,1737
422.1722530425758,1763
424.5266072313656,1747
426.880313857925,1676
429.2333731324701,1716
431.58578526529516,1715
433.9375504667738,1693
436.2886689473588,1744
438.63914091758113,1710
440.9889665880513,1676
443.33814616945835,1641
445.68667987257015,1635
448.03456790823395,1643
450.3818104873759,1622
452.72840782100013,1653
455.07436012019105,1618
457.41966759611057,1651
459.7643304600007,1593
462.10834892318155,1659
464.4517231970525,1754
466.79445349309174,1706
469.1365400228566,1618
471.4779829979826,1730
473.81878263018564,1769
476.15893913125876,1703
478.4984527130747,1744
480.8373235875855,1783
483.17555196682144,1806
485.5131380628919,1895
487.8500820879857,1904
490.1863842543697,2067
492.52204477439034,2269
494.8570638604725,2404
497.1914417251204,2692
499.52517858091653,3195
501.85827464052306,3982
504.19073011668036,4290
506.5225452222086,4529
508.85372017000566,4645
511.18425517304956,4668
513.514150444396,4621
515.8434061971808,4889
518.1720226446176,4836
520.4999999999999,4710
522.8273384766991,4830
525.1540382881666,4632
527.480099647932,4488
529.8055227696037,3700
532.1303078668694,2627
534.454455153496,2046
536.777964843328,1811
539.1008371502907,1692
541.4230722883866,1671
543.744670471698,1667
546.0656319143858,1652
548.3859568306899,1585
550.7056454349294,1559
553.0246979415016,1548
555.3431145648834,1508
557.6608955196306,1529
559.978041020377,1505
562.2945512818363,1476
564.6104265188006,1453
566.9256669461412,1471
569.2402727788082,1522
571.5542442318302,1444
573.8675815203156,1434
576.1802848594508,1483
578.4923544645015,1432
580.8037905508126,1457
583.114593333807,1503
585.4247630289875,1534
587.7342998519354,1466
590.0432040183106,1416
592.3514757438526,1447
594.6591152443794,1453
596.9661227357875,1414
599.2724984340531,1482
601.578242555231,1486
603.8833553154542,1490
606.1878369309362,1541
608.4916876179676,1515
610.7949075929192,1575
613.0974970722403,1606
615.3994562724587,1500
617.7007854101818,1520
620.0014847020951,1538
622.3015543649641,1467
624.6009946156324,1488
626.8998056710224,1528
629.1979877481361,1446
631.4955410640538,1517
633.7924658359349,1475
636.0887622810175,1477
638.3844306166192,1504
640.6794710601358,1515
642.9738838290426,1473
645.2676691408932,1526
647.5608272133207,1476
649.853358264037,1456
652.1452625108324,1455
654.4365401715764,1436
656.7271914642178,1426
659.0172166067838,1496
661.3066158173809,1457
663.5953893141935,1439
665.8835373154867,1485
668.1710600396028,1490
670.4579577049639,1540
672.7442305300709,1518
675.0298787335033,1557
677.3149025339197,1515
679.599302150058,1496
681.8830778007342,1433
684.1662297048437,1539
686.4487580813608,1492
688.7306631493387,1501
691.0119451279091,1508
693.2926042362834,1499
695.5726406937516,1451
697.8520547196814,1485
700.1308465335215,1520
702.4090163547982,1490
704.6865644031171,1538
706.9634908981619,1516
709.2397960596965,1479
711.5154801075631,1481
713.7905432616823,1490
716.0649857420548,1489
718.3388077687592,1481
720.612009561953,1451
722.8845913418733,1536
725.1565533288352,1544
727.427895743234,1522
729.6986188055427,1529
731.9687227363137,1532
734.238207756178,1493
736.5070740858458,1571
738.7753219461066,1555
741.0429515578281,1524
743.3099631419569,1441
745.5763569195191,1503
747.8421331116193,1577
750.1072919394409,1512
752.3718336242467,1537
754.6357583873777,1492
756.8990664502545,1488
759.1617580343765,1532
761.423833361321,1475
763.6852926527457,1494
765.9461361303862,1457
768.206364016058,1506
770.4659765316536,1534
772.7249738991469,1544
774.9833563405886,1537
777.2411240781092,1540
779.4982773339183,1585
781.7548163303044,1522
784.010741289634,1533
786.2660524343538,1677
788.5207499869881,1584
790.7748341701416,1584
793.0283052064964,1608
795.2811633188143,1580
797.5334087299362,1558
799.7850416627813,1607
802.0360623403484,1621
804.2864709857143,1505
806.5362678220353,1537
808.7854530725468,1594
811.0340269605625,1570
813.2819897094754,1550
815.5293415427581,1566
817.77608268396,1587
820.0222133567116,1526
822.2677337847211,1560
824.5126441917765,1605
826.7569448017433,1488
829.0006358385675,1545
831.2437175262731,1544
833.4861900889629,1544
835.7280537508192,1615
837.9693087361026,1520
840.2099552691533,1530
842.4499935743896,1577
844.689423876309,1549
846.9282463994886,1577
849.1664613685833,1497
851.4040690083276,1523
853.6410695435349,1474
855.877463199097,1503
858.1132501999847,1591
860.3484307712487,1479
862.5830051380175,1549
864.8169735254988,1549
867.0503361589791,1566
869.2830932638243,1590
871.5152450654786,1567
873.7467917894654,1565
875.9777336613873,1590
878.2080709069252,1550
880.4378037518389,1581
882.666932421968,1526
884.8954571432301,1547
887.1233781416219,1594
889.3506956432192,1581
891.5774098741766,1614
893.803521060728,1597
896.0290294291852,1509
898.2539352059397,1588
900.4782386174619,1597
902.7019398903011,1530
904.925039251085,1661
907.147536926521,1646
909.3694331433943,1574
911.59072812857,1607
913.8114221089921,1659
916.0315153116827,1641
918.2510079637437,1587
920.4699002923547,1601
922.6881925247761,1644
924.905884888345,1646
927.1229776104793,1573
929.3394709186747,1638
931.555365040506,1590
933.7706602036275,1624
935.9853566357709,1572
938.1994545647489,1633
940.4129542184515,1661
942.6258558248488,1608
944.8381596119883,1609
947.0498658079974,1614
949.2609746410825,1620
951.4714863395287,1623
953.6814011316998,1637
955.8907192460387,1654
958.0994409110671,1679
960.3075663553858,1606
962.5150958076741,1610
964.7220294966913,1548
966.928367651274,1537
969.1341105003388,1564
971.3392582728806,1546
973.5438111979742,1561
975.747769504772,1506
977.9511334225061,1483
980.153903180487,1475
982.3560790081052,1480
984.5576611348289,1481
986.7586497902058,1536
988.9590452038618,1493
991.158847605503,1443
993.3580572249133,1394
995.5566742919558,1415
997.7546990365728,1342
999.952131688785,1363
1002.1489724786926,1331
1004.3452216364743,1315
1006.5408793923874,1346
1008.7359459767691,1344
1010.9304216200343,1332
1013.1243065526781,1313
1015.3176010052733,1231
1017.510305208472,1237
1019.7024193930064,1246
1021.8939437896848,1271
1024.0848786293977,1201
1026.2752241431122,1257
1028.4649805618747,1214
1030.6541481168115,1219
1032.842727039127,1217
1035.0307175601051,1235
1037.2181199111074,1179
1039.4049343235752,1172
1041.591161029029,1227
1043.7768002590683,1244
1045.9618522453698,1202
1048.1463172196918,1134
1050.3301954138697,1190
1052.513487059818,1191
1054.69619238953,1178
1056.8783116350783,1175
1059.0598450286152,1151
1061.2407928023704,1152
1063.4211551886528,1209
1065.6009324198508,1175
1067.780124728432,1177
1069.9587323469414,1169
1072.1367555080046,1197
1074.314194444325,1137
1076.4910493886855,1195
1078.667320573947,1182
1080.843008233051,1179
1083.0181125990161,1142
1085.1926339049414,1139
1087.3665723840027,1097
1089.5399282694575,1124
1091.7127017946405,1160
1093.8848931929647,1164
1096.0565026979243,1090
1098.2275305430899,1095
1100.3979769621128,1082
1102.567842188722,1067
1104.737126456726,1112
1106.9058300000124,1095
1109.0739530525475,1085
1111.2414958483764,1053
1113.4084586216231,1114
1115.5748416064907,1111
1117.7406450372605,1141
1119.9058691482942,1077
1122.0705141740304,1145
1124.2345803489884,1064
1126.3980679077658,1106
1128.5609770850388,1135
1130.7233081155623,1071
1132.8850612341707,1111
1135.0462366757774,1086
1137.2068346753745,1101
1139.3668554680326,1092
1141.526299288901,1092
1143.68516637321,1115
1145.8434569562655,1135
1148.001171273455,1094
1150.158309560244,1087
1152.3148720521767,1069
1154.470858984876,1045
1156.626270594044,1076
1158.7811071154629,1101
1160.9353687849912,1083
1163.089055838569,1081
1165.242168512213,1111
1167.3947070420209,1140
1169.5466716641677,1069
1171.6980626149075,1054
1173.8488801305748,1034
1175.9991244475814,1030
1178.1487958024186,1066
1180.2978944316555,1074
1182.4464205719428,1083
1184.5943744600072,1079
1186.7417563326567,1059
1188.8885664267755,1015
1191.0348049793297,1084
1193.1804722273619,1052
1195.325568407995,1108
1197.4700937584303,1072
1199.614048515948,1101
1201.7574329179074,1062
1203.900247201746,1084
1206.042491604982,1036
1208.1841663652099,1101
1210.3252717201053,1086
1212.465807907422,1034
1214.6057751649923,1059
1216.7451737307279,1057
1218.8840038426192,1045
1221.0222657387353,993
1223.1599596572241,1056
1225.2970858363137,1048
1227.4336445143094,1011
1229.5696359295966,1035
1231.705060320639,1101
1233.8399179259786,1047
1235.9742089842384,1083
1238.107933734118,1040
1240.2410924143974,1072
1242.373685263935,1075
1244.5057125216676,1064
1246.6371744266116,1063
1248.7680712178621,1074
1250.898403134593,1075
1253.028170416058,1057
1255.1573733015875,1055
1257.2860120305932,1030
1259.4140868425648,994
1261.54159797707,1075
1263.6685456737569,1088
1265.7949301723515,1031
1267.9207517126597,1041
1270.046010534565,1020
1272.1707068780306,1053
1274.2948409830983,1092
1276.4184130898889,1041
1278.541423438603,1037
1280.6638722695184,1075
1282.785759822993,1062
1284.9070863394636,1064
1287.0278520594447,1049
1289.1480572235314,1086
1291.2677020723963,1057
1293.3867868467923,1078
1295.5053117875495,1054
1297.623277135579,1110
1299.740683131868,1049
1301.8575300174857,1071
1303.973818033578,1065
1306.0895474213703,1070
1308.2047184221678,1052
1310.3193312773528,1106
1312.4333862283888,1073
1314.5468835168163,1061
1316.659823384255,1075
1318.7722060724045,1044
1320.8840318230418,1067
1322.9953008780249,1066
1325.1060134792888,1048
1327.2161698688478,1098
1329.3257702887959,1085
1331.4348149813054,1130
1333.5433041886276,1035
1335.6512381530933,1062
1337.7586171171101,1044
1339.8654413231675,1110
1341.9717110138317,1076
1344.0774264317488,1075
1346.1825878196432,1087
1348.2871954203192,1055
1350.3912494766587,1053
1352.4947502316231,1031
1354.5976979282532,1088
1356.7000928096686,1084
1358.8019351190665,1042
1360.9032250997243,1100
1363.0039629949988,1100
1365.1041490483235,1098
1367.2037835032133,1093
1369.3028666032606,1077
1371.401398592137,1077
1373.4993797135926,1053
1375.5968102114575,1098
1377.6936903296396,1088
1379.7900203121262,1127
1381.8858004029835,1072
1383.9810308463561,1113
1386.075711886469,1115
1388.1698437676241,1067
1390.2634267342032,1083
1392.356461030667,1105
1394.4489469015557,1107
1396.5408845914872,1051
1398.6322743451592,1105
1400.7231164073469,1069
1402.813411022907,1090
1404.903158436773,1087
1406.9923588939578,1060
1409.0810126395531,1074
1411.1691199187303,1085
1413.2566809767386,1087
1415.343696058907,1079
1417.4301654106425,1091
1419.5160892774315,1086
1421.6014679048399,1087
1423.6863015385125,1074
1425.7705904241707,1137
1427.8543348076178,1076
1429.9375349347342,1142
1432.0201910514802,1074
1434.102303403894,1030
1436.1838722380944,1079
1438.2648978002767,1046
1440.3453803367174,1059
1442.4253200937692,1047
1444.5047173178677,1081
1446.5835722555234,1079
1448.6618851533285,1136
1450.739656257952,1075
1452.8168858161434,1070
1454.8935740747306,1096
1456.96972128062,1090
1459.045327680797,1085
1461.120393522327,1052
1463.1949190523528,1106
1465.2689045180973,1100
1467.3423501668608,1100
1469.415256246024,1062
1471.4876230030463,1110
1473.559450685465,1124
1475.6307395408976,1080
1477.7014898170391,1092
1479.771701761665,1067
1481.8413756226287,1119
1483.9105116478618,1052
1485.9791100853772,1080
1488.0471711832643,1136
1490.1146951896926,1153
1492.1816823529098,1074
1494.2481329212433,1098
1496.3140471430984,1056
1498.3794252669609,1055
1500.4442675413939,1022
1502.5085742150404,1078
1504.572345536622,1084
1506.6355817549388,1058
1508.6982831188702,1087
1510.7604498773744,1064
1512.8220822794883,1086
1514.8831805743293,1070
1516.9437450110909,1135
1519.003775839048,1108
1521.0632733075522,1099
1523.1222376660367,1126
1525.1806691640113,1086
1527.2385680510652,1078
1529.2959345768668,1045
1531.3527689911643,1060
1533.4090715437833,1083
1535.4648424846291,1105
1537.5200820636855,1046
1539.5747905310159,1091
1541.6289681367616,1035
1543.6826151311434,1056
1545.7357317644614,1085
1547.7883182870937,1095
1549.8403749494987,1091
1551.8919020022113,1081
1553.9428996958477,1124
1555.9933682811015,1073
1558.0433080087469,1110
1560.0927191296346,1087
1562.1416018946961,1066
1564.1899565549415,1104
1566.2377833614592,1042
1568.2850825654164,1050
1570.3318544180606,1095
1572.3780991707158,1079
1574.423817074788,1087
1576.4690083817595,1053
1578.5136733431923,1065
1580.5578122107272,1117
1582.601425236085,1114
1584.6445126710646,1050
1586.6870747675434,1100
1588.7291117774776,1066
1590.7706239529034,1059
1592.8116115459347,1048
1594.8520748087658,1138
1596.8920139936686,1096
1598.9314293529933,1077
1600.9703211391711,1099
1603.008689604711,1132
1605.0465350022005,1114
1607.0838575843068,1075
1609.1206576037753,1137
1611.1569353134305,1144
1613.1926909661765,1087
1615.2279248149953,1097
1617.2626371129481,1044
1619.2968281131757,1088
1621.3304980688963,1070
1623.3636472334088,1121
1625.39627586009,1122
1627.428384202396,1119
1629.459972513861,1157
1631.4910410480993,1146
1633.5215900588028,1085
1635.551619799744,1121
1637.5811305247717,1092
1639.6101224878166,1074
1641.6385959428862,1098
1643.6665511440683,1108
1645.693988345528,1091
1647.7209078015112,1153
1649.7473097663405,1129
1651.7731944944203,1060
1653.7985622402307,1145
1655.823413258333,1071
1657.847747803366,1082
1659.8715661300494,1074
1661.8948684931793,1095
1663.9176551476316,1087
1665.9399263483624,1129
1667.9616823504057,1111
1669.982923408873,1067
1672.0036497789574,1065
1674.0238617159293,1082
1676.043559475138,1108
1678.0627433120121,1097
1680.081413482059,1135
1682.0995702408654,1071
1684.117213844096,1080
1686.134344547495,1100
1688.1509626068864,1098
1690.1670682781705,1042
1692.182661817329,1052
1694.1977434804217,1065
1696.2123135235875,1070
1698.226372203043,1100
1700.2399197750851,1062
1702.2529564960905,1092
1704.2654826225112,1125
1706.277498410882,1093
1708.2890041178139,1099
1710.2999999999988,1134
1712.3104863142066,1148
1714.3204633172854,1135
1716.329931266163,1114
1718.3388904178469,1081
1720.3473410294214,1076
1722.3552833580516,1130
1724.3627176609807,1114
1726.3696441955308,1100
1728.3760632191033,1095
1730.3819749891782,1116
1732.3873797633146,1139
1734.3922777991502,1085
1736.3966693544012,1116
1738.4005546868639,1052
1740.4039340544127,1065
1742.406807715001,1129
1744.4091759266616,1082
1746.4110389475054,1099
1748.4123970357223,1104
1750.413250449582,1099
1752.4135994474318,1096
1754.4134442876993,1089
1756.4127852288902,1045
1758.4116225295893,1067
1760.4099564484595,1123
1762.407787244244,1141
1764.405115175764,1083
1766.4019405019203,1112
1768.3982634816916,1101
1770.3940843741357,1111
1772.3894034383907,1132
1774.3842209336717,1087
1776.378537119274,1090
1778.372352254571,1104
1780.3656665990156,1111
1782.3584804121397,1076
1784.3507939535534,1087
1786.3426074829463,1117
1788.3339212600863,1132
1790.3247355448211,1110
1792.3150505970766,1090
1794.3048666768573,1135
1796.2941840442477,1090
1798.2830029594106,1047
1800.2713236825884,1133
1802.2591464741004,1084
1804.2464715943465,1115
1806.2332993038058,1109
1808.2196298630352,1082
1810.2054635326708,1095
1812.190800573428,1120
1814.175641246101,1120
1816.1599858115628,1108
1818.1438345307652,1093
1820.127187664738,1093
1822.1100454745924,1059
1824.092408221516,1060
1826.0742761667766,1099
1828.055649571721,1114
1830.0365286977735,1086
1832.0169138064398,1158
1833.9968051593014,1076
1835.9762030180214,1141
1837.9551076443408,1089
1839.9335193000788,1107
1841.9114382471344,1128
1843.888864747485,1085
1845.8657990631878,1112
1847.842241456378,1105
1849.8181921892697,1126
1851.7936515241558,1064
1853.7686197234098,1098
1855.7430970494815,1108
1857.7170837649014,1081
1859.6905801322787,1117
1861.6635864143004,1096
1863.6361028737338,1071
1865.608129773424,1124
1867.5796673762961,1098
1869.5507159453537,1138
1871.521275743678,1123
1873.4913470344313,1054
1875.4609300808534,1106
1877.4300251462632,1114
1879.3986324940588,1064
1881.366752387717,1135
1883.3343850907936,1125
1885.3015308669228,1142
1887.268189979819,1117
1889.2343626932739,1139
1891.2000492711595,1114
1893.1652499774254,1132
1895.1299650761011,1088
1897.0941948312952,1151
1899.0579395071945,1094
1901.0211993680641,1143
1902.98397467825,1065
1904.9462657021745,1146
1906.9080727043415,1114
1908.869395949332,1133
1910.8302357018065,1102
1912.790592226504,1085
1914.7504657882428,1141
1916.7098566519212,1132
1918.6687650825133,1107
1920.6271913450764,1117
1922.5851357047422,1104
1924.5425984267245,1138
1926.499579776314,1131
1928.4560800188833,1092
1930.4120994198802,1079
1932.367638244833,1091
1934.32269675935,1096
1936.2772752291175,1070
1938.231373919899,1102
1940.1849930975404,1152
1942.1381330279637,1044
1944.0907939771696,1129
1946.0429762112412,1154
1947.9946799963363,1127
1949.9459055986945,1114
1951.896653284633,1138
1953.8469233205478,1121
1955.7967159729142,1091
1957.7460315082863,1148
1959.6948701932974,1089
1961.6432322946594,1120
1963.5911180791632,1106
1965.5385278136787,1089
1967.4854617651545,1087
1969.4319202006182,1109
1971.377903387176,1151
1973.3234115920136,1110
1975.268445082395,1094
1977.2130041256642,1053
1979.1570889892423,1092
1981.1006999406304,1124
1983.04383724741,1130
1984.986501177238,1111
1986.928691997853,1136
1988.8704099770712,1159
1990.811655382789,1105
1992.7524284829801,1120
1994.692729545698,1087
1996.6325588390755,1163
1998.5719166313224,1069
2000.5108031907307,1099
2002.4492187856677,1080
2004.387163684583,1135
2006.3246381560011,1079
2008.2616424685298,1107
2010.1981768908527,1072
2012.1342416917332,1053
2014.069837140014,1071
2016.0049635046162,1150
2017.9396210545406,1113
2019.8738100588666,1078
2021.8075307867502,1093
2023.740783507431,1063
2025.6735684902228,1139
2027.6058860045214,1080
2029.5377363198004,1112
2031.4691197056118,1091
2033.4000364315875,1093
2035.3304867674374,1136
2037.260470982952,1142
2039.189989347998,1082
2041.1190421325232,1086
2043.047629606554,1142
2044.9757520401945,1092
2046.9034097036288,1072
2048.8306028671195,1108
2050.7573318010086,1101
2052.683596775716,1113
2054.609398061742,1115
2056.5347359296647,1112
2058.4596106501403,1112
2060.384022493906,1131
2062.3079717317764,1082
2064.231458634646,1145
2066.1544834734873,1063
2068.077046519352,1071
2069.99914804337,1138
2071.9207883167524,1144
2073.8419676107865,1111
2075.7626861968406,1146
2077.6829443463607,1082
2079.6027423308715,1096
2081.522080421977,1133
2083.440958891362,1104
2085.359378010786,1099
2087.2773380520907,1104
2089.194839287196,1132
2091.111881988101,1134
2093.0284664268825,1107
2094.9445928756973,1136
2096.86026160678,1121
2098.775472892446,1109
2100.690227005088,1129
2102.604524217178,1142
2104.5183648012676,1165
2106.431749029985,1114
2108.34467717604,1123
2110.2571495122206,1104
2112.169166311393,1138
2114.080727846503,1147
2115.9918343905747,1122
2117.902486216711,1131
2119.8126835980956,1105
2121.722426807987,1128
2123.6317161197285,1096
2125.5405518067364,1074
2127.448934142509,1117
2129.356863400624,1123
2131.264339854737,1162
2133.1713637785815,1111
2135.077935445972,1154
2136.9840551308002,1150
2138.889723107037,1126
2140.7949396487334,1094
2142.699705030018,1135
2144.6040195250994,1114
2146.507883408264,1142
2148.4112969538774,1104
2150.3142604363848,1108
2152.2167741303097,1111
2154.1188383102535,1113
2156.0204532508997,1120
2157.9216192270064,1121
2159.822336513414,1102
2161.7226053850413,1119
2163.622426116884,1107
2165.5217989840185,1161
2167.4207242616,1098
2169.319202224862,1089
2171.2172331491165,1116
2173.1148173097563,1090
2175.0119549822507,1115
2176.90864644215,1073
2178.8048919650823,1096
2180.7006918267534,1119
2182.596046302952,1127
2184.4909556695407,1063
2186.3854202024645,1083
2188.279440177746,1111
2190.173015871487,1105
2192.066147559868,1085
2193.958835519149,1058
2195.851080025667,1067
2197.7428813558417,1058
2199.6342397861667,1129
2201.5251555932186,1148
2203.415629053651,1113
2205.3056604441986,1126
2207.19525004167,1133
2209.084398122958,1111
2210.9731049650327,1140
2212.861370844941,1126
2214.749196039812,1135
2216.636580826851,1046
2218.523525483344,1187
2220.410030286655,1092
2222.296095514226,1166
2224.1817214435805,1183
2226.066908352319,1094
2227.951656518121,1095
2229.835966218746,1096
2231.71983773203,1108
2233.6032713358913,1107
2235.486267308324,1088
2237.3688259274036,1087
2239.2509474712824,1171
2241.132632218193,1137
2243.013880446447,1089
2244.8946924344323,1132
2246.7750684606203,1098
2248.6550088035574,1103
2250.534513741871,1115
2252.413583554265,1130
2254.292218519526,1111
2256.170418916517,1121
2258.0481850241786,1123
2259.925517121534,1115
2261.8024154876825,1091
2263.678880401803,1047
2265.5549121431536,1164
2267.430510991071,1110
2269.305677224971,1107
2271.180411124348,1079
2273.0547129687766,1114
2274.9285830379076,1078
2276.8020216114737,1093
2278.6750289692845,1117
2280.5476053912294,1075
2282.4197511572766,1108
2284.2914665474727,1060
2286.162751841943,1131
2288.0336073208937,1122
2289.904033264608,1136
2291.774029953448,1149
2293.6435976678554,1059
2295.5127366883517,1100
2297.381447295534,1124
2299.2497297700825,1076
2301.1175843927526,1147
2302.9850114443825,1100
2304.852011205885,1106
2306.7185839582553,1099
2308.5847299825664,1133
2310.4504495599676,1118
2312.3157429716925,1128
2314.1806104990483,1099
2316.0450524234247,1097
2317.9090690262888,1038
2319.772660589186,1117
2321.635827393742,1110
2323.498569721661,1128
2325.3608878547248,1127
2327.2227820747967,1080
2329.0842526638157,1101
2330.945299903803,1172
2332.805924076857,1092
2334.6661254651535,1075
2336.525904350951,1139
2338.3852610165827,1100
2340.244195744464,1123
2342.102708817088,1111
2343.9608005170253,1124
2345.8184711269287,1124
2347.675720929526,1120
2349.532550207628,1100
2351.38895924412,1069
2353.24494832197,1145
2355.100517724223,1080
2356.955667734004,1179
2358.810398634514,1126
2360.664710709037,1155
2362.5186042409337,1083
2364.3720795136437,1099
2366.225136810686,1120
2368.0777764156583,1144
2369.929998612237,1094
2371.7818036841777,1122
2373.633191915315,1123
2375.484163589562,1115
2377.3347189909114,1115
2379.184858403434,1087
2381.03458211128,1092
2382.8838903986775,1088
2384.732783549936,1145
2386.5812618494406,1097
2388.4293255816588,1083
2390.2769750311327,1119
2392.1242104824883,1115
2393.971032220427,1185
2395.8174405297295,1109
2397.6634356952563,1159
2399.509018001947,1129
2401.3541877348193,1152
2403.1989451789705,1142
2405.043290619576,1142
2406.8872243418905,1136
2408.730746631247,1132
2410.5738577730594,1135
2412.4165580528183,1099
2414.258847756095,1105
2416.100727168537,1192
2417.9421965758734,1105
2419.783256263912,1136
2421.623906518538,1123
2423.4641476257157,1100
2425.303979871491,1118
2427.143403541984,1132
2428.9824189233977,1101
2430.821026302012,1099
2432.6592259641866,1118
2434.497018196361,1150
2436.33440328505,1092
2438.171381516851,1161
2440.00795317844,1076
2441.844118556569,1098
2443.6798779380724,1125
2445.5152316098606,1111
2447.3501798589255,1138
2449.1847229723357,1146
2451.0188612372403,1126
2452.8525949408663,1130
2454.6859243705203,1120
2456.518849813587,1119
2458.3513715575314,1159
2460.183489889895,1110
2462.015205098301,1051
2463.8465174704493,1094
2465.67742729412,1156
2467.5079348571717,1168
2469.338040447542,1155
2471.1677443532476,1154
2472.9970468623833,1163
2474.825948263123,1120
2476.6544488437207,1141
2478.482548892508,1077
2480.310248697896,1115
2482.137548548374,1095
2483.9644487325118,1127
2485.790949538956,1111
2487.617051256433,1090
2489.44275417375,1082
2491.26805857979,1091
2493.0929647635157,1087
2494.917473013971,1067
2496.741583620276,1083
2498.5652968716304,1114
2500.3886130573137,1084
2502.2115324666834,1103
2504.0340553891765,1122
2505.856182114308,1117
2507.6779129316733,1167
2509.499248130945,1148
2511.3201880018764,1096
2513.140732834298,1100
2514.9608829181198,1101
2516.780638543331,1076
2518.6,1139
2520.418967578273,1121
2522.237541568376,1114
2524.0557222606144,1140
2525.8735099453706,1085
2527.6909049131086,1090
2529.507907454368,1079
2531.32451785977,1138
2533.140736420014,1129
2534.9565634258774,1106
2536.771999168218,1148
2538.5870439379714,1073
2540.4016980261526,1105
2542.2159617238544,1064
2544.02983532225,1064
2545.8433191125914,1107
2547.656413386209,1108
2549.4691184345115,1138
2551.2814345489874,1147
2553.093362021204,1104
2554.904901142808,1092
2556.716052205523,1081
2558.526815501153,1095
2560.3371913215824,1128
2562.147179958771,1088
2563.956781704761,1087
2565.7659968516705,1070
2567.5748256916986,1091
2569.3832685171224,1118
2571.1913256202984,1097
2572.9989972936614,1095
2574.806283829725,1128
2576.613185521084,1079
2578.4197026604074,1065
2580.2258355404483,1128
2582.031584454035,1142
2583.836949694077,1084
2585.6419315535613,1143
2587.4465303255533,1051
2589.2507463032002,1084
2591.0545797797245,1078
2592.8580310484303,1107
2594.6611004026995,1134
2596.463788135992,1149
2598.266094541849,1137
2600.0680199138874,1067
2601.869564545807,1061
2603.670728731383,1092
2605.4715127644704,1119
2607.2719169390048,1107
2609.071941548998,1103
2610.8715868885433,1058
2612.670853251811,1139
2614.469740933052,1106
2616.268250226594,1093
2618.0663814268455,1057
2619.864134828292,1057
2621.6615107255006,1071
2623.458509413115,1093
2625.2551311858597,1060
2627.0513763385347,1087
2628.8472451660223,1027
2630.6427379632833,1070
2632.4378550253564,1139
2634.232596647359,1091
2636.026963124488,1101
2637.8209547520187,1040
2639.6145718253065,1085
2641.407814639785,1095
2643.200683490966,1030
2644.9931786744414,1106
2646.7853004858807,1074
2648.577049221034,1114
2650.3684251757277,1043
2652.1594286458712,1132
2653.9500599274484,1075
2655.740319316525,1096
2657.5302071092437,1076
2659.3197236018286,1070
2661.10886909058,1106
2662.8976438718782,1104
2664.686048242183,1099
2666.4740824980327,1097
2668.2617469360443,1060
2670.0490418529134,1106
2671.8359675454153,1116
2673.622524310403,1083
2675.408712444811,1066
2677.1945322456495,1122
2678.979984010009,1089
2680.76506803506,1089
2682.5497846180497,1101
2684.334134056306,1089
2686.1181166472343,1097
2687.9017326883213,1079
2689.6849824771293,1076
2691.4678663113013,1101
2693.2503844885596,1090
2695.032537306705,1129
2696.8143250636167,1048
2698.5957480572542,1080
2700.3768065856534,1066
2702.1575009469316,1092
2703.937831439283,1111
2705.717798360982,1071
2707.4974020103837,1091
2709.276642685917,1070
2711.055520686095,1115
2712.834036309506,1100
2714.612189854819,1090
2716.389981620782,1083
2718.1674119062204,1103
2719.944481010041,1098
2721.721189231226,1047
2723.4975368688415,1099
2725.273524222027,1092
2727.0491515900053,1070
2728.824419272075,1035
2730.5993275676146,1056
2732.3738767760838,1095
2734.148067197016,1106
2735.921899130031,1120
2737.6953728748194,1083
2739.468488731156,1112
2741.2412469988926,1050
2743.0136479779617,1080
2744.785691968372,1086
2746.5573792702116,1100
2748.3287101836504,1103
2750.099685008934,1104
2751.870304046388,1094
2753.640567596418,1099
2755.4104759595057,1057
2757.1800294362156,1095
2758.949228327187,1107
2760.7180729331412,1115
2762.486563554877,1128
2764.254700493272,1117
2766.022484049284,1083
2767.789914523947,1082
2769.5569922183786,1083
2771.3237174337705,1064
2773.090090471394,1072
2774.8561116326036,1108
2776.6217812188274,1134
2778.3870995315756,1117
2780.1520668724356,1107
2781.9166835430747,1110
2783.6809498452394,1052
2785.444866080754,1115
2787.2084325515225,1103
2788.971649559527,1123
2790.73451740683,1079
2792.4970363955713,1084
2794.2592068279705,1090
2796.0210290063264,1125
2797.7825032330147,1099
2799.543629810493,1134
2801.304409041296,1091
2803.0648412280366,1111
2804.8249266734088,1120
2806.5846656801846,1103
2808.344058551212,1086
2810.1031055894246,1142
2811.8618070978273,1116
2813.6201633795085,1111
2815.378174737636,1101
2817.1358414754536,1080
2818.893163896285,1074
2820.6501423035334,1100
2822.4067770006814,1109
2824.1630682912883,1098
2825.9190164789957,1107
2827.6746218675207,1102
2829.429884760661,1101
2831.184805462294,1115
2832.9393842763743,1131
2834.693621506936,1103
2836.4475174580916,1139
2838.201072434034,1122
2839.954286739034,1039
2841.707160677441,1102
2843.459694553685,1077
2845.2118886722724,1079
2846.96374333779,1089
2848.7152588549034,1124
2850.4664355283567,1105
2852.217273662973,1125
2853.9677735636546,1055
2855.7179355353833,1087
2857.4677598832186,1113
2859.217246912299,1096
2860.9663969278427,1083
2862.715210235146,1084
2864.4636871395846,1130
2866.211827946614,1112
2867.9596329617652,1078
2869.7071024906536,1100
2871.4542368389684,1115
2873.20103631248,1065
2874.947501217038,1125
2876.6936318585695,1068
2878.4394285430812,1107
2880.1848915766604,1041
2881.9300212654707,1080
2883.6748179157553,1111
2885.4192818338374,1131
2887.1634133261173,1087
2888.907212699077,1103
2890.6506802592744,1172
2892.393816313348,1119
2894.1366211680142,1092
2895.8790951300693,1120
2897.621238506388,1106
2899.363051603925,1097
2901.1045347297118,1106
2902.8456881908596,1097
2904.58651229456,1068
2906.327007348081,1079
2908.067173658772,1116
2909.8070115340597,1073
2911.5465212814497,1094
2913.285703208527,1156
2915.0245576229563,1088
2916.7630848324807,1100
2918.5012851449196,1126
2920.2391588681758,1112
2921.976706310227,1074
2923.7139277791334,1067
2925.4508235830313,1108
2927.187394030137,1088
2928.923639428745,1099
2930.6595600872306,1154
2932.395156314046,1085
2934.1304284177218,1109
2935.8653767068713,1118
2937.6000014901815,1060
2939.3343030764227,1101
2941.068281774442,1122
2942.8019378931644,1111
2944.5352717415976,1124
2946.2682836288236,1118
2948.0009738640065,1061
2949.7333427563885,1112
2951.465390615289,1086
2953.1971177501086,1133
2954.9285244703265,1115
2956.6596110855,1099
2958.3903779052657,1127
2960.1208252393385,1092
2961.8509533975125,1113
2963.5807626896617,1109
2965.3102534257378,1031
2967.0394259157715,1084
2968.768280469873,1079
2970.496817398232,1077
2972.2250370111146,1097
2973.952939618869,1059
2975.6805255319196,1096
2977.4077950607707,1114
2979.134748516006,1110
2980.861386208289,1103
2982.587708448359,1079
2984.313715547037,1082
2986.039407815222,1090
2987.764785563891,1174
2989.489849104102,1090
2991.2145987469908,1138
2992.9390348037705,1131
2994.6631575857346,1049
2996.3869674042576,1037
2998.1104645707887,1101
2999.83364939686,1120
3001.5565221940783,1133
3003.2790832741334,1090
3005.0013329487924,1078
3006.7232715298996,1106
3008.4448993293804,1048
3010.166216659239,1129
3011.887223831558,1102
3013.607921158498,1084
3015.3283089522993,1075
3017.0483875252826,1062
3018.7681571898443,1078
3020.4876182584626,1129
3022.2067710436927,1071
3023.9256158581707,1083
3025.644153014609,1125
3027.362382825801,1135
3029.0803056046193,1043
3030.797921664012,1080
3032.5152313170106,1055
3034.2322348767225,1055
3035.9489326563353,1100
3037.665324969115,1076
3039.3814121284063,1067
3041.097194447633,1064
3042.812672240299,1107
3044.5278458199855,1127
3046.2427155003525,1131
3047.9572815951406,1073
3049.671544418167,1082
3051.38550428333,1071
3053.0991615046073,1121
3054.812516396051,1105
3056.5255692717974,1105
3058.2383204460575,1070
3059.9507702331257,1113
3061.662918947372,1087
3063.3747669032446,1130
3065.0863144152736,1058
3066.7975617980674,1128
3068.508509366309,1084
3070.219157434767,1113
3071.9295063182844,1119
3073.639556331785,1139
3075.3493077902704,1068
3077.058761008821,1047
3078.7679163025964,1107
3080.476773986837,1054
3082.1853343768594,1066
3083.89359778806,1046
3085.6015645359153,1088
3087.3092349359786,1148
3089.016609303884,1047
3090.7236879553434,1116
3092.4304712061476,1088
3094.136959372166,1054
3095.843152769349,1053
3097.5490517137237,1108
3099.2546565213966,1107
3100.959967508554,1121
3102.66498499146,1139
3104.3697092864577,1091
3106.0741407099695,1049
3107.778279578498,1104
3109.482126208622,1064
3111.1856809170004,1082
3112.8889440203716,1051
3114.5919158355528,1105
3116.294596679439,1099
3117.996986869006,1099
3119.6990867213062,1055
3121.4008965534726,1061
3123.102416682717,1094
3124.803647426329,1108
3126.5045891016784,1110
3128.205242026213,1128
3129.90560651746,1075
3131.605682893025,1077
3133.3054714705922,1110
3135.0049725679282,1059
3136.7041865028714,1078
3138.4031135933465,1039
3140.101754157353,1045
3141.800108512971,1120
3143.498176978357,1130
3145.1959598717494,1118
3146.8934575114636,1076
3148.5906702158954,1151
3150.2875983035183,1094
3151.9842420928853,1056
3153.680601902627,1064
3155.376678051456,1051
3157.07247085816,1092
3158.767980641609,1086
3160.463207720748,1126
3162.158152414606,1058
3163.8528150422862,1125
3165.5471959229726,1016
3167.2412953759303,1025
3168.9351137204976,1040
3170.628651276098,1076
3172.3219083622307,1127
3174.014885298474,1064
3175.707582404485,1104
3177.4000000000005,1100
3179.092138404835,1074
3180.7839979388846,1116
3182.47557892212,1118
3184.166881674594,1123
3185.8579065164386,1081
3187.5486537678626,1083
3189.2391237491547,1101
3190.9293167806827,1095
3192.6192331828934,1068
3194.3088732763117,1083
3195.998237381542,1128
3197.687325819268,1068
3199.376138910251,1054
3201.064676975334,1115
3202.7529403354347,1125
3204.4409293115523,1123
3206.1286442247647,1129
3207.816085396229,1068
3209.5032531471825,1074
3211.190147798936,1082
3212.8767696728846,1102
3214.5631190905015,1033
3216.2491963733373,1055
3217.9350018430214,1043
3219.6205358212637,1061
3221.305798629851,1070
3222.990790590651,1043
3224.6755120256103,1056
3226.359963256751,1049
3228.0441446061795,1095
3229.7280563960758,1068
3231.411698948703,1136
3233.0950725863995,1080
3234.778177631587,1022
3236.461014406761,1109
3238.1435832345005,1085
3239.8258844374595,1059
3241.507918338374,1075
3243.1896852600576,1101
3244.8711855254023,1099
3246.552419457381,1052
3248.233387379042,1067
3249.914089613516,1049
3251.59452648401,1095
3253.274698313813,1121
3254.95460542629,1061
3256.6342481448855,1036
3258.313626793125,1072
3259.9927416946084,1085
3261.6715931730196,1067
3263.3501815521176,1048
3265.0285071557437,1091
3266.706570307815,1067
3268.3843713323286,1054
3270.0619105533615,1037
3271.739188295068,1123
3273.4162048816834,1070
3275.0929606375184,1083
3276.769455886966,1042
3278.445690954498,1044
3280.1216661646613,1100
3281.797381842087,1135
3283.4728383114807,1070
3285.1480358976296,1071
3286.8229749253996,1056
3288.4976557197333,1127
3290.172078605655,1072
3291.846243908266,1084
3293.5201519527463,1083
3295.193803064357,1064
3296.8671975684374,1064
3298.5403357904024,1077
3300.21321805575,1111
3301.8858446900567,1039
3303.558216018975,1063
3305.23033236824,1041
3306.9021940636603,1061
3308.57380143113,1053
3310.2451547966184,1152
3311.916254486174,1091
3313.5871008259246,1092
3315.2576941420766,1077
3316.9280347609147,1085
3318.5981230088046,1104
3320.2679592121895,1063
3321.9375436975924,1105
3323.606876791612,1039
3325.27595882093,1058
3326.944790112305,1049
3328.6133709925753,1040
3330.2817017886573,1089
3331.949782827547,1116
3333.617614436319,1062
3335.2851969421245,1081
3336.952530672199,1074
3338.619615953853,1039
3340.286453114475,1027
3341.9530424815357,1128
3343.619384382583,1086
3345.2854791452437,1094
3346.951327097224,1032
3348.6169285663073,1083
3350.2822838803577,1081
3351.947393367319,1084
3353.61225735521,1110
3355.2768761721345,1138
3356.9412501462693,1098
3358.605379605873,1097
3360.2692648792827,1083
3361.9329062949146,1047
3363.596304181263,1065
