CollectionTime,6/26/2024 2:22:37 PM
ExposureUsed,3
CalibratedSpectrum
-962.7078968117929,491
-959.9714848408522,498
-957.2358232597828,479
-954.5009119013725,504
-951.7667505983302,509
-949.0333391832855,490
-946.3006774887896,502
-943.5687653473143,539
-940.837602591253,520
-938.1071890529199,498
-935.3775245645503,510
-932.6486089583007,509
-929.9204420662485,547
-927.1930237203925,512
-924.4663537526524,541
-921.7404319948689,537
-919.0152582788041,525
-916.2908324361409,543
-913.5671542984834,553
-910.8442236973568,547
-908.1220404642074,543
-905.4006044304027,533
-902.679915427231,530
-899.959973285902,524
-897.2407778375464,560
-894.5223289132158,536
-891.8046263438832,492
-889.0876699604426,495
-886.3714595937089,494
-883.6559950744183,491
-880.9412762332282,505
-878.2273029007168,471
-875.5140749073835,503
-872.8015920836489,488
-870.0898542598545,494
-867.3788612662631,483
-864.6686129330585,476
-861.9591090903457,455
-859.2503495681506,467
-856.5423341964203,483
-853.8350628050229,514
-851.1285352237478,501
-848.4227512823054,487
-845.7177108103272,523
-843.0134136373656,496
-840.3098595928943,474
-837.6070485063082,473
-834.9049802069229,480
-832.2036545239757,468
-829.5030712866244,496
-826.8032303239481,483
-824.1041314649472,434
-821.4057745385428,475
-818.7081593735775,481
-816.0112857988148,508
-813.3151536429393,504
-810.6197627345566,488
-807.9251129021936,483
-805.2312039742981,510
-802.5380357792392,499
-799.8456081453069,495
-797.1539209007124,502
-794.462973873588,519
-791.772766891987,482
-789.083299783884,484
-786.3945723771743,493
-783.7065844996748,531
-781.0193359791231,488
-778.3328266431781,526
-775.6470563194197,505
-772.9620248353489,512
-770.2777320183878,509
-767.5941776958798,526
-764.9113616950891,538
-762.2292838432011,512
-759.5479439673222,517
-756.8673418944801,516
-754.1874774516235,524
-751.5083504656222,501
-748.8299607632671,498
-746.15230817127,492
-743.475392516264,528
-740.7992136248035,524
-738.1237713233636,520
-735.4490654383407,508
-732.7750957960521,528
-730.1018622227365,531
-727.4293645445534,502
-724.7576025875837,515
-722.0865761778291,515
-719.4162851412126,538
-716.7467293035781,534
-714.0779084906909,543
-711.409822528237,560
-708.7424712418238,524
-706.0758544569796,540
-703.4099719991541,526
-700.7448236937178,551
-698.0804093659622,553
-695.4167288411002,539
-692.7537819442656,551
-690.0915685005134,528
-687.4300883348199,551
-684.7693412720819,533
-682.1093271371178,524
-679.4500457546669,549
-676.7914969493897,533
-674.1336805458676,561
-671.4765963686034,593
-668.8202442420206,571
-666.1646239904642,550
-663.5097354382001,556
-660.8555784094151,528
-658.2021527282176,563
-655.5494582186366,610
-652.8974947046223,550
-650.2462620100463,573
-647.5957599587009,584
-644.9459883742998,586
-642.2969470804776,625
-639.6486359007902,581
-637.0010546587141,586
-634.3542031776476,603
-631.7080812809096,595
-629.0626887917401,560
-626.4180255333008,554
-623.7740913286734,597
-621.1308860008619,576
-618.4884093727904,548
-615.8466612673046,561
-613.2056415071715,551
-610.5653499150785,589
-607.9257863136347,596
-605.28695052537,577
-602.6488423727357,562
-600.0114616781036,592
-597.3748082637674,624
-594.7388819519412,641
-592.1036825647604,614
-589.4692099242818,597
-586.8354638524829,557
-584.2024441712624,605
-581.5701507024403,593
-578.9385832677575,584
-576.3077416888759,596
-573.6776257873787,562
-571.0482353847704,601
-568.4195703024757,553
-565.7916303618415,616
-563.164415384135,627
-560.5379251905453,601
-557.9121596021815,611
-555.2871184400748,597
-552.6628015251767,640
-550.0392086783606,631
-547.4163397204204,623
-544.794194472071,635
-542.1727727539491,613
-539.5520743866118,640
-536.9320991905377,665
-534.3128469861261,698
-531.6943175936979,704
-529.0765108334947,756
-526.4594265256793,774
-523.8430644903358,975
-521.2274245474689,1059
-518.612506517005,1220
-515.9983102187913,1254
-513.3848354725959,1520
-510.77208209810846,1754
-508.16004991493924,2025
-505.5487387426199,2226
-502.9381484006032,2332
-500.3282787082628,2284
-497.71912948489364,2180
-495.1107005497117,1950
-492.5029917218539,1586
-489.8960028203786,1308
-487.28973366426493,1120
-484.68418407241325,963
-482.07935386364494,869
-479.47524285670266,880
-476.87185087025,882
-474.2691777228715,826
-471.66722323307334,813
-469.0659872192821,840
-466.4654694998459,804
-463.86566989303384,759
-461.26658821703614,758
-458.66822428996414,768
-456.07057792985,821
-453.4736489546475,809
-450.877437182231,772
-448.28194243039627,768
-445.68716451686,760
-443.09310325926003,773
-440.49975847515555,734
-437.9071299820263,758
-435.31521759727354,770
-432.72402113821954,810
-430.13354042210767,807
-427.5437752661022,801
-424.95472548728867,862
-422.36639090267386,801
-419.7787713291855,843
-417.1918665836721,842
-414.60567648290385,853
-412.0202008435715,813
-409.4354394822874,826
-406.8513922155845,856
-404.26805885991723,820
-401.685439231661,836
-399.103533147112,831
-396.522340422488,882
-393.9418608739278,898
-391.3620943174908,863
-388.7830405691583,860
-386.2046994448317,803
-383.6270707603344,795
-381.05015433141045,724
-378.473949973725,698
-375.8984575028645,663
-373.32367673433623,682
-370.74960748356875,603
-368.1762495659117,568
-365.60360279663576,529
-363.03166699093265,540
-360.4604419639154,519
-357.8899275306178,502
-355.32012350599507,489
-352.7510297049233,478
-350.1826459421999,477
-347.61497203254316,531
-345.04800779059235,524
-342.4817530309082,464
-339.91620756797226,481
-337.35137121618743,466
-334.7872437898774,475
-332.22382510328725,463
-329.66111497058273,491
-327.09911320585127,549
-324.53781962310075,506
-321.9772340362607,518
-319.4173562591816,573
-316.8581861056348,674
-314.2997233893127,629
-311.7419679238294,611
-309.1849195227194,593
-306.62857799943856,559
-304.0729431673641,529
-301.51801483979375,531
-298.963792829947,530
-296.41027695096386,567
-293.85746701590574,577
-291.3053628377552,544
-288.7539642294155,554
-286.2032710037115,561
-283.65328297338897,595
-281.1039999511146,592
-278.5554217494762,634
-276.007548180983,583
-273.4603790580651,569
-270.9139141930734,589
-268.3681533982807,611
-265.8230964858798,588
-263.27874326798565,572
-260.7350935566336,597
-258.1921471637804,638
-255.6499039013039,653
-253.10836358100266,641
-250.56752601459698,620
-248.02739101372765,702
-245.48795838995704,747
-242.94922795476816,677
-240.41119951956557,663
-237.8738728956746,858
-235.33724789434166,823
-232.80132432673452,864
-230.2661020039418,858
-227.73158073697357,737
-225.19776033676033,727
-222.66464061415422,836
-220.1322213799284,779
-217.60050244477725,725
-215.06948361931552,750
-212.53916471408013,738
-210.00954553952818,677
-207.48062590603843,723
-204.9524056239104,922
-202.4248845033651,865
-199.8980623545441,859
-197.37193898751036,821
-194.84651421224817,812
-192.32178783866232,815
-189.79775967657952,799
-187.27442953574644,854
-184.7517972258321,850
-182.2298625564256,823
-179.7086253370378,928
-177.18808537710026,995
-174.66824248596583,1042
-172.14909647290835,1046
-169.6306471471229,906
-167.11289431772548,883
-164.59583779375328,992
-162.07947738416453,938
-159.5638128978386,914
-157.04884414357605,1017
-154.53457093009854,944
-152.02099306604828,951
-149.50811035998936,920
-146.99592262040665,975
-144.48442965570587,1012
-141.97363127421409,1028
-139.46352728417958,1147
-136.95411749377126,1213
-134.44540171107985,1318
-131.93737974411636,1254
-129.43005140081357,1244
-126.92341648902493,1227
-124.41747481652521,1279
-121.91222619101006,1391
-119.40767042009657,1207
-116.90380731132257,1068
-114.40063667214702,1357
-111.8981583099503,1630
-109.3963720320337,1457
-106.89527764561933,1243
-104.39487495785067,1380
-101.89516377579241,1498
-99.39614390642998,1526
-96.89781515667039,1430
-94.40017733334128,1705
-91.90323024319173,1692
-89.40697369289148,1533
-86.91140748903172,1482
-84.41653143812482,1639
-81.92234534660395,1728
-79.42884902082358,1811
-76.93604226705907,1743
-74.4439248915071,1663
-71.95249670028534,1703
-69.46175749943245,1816
-66.97170709490854,2014
-64.48234529259423,2523
-61.99367189829195,2647
-59.50568671772464,2516
-57.01838955653636,2504
-54.53178022029283,2541
-52.045858514480074,3047
-49.560624244506016,3433
-47.07607721569923,2985
-44.59221723330904,2868
-42.10904410250669,2856
-39.62655762838392,3854
-37.14475761595372,4434
-34.66364387015028,4971
-32.18321619582866,5550
-29.70347439776515,6377
-27.224418280657005,7013
-24.74604764912317,8668
-22.26836230770266,14082
-19.7913620608565,21347
-17.315046712966478,31708
-14.83941606833514,37542
-12.36446993118659,65039
-9.89020810566592,65039
-7.416630395839093,65039
-4.94373660569363,65039
-2.471526539137585,65039
-6.821210263296962E-13,65039
2.47084320796705,65039
4.941003281093458,65039
7.410480415786196,65039
9.879274808531363,65039
12.347386655893956,65039
14.814816154518212,65039
17.28156350112681,65039
19.74762889252179,65039
22.21301252558385,65039
24.67771459727237,65039
27.141735304626195,46848
29.605074844762612,17083
32.06773341487792,12364
34.52971121224755,9003
36.99100843422559,7955
39.45162527824516,6972
41.91156194181792,6684
44.370818622535126,6182
46.82939551806646,5638
49.287292826160524,6606
51.74451074464503,7473
54.201049471426245,6376
56.65690920448981,4917
59.112090141899785,3384
61.56659248179983,3007
64.02041642241159,3060
66.4735621620365,3002
68.92602989905402,2508
71.37781983192338,2184
73.82893215918205,2413
76.27936707944684,2522
78.72912479141326,2560
81.17820549385567,2626
83.62660938562783,2476
86.07433666566146,2505
88.5213875329681,2732
90.96776218663751,2607
93.41346082583925,2711
95.85848364982041,2065
98.30283085790859,1547
100.7465026495089,1514
103.18949922410604,1990
105.63182078126385,1765
108.07346752062438,2040
110.51443964190923,1891
112.95473734491827,1585
115.39436082953114,1505
117.83331029570547,1452
120.27158594347827,1663
122.7091879729652,1410
125.1461165843615,1136
127.58237197794062,1168
130.01795435405518,1082
132.4528639131364,1059
134.88710085569494,1293
137.32066538231982,1433
139.75355769367923,1266
142.1857779905207,1167
144.61732647366978,1106
147.04820334403132,1314
149.47840880258934,1167
151.90794305040674,1289
154.33680628862487,1299
156.76499871846443,1299
159.19252054122433,1335
161.61937195828352,1344
164.04555317109896,1283
166.47106438120693,1485
168.89590579022217,1737
171.320077599839,1759
173.7435800118302,1635
176.16641322804742,1751
178.58857745042144,1858
181.01007288096173,1920
183.43089972175687,1844
185.85105817497413,1792
188.27054844285988,1865
190.6893707277394,1877
193.10752523201643,1868
195.5250121581745,2022
197.9418317087751,2078
200.3579840864594,1990
202.7734694939469,1902
205.18828813403627,1986
207.6024402096051,1978
210.01592592360964,1933
212.42874547908548,2058
214.84089907914665,1941
217.2523869269868,1909
219.66320922587727,2039
222.0733661791695,2034
224.48285799029293,1998
226.8916848627572,2030
229.29984700014882,2203
231.7073446061355,2103
234.11417788446204,2159
236.520347038953,2127
238.92585227351185,2296
241.33069379212054,2318
243.73487179884035,2181
246.1383864978112,2108
248.541238093252,2119
250.9434267894609,2185
253.34495279081432,2150
255.74581630176783,2086
258.1460175268563,2163
260.54555667069314,2100
262.9444339379703,2148
265.3426495334594,2030
267.7402036620107,2114
270.1370965285529,2172
272.53332833809407,2100
274.9288992957214,2182
277.32380960660055,2091
279.718059475976,2163
282.1116491091717,2129
284.5045787115897,2116
286.89684848871195,2163
289.2884586460981,2203
291.67940938938807,2136
294.0697009242996,2193
296.4593334566299,2157
298.84830719225477,2130
301.23662233712923,2245
303.6242790972866,2144
306.01127767884,2199
308.39761828798066,2139
310.78330113097934,2083
313.16832641418534,2031
315.5526943440269,2027
317.9364051270112,2069
320.3194589697242,1930
322.70185607883093,1943
325.0835966610754,1930
327.4646809232805,1974
329.8451090723478,2010
332.2248813152577,2011
334.6039978590701,1924
336.9824589109231,1892
339.36026467803447,1899
341.7374153677,1879
344.113911187295,1806
346.48975234427337,1849
348.8649390461686,1826
351.2394715005918,1852
353.61334991523415,1764
355.9865744978655,1849
358.35914545633375,1765
360.73106299856715,1791
363.10232733257146,1825
365.47293866643247,1759
367.84289720831396,1789
370.2122031664593,1771
372.5808567491905,1808
374.9488581649083,1743
377.31620762209275,1720
379.6829053293021,1701
382.0489514951745,1744
384.4143463284262,1772
386.7790900378528,1767
389.14318283232853,1775
391.50662492080653,1683
393.86941651231916,1630
396.23155781597745,1651
398.5930490409713,1681
400.9538903965696,1701
403.3140820921202,1637
405.6736243370498,1600
408.03251734086336,1665
410.3907613131465,1636
412.74835646356166,1719
415.10530300185144,1664
417.4616011378372,1655
419.81725108141893,1653
422.1722530425758,1643
424.5266072313656,1632
426.880313857925,1575
429.2333731324701,1670
431.58578526529516,1660
433.9375504667738,1606
436.2886689473588,1643
438.63914091758113,1646
440.9889665880513,1635
443.33814616945835,1593
445.68667987257015,1602
448.03456790823395,1555
450.3818104873759,1541
452.72840782100013,1630
455.07436012019105,1563
457.41966759611057,1637
459.7643304600007,1546
462.10834892318155,1587
464.4517231970525,1602
466.79445349309174,1639
469.1365400228566,1600
471.4779829979826,1578
473.81878263018564,1695
476.15893913125876,1719
478.4984527130747,1740
480.8373235875855,1707
483.17555196682144,1735
485.5131380628919,1770
487.8500820879857,1817
490.1863842543697,1939
492.52204477439034,2015
494.8570638604725,2326
497.1914417251204,2532
499.52517858091653,2995
501.85827464052306,3417
504.19073011668036,3889
506.5225452222086,4128
508.85372017000566,4229
511.18425517304956,4355
513.514150444396,4179
515.8434061971808,4495
518.1720226446176,4609
520.4999999999999,4455
522.8273384766991,4344
525.1540382881666,4422
527.480099647932,4230
529.8055227696037,3645
532.1303078668694,2558
534.454455153496,2071
536.777964843328,1696
539.1008371502907,1627
541.4230722883866,1607
543.744670471698,1561
546.0656319143858,1581
548.3859568306899,1586
550.7056454349294,1502
553.0246979415016,1522
555.3431145648834,1534
557.6608955196306,1482
559.978041020377,1484
562.2945512818363,1449
564.6104265188006,1480
566.9256669461412,1447
569.2402727788082,1423
571.5542442318302,1431
573.8675815203156,1508
576.1802848594508,1426
578.4923544645015,1420
580.8037905508126,1365
583.114593333807,1431
585.4247630289875,1447
587.7342998519354,1423
590.0432040183106,1426
592.3514757438526,1412
594.6591152443794,1418
596.9661227357875,1418
599.2724984340531,1418
601.578242555231,1407
603.8833553154542,1439
606.1878369309362,1452
608.4916876179676,1517
610.7949075929192,1501
613.0974970722403,1504
615.3994562724587,1442
617.7007854101818,1482
620.0014847020951,1435
622.3015543649641,1438
624.6009946156324,1370
626.8998056710224,1411
629.1979877481361,1420
631.4955410640538,1468
633.7924658359349,1424
636.0887622810175,1419
638.3844306166192,1443
640.6794710601358,1495
642.9738838290426,1440
645.2676691408932,1418
647.5608272133207,1450
649.853358264037,1421
652.1452625108324,1396
654.4365401715764,1402
656.7271914642178,1416
659.0172166067838,1428
661.3066158173809,1449
663.5953893141935,1427
665.8835373154867,1388
668.1710600396028,1429
670.4579577049639,1437
672.7442305300709,1478
675.0298787335033,1508
677.3149025339197,1409
679.599302150058,1544
681.8830778007342,1465
684.1662297048437,1503
686.4487580813608,1503
688.7306631493387,1494
691.0119451279091,1441
693.2926042362834,1539
695.5726406937516,1448
697.8520547196814,1435
700.1308465335215,1467
702.4090163547982,1442
704.6865644031171,1432
706.9634908981619,1518
709.2397960596965,1439
711.5154801075631,1454
713.7905432616823,1434
716.0649857420548,1477
718.3388077687592,1509
720.612009561953,1458
722.8845913418733,1456
725.1565533288352,1456
727.427895743234,1453
729.6986188055427,1518
731.9687227363137,1444
734.238207756178,1433
736.5070740858458,1416
738.7753219461066,1468
741.0429515578281,1484
743.3099631419569,1452
745.5763569195191,1512
747.8421331116193,1522
750.1072919394409,1467
752.3718336242467,1420
754.6357583873777,1441
756.8990664502545,1475
759.1617580343765,1473
761.423833361321,1472
763.6852926527457,1496
765.9461361303862,1509
768.206364016058,1503
770.4659765316536,1511
772.7249738991469,1487
774.9833563405886,1529
777.2411240781092,1550
779.4982773339183,1499
781.7548163303044,1464
784.010741289634,1514
786.2660524343538,1578
788.5207499869881,1456
790.7748341701416,1498
793.0283052064964,1497
795.2811633188143,1509
797.5334087299362,1522
799.7850416627813,1526
802.0360623403484,1535
804.2864709857143,1588
806.5362678220353,1593
808.7854530725468,1575
811.0340269605625,1513
813.2819897094754,1492
815.5293415427581,1518
817.77608268396,1552
820.0222133567116,1470
822.2677337847211,1476
824.5126441917765,1485
826.7569448017433,1517
829.0006358385675,1478
831.2437175262731,1505
833.4861900889629,1524
835.7280537508192,1480
837.9693087361026,1447
840.2099552691533,1497
842.4499935743896,1435
844.689423876309,1506
846.9282463994886,1478
849.1664613685833,1522
851.4040690083276,1443
853.6410695435349,1484
855.877463199097,1492
858.1132501999847,1469
860.3484307712487,1468
862.5830051380175,1523
864.8169735254988,1552
867.0503361589791,1525
869.2830932638243,1491
871.5152450654786,1539
873.7467917894654,1528
875.9777336613873,1525
878.2080709069252,1510
880.4378037518389,1535
882.666932421968,1543
884.8954571432301,1485
887.1233781416219,1520
889.3506956432192,1603
891.5774098741766,1516
893.803521060728,1549
896.0290294291852,1509
898.2539352059397,1572
900.4782386174619,1547
902.7019398903011,1546
904.925039251085,1554
907.147536926521,1529
909.3694331433943,1556
911.59072812857,1577
913.8114221089921,1537
916.0315153116827,1598
918.2510079637437,1555
920.4699002923547,1562
922.6881925247761,1555
924.905884888345,1541
927.1229776104793,1591
929.3394709186747,1543
931.555365040506,1586
933.7706602036275,1561
935.9853566357709,1529
938.1994545647489,1554
940.4129542184515,1556
942.6258558248488,1549
944.8381596119883,1617
947.0498658079974,1567
949.2609746410825,1553
951.4714863395287,1479
953.6814011316998,1542
955.8907192460387,1567
958.0994409110671,1606
960.3075663553858,1562
962.5150958076741,1519
964.7220294966913,1521
966.928367651274,1496
969.1341105003388,1507
971.3392582728806,1514
973.5438111979742,1439
975.747769504772,1443
977.9511334225061,1415
980.153903180487,1400
982.3560790081052,1489
984.5576611348289,1495
986.7586497902058,1415
988.9590452038618,1454
991.158847605503,1369
993.3580572249133,1381
995.5566742919558,1392
997.7546990365728,1363
999.952131688785,1291
1002.1489724786926,1291
1004.3452216364743,1316
1006.5408793923874,1302
1008.7359459767691,1315
1010.9304216200343,1257
1013.1243065526781,1267
1015.3176010052733,1245
1017.510305208472,1244
1019.7024193930064,1227
1021.8939437896848,1174
1024.0848786293977,1251
1026.2752241431122,1257
1028.4649805618747,1251
1030.6541481168115,1237
1032.842727039127,1167
1035.0307175601051,1147
1037.2181199111074,1134
1039.4049343235752,1137
1041.591161029029,1211
1043.7768002590683,1188
1045.9618522453698,1153
1048.1463172196918,1156
1050.3301954138697,1130
1052.513487059818,1115
1054.69619238953,1194
1056.8783116350783,1201
1059.0598450286152,1169
1061.2407928023704,1122
1063.4211551886528,1149
1065.6009324198508,1163
1067.780124728432,1183
1069.9587323469414,1153
1072.1367555080046,1179
1074.314194444325,1112
1076.4910493886855,1144
1078.667320573947,1211
1080.843008233051,1142
1083.0181125990161,1123
1085.1926339049414,1110
1087.3665723840027,1123
1089.5399282694575,1087
1091.7127017946405,1046
1093.8848931929647,1111
1096.0565026979243,1120
1098.2275305430899,1099
1100.3979769621128,1146
1102.567842188722,1111
1104.737126456726,1108
1106.9058300000124,1106
1109.0739530525475,1093
1111.2414958483764,1096
1113.4084586216231,1108
1115.5748416064907,1087
1117.7406450372605,1138
1119.9058691482942,1118
1122.0705141740304,1069
1124.2345803489884,1055
1126.3980679077658,1095
1128.5609770850388,1040
1130.7233081155623,1092
1132.8850612341707,1095
1135.0462366757774,1069
1137.2068346753745,1094
1139.3668554680326,1063
1141.526299288901,1080
1143.68516637321,1032
1145.8434569562655,1017
1148.001171273455,1046
1150.158309560244,1060
1152.3148720521767,1069
1154.470858984876,1054
1156.626270594044,1048
1158.7811071154629,1028
1160.9353687849912,1078
1163.089055838569,1078
1165.242168512213,1089
1167.3947070420209,1072
1169.5466716641677,1060
1171.6980626149075,1064
1173.8488801305748,1034
1175.9991244475814,1032
1178.1487958024186,1014
1180.2978944316555,1051
1182.4464205719428,1052
1184.5943744600072,1073
1186.7417563326567,1088
1188.8885664267755,1082
1191.0348049793297,1056
1193.1804722273619,1028
1195.325568407995,1068
1197.4700937584303,1049
1199.614048515948,1041
1201.7574329179074,1070
1203.900247201746,1045
1206.042491604982,1063
1208.1841663652099,1040
1210.3252717201053,1073
1212.465807907422,1032
1214.6057751649923,1057
1216.7451737307279,1049
1218.8840038426192,1012
1221.0222657387353,1066
1223.1599596572241,1065
1225.2970858363137,1064
1227.4336445143094,1025
1229.5696359295966,1077
1231.705060320639,1071
1233.8399179259786,1085
1235.9742089842384,1066
1238.107933734118,1074
1240.2410924143974,1065
1242.373685263935,1048
1244.5057125216676,1026
1246.6371744266116,1091
1248.7680712178621,1086
1250.898403134593,1018
1253.028170416058,986
1255.1573733015875,1101
1257.2860120305932,1045
1259.4140868425648,1043
1261.54159797707,1044
1263.6685456737569,1030
1265.7949301723515,1080
1267.9207517126597,1049
1270.046010534565,1016
1272.1707068780306,1072
1274.2948409830983,1043
1276.4184130898889,1074
1278.541423438603,1061
1280.6638722695184,1054
1282.785759822993,1104
1284.9070863394636,1039
1287.0278520594447,1064
1289.1480572235314,1080
1291.2677020723963,1125
1293.3867868467923,1098
1295.5053117875495,1061
1297.623277135579,1069
1299.740683131868,1091
1301.8575300174857,1125
1303.973818033578,1060
1306.0895474213703,1092
1308.2047184221678,1121
1310.3193312773528,1102
1312.4333862283888,1089
1314.5468835168163,1096
1316.659823384255,1056
1318.7722060724045,1128
1320.8840318230418,1095
1322.9953008780249,1064
1325.1060134792888,1100
1327.2161698688478,1050
1329.3257702887959,1086
1331.4348149813054,1089
1333.5433041886276,1132
1335.6512381530933,1075
1337.7586171171101,1083
1339.8654413231675,1061
1341.9717110138317,1113
1344.0774264317488,1142
1346.1825878196432,1065
1348.2871954203192,1064
1350.3912494766587,1082
1352.4947502316231,1095
1354.5976979282532,1105
1356.7000928096686,1042
1358.8019351190665,1061
1360.9032250997243,1049
1363.0039629949988,1107
1365.1041490483235,1107
1367.2037835032133,1109
1369.3028666032606,1107
1371.401398592137,1073
1373.4993797135926,1080
1375.5968102114575,1102
1377.6936903296396,1112
1379.7900203121262,1080
1381.8858004029835,1116
1383.9810308463561,1109
1386.075711886469,1076
1388.1698437676241,1074
1390.2634267342032,1098
1392.356461030667,1109
1394.4489469015557,1045
1396.5408845914872,1034
1398.6322743451592,1084
1400.7231164073469,1102
1402.813411022907,1100
1404.903158436773,1070
1406.9923588939578,1094
1409.0810126395531,1060
1411.1691199187303,1098
1413.2566809767386,1056
1415.343696058907,1030
1417.4301654106425,1123
1419.5160892774315,1078
1421.6014679048399,1088
1423.6863015385125,1055
1425.7705904241707,1058
1427.8543348076178,1066
1429.9375349347342,1083
1432.0201910514802,1095
1434.102303403894,1097
1436.1838722380944,1046
1438.2648978002767,1059
1440.3453803367174,1067
1442.4253200937692,1088
1444.5047173178677,1109
1446.5835722555234,1079
1448.6618851533285,1115
1450.739656257952,1023
1452.8168858161434,1078
1454.8935740747306,1089
1456.96972128062,1078
1459.045327680797,1078
1461.120393522327,1043
1463.1949190523528,1055
1465.2689045180973,1113
1467.3423501668608,1097
1469.415256246024,1092
1471.4876230030463,1092
1473.559450685465,1108
1475.6307395408976,1080
1477.7014898170391,1083
1479.771701761665,1076
1481.8413756226287,1095
1483.9105116478618,1112
1485.9791100853772,1109
1488.0471711832643,1092
1490.1146951896926,1049
1492.1816823529098,1110
1494.2481329212433,1076
1496.3140471430984,1134
1498.3794252669609,1010
1500.4442675413939,1081
1502.5085742150404,1124
1504.572345536622,1089
1506.6355817549388,1019
1508.6982831188702,1153
1510.7604498773744,1075
1512.8220822794883,1053
1514.8831805743293,1130
1516.9437450110909,1054
1519.003775839048,1118
1521.0632733075522,1104
1523.1222376660367,1128
1525.1806691640113,1123
1527.2385680510652,1110
1529.2959345768668,1106
1531.3527689911643,1109
1533.4090715437833,1051
1535.4648424846291,1174
1537.5200820636855,1103
1539.5747905310159,1131
1541.6289681367616,1111
1543.6826151311434,1108
1545.7357317644614,1098
1547.7883182870937,1177
1549.8403749494987,1114
1551.8919020022113,1145
1553.9428996958477,1191
1555.9933682811015,1144
1558.0433080087469,1158
1560.0927191296346,1206
1562.1416018946961,1141
1564.1899565549415,1152
1566.2377833614592,1169
1568.2850825654164,1167
1570.3318544180606,1162
1572.3780991707158,1162
1574.423817074788,1183
1576.4690083817595,1115
1578.5136733431923,1118
1580.5578122107272,1132
1582.601425236085,1146
1584.6445126710646,1111
1586.6870747675434,1108
1588.7291117774776,1154
1590.7706239529034,1165
1592.8116115459347,1141
1594.8520748087658,1091
1596.8920139936686,1131
1598.9314293529933,1117
1600.9703211391711,1144
1603.008689604711,1104
1605.0465350022005,1079
1607.0838575843068,1099
1609.1206576037753,1082
1611.1569353134305,1082
1613.1926909661765,1135
1615.2279248149953,1111
1617.2626371129481,1081
1619.2968281131757,1096
1621.3304980688963,1070
1623.3636472334088,1086
1625.39627586009,1095
1627.428384202396,1052
1629.459972513861,1087
1631.4910410480993,1098
1633.5215900588028,1109
1635.551619799744,1099
1637.5811305247717,1098
1639.6101224878166,1085
1641.6385959428862,1087
1643.6665511440683,1052
1645.693988345528,1040
1647.7209078015112,1099
1649.7473097663405,1089
1651.7731944944203,1102
1653.7985622402307,1037
1655.823413258333,1053
1657.847747803366,1079
1659.8715661300494,1144
1661.8948684931793,1108
1663.9176551476316,1087
1665.9399263483624,1044
1667.9616823504057,1062
1669.982923408873,1052
1672.0036497789574,1073
1674.0238617159293,1077
1676.043559475138,1015
1678.0627433120121,1098
1680.081413482059,1035
1682.0995702408654,1050
1684.117213844096,1126
1686.134344547495,1045
1688.1509626068864,1061
1690.1670682781705,1098
1692.182661817329,1076
1694.1977434804217,1064
1696.2123135235875,1084
1698.226372203043,1105
1700.2399197750851,1118
1702.2529564960905,1070
1704.2654826225112,1118
1706.277498410882,1091
1708.2890041178139,1094
1710.2999999999988,1101
1712.3104863142066,1053
1714.3204633172854,1067
1716.329931266163,1042
1718.3388904178469,1051
1720.3473410294214,1091
1722.3552833580516,1093
1724.3627176609807,1099
1726.3696441955308,1054
1728.3760632191033,1073
1730.3819749891782,1059
1732.3873797633146,1085
1734.3922777991502,1107
1736.3966693544012,1097
1738.4005546868639,1111
1740.4039340544127,1052
1742.406807715001,1093
1744.4091759266616,1097
1746.4110389475054,1114
1748.4123970357223,1083
1750.413250449582,1053
1752.4135994474318,1040
1754.4134442876993,1108
1756.4127852288902,1120
1758.4116225295893,1082
1760.4099564484595,1120
1762.407787244244,1130
1764.405115175764,1092
1766.4019405019203,1091
1768.3982634816916,1048
1770.3940843741357,1047
1772.3894034383907,1088
1774.3842209336717,1082
1776.378537119274,1075
1778.372352254571,1057
1780.3656665990156,1047
1782.3584804121397,1075
1784.3507939535534,1092
1786.3426074829463,1085
1788.3339212600863,1094
1790.3247355448211,1099
1792.3150505970766,1049
1794.3048666768573,1096
1796.2941840442477,1077
1798.2830029594106,1099
1800.2713236825884,1138
1802.2591464741004,1085
1804.2464715943465,1089
1806.2332993038058,1091
1808.2196298630352,1105
1810.2054635326708,1064
1812.190800573428,1082
1814.175641246101,1081
1816.1599858115628,1142
1818.1438345307652,1068
1820.127187664738,1121
1822.1100454745924,1065
1824.092408221516,1122
1826.0742761667766,1111
1828.055649571721,1060
1830.0365286977735,1107
1832.0169138064398,1077
1833.9968051593014,1069
1835.9762030180214,1066
1837.9551076443408,1129
1839.9335193000788,1111
1841.9114382471344,1071
1843.888864747485,1028
1845.8657990631878,1104
1847.842241456378,1093
1849.8181921892697,1048
1851.7936515241558,1063
1853.7686197234098,1061
1855.7430970494815,1077
1857.7170837649014,1138
1859.6905801322787,1104
1861.6635864143004,1087
1863.6361028737338,1104
1865.608129773424,1057
1867.5796673762961,1032
1869.5507159453537,1077
1871.521275743678,1133
1873.4913470344313,1048
1875.4609300808534,1079
1877.4300251462632,1118
1879.3986324940588,1130
1881.366752387717,1099
1883.3343850907936,1088
1885.3015308669228,1046
1887.268189979819,1089
1889.2343626932739,1085
1891.2000492711595,1032
1893.1652499774254,1061
1895.1299650761011,1084
1897.0941948312952,1128
1899.0579395071945,1128
1901.0211993680641,1120
1902.98397467825,1086
1904.9462657021745,1054
1906.9080727043415,1088
1908.869395949332,1062
1910.8302357018065,1080
1912.790592226504,1057
1914.7504657882428,1102
1916.7098566519212,1069
1918.6687650825133,1087
1920.6271913450764,1083
1922.5851357047422,1049
1924.5425984267245,1091
1926.499579776314,1069
1928.4560800188833,1093
1930.4120994198802,1063
1932.367638244833,1133
1934.32269675935,1095
1936.2772752291175,1035
1938.231373919899,1062
1940.1849930975404,1155
1942.1381330279637,1132
1944.0907939771696,1126
1946.0429762112412,1144
1947.9946799963363,1076
1949.9459055986945,1153
1951.896653284633,1106
1953.8469233205478,1081
1955.7967159729142,1104
1957.7460315082863,1093
1959.6948701932974,1146
1961.6432322946594,1098
1963.5911180791632,1070
1965.5385278136787,1034
1967.4854617651545,1088
1969.4319202006182,1073
1971.377903387176,1089
1973.3234115920136,1046
1975.268445082395,1081
1977.2130041256642,1130
1979.1570889892423,1092
1981.1006999406304,1117
1983.04383724741,1090
1984.986501177238,1045
1986.928691997853,1070
1988.8704099770712,1069
1990.811655382789,1081
1992.7524284829801,1055
1994.692729545698,1109
1996.6325588390755,1112
1998.5719166313224,1086
2000.5108031907307,1097
2002.4492187856677,1087
2004.387163684583,1127
2006.3246381560011,1084
2008.2616424685298,1059
2010.1981768908527,1096
2012.1342416917332,1123
2014.069837140014,1113
2016.0049635046162,1099
2017.9396210545406,1082
2019.8738100588666,1056
2021.8075307867502,1085
2023.740783507431,1061
2025.6735684902228,1064
2027.6058860045214,1094
2029.5377363198004,1141
2031.4691197056118,1088
2033.4000364315875,1086
2035.3304867674374,1103
2037.260470982952,1118
2039.189989347998,1066
2041.1190421325232,1083
2043.047629606554,1094
2044.9757520401945,1101
2046.9034097036288,1073
2048.8306028671195,1119
2050.7573318010086,1140
2052.683596775716,1093
2054.609398061742,1077
2056.5347359296647,1125
2058.4596106501403,1041
2060.384022493906,1098
2062.3079717317764,1094
2064.231458634646,1072
2066.1544834734873,1069
2068.077046519352,1102
2069.99914804337,1119
2071.9207883167524,1069
2073.8419676107865,1081
2075.7626861968406,1100
2077.6829443463607,1080
2079.6027423308715,1110
2081.522080421977,1053
2083.440958891362,1103
2085.359378010786,1120
2087.2773380520907,1073
2089.194839287196,1130
2091.111881988101,1105
2093.0284664268825,1117
2094.9445928756973,1058
2096.86026160678,1089
2098.775472892446,1059
2100.690227005088,1082
2102.604524217178,1118
2104.5183648012676,1093
2106.431749029985,1118
2108.34467717604,1115
2110.2571495122206,1139
2112.169166311393,1075
2114.080727846503,1079
2115.9918343905747,1089
2117.902486216711,1066
2119.8126835980956,1096
2121.722426807987,1072
2123.6317161197285,1075
2125.5405518067364,1111
2127.448934142509,1071
2129.356863400624,1050
2131.264339854737,1066
2133.1713637785815,1075
2135.077935445972,1131
2136.9840551308002,1110
2138.889723107037,1082
2140.7949396487334,1106
2142.699705030018,1055
2144.6040195250994,1143
2146.507883408264,1054
2148.4112969538774,1124
2150.3142604363848,1061
2152.2167741303097,1089
2154.1188383102535,1124
2156.0204532508997,1101
2157.9216192270064,1124
2159.822336513414,1103
2161.7226053850413,1084
2163.622426116884,1082
2165.5217989840185,1090
2167.4207242616,1085
2169.319202224862,1095
2171.2172331491165,1131
2173.1148173097563,1041
2175.0119549822507,1098
2176.90864644215,1072
2178.8048919650823,1139
2180.7006918267534,1105
2182.596046302952,1058
2184.4909556695407,1088
2186.3854202024645,1051
2188.279440177746,1133
2190.173015871487,1115
2192.066147559868,1085
2193.958835519149,1120
2195.851080025667,1074
2197.7428813558417,1112
2199.6342397861667,1107
2201.5251555932186,1116
2203.415629053651,1080
2205.3056604441986,1069
2207.19525004167,1143
2209.084398122958,1056
2210.9731049650327,1118
2212.861370844941,1121
2214.749196039812,1092
2216.636580826851,1068
2218.523525483344,1099
2220.410030286655,1086
2222.296095514226,1066
2224.1817214435805,1094
2226.066908352319,1109
2227.951656518121,1094
2229.835966218746,1086
2231.71983773203,1154
2233.6032713358913,1043
2235.486267308324,1088
2237.3688259274036,1124
2239.2509474712824,1050
2241.132632218193,1083
2243.013880446447,1108
2244.8946924344323,1094
2246.7750684606203,1111
2248.6550088035574,1069
2250.534513741871,1103
2252.413583554265,1073
2254.292218519526,1155
2256.170418916517,1030
2258.0481850241786,1062
2259.925517121534,1055
2261.8024154876825,1096
2263.678880401803,1094
2265.5549121431536,1104
2267.430510991071,1077
2269.305677224971,1107
2271.180411124348,1070
2273.0547129687766,1087
2274.9285830379076,1079
2276.8020216114737,1086
2278.6750289692845,1075
2280.5476053912294,1087
2282.4197511572766,1125
2284.2914665474727,1104
2286.162751841943,1081
2288.0336073208937,1092
2289.904033264608,1109
2291.774029953448,1090
2293.6435976678554,1052
2295.5127366883517,1125
2297.381447295534,1087
2299.2497297700825,1106
2301.1175843927526,1117
2302.9850114443825,1077
2304.852011205885,1077
2306.7185839582553,1099
2308.5847299825664,1067
2310.4504495599676,1140
2312.3157429716925,1130
2314.1806104990483,1106
2316.0450524234247,1088
2317.9090690262888,1108
2319.772660589186,1035
2321.635827393742,1059
2323.498569721661,1130
2325.3608878547248,1034
2327.2227820747967,1144
2329.0842526638157,1107
2330.945299903803,1110
2332.805924076857,1098
2334.6661254651535,1101
2336.525904350951,1070
2338.3852610165827,1125
2340.244195744464,1114
2342.102708817088,1105
2343.9608005170253,1102
2345.8184711269287,1057
2347.675720929526,1101
2349.532550207628,1109
2351.38895924412,1078
2353.24494832197,1088
2355.100517724223,1101
2356.955667734004,1094
2358.810398634514,1074
2360.664710709037,1082
2362.5186042409337,1065
2364.3720795136437,1037
2366.225136810686,1113
2368.0777764156583,1095
2369.929998612237,1111
2371.7818036841777,1080
2373.633191915315,1107
2375.484163589562,1093
2377.3347189909114,1059
2379.184858403434,1091
2381.03458211128,1084
2382.8838903986775,1081
2384.732783549936,1133
2386.5812618494406,1059
2388.4293255816588,1143
2390.2769750311327,1089
2392.1242104824883,1104
2393.971032220427,1100
2395.8174405297295,1093
2397.6634356952563,1120
2399.509018001947,1123
2401.3541877348193,1112
2403.1989451789705,1098
2405.043290619576,1094
2406.8872243418905,1109
2408.730746631247,1094
2410.5738577730594,1116
2412.4165580528183,1104
2414.258847756095,1104
2416.100727168537,1125
2417.9421965758734,1117
2419.783256263912,1122
2421.623906518538,1118
2423.4641476257157,1089
2425.303979871491,1085
2427.143403541984,1126
2428.9824189233977,1142
2430.821026302012,1101
2432.6592259641866,1130
2434.497018196361,1145
2436.33440328505,1114
2438.171381516851,1084
2440.00795317844,1137
2441.844118556569,1072
2443.6798779380724,1115
2445.5152316098606,1080
2447.3501798589255,1134
2449.1847229723357,1107
2451.0188612372403,1133
2452.8525949408663,1101
2454.6859243705203,1102
2456.518849813587,1076
2458.3513715575314,1107
2460.183489889895,1095
2462.015205098301,1110
2463.8465174704493,1122
2465.67742729412,1094
2467.5079348571717,1074
2469.338040447542,1076
2471.1677443532476,1107
2472.9970468623833,1108
2474.825948263123,1086
2476.6544488437207,1067
2478.482548892508,1070
2480.310248697896,1101
2482.137548548374,1099
2483.9644487325118,1113
2485.790949538956,1135
2487.617051256433,1132
2489.44275417375,1127
2491.26805857979,1127
2493.0929647635157,1047
2494.917473013971,1118
2496.741583620276,1117
2498.5652968716304,1147
2500.3886130573137,1146
2502.2115324666834,1075
2504.0340553891765,1095
2505.856182114308,1123
2507.6779129316733,1099
2509.499248130945,1108
2511.3201880018764,1137
2513.140732834298,1122
2514.9608829181198,1070
2516.780638543331,1144
2518.6,1066
2520.418967578273,1094
2522.237541568376,1049
2524.0557222606144,1101
2525.8735099453706,1066
2527.6909049131086,1082
2529.507907454368,1084
2531.32451785977,1043
2533.140736420014,1122
2534.9565634258774,1103
2536.771999168218,1054
2538.5870439379714,1093
2540.4016980261526,1103
2542.2159617238544,1129
2544.02983532225,1122
2545.8433191125914,1076
2547.656413386209,1086
2549.4691184345115,1137
2551.2814345489874,1089
2553.093362021204,1087
2554.904901142808,1093
2556.716052205523,1072
2558.526815501153,1092
2560.3371913215824,1108
2562.147179958771,1076
2563.956781704761,1107
2565.7659968516705,1086
2567.5748256916986,1121
2569.3832685171224,1047
2571.1913256202984,1095
2572.9989972936614,1095
2574.806283829725,1134
2576.613185521084,1035
2578.4197026604074,1097
2580.2258355404483,1166
2582.031584454035,1095
2583.836949694077,1103
2585.6419315535613,1092
2587.4465303255533,1107
2589.2507463032002,1078
2591.0545797797245,1085
2592.8580310484303,1104
2594.6611004026995,1104
2596.463788135992,1092
2598.266094541849,1113
2600.0680199138874,1068
2601.869564545807,1118
2603.670728731383,1095
2605.4715127644704,1113
2607.2719169390048,1062
2609.071941548998,1139
2610.8715868885433,1118
2612.670853251811,1107
2614.469740933052,1094
2616.268250226594,1072
2618.0663814268455,1106
2619.864134828292,1123
2621.6615107255006,1114
2623.458509413115,1089
2625.2551311858597,1056
2627.0513763385347,1065
2628.8472451660223,1108
2630.6427379632833,1087
2632.4378550253564,1055
2634.232596647359,1114
2636.026963124488,1080
2637.8209547520187,1063
2639.6145718253065,1092
2641.407814639785,1098
2643.200683490966,1080
2644.9931786744414,1096
2646.7853004858807,1083
2648.577049221034,1070
2650.3684251757277,1109
2652.1594286458712,1067
2653.9500599274484,1057
2655.740319316525,1070
2657.5302071092437,1077
2659.3197236018286,1057
2661.10886909058,1131
2662.8976438718782,1113
2664.686048242183,1114
2666.4740824980327,1076
2668.2617469360443,1061
2670.0490418529134,1081
2671.8359675454153,1068
2673.622524310403,1091
2675.408712444811,1068
2677.1945322456495,1065
2678.979984010009,1115
2680.76506803506,1087
2682.5497846180497,1108
2684.334134056306,1088
2686.1181166472343,1115
2687.9017326883213,1127
2689.6849824771293,1031
2691.4678663113013,1107
2693.2503844885596,1061
2695.032537306705,1069
2696.8143250636167,1077
2698.5957480572542,1127
2700.3768065856534,1123
2702.1575009469316,1110
2703.937831439283,1091
2705.717798360982,1097
2707.4974020103837,1128
2709.276642685917,1027
2711.055520686095,1084
2712.834036309506,1058
2714.612189854819,1051
2716.389981620782,1031
2718.1674119062204,1042
2719.944481010041,1095
2721.721189231226,1109
2723.4975368688415,1093
2725.273524222027,1049
2727.0491515900053,1053
2728.824419272075,1072
2730.5993275676146,1068
2732.3738767760838,1097
2734.148067197016,1103
2735.921899130031,1063
2737.6953728748194,1099
2739.468488731156,1133
2741.2412469988926,1063
2743.0136479779617,1092
2744.785691968372,1114
2746.5573792702116,1066
2748.3287101836504,1052
2750.099685008934,1069
2751.870304046388,1106
2753.640567596418,1069
2755.4104759595057,1085
2757.1800294362156,1038
2758.949228327187,1078
2760.7180729331412,1058
2762.486563554877,1108
2764.254700493272,1091
2766.022484049284,1041
2767.789914523947,1095
2769.5569922183786,1102
2771.3237174337705,1030
2773.090090471394,1059
2774.8561116326036,1084
2776.6217812188274,1103
2778.3870995315756,1137
2780.1520668724356,1089
2781.9166835430747,1062
2783.6809498452394,1015
2785.444866080754,1078
2787.2084325515225,1055
2788.971649559527,1062
2790.73451740683,1086
2792.4970363955713,1061
2794.2592068279705,1049
2796.0210290063264,1093
2797.7825032330147,1045
2799.543629810493,1067
2801.304409041296,1048
2803.0648412280366,1053
2804.8249266734088,1102
2806.5846656801846,1131
2808.344058551212,1056
2810.1031055894246,1064
2811.8618070978273,1070
2813.6201633795085,1088
2815.378174737636,1032
2817.1358414754536,1019
2818.893163896285,1091
2820.6501423035334,1006
2822.4067770006814,1030
2824.1630682912883,1025
2825.9190164789957,1064
2827.6746218675207,1088
2829.429884760661,1068
2831.184805462294,1061
2832.9393842763743,1066
2834.693621506936,1067
2836.4475174580916,1074
2838.201072434034,1055
2839.954286739034,1079
2841.707160677441,1061
2843.459694553685,1072
2845.2118886722724,1089
2846.96374333779,1101
2848.7152588549034,1095
2850.4664355283567,1075
2852.217273662973,1103
2853.9677735636546,1079
2855.7179355353833,1069
2857.4677598832186,1030
2859.217246912299,1036
2860.9663969278427,1069
2862.715210235146,1069
2864.4636871395846,1098
2866.211827946614,1085
2867.9596329617652,1072
2869.7071024906536,1066
2871.4542368389684,1046
2873.20103631248,1079
2874.947501217038,1067
2876.6936318585695,1031
2878.4394285430812,1083
2880.1848915766604,1063
2881.9300212654707,1101
2883.6748179157553,1081
2885.4192818338374,1065
2887.1634133261173,1072
2888.907212699077,1099
2890.6506802592744,1079
2892.393816313348,1115
2894.1366211680142,1072
2895.8790951300693,1100
2897.621238506388,1087
2899.363051603925,1106
2901.1045347297118,1062
2902.8456881908596,1087
2904.58651229456,1107
2906.327007348081,1078
2908.067173658772,1078
2909.8070115340597,1089
2911.5465212814497,1075
2913.285703208527,1037
2915.0245576229563,1086
2916.7630848324807,1082
2918.5012851449196,1086
2920.2391588681758,1074
2921.976706310227,1077
2923.7139277791334,1101
2925.4508235830313,1048
2927.187394030137,1068
2928.923639428745,1123
2930.6595600872306,1098
2932.395156314046,1106
2934.1304284177218,1067
2935.8653767068713,1096
2937.6000014901815,1101
2939.3343030764227,1115
2941.068281774442,1126
2942.8019378931644,1095
2944.5352717415976,1072
2946.2682836288236,1090
2948.0009738640065,1093
2949.7333427563885,1105
2951.465390615289,1069
2953.1971177501086,1094
2954.9285244703265,1095
2956.6596110855,1087
2958.3903779052657,1099
2960.1208252393385,1080
2961.8509533975125,1077
2963.5807626896617,1036
2965.3102534257378,1071
2967.0394259157715,1116
2968.768280469873,1075
2970.496817398232,1066
2972.2250370111146,1082
2973.952939618869,1024
2975.6805255319196,1012
2977.4077950607707,1060
2979.134748516006,1109
2980.861386208289,1076
2982.587708448359,1070
2984.313715547037,1068
2986.039407815222,1073
2987.764785563891,1072
2989.489849104102,1108
2991.2145987469908,1049
2992.9390348037705,1095
2994.6631575857346,1058
2996.3869674042576,1068
2998.1104645707887,1032
2999.83364939686,1113
3001.5565221940783,1088
3003.2790832741334,1088
3005.0013329487924,1079
3006.7232715298996,1087
3008.4448993293804,1075
3010.166216659239,1091
3011.887223831558,1090
3013.607921158498,1050
3015.3283089522993,1040
3017.0483875252826,1067
3018.7681571898443,1104
3020.4876182584626,1087
3022.2067710436927,1105
3023.9256158581707,1056
3025.644153014609,1078
3027.362382825801,1064
3029.0803056046193,1045
3030.797921664012,1063
3032.5152313170106,1057
3034.2322348767225,1088
3035.9489326563353,1075
3037.665324969115,1085
3039.3814121284063,1067
3041.097194447633,1113
3042.812672240299,1061
3044.5278458199855,1115
3046.2427155003525,1062
3047.9572815951406,1056
3049.671544418167,1084
3051.38550428333,1074
3053.0991615046073,1062
3054.812516396051,1091
3056.5255692717974,1103
3058.2383204460575,1089
3059.9507702331257,1098
3061.662918947372,1122
3063.3747669032446,1081
3065.0863144152736,1029
3066.7975617980674,1079
3068.508509366309,1074
3070.219157434767,1121
3071.9295063182844,1079
3073.639556331785,1092
3075.3493077902704,1120
3077.058761008821,1067
3078.7679163025964,1068
3080.476773986837,1068
3082.1853343768594,1094
3083.89359778806,1013
3085.6015645359153,1035
3087.3092349359786,1040
3089.016609303884,1101
3090.7236879553434,1107
3092.4304712061476,1063
3094.136959372166,1084
3095.843152769349,1046
3097.5490517137237,1020
3099.2546565213966,1045
3100.959967508554,1032
3102.66498499146,1031
3104.3697092864577,1068
3106.0741407099695,1093
3107.778279578498,1052
3109.482126208622,1040
3111.1856809170004,1025
3112.8889440203716,1050
3114.5919158355528,1115
3116.294596679439,1092
3117.996986869006,1088
3119.6990867213062,1079
3121.4008965534726,1084
3123.102416682717,1092
3124.803647426329,1118
3126.5045891016784,1079
3128.205242026213,1072
3129.90560651746,1054
3131.605682893025,1098
3133.3054714705922,1117
3135.0049725679282,1091
3136.7041865028714,1058
3138.4031135933465,1092
3140.101754157353,1076
3141.800108512971,1052
3143.498176978357,1126
3145.1959598717494,1095
3146.8934575114636,1028
3148.5906702158954,1077
3150.2875983035183,1043
3151.9842420928853,1067
3153.680601902627,1119
3155.376678051456,1051
3157.07247085816,1074
3158.767980641609,1027
3160.463207720748,1072
3162.158152414606,1105
3163.8528150422862,1086
3165.5471959229726,1043
3167.2412953759303,1080
3168.9351137204976,1107
3170.628651276098,1027
3172.3219083622307,1053
3174.014885298474,1077
3175.707582404485,1074
3177.4000000000005,1108
3179.092138404835,1127
3180.7839979388846,1091
3182.47557892212,1034
3184.166881674594,1020
3185.8579065164386,1071
3187.5486537678626,1044
3189.2391237491547,1055
3190.9293167806827,1102
3192.6192331828934,1064
3194.3088732763117,1021
3195.998237381542,1056
3197.687325819268,1064
3199.376138910251,1065
3201.064676975334,1098
3202.7529403354347,1046
3204.4409293115523,1036
3206.1286442247647,1071
3207.816085396229,1050
3209.5032531471825,1059
3211.190147798936,1068
3212.8767696728846,1106
3214.5631190905015,1082
3216.2491963733373,1046
3217.9350018430214,1015
3219.6205358212637,1074
3221.305798629851,1041
3222.990790590651,1012
3224.6755120256103,1072
3226.359963256751,1081
3228.0441446061795,1044
3229.7280563960758,1035
3231.411698948703,1083
3233.0950725863995,1009
3234.778177631587,1064
3236.461014406761,1012
3238.1435832345005,1037
3239.8258844374595,1076
3241.507918338374,1060
3243.1896852600576,1107
3244.8711855254023,1075
3246.552419457381,1096
3248.233387379042,1118
3249.914089613516,1027
3251.59452648401,1053
3253.274698313813,1042
3254.95460542629,1066
3256.6342481448855,1069
3258.313626793125,1046
3259.9927416946084,1069
3261.6715931730196,1050
3263.3501815521176,1030
3265.0285071557437,1061
3266.706570307815,1023
3268.3843713323286,1039
3270.0619105533615,1074
3271.739188295068,1038
3273.4162048816834,998
3275.0929606375184,1093
3276.769455886966,1054
3278.445690954498,1101
3280.1216661646613,1067
3281.797381842087,1072
3283.4728383114807,1067
3285.1480358976296,1092
3286.8229749253996,1014
3288.4976557197333,1074
3290.172078605655,1046
3291.846243908266,1048
3293.5201519527463,1057
3295.193803064357,1059
3296.8671975684374,1027
3298.5403357904024,1050
3300.21321805575,1053
3301.8858446900567,1040
3303.558216018975,1043
3305.23033236824,1063
3306.9021940636603,1025
3308.57380143113,1089
3310.2451547966184,1084
3311.916254486174,1066
3313.5871008259246,1049
3315.2576941420766,1062
3316.9280347609147,1044
3318.5981230088046,1019
3320.2679592121895,1061
3321.9375436975924,1060
3323.606876791612,1041
3325.27595882093,1051
3326.944790112305,1046
3328.6133709925753,1053
3330.2817017886573,1016
3331.949782827547,1107
3333.617614436319,1019
3335.2851969421245,1071
3336.952530672199,1054
3338.619615953853,1068
3340.286453114475,1032
3341.9530424815357,1071
3343.619384382583,1151
3345.2854791452437,1087
3346.951327097224,1099
3348.6169285663073,1132
3350.2822838803577,1051
3351.947393367319,1064
3353.61225735521,1082
3355.2768761721345,1042
3356.9412501462693,1027
3358.605379605873,1068
3360.2692648792827,1052
3361.9329062949146,1076
3363.596304181263,1080
