CollectionTime,6/26/2024 2:22:31 PM
ExposureUsed,3
CalibratedSpectrum
-962.7078968117929,496
-959.9714848408522,498
-957.2358232597828,476
-954.5009119013725,511
-951.7667505983302,531
-949.0333391832855,501
-946.3006774887896,510
-943.5687653473143,518
-940.837602591253,538
-938.1071890529199,523
-935.3775245645503,525
-932.6486089583007,542
-929.9204420662485,582
-927.1930237203925,558
-924.4663537526524,527
-921.7404319948689,540
-919.0152582788041,510
-916.2908324361409,558
-913.5671542984834,551
-910.8442236973568,551
-908.1220404642074,549
-905.4006044304027,525
-902.679915427231,550
-899.959973285902,523
-897.2407778375464,539
-894.5223289132158,546
-891.8046263438832,528
-889.0876699604426,499
-886.3714595937089,483
-883.6559950744183,508
-880.9412762332282,514
-878.2273029007168,528
-875.5140749073835,520
-872.8015920836489,512
-870.0898542598545,492
-867.3788612662631,492
-864.6686129330585,474
-861.9591090903457,471
-859.2503495681506,466
-856.5423341964203,480
-853.8350628050229,537
-851.1285352237478,516
-848.4227512823054,483
-845.7177108103272,511
-843.0134136373656,493
-840.3098595928943,478
-837.6070485063082,509
-834.9049802069229,501
-832.2036545239757,513
-829.5030712866244,507
-826.8032303239481,511
-824.1041314649472,467
-821.4057745385428,481
-818.7081593735775,487
-816.0112857988148,487
-813.3151536429393,489
-810.6197627345566,499
-807.9251129021936,506
-805.2312039742981,489
-802.5380357792392,499
-799.8456081453069,487
-797.1539209007124,501
-794.462973873588,500
-791.772766891987,509
-789.083299783884,506
-786.3945723771743,490
-783.7065844996748,522
-781.0193359791231,514
-778.3328266431781,534
-775.6470563194197,525
-772.9620248353489,506
-770.2777320183878,497
-767.5941776958798,524
-764.9113616950891,542
-762.2292838432011,514
-759.5479439673222,537
-756.8673418944801,517
-754.1874774516235,498
-751.5083504656222,502
-748.8299607632671,507
-746.15230817127,515
-743.475392516264,528
-740.7992136248035,509
-738.1237713233636,495
-735.4490654383407,498
-732.7750957960521,530
-730.1018622227365,546
-727.4293645445534,511
-724.7576025875837,511
-722.0865761778291,546
-719.4162851412126,514
-716.7467293035781,536
-714.0779084906909,580
-711.409822528237,587
-708.7424712418238,526
-706.0758544569796,541
-703.4099719991541,528
-700.7448236937178,548
-698.0804093659622,548
-695.4167288411002,509
-692.7537819442656,521
-690.0915685005134,527
-687.4300883348199,519
-684.7693412720819,555
-682.1093271371178,562
-679.4500457546669,549
-676.7914969493897,556
-674.1336805458676,570
-671.4765963686034,575
-668.8202442420206,533
-666.1646239904642,544
-663.5097354382001,553
-660.8555784094151,573
-658.2021527282176,549
-655.5494582186366,597
-652.8974947046223,591
-650.2462620100463,572
-647.5957599587009,555
-644.9459883742998,582
-642.2969470804776,602
-639.6486359007902,602
-637.0010546587141,607
-634.3542031776476,598
-631.7080812809096,611
-629.0626887917401,597
-626.4180255333008,571
-623.7740913286734,581
-621.1308860008619,561
-618.4884093727904,588
-615.8466612673046,579
-613.2056415071715,542
-610.5653499150785,587
-607.9257863136347,585
-605.28695052537,604
-602.6488423727357,558
-600.0114616781036,584
-597.3748082637674,598
-594.7388819519412,631
-592.1036825647604,643
-589.4692099242818,594
-586.8354638524829,578
-584.2024441712624,593
-581.5701507024403,598
-578.9385832677575,626
-576.3077416888759,595
-573.6776257873787,587
-571.0482353847704,573
-568.4195703024757,598
-565.7916303618415,636
-563.164415384135,622
-560.5379251905453,584
-557.9121596021815,627
-555.2871184400748,613
-552.6628015251767,594
-550.0392086783606,631
-547.4163397204204,646
-544.794194472071,620
-542.1727727539491,613
-539.5520743866118,603
-536.9320991905377,636
-534.3128469861261,691
-531.6943175936979,702
-529.0765108334947,718
-526.4594265256793,805
-523.8430644903358,924
-521.2274245474689,1062
-518.612506517005,1204
-515.9983102187913,1345
-513.3848354725959,1580
-510.77208209810846,1806
-508.16004991493924,2071
-505.5487387426199,2176
-502.9381484006032,2282
-500.3282787082628,2255
-497.71912948489364,2218
-495.1107005497117,1957
-492.5029917218539,1674
-489.8960028203786,1315
-487.28973366426493,1204
-484.68418407241325,982
-482.07935386364494,907
-479.47524285670266,879
-476.87185087025,875
-474.2691777228715,897
-471.66722323307334,852
-469.0659872192821,841
-466.4654694998459,829
-463.86566989303384,780
-461.26658821703614,773
-458.66822428996414,773
-456.07057792985,786
-453.4736489546475,778
-450.877437182231,804
-448.28194243039627,811
-445.68716451686,776
-443.09310325926003,795
-440.49975847515555,774
-437.9071299820263,749
-435.31521759727354,759
-432.72402113821954,799
-430.13354042210767,833
-427.5437752661022,822
-424.95472548728867,852
-422.36639090267386,855
-419.7787713291855,840
-417.1918665836721,855
-414.60567648290385,882
-412.0202008435715,867
-409.4354394822874,845
-406.8513922155845,830
-404.26805885991723,828
-401.685439231661,819
-399.103533147112,866
-396.522340422488,877
-393.9418608739278,888
-391.3620943174908,860
-388.7830405691583,858
-386.2046994448317,830
-383.6270707603344,802
-381.05015433141045,733
-378.473949973725,707
-375.8984575028645,662
-373.32367673433623,652
-370.74960748356875,609
-368.1762495659117,593
-365.60360279663576,556
-363.03166699093265,542
-360.4604419639154,544
-357.8899275306178,520
-355.32012350599507,514
-352.7510297049233,478
-350.1826459421999,489
-347.61497203254316,537
-345.04800779059235,505
-342.4817530309082,481
-339.91620756797226,486
-337.35137121618743,476
-334.7872437898774,477
-332.22382510328725,491
-329.66111497058273,545
-327.09911320585127,571
-324.53781962310075,531
-321.9772340362607,560
-319.4173562591816,624
-316.8581861056348,684
-314.2997233893127,645
-311.7419679238294,644
-309.1849195227194,589
-306.62857799943856,571
-304.0729431673641,516
-301.51801483979375,548
-298.963792829947,548
-296.41027695096386,578
-293.85746701590574,620
-291.3053628377552,601
-288.7539642294155,584
-286.2032710037115,592
-283.65328297338897,600
-281.1039999511146,602
-278.5554217494762,652
-276.007548180983,587
-273.4603790580651,571
-270.9139141930734,593
-268.3681533982807,590
-265.8230964858798,622
-263.27874326798565,589
-260.7350935566336,578
-258.1921471637804,660
-255.6499039013039,678
-253.10836358100266,645
-250.56752601459698,689
-248.02739101372765,747
-245.48795838995704,708
-242.94922795476816,677
-240.41119951956557,700
-237.8738728956746,854
-235.33724789434166,805
-232.80132432673452,792
-230.2661020039418,842
-227.73158073697357,838
-225.19776033676033,827
-222.66464061415422,786
-220.1322213799284,799
-217.60050244477725,774
-215.06948361931552,756
-212.53916471408013,682
-210.00954553952818,666
-207.48062590603843,793
-204.9524056239104,903
-202.4248845033651,908
-199.8980623545441,885
-197.37193898751036,834
-194.84651421224817,891
-192.32178783866232,827
-189.79775967657952,808
-187.27442953574644,865
-184.7517972258321,854
-182.2298625564256,826
-179.7086253370378,923
-177.18808537710026,1032
-174.66824248596583,1001
-172.14909647290835,1059
-169.6306471471229,993
-167.11289431772548,970
-164.59583779375328,990
-162.07947738416453,940
-159.5638128978386,933
-157.04884414357605,1014
-154.53457093009854,966
-152.02099306604828,893
-149.50811035998936,938
-146.99592262040665,1028
-144.48442965570587,1025
-141.97363127421409,1047
-139.46352728417958,1230
-136.95411749377126,1278
-134.44540171107985,1350
-131.93737974411636,1295
-129.43005140081357,1281
-126.92341648902493,1233
-124.41747481652521,1315
-121.91222619101006,1421
-119.40767042009657,1247
-116.90380731132257,1108
-114.40063667214702,1431
-111.8981583099503,1588
-109.3963720320337,1410
-106.89527764561933,1322
-104.39487495785067,1400
-101.89516377579241,1546
-99.39614390642998,1538
-96.89781515667039,1471
-94.40017733334128,1651
-91.90323024319173,1713
-89.40697369289148,1529
-86.91140748903172,1527
-84.41653143812482,1683
-81.92234534660395,1803
-79.42884902082358,1811
-76.93604226705907,1781
-74.4439248915071,1778
-71.95249670028534,1748
-69.46175749943245,1977
-66.97170709490854,2088
-64.48234529259423,2494
-61.99367189829195,2764
-59.50568671772464,2636
-57.01838955653636,2693
-54.53178022029283,2610
-52.045858514480074,3205
-49.560624244506016,3415
-47.07607721569923,3097
-44.59221723330904,2952
-42.10904410250669,3047
-39.62655762838392,4058
-37.14475761595372,4603
-34.66364387015028,5242
-32.18321619582866,6088
-29.70347439776515,6830
-27.224418280657005,7447
-24.74604764912317,9691
-22.26836230770266,15475
-19.7913620608565,25228
-17.315046712966478,37716
-14.83941606833514,43296
-12.36446993118659,65039
-9.89020810566592,65039
-7.416630395839093,65039
-4.94373660569363,65039
-2.471526539137585,65039
-6.821210263296962E-13,65039
2.47084320796705,65039
4.941003281093458,65039
7.410480415786196,65039
9.879274808531363,65039
12.347386655893956,65039
14.814816154518212,65039
17.28156350112681,65039
19.74762889252179,65039
22.21301252558385,65039
24.67771459727237,65039
27.141735304626195,48644
29.605074844762612,17467
32.06773341487792,12881
34.52971121224755,9622
36.99100843422559,8502
39.45162527824516,7243
41.91156194181792,7041
44.370818622535126,6422
46.82939551806646,5811
49.287292826160524,7028
51.74451074464503,7821
54.201049471426245,6475
56.65690920448981,4940
59.112090141899785,3441
61.56659248179983,3199
64.02041642241159,3148
66.4735621620365,3254
68.92602989905402,2513
71.37781983192338,2262
73.82893215918205,2491
76.27936707944684,2405
78.72912479141326,2543
81.17820549385567,2570
83.62660938562783,2659
86.07433666566146,2662
88.5213875329681,2807
90.96776218663751,2658
93.41346082583925,2744
95.85848364982041,2158
98.30283085790859,1668
100.7465026495089,1675
103.18949922410604,2165
105.63182078126385,1846
108.07346752062438,2045
110.51443964190923,2070
112.95473734491827,1746
115.39436082953114,1480
117.83331029570547,1487
120.27158594347827,1728
122.7091879729652,1406
125.1461165843615,1173
127.58237197794062,1208
130.01795435405518,1066
132.4528639131364,1057
134.88710085569494,1368
137.32066538231982,1436
139.75355769367923,1382
142.1857779905207,1270
144.61732647366978,1242
147.04820334403132,1260
149.47840880258934,1205
151.90794305040674,1323
154.33680628862487,1369
156.76499871846443,1281
159.19252054122433,1381
161.61937195828352,1323
164.04555317109896,1371
166.47106438120693,1486
168.89590579022217,1827
171.320077599839,1765
173.7435800118302,1730
176.16641322804742,1819
178.58857745042144,1866
181.01007288096173,1910
183.43089972175687,1841
185.85105817497413,1883
188.27054844285988,1895
190.6893707277394,1988
193.10752523201643,1982
195.5250121581745,1991
197.9418317087751,2072
200.3579840864594,1958
202.7734694939469,1968
205.18828813403627,2045
207.6024402096051,2024
210.01592592360964,1995
212.42874547908548,2095
214.84089907914665,1958
217.2523869269868,2030
219.66320922587727,2138
222.0733661791695,2127
224.48285799029293,2020
226.8916848627572,2048
229.29984700014882,2167
231.7073446061355,2214
234.11417788446204,2237
236.520347038953,2192
238.92585227351185,2320
241.33069379212054,2384
243.73487179884035,2216
246.1383864978112,2097
248.541238093252,2134
250.9434267894609,2159
253.34495279081432,2137
255.74581630176783,2127
258.1460175268563,2189
260.54555667069314,2132
262.9444339379703,2156
265.3426495334594,2118
267.7402036620107,2176
270.1370965285529,2220
272.53332833809407,2177
274.9288992957214,2198
277.32380960660055,2116
279.718059475976,2123
282.1116491091717,2135
284.5045787115897,2179
286.89684848871195,2260
289.2884586460981,2247
291.67940938938807,2199
294.0697009242996,2201
296.4593334566299,2192
298.84830719225477,2173
301.23662233712923,2219
303.6242790972866,2204
306.01127767884,2206
308.39761828798066,2170
310.78330113097934,2058
313.16832641418534,2031
315.5526943440269,2004
317.9364051270112,2092
320.3194589697242,1982
322.70185607883093,2046
325.0835966610754,1993
327.4646809232805,1948
329.8451090723478,2049
332.2248813152577,1965
334.6039978590701,1915
336.9824589109231,1903
339.36026467803447,1895
341.7374153677,1876
344.113911187295,1940
346.48975234427337,1841
348.8649390461686,1784
351.2394715005918,1790
353.61334991523415,1774
355.9865744978655,1831
358.35914545633375,1855
360.73106299856715,1799
363.10232733257146,1817
365.47293866643247,1844
367.84289720831396,1843
370.2122031664593,1749
372.5808567491905,1739
374.9488581649083,1808
377.31620762209275,1757
379.6829053293021,1780
382.0489514951745,1809
384.4143463284262,1834
386.7790900378528,1823
389.14318283232853,1808
391.50662492080653,1714
393.86941651231916,1696
396.23155781597745,1705
398.5930490409713,1726
400.9538903965696,1681
403.3140820921202,1663
405.6736243370498,1721
408.03251734086336,1599
410.3907613131465,1724
412.74835646356166,1707
415.10530300185144,1715
417.4616011378372,1734
419.81725108141893,1756
422.1722530425758,1669
424.5266072313656,1584
426.880313857925,1731
429.2333731324701,1689
431.58578526529516,1625
433.9375504667738,1653
436.2886689473588,1655
438.63914091758113,1635
440.9889665880513,1632
443.33814616945835,1616
445.68667987257015,1625
448.03456790823395,1563
450.3818104873759,1541
452.72840782100013,1555
455.07436012019105,1539
457.41966759611057,1611
459.7643304600007,1592
462.10834892318155,1598
464.4517231970525,1642
466.79445349309174,1630
469.1365400228566,1617
471.4779829979826,1589
473.81878263018564,1630
476.15893913125876,1664
478.4984527130747,1727
480.8373235875855,1696
483.17555196682144,1758
485.5131380628919,1821
487.8500820879857,1803
490.1863842543697,2020
492.52204477439034,2155
494.8570638604725,2316
497.1914417251204,2586
499.52517858091653,3041
501.85827464052306,3594
504.19073011668036,4011
506.5225452222086,4155
508.85372017000566,4354
511.18425517304956,4286
513.514150444396,4433
515.8434061971808,4521
518.1720226446176,4518
520.4999999999999,4388
522.8273384766991,4436
525.1540382881666,4474
527.480099647932,4324
529.8055227696037,3678
532.1303078668694,2635
534.454455153496,1968
536.777964843328,1793
539.1008371502907,1711
541.4230722883866,1634
543.744670471698,1565
546.0656319143858,1563
548.3859568306899,1549
550.7056454349294,1502
553.0246979415016,1511
555.3431145648834,1447
557.6608955196306,1427
559.978041020377,1454
562.2945512818363,1440
564.6104265188006,1443
566.9256669461412,1444
569.2402727788082,1444
571.5542442318302,1473
573.8675815203156,1411
576.1802848594508,1427
578.4923544645015,1355
580.8037905508126,1398
583.114593333807,1435
585.4247630289875,1459
587.7342998519354,1403
590.0432040183106,1392
592.3514757438526,1415
594.6591152443794,1472
596.9661227357875,1473
599.2724984340531,1348
601.578242555231,1402
603.8833553154542,1490
606.1878369309362,1506
608.4916876179676,1531
610.7949075929192,1478
613.0974970722403,1486
615.3994562724587,1494
617.7007854101818,1463
620.0014847020951,1470
622.3015543649641,1437
624.6009946156324,1442
626.8998056710224,1418
629.1979877481361,1435
631.4955410640538,1441
633.7924658359349,1466
636.0887622810175,1495
638.3844306166192,1478
640.6794710601358,1467
642.9738838290426,1483
645.2676691408932,1478
647.5608272133207,1465
649.853358264037,1488
652.1452625108324,1459
654.4365401715764,1457
656.7271914642178,1480
659.0172166067838,1534
661.3066158173809,1471
663.5953893141935,1442
665.8835373154867,1465
668.1710600396028,1440
670.4579577049639,1450
672.7442305300709,1491
675.0298787335033,1410
677.3149025339197,1471
679.599302150058,1468
681.8830778007342,1463
684.1662297048437,1499
686.4487580813608,1505
688.7306631493387,1465
691.0119451279091,1458
693.2926042362834,1494
695.5726406937516,1476
697.8520547196814,1452
700.1308465335215,1508
702.4090163547982,1434
704.6865644031171,1502
706.9634908981619,1479
709.2397960596965,1512
711.5154801075631,1492
713.7905432616823,1472
716.0649857420548,1480
718.3388077687592,1486
720.612009561953,1515
722.8845913418733,1522
725.1565533288352,1482
727.427895743234,1521
729.6986188055427,1464
731.9687227363137,1503
734.238207756178,1475
736.5070740858458,1474
738.7753219461066,1466
741.0429515578281,1518
743.3099631419569,1446
745.5763569195191,1537
747.8421331116193,1534
750.1072919394409,1527
752.3718336242467,1506
754.6357583873777,1505
756.8990664502545,1476
759.1617580343765,1434
761.423833361321,1490
763.6852926527457,1477
765.9461361303862,1441
768.206364016058,1567
770.4659765316536,1514
772.7249738991469,1566
774.9833563405886,1566
777.2411240781092,1547
779.4982773339183,1491
781.7548163303044,1480
784.010741289634,1586
786.2660524343538,1590
788.5207499869881,1569
790.7748341701416,1487
793.0283052064964,1609
795.2811633188143,1601
797.5334087299362,1487
799.7850416627813,1540
802.0360623403484,1532
804.2864709857143,1553
806.5362678220353,1556
808.7854530725468,1524
811.0340269605625,1576
813.2819897094754,1564
815.5293415427581,1568
817.77608268396,1582
820.0222133567116,1566
822.2677337847211,1565
824.5126441917765,1505
826.7569448017433,1502
829.0006358385675,1526
831.2437175262731,1549
833.4861900889629,1548
835.7280537508192,1502
837.9693087361026,1545
840.2099552691533,1563
842.4499935743896,1543
844.689423876309,1486
846.9282463994886,1536
849.1664613685833,1490
851.4040690083276,1448
853.6410695435349,1461
855.877463199097,1560
858.1132501999847,1495
860.3484307712487,1540
862.5830051380175,1498
864.8169735254988,1489
867.0503361589791,1487
869.2830932638243,1517
871.5152450654786,1479
873.7467917894654,1475
875.9777336613873,1550
878.2080709069252,1558
880.4378037518389,1554
882.666932421968,1563
884.8954571432301,1532
887.1233781416219,1518
889.3506956432192,1557
891.5774098741766,1562
893.803521060728,1576
896.0290294291852,1534
898.2539352059397,1649
900.4782386174619,1561
902.7019398903011,1638
904.925039251085,1587
907.147536926521,1544
909.3694331433943,1597
911.59072812857,1561
913.8114221089921,1597
916.0315153116827,1555
918.2510079637437,1613
920.4699002923547,1611
922.6881925247761,1566
924.905884888345,1639
927.1229776104793,1529
929.3394709186747,1566
931.555365040506,1608
933.7706602036275,1570
935.9853566357709,1573
938.1994545647489,1619
940.4129542184515,1614
942.6258558248488,1592
944.8381596119883,1598
947.0498658079974,1630
949.2609746410825,1591
951.4714863395287,1597
953.6814011316998,1587
955.8907192460387,1539
958.0994409110671,1590
960.3075663553858,1568
962.5150958076741,1534
964.7220294966913,1538
966.928367651274,1541
969.1341105003388,1533
971.3392582728806,1493
973.5438111979742,1483
975.747769504772,1461
977.9511334225061,1503
980.153903180487,1475
982.3560790081052,1439
984.5576611348289,1441
986.7586497902058,1457
988.9590452038618,1441
991.158847605503,1436
993.3580572249133,1393
995.5566742919558,1434
997.7546990365728,1365
999.952131688785,1342
1002.1489724786926,1295
1004.3452216364743,1372
1006.5408793923874,1287
1008.7359459767691,1293
1010.9304216200343,1270
1013.1243065526781,1279
1015.3176010052733,1273
1017.510305208472,1215
1019.7024193930064,1265
1021.8939437896848,1213
1024.0848786293977,1217
1026.2752241431122,1217
1028.4649805618747,1229
1030.6541481168115,1236
1032.842727039127,1196
1035.0307175601051,1258
1037.2181199111074,1207
1039.4049343235752,1198
1041.591161029029,1170
1043.7768002590683,1192
1045.9618522453698,1137
1048.1463172196918,1121
1050.3301954138697,1210
1052.513487059818,1218
1054.69619238953,1216
1056.8783116350783,1197
1059.0598450286152,1173
1061.2407928023704,1141
1063.4211551886528,1199
1065.6009324198508,1160
1067.780124728432,1086
1069.9587323469414,1150
1072.1367555080046,1152
1074.314194444325,1136
1076.4910493886855,1194
1078.667320573947,1150
1080.843008233051,1164
1083.0181125990161,1206
1085.1926339049414,1150
1087.3665723840027,1110
1089.5399282694575,1087
1091.7127017946405,1127
1093.8848931929647,1116
1096.0565026979243,1112
1098.2275305430899,1122
1100.3979769621128,1154
1102.567842188722,1133
1104.737126456726,1059
1106.9058300000124,1155
1109.0739530525475,1114
1111.2414958483764,1090
1113.4084586216231,1094
1115.5748416064907,1084
1117.7406450372605,1086
1119.9058691482942,1080
1122.0705141740304,1104
1124.2345803489884,1113
1126.3980679077658,1119
1128.5609770850388,1118
1130.7233081155623,1103
1132.8850612341707,1062
1135.0462366757774,1072
1137.2068346753745,1055
1139.3668554680326,1063
1141.526299288901,1111
1143.68516637321,1072
1145.8434569562655,1098
1148.001171273455,1056
1150.158309560244,1057
1152.3148720521767,1028
1154.470858984876,1105
1156.626270594044,1065
1158.7811071154629,1043
1160.9353687849912,1091
1163.089055838569,1130
1165.242168512213,1082
1167.3947070420209,1096
1169.5466716641677,1109
1171.6980626149075,1083
1173.8488801305748,1081
1175.9991244475814,1028
1178.1487958024186,1060
1180.2978944316555,1046
1182.4464205719428,1050
1184.5943744600072,1087
1186.7417563326567,1050
1188.8885664267755,1030
1191.0348049793297,1049
1193.1804722273619,1070
1195.325568407995,1092
1197.4700937584303,1040
1199.614048515948,1013
1201.7574329179074,1004
1203.900247201746,1023
1206.042491604982,1089
1208.1841663652099,990
1210.3252717201053,1103
1212.465807907422,1089
1214.6057751649923,1049
1216.7451737307279,1034
1218.8840038426192,1040
1221.0222657387353,1055
1223.1599596572241,1057
1225.2970858363137,1040
1227.4336445143094,1074
1229.5696359295966,1113
1231.705060320639,1066
1233.8399179259786,1068
1235.9742089842384,1066
1238.107933734118,1087
1240.2410924143974,1062
1242.373685263935,1039
1244.5057125216676,1072
1246.6371744266116,1073
1248.7680712178621,1063
1250.898403134593,1029
1253.028170416058,1058
1255.1573733015875,1055
1257.2860120305932,1029
1259.4140868425648,1045
1261.54159797707,1082
1263.6685456737569,1088
1265.7949301723515,1064
1267.9207517126597,1074
1270.046010534565,1056
1272.1707068780306,1033
1274.2948409830983,1070
1276.4184130898889,1082
1278.541423438603,1054
1280.6638722695184,1042
1282.785759822993,1036
1284.9070863394636,1013
1287.0278520594447,1071
1289.1480572235314,1139
1291.2677020723963,1161
1293.3867868467923,1116
1295.5053117875495,1047
1297.623277135579,1110
1299.740683131868,1094
1301.8575300174857,1131
1303.973818033578,1135
1306.0895474213703,1099
1308.2047184221678,1137
1310.3193312773528,1115
1312.4333862283888,1090
1314.5468835168163,1059
1316.659823384255,1115
1318.7722060724045,1106
1320.8840318230418,1093
1322.9953008780249,1151
1325.1060134792888,1141
1327.2161698688478,1110
1329.3257702887959,1133
1331.4348149813054,1118
1333.5433041886276,1124
1335.6512381530933,1050
1337.7586171171101,1112
1339.8654413231675,1084
1341.9717110138317,1109
1344.0774264317488,1065
1346.1825878196432,1106
1348.2871954203192,1146
1350.3912494766587,1111
1352.4947502316231,1091
1354.5976979282532,1114
1356.7000928096686,1125
1358.8019351190665,1093
1360.9032250997243,1122
1363.0039629949988,1134
1365.1041490483235,1131
1367.2037835032133,1126
1369.3028666032606,1086
1371.401398592137,1045
1373.4993797135926,1081
1375.5968102114575,1114
1377.6936903296396,1098
1379.7900203121262,1053
1381.8858004029835,1131
1383.9810308463561,1078
1386.075711886469,1043
1388.1698437676241,1104
1390.2634267342032,1051
1392.356461030667,1102
1394.4489469015557,1082
1396.5408845914872,1111
1398.6322743451592,1118
1400.7231164073469,1089
1402.813411022907,1060
1404.903158436773,1062
1406.9923588939578,1072
1409.0810126395531,1096
1411.1691199187303,1109
1413.2566809767386,1068
1415.343696058907,1036
1417.4301654106425,1082
1419.5160892774315,1087
1421.6014679048399,1096
1423.6863015385125,1082
1425.7705904241707,1071
1427.8543348076178,1119
1429.9375349347342,1101
1432.0201910514802,1087
1434.102303403894,1082
1436.1838722380944,1073
1438.2648978002767,1051
1440.3453803367174,1082
1442.4253200937692,1033
1444.5047173178677,1120
1446.5835722555234,1098
1448.6618851533285,1054
1450.739656257952,1094
1452.8168858161434,1061
1454.8935740747306,1097
1456.96972128062,1089
1459.045327680797,1069
1461.120393522327,1064
1463.1949190523528,1075
1465.2689045180973,1091
1467.3423501668608,1089
1469.415256246024,1112
1471.4876230030463,1124
1473.559450685465,1095
1475.6307395408976,1065
1477.7014898170391,1090
1479.771701761665,1123
1481.8413756226287,1117
1483.9105116478618,1118
1485.9791100853772,1117
1488.0471711832643,1138
1490.1146951896926,1108
1492.1816823529098,1123
1494.2481329212433,1072
1496.3140471430984,1102
1498.3794252669609,1105
1500.4442675413939,1036
1502.5085742150404,1094
1504.572345536622,1115
1506.6355817549388,1096
1508.6982831188702,1088
1510.7604498773744,1041
1512.8220822794883,1074
1514.8831805743293,1073
1516.9437450110909,1077
1519.003775839048,1122
1521.0632733075522,1117
1523.1222376660367,1104
1525.1806691640113,1114
1527.2385680510652,1122
1529.2959345768668,1077
1531.3527689911643,1059
1533.4090715437833,1089
1535.4648424846291,1079
1537.5200820636855,1159
1539.5747905310159,1126
1541.6289681367616,1146
1543.6826151311434,1102
1545.7357317644614,1150
1547.7883182870937,1101
1549.8403749494987,1105
1551.8919020022113,1152
1553.9428996958477,1147
1555.9933682811015,1122
1558.0433080087469,1121
1560.0927191296346,1160
1562.1416018946961,1104
1564.1899565549415,1121
1566.2377833614592,1114
1568.2850825654164,1147
1570.3318544180606,1145
1572.3780991707158,1150
1574.423817074788,1196
1576.4690083817595,1129
1578.5136733431923,1196
1580.5578122107272,1119
1582.601425236085,1176
1584.6445126710646,1098
1586.6870747675434,1127
1588.7291117774776,1110
1590.7706239529034,1162
1592.8116115459347,1122
1594.8520748087658,1118
1596.8920139936686,1121
1598.9314293529933,1136
1600.9703211391711,1143
1603.008689604711,1117
1605.0465350022005,1129
1607.0838575843068,1110
1609.1206576037753,1099
1611.1569353134305,1064
1613.1926909661765,1095
1615.2279248149953,1124
1617.2626371129481,1111
1619.2968281131757,1096
1621.3304980688963,1061
1623.3636472334088,1081
1625.39627586009,1098
1627.428384202396,1115
1629.459972513861,1054
1631.4910410480993,1111
1633.5215900588028,1083
1635.551619799744,1087
1637.5811305247717,1103
1639.6101224878166,1112
1641.6385959428862,1105
1643.6665511440683,1075
1645.693988345528,1114
1647.7209078015112,1108
1649.7473097663405,1100
1651.7731944944203,1137
1653.7985622402307,1105
1655.823413258333,1143
1657.847747803366,1140
1659.8715661300494,1066
1661.8948684931793,1058
1663.9176551476316,1114
1665.9399263483624,1074
1667.9616823504057,1049
1669.982923408873,1042
1672.0036497789574,1060
1674.0238617159293,1059
1676.043559475138,1028
1678.0627433120121,1101
1680.081413482059,1098
1682.0995702408654,1105
1684.117213844096,1112
1686.134344547495,1091
1688.1509626068864,1083
1690.1670682781705,1044
1692.182661817329,1089
1694.1977434804217,1063
1696.2123135235875,1066
1698.226372203043,1104
1700.2399197750851,1100
1702.2529564960905,1095
1704.2654826225112,1104
1706.277498410882,1084
1708.2890041178139,1111
1710.2999999999988,1055
1712.3104863142066,1140
1714.3204633172854,1079
1716.329931266163,1092
1718.3388904178469,1029
1720.3473410294214,1066
1722.3552833580516,1105
1724.3627176609807,1102
1726.3696441955308,1060
1728.3760632191033,1116
1730.3819749891782,1099
1732.3873797633146,1075
1734.3922777991502,1059
1736.3966693544012,1065
1738.4005546868639,1051
1740.4039340544127,1123
1742.406807715001,1118
1744.4091759266616,1081
1746.4110389475054,1100
1748.4123970357223,1085
1750.413250449582,1111
1752.4135994474318,1078
1754.4134442876993,1064
1756.4127852288902,1072
1758.4116225295893,1044
1760.4099564484595,1066
1762.407787244244,1086
1764.405115175764,1068
1766.4019405019203,1099
1768.3982634816916,1068
1770.3940843741357,1098
1772.3894034383907,1047
1774.3842209336717,1077
1776.378537119274,1099
1778.372352254571,1122
1780.3656665990156,1104
1782.3584804121397,1084
1784.3507939535534,1114
1786.3426074829463,1093
1788.3339212600863,1131
1790.3247355448211,1040
1792.3150505970766,1106
1794.3048666768573,1089
1796.2941840442477,1120
1798.2830029594106,1168
1800.2713236825884,1117
1802.2591464741004,1030
1804.2464715943465,1099
1806.2332993038058,1160
1808.2196298630352,1156
1810.2054635326708,1081
1812.190800573428,1090
1814.175641246101,1150
1816.1599858115628,1112
1818.1438345307652,1123
1820.127187664738,1124
1822.1100454745924,1137
1824.092408221516,1069
1826.0742761667766,1099
1828.055649571721,1060
1830.0365286977735,1079
1832.0169138064398,1058
1833.9968051593014,1080
1835.9762030180214,1072
1837.9551076443408,1104
1839.9335193000788,1083
1841.9114382471344,1079
1843.888864747485,1107
1845.8657990631878,1120
1847.842241456378,1118
1849.8181921892697,1054
1851.7936515241558,1063
1853.7686197234098,1108
1855.7430970494815,1106
1857.7170837649014,1070
1859.6905801322787,1059
1861.6635864143004,1090
1863.6361028737338,1077
1865.608129773424,1067
1867.5796673762961,1075
1869.5507159453537,1104
1871.521275743678,1074
1873.4913470344313,1050
1875.4609300808534,1056
1877.4300251462632,1040
1879.3986324940588,1106
1881.366752387717,1110
1883.3343850907936,1084
1885.3015308669228,1111
1887.268189979819,1087
1889.2343626932739,1099
1891.2000492711595,1138
1893.1652499774254,1145
1895.1299650761011,1098
1897.0941948312952,1107
1899.0579395071945,1119
1901.0211993680641,1123
1902.98397467825,1087
1904.9462657021745,1085
1906.9080727043415,1035
1908.869395949332,1127
1910.8302357018065,1146
1912.790592226504,1070
1914.7504657882428,1058
1916.7098566519212,1118
1918.6687650825133,1015
1920.6271913450764,1135
1922.5851357047422,1108
1924.5425984267245,1073
1926.499579776314,1124
1928.4560800188833,1100
1930.4120994198802,1084
1932.367638244833,1092
1934.32269675935,1060
1936.2772752291175,1082
1938.231373919899,1087
1940.1849930975404,1085
1942.1381330279637,1105
1944.0907939771696,1093
1946.0429762112412,1114
1947.9946799963363,1067
1949.9459055986945,1085
1951.896653284633,1157
1953.8469233205478,1082
1955.7967159729142,1120
1957.7460315082863,1133
1959.6948701932974,1089
1961.6432322946594,1052
1963.5911180791632,1087
1965.5385278136787,1064
1967.4854617651545,1127
1969.4319202006182,1101
1971.377903387176,1078
1973.3234115920136,1053
1975.268445082395,1118
1977.2130041256642,1081
1979.1570889892423,1137
1981.1006999406304,1125
1983.04383724741,1091
1984.986501177238,1115
1986.928691997853,1142
1988.8704099770712,1079
1990.811655382789,1123
1992.7524284829801,1129
1994.692729545698,1095
1996.6325588390755,1058
1998.5719166313224,1072
2000.5108031907307,1132
2002.4492187856677,1115
2004.387163684583,1136
2006.3246381560011,1103
2008.2616424685298,1098
2010.1981768908527,1113
2012.1342416917332,1059
2014.069837140014,1074
2016.0049635046162,1075
2017.9396210545406,1095
2019.8738100588666,1147
2021.8075307867502,1076
2023.740783507431,1143
2025.6735684902228,1126
2027.6058860045214,1079
2029.5377363198004,1109
2031.4691197056118,1093
2033.4000364315875,1093
2035.3304867674374,1099
2037.260470982952,1110
2039.189989347998,1123
2041.1190421325232,1122
2043.047629606554,1093
2044.9757520401945,1084
2046.9034097036288,1076
2048.8306028671195,1078
2050.7573318010086,1113
2052.683596775716,1094
2054.609398061742,1070
2056.5347359296647,1119
2058.4596106501403,1124
2060.384022493906,1114
2062.3079717317764,1062
2064.231458634646,1074
2066.1544834734873,1102
2068.077046519352,1087
2069.99914804337,1154
2071.9207883167524,1108
2073.8419676107865,1091
2075.7626861968406,1113
2077.6829443463607,1114
2079.6027423308715,1045
2081.522080421977,1089
2083.440958891362,1114
2085.359378010786,1122
2087.2773380520907,1094
2089.194839287196,1058
2091.111881988101,1079
2093.0284664268825,1148
2094.9445928756973,1123
2096.86026160678,1045
2098.775472892446,1091
2100.690227005088,1045
2102.604524217178,1055
2104.5183648012676,1112
2106.431749029985,1110
2108.34467717604,1114
2110.2571495122206,1103
2112.169166311393,1109
2114.080727846503,1125
2115.9918343905747,1093
2117.902486216711,1138
2119.8126835980956,1067
2121.722426807987,1122
2123.6317161197285,1146
2125.5405518067364,1159
2127.448934142509,1060
2129.356863400624,1086
2131.264339854737,1126
2133.1713637785815,1070
2135.077935445972,1089
2136.9840551308002,1104
2138.889723107037,1049
2140.7949396487334,1143
2142.699705030018,1155
2144.6040195250994,1080
2146.507883408264,1109
2148.4112969538774,1072
2150.3142604363848,1082
2152.2167741303097,1108
2154.1188383102535,1121
2156.0204532508997,1084
2157.9216192270064,1137
2159.822336513414,1106
2161.7226053850413,1111
2163.622426116884,1080
2165.5217989840185,1133
2167.4207242616,1075
2169.319202224862,1124
2171.2172331491165,1083
2173.1148173097563,1128
2175.0119549822507,1112
2176.90864644215,1109
2178.8048919650823,1086
2180.7006918267534,1112
2182.596046302952,1098
2184.4909556695407,1066
2186.3854202024645,1086
2188.279440177746,1059
2190.173015871487,1129
2192.066147559868,1090
2193.958835519149,1062
2195.851080025667,1094
2197.7428813558417,1121
2199.6342397861667,1126
2201.5251555932186,1137
2203.415629053651,1096
2205.3056604441986,1061
2207.19525004167,1098
2209.084398122958,1095
2210.9731049650327,1067
2212.861370844941,1089
2214.749196039812,1098
2216.636580826851,1132
2218.523525483344,1079
2220.410030286655,1093
2222.296095514226,1112
2224.1817214435805,1164
2226.066908352319,1108
2227.951656518121,1084
2229.835966218746,1101
2231.71983773203,1128
2233.6032713358913,1141
2235.486267308324,1127
2237.3688259274036,1089
2239.2509474712824,1142
2241.132632218193,1103
2243.013880446447,1132
2244.8946924344323,1101
2246.7750684606203,1176
2248.6550088035574,1090
2250.534513741871,1087
2252.413583554265,1119
2254.292218519526,1088
2256.170418916517,1150
2258.0481850241786,1081
2259.925517121534,1108
2261.8024154876825,1067
2263.678880401803,1100
2265.5549121431536,1108
2267.430510991071,1096
2269.305677224971,1086
2271.180411124348,1108
2273.0547129687766,1119
2274.9285830379076,1130
2276.8020216114737,1111
2278.6750289692845,1055
2280.5476053912294,1091
2282.4197511572766,1067
2284.2914665474727,1060
2286.162751841943,1091
2288.0336073208937,1081
2289.904033264608,1115
2291.774029953448,1144
2293.6435976678554,1070
2295.5127366883517,1090
2297.381447295534,1046
2299.2497297700825,1109
2301.1175843927526,1116
2302.9850114443825,1061
2304.852011205885,1116
2306.7185839582553,1073
2308.5847299825664,1091
2310.4504495599676,1165
2312.3157429716925,1130
2314.1806104990483,1135
2316.0450524234247,1118
2317.9090690262888,1106
2319.772660589186,1137
2321.635827393742,1086
2323.498569721661,1103
2325.3608878547248,1121
2327.2227820747967,1112
2329.0842526638157,1124
2330.945299903803,1119
2332.805924076857,1098
2334.6661254651535,1113
2336.525904350951,1083
2338.3852610165827,1069
2340.244195744464,1144
2342.102708817088,1066
2343.9608005170253,1126
2345.8184711269287,1073
2347.675720929526,1109
2349.532550207628,1146
2351.38895924412,1100
2353.24494832197,1080
2355.100517724223,1071
2356.955667734004,1114
2358.810398634514,1105
2360.664710709037,1096
2362.5186042409337,1102
2364.3720795136437,1104
2366.225136810686,1091
2368.0777764156583,1124
2369.929998612237,1111
2371.7818036841777,1104
2373.633191915315,1111
2375.484163589562,1069
2377.3347189909114,1122
2379.184858403434,1140
2381.03458211128,1080
2382.8838903986775,1083
2384.732783549936,1140
2386.5812618494406,1102
2388.4293255816588,1133
2390.2769750311327,1109
2392.1242104824883,1093
2393.971032220427,1062
2395.8174405297295,1098
2397.6634356952563,1144
2399.509018001947,1104
2401.3541877348193,1142
2403.1989451789705,1144
2405.043290619576,1128
2406.8872243418905,1113
2408.730746631247,1124
2410.5738577730594,1111
2412.4165580528183,1149
2414.258847756095,1120
2416.100727168537,1101
2417.9421965758734,1087
2419.783256263912,1155
2421.623906518538,1125
2423.4641476257157,1115
2425.303979871491,1130
2427.143403541984,1132
2428.9824189233977,1127
2430.821026302012,1178
2432.6592259641866,1184
2434.497018196361,1142
2436.33440328505,1190
2438.171381516851,1143
2440.00795317844,1094
2441.844118556569,1113
2443.6798779380724,1116
2445.5152316098606,1135
2447.3501798589255,1120
2449.1847229723357,1078
2451.0188612372403,1100
2452.8525949408663,1106
2454.6859243705203,1135
2456.518849813587,1092
2458.3513715575314,1122
2460.183489889895,1137
2462.015205098301,1127
2463.8465174704493,1097
2465.67742729412,1083
2467.5079348571717,1150
2469.338040447542,1122
2471.1677443532476,1151
2472.9970468623833,1069
2474.825948263123,1079
2476.6544488437207,1147
2478.482548892508,1054
2480.310248697896,1099
2482.137548548374,1122
2483.9644487325118,1132
2485.790949538956,1138
2487.617051256433,1101
2489.44275417375,1035
2491.26805857979,1112
2493.0929647635157,1118
2494.917473013971,1112
2496.741583620276,1098
2498.5652968716304,1101
2500.3886130573137,1103
2502.2115324666834,1085
2504.0340553891765,1114
2505.856182114308,1146
2507.6779129316733,1063
2509.499248130945,1146
2511.3201880018764,1110
2513.140732834298,1134
2514.9608829181198,1128
2516.780638543331,1099
2518.6,1124
2520.418967578273,1100
2522.237541568376,1058
2524.0557222606144,1113
2525.8735099453706,1075
2527.6909049131086,1111
2529.507907454368,1134
2531.32451785977,1069
2533.140736420014,1108
2534.9565634258774,1137
2536.771999168218,1109
2538.5870439379714,1084
2540.4016980261526,1061
2542.2159617238544,1092
2544.02983532225,1152
2545.8433191125914,1098
2547.656413386209,1135
2549.4691184345115,1141
2551.2814345489874,1121
2553.093362021204,1103
2554.904901142808,1090
2556.716052205523,1099
2558.526815501153,1111
2560.3371913215824,1067
2562.147179958771,1098
2563.956781704761,1110
2565.7659968516705,1051
2567.5748256916986,1100
2569.3832685171224,1117
2571.1913256202984,1085
2572.9989972936614,1082
2574.806283829725,1092
2576.613185521084,1053
2578.4197026604074,1143
2580.2258355404483,1078
2582.031584454035,1116
2583.836949694077,1115
2585.6419315535613,1111
2587.4465303255533,1082
2589.2507463032002,1120
2591.0545797797245,1119
2592.8580310484303,1070
2594.6611004026995,1085
2596.463788135992,1118
2598.266094541849,1143
2600.0680199138874,1128
2601.869564545807,1114
2603.670728731383,1104
2605.4715127644704,1093
2607.2719169390048,1124
2609.071941548998,1104
2610.8715868885433,1062
2612.670853251811,1113
2614.469740933052,1130
2616.268250226594,1088
2618.0663814268455,1097
2619.864134828292,1128
2621.6615107255006,1121
2623.458509413115,1118
2625.2551311858597,1109
2627.0513763385347,1076
2628.8472451660223,1127
2630.6427379632833,1127
2632.4378550253564,1086
2634.232596647359,1073
2636.026963124488,1097
2637.8209547520187,1066
2639.6145718253065,1105
2641.407814639785,1093
2643.200683490966,1087
2644.9931786744414,1117
2646.7853004858807,1104
2648.577049221034,1135
2650.3684251757277,1130
2652.1594286458712,1070
2653.9500599274484,1090
2655.740319316525,1090
2657.5302071092437,1031
2659.3197236018286,1094
2661.10886909058,1131
2662.8976438718782,1056
2664.686048242183,1086
2666.4740824980327,1153
2668.2617469360443,1148
2670.0490418529134,1130
2671.8359675454153,1139
2673.622524310403,1092
2675.408712444811,1124
2677.1945322456495,1125
2678.979984010009,1096
2680.76506803506,1080
2682.5497846180497,1127
2684.334134056306,1093
2686.1181166472343,1049
2687.9017326883213,1095
2689.6849824771293,1073
2691.4678663113013,1128
2693.2503844885596,1071
2695.032537306705,1144
2696.8143250636167,1107
2698.5957480572542,1108
2700.3768065856534,1051
2702.1575009469316,1103
2703.937831439283,1075
2705.717798360982,1091
2707.4974020103837,1104
2709.276642685917,1070
2711.055520686095,1070
2712.834036309506,1093
2714.612189854819,1101
2716.389981620782,1034
2718.1674119062204,1112
2719.944481010041,1064
2721.721189231226,1066
2723.4975368688415,1063
2725.273524222027,1036
2727.0491515900053,1145
2728.824419272075,1111
2730.5993275676146,1065
2732.3738767760838,1057
2734.148067197016,1066
2735.921899130031,1079
2737.6953728748194,1088
2739.468488731156,1100
2741.2412469988926,1062
2743.0136479779617,1079
2744.785691968372,1116
2746.5573792702116,1074
2748.3287101836504,1099
2750.099685008934,1107
2751.870304046388,1064
2753.640567596418,1088
2755.4104759595057,1050
2757.1800294362156,1058
2758.949228327187,1117
2760.7180729331412,1060
2762.486563554877,1103
2764.254700493272,1065
2766.022484049284,1094
2767.789914523947,1095
2769.5569922183786,1094
2771.3237174337705,1099
2773.090090471394,1134
2774.8561116326036,1060
2776.6217812188274,1088
2778.3870995315756,1050
2780.1520668724356,1082
2781.9166835430747,1124
2783.6809498452394,1062
2785.444866080754,1096
2787.2084325515225,1058
2788.971649559527,1094
2790.73451740683,1115
2792.4970363955713,1120
2794.2592068279705,1104
2796.0210290063264,1089
2797.7825032330147,1121
2799.543629810493,1063
2801.304409041296,1074
2803.0648412280366,1042
2804.8249266734088,1088
2806.5846656801846,1077
2808.344058551212,1033
2810.1031055894246,1100
2811.8618070978273,1100
2813.6201633795085,1150
2815.378174737636,1069
2817.1358414754536,1116
2818.893163896285,1111
2820.6501423035334,1056
2822.4067770006814,1124
2824.1630682912883,1100
2825.9190164789957,1091
2827.6746218675207,1100
2829.429884760661,1112
2831.184805462294,1078
2832.9393842763743,1079
2834.693621506936,1060
2836.4475174580916,1114
2838.201072434034,1133
2839.954286739034,1134
2841.707160677441,1094
2843.459694553685,1064
2845.2118886722724,1091
2846.96374333779,1057
2848.7152588549034,1090
2850.4664355283567,1090
2852.217273662973,1102
2853.9677735636546,1158
2855.7179355353833,1117
2857.4677598832186,1085
2859.217246912299,1092
2860.9663969278427,1068
2862.715210235146,1072
2864.4636871395846,1113
2866.211827946614,1103
2867.9596329617652,1102
2869.7071024906536,1068
2871.4542368389684,1087
2873.20103631248,1061
2874.947501217038,1047
2876.6936318585695,1122
2878.4394285430812,1091
2880.1848915766604,1047
2881.9300212654707,1086
2883.6748179157553,1117
2885.4192818338374,1064
2887.1634133261173,1110
2888.907212699077,1095
2890.6506802592744,1099
2892.393816313348,1078
2894.1366211680142,1116
2895.8790951300693,1077
2897.621238506388,1096
2899.363051603925,1079
2901.1045347297118,1075
2902.8456881908596,1116
2904.58651229456,1128
2906.327007348081,1110
2908.067173658772,1120
2909.8070115340597,1098
2911.5465212814497,1087
2913.285703208527,1096
2915.0245576229563,1059
2916.7630848324807,1096
2918.5012851449196,1134
2920.2391588681758,1133
2921.976706310227,1054
2923.7139277791334,1051
2925.4508235830313,1084
2927.187394030137,1107
2928.923639428745,1072
2930.6595600872306,1074
2932.395156314046,1105
2934.1304284177218,1080
2935.8653767068713,1088
2937.6000014901815,1101
2939.3343030764227,1118
2941.068281774442,1124
2942.8019378931644,1057
2944.5352717415976,1060
2946.2682836288236,1117
2948.0009738640065,1117
2949.7333427563885,1084
2951.465390615289,1100
2953.1971177501086,1066
2954.9285244703265,1077
2956.6596110855,1082
2958.3903779052657,1089
2960.1208252393385,1131
2961.8509533975125,1076
2963.5807626896617,1091
2965.3102534257378,1030
2967.0394259157715,1094
2968.768280469873,1056
2970.496817398232,1126
2972.2250370111146,1102
2973.952939618869,1137
2975.6805255319196,1086
2977.4077950607707,1071
2979.134748516006,1109
2980.861386208289,1137
2982.587708448359,1094
2984.313715547037,1040
2986.039407815222,1133
2987.764785563891,1125
2989.489849104102,1144
2991.2145987469908,1109
2992.9390348037705,1135
2994.6631575857346,1085
2996.3869674042576,1057
2998.1104645707887,1102
2999.83364939686,1107
3001.5565221940783,1085
3003.2790832741334,1102
3005.0013329487924,1107
3006.7232715298996,1102
3008.4448993293804,1100
3010.166216659239,1093
3011.887223831558,1077
3013.607921158498,1068
3015.3283089522993,1013
3017.0483875252826,1090
3018.7681571898443,1079
3020.4876182584626,1098
3022.2067710436927,1078
3023.9256158581707,1096
3025.644153014609,1078
3027.362382825801,1069
3029.0803056046193,1067
3030.797921664012,1033
3032.5152313170106,1069
3034.2322348767225,1034
3035.9489326563353,1059
3037.665324969115,1098
3039.3814121284063,1111
3041.097194447633,1063
3042.812672240299,1036
3044.5278458199855,1078
3046.2427155003525,1086
3047.9572815951406,1083
3049.671544418167,1060
3051.38550428333,1097
3053.0991615046073,1102
3054.812516396051,1104
3056.5255692717974,1091
3058.2383204460575,1056
3059.9507702331257,1060
3061.662918947372,1098
3063.3747669032446,1015
3065.0863144152736,1075
3066.7975617980674,1096
3068.508509366309,1079
3070.219157434767,1109
3071.9295063182844,1073
3073.639556331785,1116
3075.3493077902704,1114
3077.058761008821,1092
3078.7679163025964,1092
3080.476773986837,1071
3082.1853343768594,1104
3083.89359778806,1042
3085.6015645359153,1088
3087.3092349359786,1113
3089.016609303884,1091
3090.7236879553434,1096
3092.4304712061476,1110
3094.136959372166,1070
3095.843152769349,1071
3097.5490517137237,1114
3099.2546565213966,1124
3100.959967508554,1082
3102.66498499146,1051
3104.3697092864577,1063
3106.0741407099695,1077
3107.778279578498,1070
3109.482126208622,1048
3111.1856809170004,1079
3112.8889440203716,1068
3114.5919158355528,1079
3116.294596679439,1082
3117.996986869006,1095
3119.6990867213062,1061
3121.4008965534726,1132
3123.102416682717,1098
3124.803647426329,1081
3126.5045891016784,1078
3128.205242026213,1062
3129.90560651746,1077
3131.605682893025,1083
3133.3054714705922,1091
3135.0049725679282,1094
3136.7041865028714,1076
3138.4031135933465,1108
3140.101754157353,1121
3141.800108512971,1115
3143.498176978357,1113
3145.1959598717494,1098
3146.8934575114636,1091
3148.5906702158954,1061
3150.2875983035183,1085
3151.9842420928853,1072
3153.680601902627,1049
3155.376678051456,1060
3157.07247085816,1067
3158.767980641609,1056
3160.463207720748,1061
3162.158152414606,1065
3163.8528150422862,1039
3165.5471959229726,1094
3167.2412953759303,1098
3168.9351137204976,1138
3170.628651276098,1065
3172.3219083622307,1129
3174.014885298474,1091
3175.707582404485,1063
3177.4000000000005,1083
3179.092138404835,1051
3180.7839979388846,1115
3182.47557892212,1085
3184.166881674594,1074
3185.8579065164386,1088
3187.5486537678626,1073
3189.2391237491547,1127
3190.9293167806827,1068
3192.6192331828934,1108
3194.3088732763117,1075
3195.998237381542,1145
3197.687325819268,1119
3199.376138910251,1051
3201.064676975334,1068
3202.7529403354347,1080
3204.4409293115523,1125
3206.1286442247647,1075
3207.816085396229,1086
3209.5032531471825,1081
3211.190147798936,1067
3212.8767696728846,1113
3214.5631190905015,1045
3216.2491963733373,1085
3217.9350018430214,1063
3219.6205358212637,1023
3221.305798629851,1044
3222.990790590651,1024
3224.6755120256103,1076
3226.359963256751,1048
3228.0441446061795,1046
3229.7280563960758,1057
3231.411698948703,1096
3233.0950725863995,1041
3234.778177631587,1024
3236.461014406761,1061
3238.1435832345005,1060
3239.8258844374595,1062
3241.507918338374,1078
3243.1896852600576,1108
3244.8711855254023,1118
3246.552419457381,1076
3248.233387379042,1096
3249.914089613516,1058
3251.59452648401,1064
3253.274698313813,1094
3254.95460542629,1085
3256.6342481448855,1059
3258.313626793125,1066
3259.9927416946084,1080
3261.6715931730196,1079
3263.3501815521176,1045
3265.0285071557437,1118
3266.706570307815,1071
3268.3843713323286,1053
3270.0619105533615,1067
3271.739188295068,1086
3273.4162048816834,1055
3275.0929606375184,1062
3276.769455886966,1063
3278.445690954498,1095
3280.1216661646613,1105
3281.797381842087,1044
3283.4728383114807,1034
3285.1480358976296,1086
3286.8229749253996,1087
3288.4976557197333,1041
3290.172078605655,1103
3291.846243908266,1043
3293.5201519527463,1067
3295.193803064357,1047
3296.8671975684374,1081
3298.5403357904024,1081
3300.21321805575,1076
3301.8858446900567,1072
3303.558216018975,1092
3305.23033236824,1098
3306.9021940636603,1103
3308.57380143113,1066
3310.2451547966184,1072
3311.916254486174,1074
3313.5871008259246,1046
3315.2576941420766,1034
3316.9280347609147,1105
3318.5981230088046,1070
3320.2679592121895,1063
3321.9375436975924,1115
3323.606876791612,1078
3325.27595882093,1071
3326.944790112305,1068
3328.6133709925753,1035
3330.2817017886573,1053
3331.949782827547,1035
3333.617614436319,1041
3335.2851969421245,1055
3336.952530672199,1050
3338.619615953853,1034
3340.286453114475,1039
3341.9530424815357,1057
3343.619384382583,1107
3345.2854791452437,1083
3346.951327097224,1056
3348.6169285663073,1099
3350.2822838803577,1080
3351.947393367319,1057
3353.61225735521,1064
3355.2768761721345,1101
3356.9412501462693,1122
3358.605379605873,1122
3360.2692648792827,1102
3361.9329062949146,1081
3363.596304181263,993
