CollectionTime,6/26/2024 2:20:06 PM
ExposureUsed,3
CalibratedSpectrum
-962.7078968117929,463
-959.9714848408522,503
-957.2358232597828,484
-954.5009119013725,519
-951.7667505983302,521
-949.0333391832855,522
-946.3006774887896,508
-943.5687653473143,514
-940.837602591253,522
-938.1071890529199,512
-935.3775245645503,528
-932.6486089583007,522
-929.9204420662485,549
-927.1930237203925,536
-924.4663537526524,528
-921.7404319948689,499
-919.0152582788041,522
-916.2908324361409,577
-913.5671542984834,549
-910.8442236973568,546
-908.1220404642074,545
-905.4006044304027,538
-902.679915427231,514
-899.959973285902,550
-897.2407778375464,548
-894.5223289132158,523
-891.8046263438832,524
-889.0876699604426,474
-886.3714595937089,516
-883.6559950744183,486
-880.9412762332282,486
-878.2273029007168,480
-875.5140749073835,488
-872.8015920836489,500
-870.0898542598545,515
-867.3788612662631,472
-864.6686129330585,474
-861.9591090903457,483
-859.2503495681506,476
-856.5423341964203,484
-853.8350628050229,503
-851.1285352237478,503
-848.4227512823054,478
-845.7177108103272,494
-843.0134136373656,499
-840.3098595928943,488
-837.6070485063082,496
-834.9049802069229,534
-832.2036545239757,531
-829.5030712866244,507
-826.8032303239481,497
-824.1041314649472,498
-821.4057745385428,497
-818.7081593735775,493
-816.0112857988148,524
-813.3151536429393,511
-810.6197627345566,494
-807.9251129021936,482
-805.2312039742981,499
-802.5380357792392,477
-799.8456081453069,499
-797.1539209007124,511
-794.462973873588,487
-791.772766891987,509
-789.083299783884,484
-786.3945723771743,517
-783.7065844996748,495
-781.0193359791231,489
-778.3328266431781,497
-775.6470563194197,518
-772.9620248353489,516
-770.2777320183878,506
-767.5941776958798,507
-764.9113616950891,538
-762.2292838432011,496
-759.5479439673222,519
-756.8673418944801,536
-754.1874774516235,515
-751.5083504656222,491
-748.8299607632671,502
-746.15230817127,508
-743.475392516264,500
-740.7992136248035,544
-738.1237713233636,516
-735.4490654383407,514
-732.7750957960521,509
-730.1018622227365,493
-727.4293645445534,487
-724.7576025875837,499
-722.0865761778291,522
-719.4162851412126,532
-716.7467293035781,513
-714.0779084906909,585
-711.409822528237,569
-708.7424712418238,561
-706.0758544569796,518
-703.4099719991541,541
-700.7448236937178,539
-698.0804093659622,573
-695.4167288411002,517
-692.7537819442656,525
-690.0915685005134,507
-687.4300883348199,520
-684.7693412720819,532
-682.1093271371178,569
-679.4500457546669,547
-676.7914969493897,547
-674.1336805458676,612
-671.4765963686034,600
-668.8202442420206,538
-666.1646239904642,577
-663.5097354382001,552
-660.8555784094151,530
-658.2021527282176,571
-655.5494582186366,610
-652.8974947046223,615
-650.2462620100463,556
-647.5957599587009,634
-644.9459883742998,582
-642.2969470804776,595
-639.6486359007902,572
-637.0010546587141,587
-634.3542031776476,571
-631.7080812809096,577
-629.0626887917401,567
-626.4180255333008,551
-623.7740913286734,575
-621.1308860008619,556
-618.4884093727904,578
-615.8466612673046,548
-613.2056415071715,556
-610.5653499150785,560
-607.9257863136347,586
-605.28695052537,578
-602.6488423727357,588
-600.0114616781036,579
-597.3748082637674,604
-594.7388819519412,644
-592.1036825647604,621
-589.4692099242818,604
-586.8354638524829,572
-584.2024441712624,589
-581.5701507024403,580
-578.9385832677575,580
-576.3077416888759,622
-573.6776257873787,595
-571.0482353847704,595
-568.4195703024757,618
-565.7916303618415,634
-563.164415384135,631
-560.5379251905453,604
-557.9121596021815,597
-555.2871184400748,624
-552.6628015251767,570
-550.0392086783606,619
-547.4163397204204,619
-544.794194472071,601
-542.1727727539491,642
-539.5520743866118,659
-536.9320991905377,674
-534.3128469861261,702
-531.6943175936979,717
-529.0765108334947,770
-526.4594265256793,867
-523.8430644903358,959
-521.2274245474689,1149
-518.612506517005,1235
-515.9983102187913,1348
-513.3848354725959,1560
-510.77208209810846,1855
-508.16004991493924,2133
-505.5487387426199,2406
-502.9381484006032,2434
-500.3282787082628,2338
-497.71912948489364,2272
-495.1107005497117,1973
-492.5029917218539,1640
-489.8960028203786,1320
-487.28973366426493,1091
-484.68418407241325,964
-482.07935386364494,953
-479.47524285670266,895
-476.87185087025,901
-474.2691777228715,927
-471.66722323307334,856
-469.0659872192821,814
-466.4654694998459,820
-463.86566989303384,813
-461.26658821703614,773
-458.66822428996414,755
-456.07057792985,777
-453.4736489546475,762
-450.877437182231,794
-448.28194243039627,803
-445.68716451686,752
-443.09310325926003,777
-440.49975847515555,749
-437.9071299820263,769
-435.31521759727354,726
-432.72402113821954,732
-430.13354042210767,801
-427.5437752661022,822
-424.95472548728867,870
-422.36639090267386,853
-419.7787713291855,872
-417.1918665836721,851
-414.60567648290385,871
-412.0202008435715,848
-409.4354394822874,824
-406.8513922155845,811
-404.26805885991723,807
-401.685439231661,854
-399.103533147112,808
-396.522340422488,832
-393.9418608739278,905
-391.3620943174908,937
-388.7830405691583,909
-386.2046994448317,865
-383.6270707603344,796
-381.05015433141045,753
-378.473949973725,721
-375.8984575028645,687
-373.32367673433623,634
-370.74960748356875,620
-368.1762495659117,592
-365.60360279663576,571
-363.03166699093265,559
-360.4604419639154,541
-357.8899275306178,510
-355.32012350599507,514
-352.7510297049233,511
-350.1826459421999,505
-347.61497203254316,536
-345.04800779059235,520
-342.4817530309082,513
-339.91620756797226,519
-337.35137121618743,530
-334.7872437898774,526
-332.22382510328725,497
-329.66111497058273,518
-327.09911320585127,534
-324.53781962310075,536
-321.9772340362607,544
-319.4173562591816,593
-316.8581861056348,598
-314.2997233893127,610
-311.7419679238294,601
-309.1849195227194,574
-306.62857799943856,553
-304.0729431673641,537
-301.51801483979375,527
-298.963792829947,531
-296.41027695096386,542
-293.85746701590574,539
-291.3053628377552,553
-288.7539642294155,556
-286.2032710037115,581
-283.65328297338897,573
-281.1039999511146,603
-278.5554217494762,684
-276.007548180983,655
-273.4603790580651,629
-270.9139141930734,655
-268.3681533982807,670
-265.8230964858798,614
-263.27874326798565,646
-260.7350935566336,691
-258.1921471637804,751
-255.6499039013039,773
-253.10836358100266,712
-250.56752601459698,673
-248.02739101372765,762
-245.48795838995704,795
-242.94922795476816,772
-240.41119951956557,733
-237.8738728956746,803
-235.33724789434166,866
-232.80132432673452,984
-230.2661020039418,896
-227.73158073697357,788
-225.19776033676033,790
-222.66464061415422,809
-220.1322213799284,752
-217.60050244477725,755
-215.06948361931552,813
-212.53916471408013,796
-210.00954553952818,703
-207.48062590603843,751
-204.9524056239104,769
-202.4248845033651,801
-199.8980623545441,750
-197.37193898751036,751
-194.84651421224817,797
-192.32178783866232,847
-189.79775967657952,826
-187.27442953574644,785
-184.7517972258321,901
-182.2298625564256,908
-179.7086253370378,920
-177.18808537710026,1011
-174.66824248596583,1111
-172.14909647290835,1055
-169.6306471471229,917
-167.11289431772548,858
-164.59583779375328,922
-162.07947738416453,905
-159.5638128978386,933
-157.04884414357605,1029
-154.53457093009854,1098
-152.02099306604828,954
-149.50811035998936,1019
-146.99592262040665,1043
-144.48442965570587,1117
-141.97363127421409,1051
-139.46352728417958,981
-136.95411749377126,1068
-134.44540171107985,1160
-131.93737974411636,1133
-129.43005140081357,1190
-126.92341648902493,1313
-124.41747481652521,1278
-121.91222619101006,1319
-119.40767042009657,1194
-116.90380731132257,1109
-114.40063667214702,1174
-111.8981583099503,1458
-109.3963720320337,1467
-106.89527764561933,1270
-104.39487495785067,1272
-101.89516377579241,1546
-99.39614390642998,1524
-96.89781515667039,1608
-94.40017733334128,1892
-91.90323024319173,1754
-89.40697369289148,1642
-86.91140748903172,1365
-84.41653143812482,1492
-81.92234534660395,1685
-79.42884902082358,1837
-76.93604226705907,1755
-74.4439248915071,1689
-71.95249670028534,1684
-69.46175749943245,1976
-66.97170709490854,2106
-64.48234529259423,2336
-61.99367189829195,2271
-59.50568671772464,2389
-57.01838955653636,2707
-54.53178022029283,2448
-52.045858514480074,2849
-49.560624244506016,3153
-47.07607721569923,3144
-44.59221723330904,3064
-42.10904410250669,2876
-39.62655762838392,3566
-37.14475761595372,4172
-34.66364387015028,4522
-32.18321619582866,5145
-29.70347439776515,5730
-27.224418280657005,7361
-24.74604764912317,9902
-22.26836230770266,14569
-19.7913620608565,24113
-17.315046712966478,36173
-14.83941606833514,40184
-12.36446993118659,65040
-9.89020810566592,65040
-7.416630395839093,65040
-4.94373660569363,65040
-2.471526539137585,65040
-6.821210263296962E-13,65040
2.47084320796705,65040
4.941003281093458,65040
7.410480415786196,65040
9.879274808531363,65040
12.347386655893956,65040
14.814816154518212,65040
17.28156350112681,65040
19.74762889252179,65040
22.21301252558385,65040
24.67771459727237,65040
27.141735304626195,55201
29.605074844762612,18208
32.06773341487792,13281
34.52971121224755,9389
36.99100843422559,8934
39.45162527824516,8565
41.91156194181792,9020
44.370818622535126,9667
46.82939551806646,8970
49.287292826160524,8295
51.74451074464503,7299
54.201049471426245,4486
56.65690920448981,3210
59.112090141899785,3076
61.56659248179983,3130
64.02041642241159,3278
66.4735621620365,2766
68.92602989905402,2077
71.37781983192338,2012
73.82893215918205,2774
76.27936707944684,2815
78.72912479141326,2953
81.17820549385567,2869
83.62660938562783,2797
86.07433666566146,2601
88.5213875329681,2830
90.96776218663751,2593
93.41346082583925,2643
95.85848364982041,2012
98.30283085790859,1487
100.7465026495089,1586
103.18949922410604,2033
105.63182078126385,1822
108.07346752062438,1733
110.51443964190923,1904
112.95473734491827,1629
115.39436082953114,1479
117.83331029570547,1644
120.27158594347827,2041
122.7091879729652,1536
125.1461165843615,1327
127.58237197794062,1363
130.01795435405518,1186
132.4528639131364,1171
134.88710085569494,1444
137.32066538231982,1460
139.75355769367923,1384
142.1857779905207,1234
144.61732647366978,1073
147.04820334403132,1063
149.47840880258934,1208
151.90794305040674,1300
154.33680628862487,1274
156.76499871846443,1389
159.19252054122433,1476
161.61937195828352,1345
164.04555317109896,1334
166.47106438120693,1594
168.89590579022217,1694
171.320077599839,1670
173.7435800118302,1663
176.16641322804742,1647
178.58857745042144,1793
181.01007288096173,1917
183.43089972175687,1965
185.85105817497413,1933
188.27054844285988,1935
190.6893707277394,2040
193.10752523201643,1933
195.5250121581745,1977
197.9418317087751,2086
200.3579840864594,2079
202.7734694939469,1905
205.18828813403627,1908
207.6024402096051,1986
210.01592592360964,2019
212.42874547908548,1934
214.84089907914665,1878
217.2523869269868,2010
219.66320922587727,2048
222.0733661791695,1976
224.48285799029293,2015
226.8916848627572,2115
229.29984700014882,2216
231.7073446061355,2115
234.11417788446204,2104
236.520347038953,2117
238.92585227351185,2267
241.33069379212054,2319
243.73487179884035,2246
246.1383864978112,2202
248.541238093252,2051
250.9434267894609,2158
253.34495279081432,2202
255.74581630176783,2149
258.1460175268563,2277
260.54555667069314,2239
262.9444339379703,2200
265.3426495334594,2148
267.7402036620107,2147
270.1370965285529,2193
272.53332833809407,2206
274.9288992957214,2223
277.32380960660055,2205
279.718059475976,2143
282.1116491091717,2192
284.5045787115897,2244
286.89684848871195,2287
289.2884586460981,2319
291.67940938938807,2234
294.0697009242996,2216
296.4593334566299,2263
298.84830719225477,2233
301.23662233712923,2213
303.6242790972866,2169
306.01127767884,2116
308.39761828798066,2188
310.78330113097934,2132
313.16832641418534,2087
315.5526943440269,2061
317.9364051270112,1984
320.3194589697242,1974
322.70185607883093,1961
325.0835966610754,2077
327.4646809232805,1922
329.8451090723478,1967
332.2248813152577,2061
334.6039978590701,1997
336.9824589109231,1961
339.36026467803447,1921
341.7374153677,1867
344.113911187295,1840
346.48975234427337,1861
348.8649390461686,1839
351.2394715005918,1824
353.61334991523415,1877
355.9865744978655,1849
358.35914545633375,1859
360.73106299856715,1876
363.10232733257146,1879
365.47293866643247,1798
367.84289720831396,1817
370.2122031664593,1795
372.5808567491905,1783
374.9488581649083,1837
377.31620762209275,1820
379.6829053293021,1765
382.0489514951745,1840
384.4143463284262,1832
386.7790900378528,1763
389.14318283232853,1747
391.50662492080653,1768
393.86941651231916,1693
396.23155781597745,1703
398.5930490409713,1754
400.9538903965696,1753
403.3140820921202,1715
405.6736243370498,1701
408.03251734086336,1733
410.3907613131465,1678
412.74835646356166,1704
415.10530300185144,1670
417.4616011378372,1756
419.81725108141893,1670
422.1722530425758,1746
424.5266072313656,1757
426.880313857925,1725
429.2333731324701,1741
431.58578526529516,1639
433.9375504667738,1690
436.2886689473588,1656
438.63914091758113,1619
440.9889665880513,1543
443.33814616945835,1666
445.68667987257015,1624
448.03456790823395,1611
450.3818104873759,1566
452.72840782100013,1581
455.07436012019105,1586
457.41966759611057,1638
459.7643304600007,1569
462.10834892318155,1613
464.4517231970525,1637
466.79445349309174,1710
469.1365400228566,1650
471.4779829979826,1639
473.81878263018564,1619
476.15893913125876,1630
478.4984527130747,1709
480.8373235875855,1742
483.17555196682144,1812
485.5131380628919,1777
487.8500820879857,1902
490.1863842543697,2012
492.52204477439034,2081
494.8570638604725,2287
497.1914417251204,2673
499.52517858091653,3122
501.85827464052306,3670
504.19073011668036,4243
506.5225452222086,4532
508.85372017000566,4652
511.18425517304956,4598
513.514150444396,4623
515.8434061971808,4742
518.1720226446176,4855
520.4999999999999,4487
522.8273384766991,4613
525.1540382881666,4544
527.480099647932,4317
529.8055227696037,3650
532.1303078668694,2578
534.454455153496,2032
536.777964843328,1814
539.1008371502907,1688
541.4230722883866,1664
543.744670471698,1617
546.0656319143858,1641
548.3859568306899,1500
550.7056454349294,1560
553.0246979415016,1574
555.3431145648834,1524
557.6608955196306,1495
559.978041020377,1451
562.2945512818363,1532
564.6104265188006,1443
566.9256669461412,1444
569.2402727788082,1500
571.5542442318302,1528
573.8675815203156,1446
576.1802848594508,1452
578.4923544645015,1418
580.8037905508126,1457
583.114593333807,1418
585.4247630289875,1416
587.7342998519354,1427
590.0432040183106,1483
592.3514757438526,1483
594.6591152443794,1390
596.9661227357875,1441
599.2724984340531,1482
601.578242555231,1482
603.8833553154542,1512
606.1878369309362,1480
608.4916876179676,1606
610.7949075929192,1597
613.0974970722403,1437
615.3994562724587,1480
617.7007854101818,1466
620.0014847020951,1452
622.3015543649641,1429
624.6009946156324,1457
626.8998056710224,1439
629.1979877481361,1410
631.4955410640538,1492
633.7924658359349,1431
636.0887622810175,1466
638.3844306166192,1489
640.6794710601358,1429
642.9738838290426,1504
645.2676691408932,1471
647.5608272133207,1476
649.853358264037,1476
652.1452625108324,1444
654.4365401715764,1457
656.7271914642178,1487
659.0172166067838,1461
661.3066158173809,1494
663.5953893141935,1494
665.8835373154867,1504
668.1710600396028,1532
670.4579577049639,1468
672.7442305300709,1500
675.0298787335033,1532
677.3149025339197,1474
679.599302150058,1562
681.8830778007342,1493
684.1662297048437,1439
686.4487580813608,1499
688.7306631493387,1445
691.0119451279091,1474
693.2926042362834,1485
695.5726406937516,1467
697.8520547196814,1475
700.1308465335215,1472
702.4090163547982,1492
704.6865644031171,1459
706.9634908981619,1453
709.2397960596965,1487
711.5154801075631,1474
713.7905432616823,1415
716.0649857420548,1504
718.3388077687592,1518
720.612009561953,1471
722.8845913418733,1421
725.1565533288352,1507
727.427895743234,1521
729.6986188055427,1484
731.9687227363137,1516
734.238207756178,1506
736.5070740858458,1504
738.7753219461066,1472
741.0429515578281,1521
743.3099631419569,1517
745.5763569195191,1524
747.8421331116193,1502
750.1072919394409,1530
752.3718336242467,1500
754.6357583873777,1461
756.8990664502545,1502
759.1617580343765,1524
761.423833361321,1527
763.6852926527457,1437
765.9461361303862,1551
768.206364016058,1523
770.4659765316536,1492
772.7249738991469,1492
774.9833563405886,1516
777.2411240781092,1599
779.4982773339183,1558
781.7548163303044,1617
784.010741289634,1565
786.2660524343538,1658
788.5207499869881,1540
790.7748341701416,1542
793.0283052064964,1553
795.2811633188143,1544
797.5334087299362,1633
799.7850416627813,1575
802.0360623403484,1540
804.2864709857143,1568
806.5362678220353,1495
808.7854530725468,1530
811.0340269605625,1555
813.2819897094754,1544
815.5293415427581,1562
817.77608268396,1569
820.0222133567116,1565
822.2677337847211,1584
824.5126441917765,1525
826.7569448017433,1531
829.0006358385675,1572
831.2437175262731,1550
833.4861900889629,1517
835.7280537508192,1596
837.9693087361026,1544
840.2099552691533,1489
842.4499935743896,1520
844.689423876309,1484
846.9282463994886,1524
849.1664613685833,1496
851.4040690083276,1553
853.6410695435349,1508
855.877463199097,1479
858.1132501999847,1522
860.3484307712487,1569
862.5830051380175,1556
864.8169735254988,1507
867.0503361589791,1505
869.2830932638243,1489
871.5152450654786,1559
873.7467917894654,1525
875.9777336613873,1543
878.2080709069252,1606
880.4378037518389,1493
882.666932421968,1600
884.8954571432301,1525
887.1233781416219,1582
889.3506956432192,1549
891.5774098741766,1562
893.803521060728,1553
896.0290294291852,1575
898.2539352059397,1535
900.4782386174619,1561
902.7019398903011,1586
904.925039251085,1606
907.147536926521,1637
909.3694331433943,1668
911.59072812857,1603
913.8114221089921,1657
916.0315153116827,1595
918.2510079637437,1615
920.4699002923547,1593
922.6881925247761,1633
924.905884888345,1713
927.1229776104793,1633
929.3394709186747,1619
931.555365040506,1668
933.7706602036275,1624
935.9853566357709,1612
938.1994545647489,1605
940.4129542184515,1632
942.6258558248488,1661
944.8381596119883,1624
947.0498658079974,1551
949.2609746410825,1620
951.4714863395287,1556
953.6814011316998,1582
955.8907192460387,1576
958.0994409110671,1651
960.3075663553858,1518
962.5150958076741,1548
964.7220294966913,1560
966.928367651274,1518
969.1341105003388,1467
971.3392582728806,1537
973.5438111979742,1494
975.747769504772,1466
977.9511334225061,1409
980.153903180487,1463
982.3560790081052,1511
984.5576611348289,1439
986.7586497902058,1430
988.9590452038618,1451
991.158847605503,1409
993.3580572249133,1419
995.5566742919558,1374
997.7546990365728,1379
999.952131688785,1365
1002.1489724786926,1404
1004.3452216364743,1354
1006.5408793923874,1327
1008.7359459767691,1259
1010.9304216200343,1289
1013.1243065526781,1224
1015.3176010052733,1294
1017.510305208472,1247
1019.7024193930064,1242
1021.8939437896848,1208
1024.0848786293977,1231
1026.2752241431122,1178
1028.4649805618747,1193
1030.6541481168115,1219
1032.842727039127,1205
1035.0307175601051,1181
1037.2181199111074,1150
1039.4049343235752,1212
1041.591161029029,1178
1043.7768002590683,1148
1045.9618522453698,1211
1048.1463172196918,1188
1050.3301954138697,1221
1052.513487059818,1184
1054.69619238953,1203
1056.8783116350783,1142
1059.0598450286152,1153
1061.2407928023704,1156
1063.4211551886528,1189
1065.6009324198508,1171
1067.780124728432,1144
1069.9587323469414,1164
1072.1367555080046,1168
1074.314194444325,1156
1076.4910493886855,1115
1078.667320573947,1119
1080.843008233051,1075
1083.0181125990161,1138
1085.1926339049414,1148
1087.3665723840027,1133
1089.5399282694575,1117
1091.7127017946405,1117
1093.8848931929647,1090
1096.0565026979243,1114
1098.2275305430899,1107
1100.3979769621128,1133
1102.567842188722,1082
1104.737126456726,1113
1106.9058300000124,1091
1109.0739530525475,1101
1111.2414958483764,1132
1113.4084586216231,1075
1115.5748416064907,1059
1117.7406450372605,1111
1119.9058691482942,1168
1122.0705141740304,1133
1124.2345803489884,1091
1126.3980679077658,1061
1128.5609770850388,1110
1130.7233081155623,1047
1132.8850612341707,1021
1135.0462366757774,1088
1137.2068346753745,1067
1139.3668554680326,1124
1141.526299288901,1080
1143.68516637321,1108
1145.8434569562655,1106
1148.001171273455,1060
1150.158309560244,1061
1152.3148720521767,1068
1154.470858984876,1116
1156.626270594044,1065
1158.7811071154629,1027
1160.9353687849912,1097
1163.089055838569,1066
1165.242168512213,1110
1167.3947070420209,1040
1169.5466716641677,1076
1171.6980626149075,1010
1173.8488801305748,1083
1175.9991244475814,1061
1178.1487958024186,1067
1180.2978944316555,1070
1182.4464205719428,1053
1184.5943744600072,1024
1186.7417563326567,1040
1188.8885664267755,1019
1191.0348049793297,994
1193.1804722273619,1056
1195.325568407995,1076
1197.4700937584303,1052
1199.614048515948,1041
1201.7574329179074,1101
1203.900247201746,1081
1206.042491604982,1040
1208.1841663652099,1037
1210.3252717201053,1004
1212.465807907422,1062
1214.6057751649923,1043
1216.7451737307279,1040
1218.8840038426192,1065
1221.0222657387353,1085
1223.1599596572241,1057
1225.2970858363137,1056
1227.4336445143094,1032
1229.5696359295966,999
1231.705060320639,1049
1233.8399179259786,1008
1235.9742089842384,1057
1238.107933734118,1053
1240.2410924143974,1044
1242.373685263935,1094
1244.5057125216676,1006
1246.6371744266116,1070
1248.7680712178621,1045
1250.898403134593,1058
1253.028170416058,1057
1255.1573733015875,1073
1257.2860120305932,1050
1259.4140868425648,1055
1261.54159797707,1016
1263.6685456737569,1059
1265.7949301723515,1013
1267.9207517126597,1097
1270.046010534565,1040
1272.1707068780306,1044
1274.2948409830983,1081
1276.4184130898889,1063
1278.541423438603,1033
1280.6638722695184,1069
1282.785759822993,1041
1284.9070863394636,1018
1287.0278520594447,1047
1289.1480572235314,1036
1291.2677020723963,1083
1293.3867868467923,1044
1295.5053117875495,1082
1297.623277135579,1112
1299.740683131868,1082
1301.8575300174857,1098
1303.973818033578,1047
1306.0895474213703,1106
1308.2047184221678,1039
1310.3193312773528,1027
1312.4333862283888,1039
1314.5468835168163,1032
1316.659823384255,1049
1318.7722060724045,1082
1320.8840318230418,1052
1322.9953008780249,1078
1325.1060134792888,1043
1327.2161698688478,1036
1329.3257702887959,1049
1331.4348149813054,1089
1333.5433041886276,1042
1335.6512381530933,1081
1337.7586171171101,1077
1339.8654413231675,1091
1341.9717110138317,1024
1344.0774264317488,1086
1346.1825878196432,1075
1348.2871954203192,1065
1350.3912494766587,1051
1352.4947502316231,1026
1354.5976979282532,1046
1356.7000928096686,1081
1358.8019351190665,1022
1360.9032250997243,1031
1363.0039629949988,1056
1365.1041490483235,1060
1367.2037835032133,1055
1369.3028666032606,1086
1371.401398592137,1042
1373.4993797135926,1079
1375.5968102114575,1108
1377.6936903296396,1086
1379.7900203121262,1094
1381.8858004029835,1066
1383.9810308463561,1103
1386.075711886469,1080
1388.1698437676241,1077
1390.2634267342032,1073
1392.356461030667,1085
1394.4489469015557,1068
1396.5408845914872,1113
1398.6322743451592,1123
1400.7231164073469,1093
1402.813411022907,1050
1404.903158436773,1067
1406.9923588939578,1062
1409.0810126395531,1046
1411.1691199187303,1105
1413.2566809767386,1039
1415.343696058907,1052
1417.4301654106425,1043
1419.5160892774315,1042
1421.6014679048399,1102
1423.6863015385125,1080
1425.7705904241707,1062
1427.8543348076178,1073
1429.9375349347342,1115
1432.0201910514802,1095
1434.102303403894,1073
1436.1838722380944,1078
1438.2648978002767,1050
1440.3453803367174,1113
1442.4253200937692,1072
1444.5047173178677,1047
1446.5835722555234,1083
1448.6618851533285,1083
1450.739656257952,1021
1452.8168858161434,1101
1454.8935740747306,1067
1456.96972128062,1081
1459.045327680797,1106
1461.120393522327,1063
1463.1949190523528,1098
1465.2689045180973,1082
1467.3423501668608,1082
1469.415256246024,1073
1471.4876230030463,1071
1473.559450685465,1061
1475.6307395408976,1022
1477.7014898170391,1124
1479.771701761665,1064
1481.8413756226287,1092
1483.9105116478618,1061
1485.9791100853772,1053
1488.0471711832643,1101
1490.1146951896926,1075
1492.1816823529098,1108
1494.2481329212433,1064
1496.3140471430984,1069
1498.3794252669609,1088
1500.4442675413939,1081
1502.5085742150404,1040
1504.572345536622,1075
1506.6355817549388,1102
1508.6982831188702,1053
1510.7604498773744,1051
1512.8220822794883,1095
1514.8831805743293,1045
1516.9437450110909,1067
1519.003775839048,1066
1521.0632733075522,1061
1523.1222376660367,1079
1525.1806691640113,1046
1527.2385680510652,1126
1529.2959345768668,1109
1531.3527689911643,1066
1533.4090715437833,1072
1535.4648424846291,1079
1537.5200820636855,1093
1539.5747905310159,1063
1541.6289681367616,1086
1543.6826151311434,1051
1545.7357317644614,1069
1547.7883182870937,1091
1549.8403749494987,1048
1551.8919020022113,1095
1553.9428996958477,1035
1555.9933682811015,1092
1558.0433080087469,1070
1560.0927191296346,1022
1562.1416018946961,1070
1564.1899565549415,1011
1566.2377833614592,1123
1568.2850825654164,1064
1570.3318544180606,1039
1572.3780991707158,1061
1574.423817074788,1074
1576.4690083817595,1078
1578.5136733431923,1088
1580.5578122107272,1039
1582.601425236085,1117
1584.6445126710646,1082
1586.6870747675434,1082
1588.7291117774776,1078
1590.7706239529034,1092
1592.8116115459347,1032
1594.8520748087658,1054
1596.8920139936686,1086
1598.9314293529933,1044
1600.9703211391711,1124
1603.008689604711,1090
1605.0465350022005,1099
1607.0838575843068,1077
1609.1206576037753,1058
1611.1569353134305,1074
1613.1926909661765,1091
1615.2279248149953,1073
1617.2626371129481,1113
1619.2968281131757,1098
1621.3304980688963,1077
1623.3636472334088,1075
1625.39627586009,1106
1627.428384202396,1082
1629.459972513861,1081
1631.4910410480993,1114
1633.5215900588028,1098
1635.551619799744,1089
1637.5811305247717,1096
1639.6101224878166,1135
1641.6385959428862,1084
1643.6665511440683,1098
1645.693988345528,1106
1647.7209078015112,1074
1649.7473097663405,1044
1651.7731944944203,1085
1653.7985622402307,1053
1655.823413258333,1064
1657.847747803366,1083
1659.8715661300494,1126
1661.8948684931793,1084
1663.9176551476316,1092
1665.9399263483624,1073
1667.9616823504057,1093
1669.982923408873,1079
1672.0036497789574,1103
1674.0238617159293,1046
1676.043559475138,1067
1678.0627433120121,1079
1680.081413482059,1099
1682.0995702408654,1094
1684.117213844096,1065
1686.134344547495,1066
1688.1509626068864,1093
1690.1670682781705,1102
1692.182661817329,1050
1694.1977434804217,1068
1696.2123135235875,1088
1698.226372203043,1068
1700.2399197750851,1085
1702.2529564960905,1077
1704.2654826225112,1076
1706.277498410882,1180
1708.2890041178139,1147
1710.2999999999988,1119
1712.3104863142066,1135
1714.3204633172854,1126
1716.329931266163,1127
1718.3388904178469,1107
1720.3473410294214,1076
1722.3552833580516,1099
1724.3627176609807,1142
1726.3696441955308,1099
1728.3760632191033,1100
1730.3819749891782,1094
1732.3873797633146,1074
1734.3922777991502,1085
1736.3966693544012,1077
1738.4005546868639,1058
1740.4039340544127,1072
1742.406807715001,1069
1744.4091759266616,1030
1746.4110389475054,1060
1748.4123970357223,1057
1750.413250449582,1109
1752.4135994474318,1074
1754.4134442876993,1078
1756.4127852288902,1094
1758.4116225295893,1115
1760.4099564484595,1066
1762.407787244244,1091
1764.405115175764,1044
1766.4019405019203,1055
1768.3982634816916,1108
1770.3940843741357,1064
1772.3894034383907,1077
1774.3842209336717,1104
1776.378537119274,1100
1778.372352254571,1117
1780.3656665990156,1042
1782.3584804121397,1058
1784.3507939535534,1153
1786.3426074829463,1145
1788.3339212600863,1104
1790.3247355448211,1112
1792.3150505970766,1103
1794.3048666768573,1059
1796.2941840442477,1043
1798.2830029594106,1061
1800.2713236825884,1034
1802.2591464741004,1103
1804.2464715943465,1120
1806.2332993038058,1097
1808.2196298630352,1103
1810.2054635326708,1077
1812.190800573428,1115
1814.175641246101,1123
1816.1599858115628,1060
1818.1438345307652,1114
1820.127187664738,1121
1822.1100454745924,1086
1824.092408221516,1085
1826.0742761667766,1135
1828.055649571721,1104
1830.0365286977735,1083
1832.0169138064398,1110
1833.9968051593014,1112
1835.9762030180214,1063
1837.9551076443408,1050
1839.9335193000788,1091
1841.9114382471344,1050
1843.888864747485,1055
1845.8657990631878,1130
1847.842241456378,1147
1849.8181921892697,1106
1851.7936515241558,1105
1853.7686197234098,1115
1855.7430970494815,1098
1857.7170837649014,1069
1859.6905801322787,1095
1861.6635864143004,1087
1863.6361028737338,1057
1865.608129773424,1074
1867.5796673762961,1095
1869.5507159453537,1139
1871.521275743678,1141
1873.4913470344313,1085
1875.4609300808534,1105
1877.4300251462632,1068
1879.3986324940588,1127
1881.366752387717,1079
1883.3343850907936,1115
1885.3015308669228,1111
1887.268189979819,1159
1889.2343626932739,1082
1891.2000492711595,1131
1893.1652499774254,1090
1895.1299650761011,1102
1897.0941948312952,1122
1899.0579395071945,1125
1901.0211993680641,1079
1902.98397467825,1105
1904.9462657021745,1080
1906.9080727043415,1112
1908.869395949332,1065
1910.8302357018065,1128
1912.790592226504,1072
1914.7504657882428,1057
1916.7098566519212,1090
1918.6687650825133,1149
1920.6271913450764,1116
1922.5851357047422,1102
1924.5425984267245,1056
1926.499579776314,1079
1928.4560800188833,1154
1930.4120994198802,1106
1932.367638244833,1105
1934.32269675935,1134
1936.2772752291175,1091
1938.231373919899,1111
1940.1849930975404,1123
1942.1381330279637,1105
1944.0907939771696,1129
1946.0429762112412,1082
1947.9946799963363,1144
1949.9459055986945,1100
1951.896653284633,1076
1953.8469233205478,1094
1955.7967159729142,1072
1957.7460315082863,1108
1959.6948701932974,1084
1961.6432322946594,1097
1963.5911180791632,1108
1965.5385278136787,1116
1967.4854617651545,1078
1969.4319202006182,1105
1971.377903387176,1077
1973.3234115920136,1106
1975.268445082395,1100
1977.2130041256642,1087
1979.1570889892423,1077
1981.1006999406304,1170
1983.04383724741,1110
1984.986501177238,1065
1986.928691997853,1067
1988.8704099770712,1115
1990.811655382789,1072
1992.7524284829801,1146
1994.692729545698,1062
1996.6325588390755,1082
1998.5719166313224,1121
2000.5108031907307,1107
2002.4492187856677,1126
2004.387163684583,1062
2006.3246381560011,1111
2008.2616424685298,1085
2010.1981768908527,1115
2012.1342416917332,1056
2014.069837140014,1123
2016.0049635046162,1090
2017.9396210545406,1057
2019.8738100588666,1084
2021.8075307867502,1094
2023.740783507431,1083
2025.6735684902228,1144
2027.6058860045214,1100
2029.5377363198004,1091
2031.4691197056118,1063
2033.4000364315875,1082
2035.3304867674374,1088
2037.260470982952,1069
2039.189989347998,1044
2041.1190421325232,1091
2043.047629606554,1103
2044.9757520401945,1131
2046.9034097036288,1079
2048.8306028671195,1083
2050.7573318010086,1084
2052.683596775716,1105
2054.609398061742,1109
2056.5347359296647,1091
2058.4596106501403,1102
2060.384022493906,1101
2062.3079717317764,1107
2064.231458634646,1077
2066.1544834734873,1127
2068.077046519352,1137
2069.99914804337,1112
2071.9207883167524,1137
2073.8419676107865,1134
2075.7626861968406,1115
2077.6829443463607,1113
2079.6027423308715,1058
2081.522080421977,1094
2083.440958891362,1117
2085.359378010786,1119
2087.2773380520907,1072
2089.194839287196,1102
2091.111881988101,1104
2093.0284664268825,1117
2094.9445928756973,1084
2096.86026160678,1058
2098.775472892446,1060
2100.690227005088,1061
2102.604524217178,1135
2104.5183648012676,1105
2106.431749029985,1029
2108.34467717604,1075
2110.2571495122206,1057
2112.169166311393,1117
2114.080727846503,1091
2115.9918343905747,1086
2117.902486216711,1088
2119.8126835980956,1085
2121.722426807987,1079
2123.6317161197285,1058
2125.5405518067364,1112
2127.448934142509,1142
2129.356863400624,1080
2131.264339854737,1121
2133.1713637785815,1110
2135.077935445972,1130
2136.9840551308002,1094
2138.889723107037,1112
2140.7949396487334,1093
2142.699705030018,1127
2144.6040195250994,1118
2146.507883408264,1086
2148.4112969538774,1112
2150.3142604363848,1136
2152.2167741303097,1100
2154.1188383102535,1063
2156.0204532508997,1086
2157.9216192270064,1115
2159.822336513414,1102
2161.7226053850413,1094
2163.622426116884,1113
2165.5217989840185,1116
2167.4207242616,1064
2169.319202224862,1076
2171.2172331491165,1087
2173.1148173097563,1093
2175.0119549822507,1045
2176.90864644215,1100
2178.8048919650823,1099
2180.7006918267534,1084
2182.596046302952,1060
2184.4909556695407,1157
2186.3854202024645,1108
2188.279440177746,1111
2190.173015871487,1127
2192.066147559868,1115
2193.958835519149,1099
2195.851080025667,1089
2197.7428813558417,1105
2199.6342397861667,1125
2201.5251555932186,1131
2203.415629053651,1087
2205.3056604441986,1086
2207.19525004167,1115
2209.084398122958,1088
2210.9731049650327,1089
2212.861370844941,1112
2214.749196039812,1147
2216.636580826851,1065
2218.523525483344,1093
2220.410030286655,1106
2222.296095514226,1100
2224.1817214435805,1112
2226.066908352319,1082
2227.951656518121,1091
2229.835966218746,1097
2231.71983773203,1098
2233.6032713358913,1129
2235.486267308324,1090
2237.3688259274036,1092
2239.2509474712824,1102
2241.132632218193,1088
2243.013880446447,1078
2244.8946924344323,1123
2246.7750684606203,1129
2248.6550088035574,1082
2250.534513741871,1110
2252.413583554265,1056
2254.292218519526,1094
2256.170418916517,1155
2258.0481850241786,1062
2259.925517121534,1088
2261.8024154876825,1094
2263.678880401803,1043
2265.5549121431536,1098
2267.430510991071,1082
2269.305677224971,1092
2271.180411124348,1093
2273.0547129687766,1116
2274.9285830379076,1080
2276.8020216114737,1113
2278.6750289692845,1086
2280.5476053912294,1130
2282.4197511572766,1045
2284.2914665474727,1071
2286.162751841943,1071
2288.0336073208937,1051
2289.904033264608,1081
2291.774029953448,1148
2293.6435976678554,1074
2295.5127366883517,1077
2297.381447295534,1071
2299.2497297700825,1110
2301.1175843927526,1125
2302.9850114443825,1121
2304.852011205885,1064
2306.7185839582553,1050
2308.5847299825664,1109
2310.4504495599676,1145
2312.3157429716925,1124
2314.1806104990483,1092
2316.0450524234247,1103
2317.9090690262888,1073
2319.772660589186,1127
2321.635827393742,1156
2323.498569721661,1153
2325.3608878547248,1095
2327.2227820747967,1132
2329.0842526638157,1105
2330.945299903803,1061
2332.805924076857,1096
2334.6661254651535,1091
2336.525904350951,1099
2338.3852610165827,1082
2340.244195744464,1089
2342.102708817088,1087
2343.9608005170253,1091
2345.8184711269287,1088
2347.675720929526,1097
2349.532550207628,1126
2351.38895924412,1114
2353.24494832197,1071
2355.100517724223,1091
2356.955667734004,1103
2358.810398634514,1099
2360.664710709037,1122
2362.5186042409337,1144
2364.3720795136437,1100
2366.225136810686,1056
2368.0777764156583,1077
2369.929998612237,1122
2371.7818036841777,1096
2373.633191915315,1128
2375.484163589562,1125
2377.3347189909114,1089
2379.184858403434,1096
2381.03458211128,1102
2382.8838903986775,1123
2384.732783549936,1101
2386.5812618494406,1084
2388.4293255816588,1114
2390.2769750311327,1075
2392.1242104824883,1091
2393.971032220427,1084
2395.8174405297295,1107
2397.6634356952563,1119
2399.509018001947,1105
2401.3541877348193,1093
2403.1989451789705,1103
2405.043290619576,1099
2406.8872243418905,1138
2408.730746631247,1084
2410.5738577730594,1113
2412.4165580528183,1107
2414.258847756095,1121
2416.100727168537,1090
2417.9421965758734,1100
2419.783256263912,1150
2421.623906518538,1127
2423.4641476257157,1146
2425.303979871491,1124
2427.143403541984,1176
2428.9824189233977,1114
2430.821026302012,1111
2432.6592259641866,1157
2434.497018196361,1140
2436.33440328505,1138
2438.171381516851,1139
2440.00795317844,1095
2441.844118556569,1089
2443.6798779380724,1151
2445.5152316098606,1112
2447.3501798589255,1130
2449.1847229723357,1143
2451.0188612372403,1137
2452.8525949408663,1098
2454.6859243705203,1062
2456.518849813587,1099
2458.3513715575314,1071
2460.183489889895,1063
2462.015205098301,1168
2463.8465174704493,1115
2465.67742729412,1111
2467.5079348571717,1114
2469.338040447542,1100
2471.1677443532476,1086
2472.9970468623833,1120
2474.825948263123,1108
2476.6544488437207,1155
2478.482548892508,1115
2480.310248697896,1104
2482.137548548374,1073
2483.9644487325118,1087
2485.790949538956,1066
2487.617051256433,1034
2489.44275417375,1071
2491.26805857979,1161
2493.0929647635157,1087
2494.917473013971,1128
2496.741583620276,1057
2498.5652968716304,1084
2500.3886130573137,1103
2502.2115324666834,1092
2504.0340553891765,1119
2505.856182114308,1144
2507.6779129316733,1103
2509.499248130945,1100
2511.3201880018764,1115
2513.140732834298,1060
2514.9608829181198,1073
2516.780638543331,1138
2518.6,1076
2520.418967578273,1112
2522.237541568376,1145
2524.0557222606144,1117
2525.8735099453706,1080
2527.6909049131086,1108
2529.507907454368,1109
2531.32451785977,1083
2533.140736420014,1105
2534.9565634258774,1071
2536.771999168218,1139
2538.5870439379714,1056
2540.4016980261526,1112
2542.2159617238544,1048
2544.02983532225,1064
2545.8433191125914,1074
2547.656413386209,1113
2549.4691184345115,1108
2551.2814345489874,1092
2553.093362021204,1074
2554.904901142808,1093
2556.716052205523,1065
2558.526815501153,1076
2560.3371913215824,1090
2562.147179958771,1068
2563.956781704761,1115
2565.7659968516705,1076
2567.5748256916986,1099
2569.3832685171224,1119
2571.1913256202984,1087
2572.9989972936614,1096
2574.806283829725,1098
2576.613185521084,1103
2578.4197026604074,1113
2580.2258355404483,1108
2582.031584454035,1097
2583.836949694077,1104
2585.6419315535613,1096
2587.4465303255533,1111
2589.2507463032002,1123
2591.0545797797245,1061
2592.8580310484303,1077
2594.6611004026995,1044
2596.463788135992,1068
2598.266094541849,1114
2600.0680199138874,1057
2601.869564545807,1066
2603.670728731383,1061
2605.4715127644704,1137
2607.2719169390048,1069
2609.071941548998,1072
2610.8715868885433,1108
2612.670853251811,1093
2614.469740933052,1092
2616.268250226594,1064
2618.0663814268455,1047
2619.864134828292,1069
2621.6615107255006,1100
2623.458509413115,1040
2625.2551311858597,1053
2627.0513763385347,1048
2628.8472451660223,1118
2630.6427379632833,1092
2632.4378550253564,1064
2634.232596647359,1144
2636.026963124488,1153
2637.8209547520187,1062
2639.6145718253065,1085
2641.407814639785,1028
2643.200683490966,1120
2644.9931786744414,1079
2646.7853004858807,1058
2648.577049221034,1067
2650.3684251757277,1092
2652.1594286458712,1125
2653.9500599274484,1131
2655.740319316525,1120
2657.5302071092437,1071
2659.3197236018286,1094
2661.10886909058,1074
2662.8976438718782,1089
2664.686048242183,1072
2666.4740824980327,1061
2668.2617469360443,1077
2670.0490418529134,1115
2671.8359675454153,1096
2673.622524310403,1105
2675.408712444811,1082
2677.1945322456495,1116
2678.979984010009,1128
2680.76506803506,1093
2682.5497846180497,1137
2684.334134056306,1103
2686.1181166472343,1105
2687.9017326883213,1103
2689.6849824771293,1072
2691.4678663113013,1075
2693.2503844885596,1086
2695.032537306705,1069
2696.8143250636167,1086
2698.5957480572542,1051
2700.3768065856534,1069
2702.1575009469316,1056
2703.937831439283,1072
2705.717798360982,1110
2707.4974020103837,1068
2709.276642685917,1049
2711.055520686095,1102
2712.834036309506,1070
2714.612189854819,1039
2716.389981620782,1062
2718.1674119062204,1091
2719.944481010041,1074
2721.721189231226,1030
2723.4975368688415,1058
2725.273524222027,1090
2727.0491515900053,1050
2728.824419272075,1080
2730.5993275676146,1089
2732.3738767760838,1066
2734.148067197016,1111
2735.921899130031,1094
2737.6953728748194,1052
2739.468488731156,1108
2741.2412469988926,1100
2743.0136479779617,1053
2744.785691968372,1048
2746.5573792702116,1063
2748.3287101836504,1093
2750.099685008934,1094
2751.870304046388,1075
2753.640567596418,1114
2755.4104759595057,1088
2757.1800294362156,1096
2758.949228327187,1059
2760.7180729331412,1119
2762.486563554877,1078
2764.254700493272,1056
2766.022484049284,1027
2767.789914523947,1096
2769.5569922183786,1080
2771.3237174337705,1088
2773.090090471394,1095
2774.8561116326036,1066
2776.6217812188274,1075
2778.3870995315756,1035
2780.1520668724356,1054
2781.9166835430747,1084
2783.6809498452394,1114
2785.444866080754,1139
2787.2084325515225,1070
2788.971649559527,1127
2790.73451740683,1056
2792.4970363955713,1116
2794.2592068279705,1081
2796.0210290063264,1070
2797.7825032330147,1076
2799.543629810493,1080
2801.304409041296,1073
2803.0648412280366,1056
2804.8249266734088,1138
2806.5846656801846,1084
2808.344058551212,1091
2810.1031055894246,1084
2811.8618070978273,1093
2813.6201633795085,1093
2815.378174737636,1075
2817.1358414754536,1085
2818.893163896285,1100
2820.6501423035334,1108
2822.4067770006814,1055
2824.1630682912883,1121
2825.9190164789957,1098
2827.6746218675207,1084
2829.429884760661,1083
2831.184805462294,1055
2832.9393842763743,1105
2834.693621506936,1110
2836.4475174580916,1132
2838.201072434034,1094
2839.954286739034,1120
2841.707160677441,1102
2843.459694553685,1047
2845.2118886722724,1093
2846.96374333779,1098
2848.7152588549034,1074
2850.4664355283567,1134
2852.217273662973,1096
2853.9677735636546,1079
2855.7179355353833,1089
2857.4677598832186,1052
2859.217246912299,1094
2860.9663969278427,1127
2862.715210235146,1122
2864.4636871395846,1072
2866.211827946614,1056
2867.9596329617652,1168
2869.7071024906536,1076
2871.4542368389684,1089
2873.20103631248,1077
2874.947501217038,1117
2876.6936318585695,1071
2878.4394285430812,1074
2880.1848915766604,1073
2881.9300212654707,1080
2883.6748179157553,1078
2885.4192818338374,1043
2887.1634133261173,1093
2888.907212699077,1089
2890.6506802592744,1107
2892.393816313348,1075
2894.1366211680142,1078
2895.8790951300693,1152
2897.621238506388,1072
2899.363051603925,1065
2901.1045347297118,1076
2902.8456881908596,1093
2904.58651229456,1133
2906.327007348081,1129
2908.067173658772,1073
2909.8070115340597,1118
2911.5465212814497,1141
2913.285703208527,1142
2915.0245576229563,1078
2916.7630848324807,1119
2918.5012851449196,1085
2920.2391588681758,1120
2921.976706310227,1126
2923.7139277791334,1146
2925.4508235830313,1123
2927.187394030137,1068
2928.923639428745,1118
2930.6595600872306,1098
2932.395156314046,1070
2934.1304284177218,1061
2935.8653767068713,1099
2937.6000014901815,1069
2939.3343030764227,1067
2941.068281774442,1093
2942.8019378931644,1076
2944.5352717415976,1099
2946.2682836288236,1072
2948.0009738640065,1055
2949.7333427563885,1061
2951.465390615289,1127
2953.1971177501086,1049
2954.9285244703265,1095
2956.6596110855,1108
2958.3903779052657,1105
2960.1208252393385,1098
2961.8509533975125,1130
2963.5807626896617,1106
2965.3102534257378,1080
2967.0394259157715,1081
2968.768280469873,1129
2970.496817398232,1097
2972.2250370111146,1105
2973.952939618869,1123
2975.6805255319196,1093
2977.4077950607707,1085
2979.134748516006,1047
2980.861386208289,1071
2982.587708448359,1105
2984.313715547037,1066
2986.039407815222,1110
2987.764785563891,1128
2989.489849104102,1041
2991.2145987469908,1056
2992.9390348037705,1085
2994.6631575857346,1068
2996.3869674042576,1092
2998.1104645707887,1070
2999.83364939686,1059
3001.5565221940783,1086
3003.2790832741334,1074
3005.0013329487924,1031
3006.7232715298996,1055
3008.4448993293804,1082
3010.166216659239,1093
3011.887223831558,1092
3013.607921158498,1117
3015.3283089522993,1056
3017.0483875252826,1046
3018.7681571898443,1081
3020.4876182584626,1041
3022.2067710436927,1086
3023.9256158581707,1065
3025.644153014609,1080
3027.362382825801,1046
3029.0803056046193,1075
3030.797921664012,1061
3032.5152313170106,1080
3034.2322348767225,1086
3035.9489326563353,1054
3037.665324969115,1081
3039.3814121284063,1120
3041.097194447633,1077
3042.812672240299,1102
3044.5278458199855,1062
3046.2427155003525,1068
3047.9572815951406,1068
3049.671544418167,1050
3051.38550428333,1137
3053.0991615046073,1131
3054.812516396051,1087
3056.5255692717974,1125
3058.2383204460575,1062
3059.9507702331257,1075
3061.662918947372,1075
3063.3747669032446,1100
3065.0863144152736,1135
3066.7975617980674,1101
3068.508509366309,1134
3070.219157434767,1052
3071.9295063182844,1064
3073.639556331785,1052
3075.3493077902704,1122
3077.058761008821,1017
3078.7679163025964,1107
3080.476773986837,1066
3082.1853343768594,1052
3083.89359778806,1073
3085.6015645359153,1060
3087.3092349359786,1085
3089.016609303884,1095
3090.7236879553434,1118
3092.4304712061476,1067
3094.136959372166,1061
3095.843152769349,1066
3097.5490517137237,1087
3099.2546565213966,1078
3100.959967508554,1113
3102.66498499146,1119
3104.3697092864577,1046
3106.0741407099695,1089
3107.778279578498,1029
3109.482126208622,1128
3111.1856809170004,1086
3112.8889440203716,1121
3114.5919158355528,1112
3116.294596679439,1068
3117.996986869006,1095
3119.6990867213062,1068
3121.4008965534726,1076
3123.102416682717,1085
3124.803647426329,1113
3126.5045891016784,1109
3128.205242026213,1085
3129.90560651746,1047
3131.605682893025,1052
3133.3054714705922,1080
3135.0049725679282,1107
3136.7041865028714,1060
3138.4031135933465,1116
3140.101754157353,1073
3141.800108512971,1058
3143.498176978357,1082
3145.1959598717494,1099
3146.8934575114636,1100
3148.5906702158954,1097
3150.2875983035183,1056
3151.9842420928853,1132
3153.680601902627,1023
3155.376678051456,1069
3157.07247085816,1059
3158.767980641609,1052
3160.463207720748,1037
3162.158152414606,1084
3163.8528150422862,1089
3165.5471959229726,1041
3167.2412953759303,1112
3168.9351137204976,1085
3170.628651276098,1049
3172.3219083622307,1102
3174.014885298474,1092
3175.707582404485,1145
3177.4000000000005,1129
3179.092138404835,1114
3180.7839979388846,1054
3182.47557892212,1112
3184.166881674594,1089
3185.8579065164386,1054
3187.5486537678626,1131
3189.2391237491547,1077
3190.9293167806827,1083
3192.6192331828934,1047
3194.3088732763117,1125
3195.998237381542,1080
3197.687325819268,1099
3199.376138910251,1050
3201.064676975334,1052
3202.7529403354347,1057
3204.4409293115523,1079
3206.1286442247647,1110
3207.816085396229,1051
3209.5032531471825,1060
3211.190147798936,1096
3212.8767696728846,1055
3214.5631190905015,1113
3216.2491963733373,1116
3217.9350018430214,1059
3219.6205358212637,1015
3221.305798629851,1045
3222.990790590651,1060
3224.6755120256103,1033
3226.359963256751,1100
3228.0441446061795,1075
3229.7280563960758,1052
3231.411698948703,1105
3233.0950725863995,1108
3234.778177631587,1041
3236.461014406761,1100
3238.1435832345005,1101
3239.8258844374595,1020
3241.507918338374,1058
3243.1896852600576,1068
3244.8711855254023,1089
3246.552419457381,1073
3248.233387379042,1080
3249.914089613516,1075
3251.59452648401,1096
3253.274698313813,1082
3254.95460542629,999
3256.6342481448855,1076
3258.313626793125,1066
3259.9927416946084,1011
3261.6715931730196,1054
3263.3501815521176,1072
3265.0285071557437,1080
3266.706570307815,1057
3268.3843713323286,1063
3270.0619105533615,1125
3271.739188295068,1078
3273.4162048816834,1098
3275.0929606375184,1086
3276.769455886966,1052
3278.445690954498,1076
3280.1216661646613,1093
3281.797381842087,1063
3283.4728383114807,1071
3285.1480358976296,1074
3286.8229749253996,1053
3288.4976557197333,1047
3290.172078605655,1041
3291.846243908266,1066
3293.5201519527463,1074
3295.193803064357,1106
3296.8671975684374,1050
3298.5403357904024,1076
3300.21321805575,1033
3301.8858446900567,1028
3303.558216018975,1108
3305.23033236824,1058
3306.9021940636603,1087
3308.57380143113,1081
3310.2451547966184,1090
3311.916254486174,1082
3313.5871008259246,1076
3315.2576941420766,1024
3316.9280347609147,1032
3318.5981230088046,1071
3320.2679592121895,1012
3321.9375436975924,1018
3323.606876791612,1050
3325.27595882093,1019
3326.944790112305,1043
3328.6133709925753,1050
3330.2817017886573,1044
3331.949782827547,1043
3333.617614436319,1085
3335.2851969421245,1082
3336.952530672199,1045
3338.619615953853,1055
3340.286453114475,1042
3341.9530424815357,1053
3343.619384382583,1074
3345.2854791452437,1076
3346.951327097224,1113
3348.6169285663073,1079
3350.2822838803577,1081
3351.947393367319,1102
3353.61225735521,1053
3355.2768761721345,1082
3356.9412501462693,1046
3358.605379605873,1037
3360.2692648792827,1078
3361.9329062949146,1103
3363.596304181263,1088
