CollectionTime,7/10/2024 3:28:33 PM
ExposureUsed,3
CalibratedSpectrum
-962.7078968117929,542
-959.9714848408522,607
-957.2358232597828,619
-954.5009119013725,620
-951.7667505983302,639
-949.0333391832855,640
-946.3006774887896,619
-943.5687653473143,659
-940.837602591253,617
-938.1071890529199,653
-935.3775245645503,631
-932.6486089583007,680
-929.9204420662485,677
-927.1930237203925,673
-924.4663537526524,673
-921.7404319948689,652
-919.0152582788041,645
-916.2908324361409,654
-913.5671542984834,656
-910.8442236973568,617
-908.1220404642074,621
-905.4006044304027,628
-902.679915427231,661
-899.959973285902,646
-897.2407778375464,629
-894.5223289132158,628
-891.8046263438832,608
-889.0876699604426,628
-886.3714595937089,598
-883.6559950744183,659
-880.9412762332282,606
-878.2273029007168,668
-875.5140749073835,580
-872.8015920836489,614
-870.0898542598545,629
-867.3788612662631,612
-864.6686129330585,626
-861.9591090903457,599
-859.2503495681506,618
-856.5423341964203,617
-853.8350628050229,647
-851.1285352237478,675
-848.4227512823054,658
-845.7177108103272,613
-843.0134136373656,634
-840.3098595928943,603
-837.6070485063082,640
-834.9049802069229,644
-832.2036545239757,635
-829.5030712866244,616
-826.8032303239481,605
-824.1041314649472,611
-821.4057745385428,606
-818.7081593735775,619
-816.0112857988148,633
-813.3151536429393,641
-810.6197627345566,614
-807.9251129021936,606
-805.2312039742981,645
-802.5380357792392,647
-799.8456081453069,661
-797.1539209007124,637
-794.462973873588,613
-791.772766891987,663
-789.083299783884,627
-786.3945723771743,650
-783.7065844996748,618
-781.0193359791231,611
-778.3328266431781,655
-775.6470563194197,619
-772.9620248353489,633
-770.2777320183878,591
-767.5941776958798,628
-764.9113616950891,652
-762.2292838432011,658
-759.5479439673222,673
-756.8673418944801,673
-754.1874774516235,667
-751.5083504656222,680
-748.8299607632671,712
-746.15230817127,714
-743.475392516264,698
-740.7992136248035,701
-738.1237713233636,652
-735.4490654383407,661
-732.7750957960521,660
-730.1018622227365,698
-727.4293645445534,671
-724.7576025875837,710
-722.0865761778291,697
-719.4162851412126,692
-716.7467293035781,679
-714.0779084906909,701
-711.409822528237,730
-708.7424712418238,685
-706.0758544569796,690
-703.4099719991541,688
-700.7448236937178,695
-698.0804093659622,731
-695.4167288411002,740
-692.7537819442656,703
-690.0915685005134,693
-687.4300883348199,697
-684.7693412720819,734
-682.1093271371178,748
-679.4500457546669,744
-676.7914969493897,688
-674.1336805458676,734
-671.4765963686034,709
-668.8202442420206,719
-666.1646239904642,759
-663.5097354382001,714
-660.8555784094151,721
-658.2021527282176,768
-655.5494582186366,745
-652.8974947046223,721
-650.2462620100463,716
-647.5957599587009,736
-644.9459883742998,779
-642.2969470804776,794
-639.6486359007902,794
-637.0010546587141,838
-634.3542031776476,811
-631.7080812809096,790
-629.0626887917401,758
-626.4180255333008,730
-623.7740913286734,738
-621.1308860008619,798
-618.4884093727904,799
-615.8466612673046,755
-613.2056415071715,770
-610.5653499150785,780
-607.9257863136347,769
-605.28695052537,791
-602.6488423727357,757
-600.0114616781036,777
-597.3748082637674,781
-594.7388819519412,763
-592.1036825647604,798
-589.4692099242818,822
-586.8354638524829,850
-584.2024441712624,850
-581.5701507024403,846
-578.9385832677575,833
-576.3077416888759,825
-573.6776257873787,805
-571.0482353847704,803
-568.4195703024757,828
-565.7916303618415,804
-563.164415384135,813
-560.5379251905453,847
-557.9121596021815,826
-555.2871184400748,828
-552.6628015251767,833
-550.0392086783606,826
-547.4163397204204,809
-544.794194472071,812
-542.1727727539491,859
-539.5520743866118,839
-536.9320991905377,887
-534.3128469861261,961
-531.6943175936979,922
-529.0765108334947,916
-526.4594265256793,988
-523.8430644903358,1053
-521.2274245474689,1187
-518.612506517005,1190
-515.9983102187913,1219
-513.3848354725959,1232
-510.77208209810846,1240
-508.16004991493924,1357
-505.5487387426199,1543
-502.9381484006032,1701
-500.3282787082628,1766
-497.71912948489364,1750
-495.1107005497117,1737
-492.5029917218539,1546
-489.8960028203786,1420
-487.28973366426493,1312
-484.68418407241325,1152
-482.07935386364494,1129
-479.47524285670266,1101
-476.87185087025,1084
-474.2691777228715,1058
-471.66722323307334,1079
-469.0659872192821,1059
-466.4654694998459,1068
-463.86566989303384,1046
-461.26658821703614,1028
-458.66822428996414,1085
-456.07057792985,1085
-453.4736489546475,1092
-450.877437182231,992
-448.28194243039627,990
-445.68716451686,1036
-443.09310325926003,952
-440.49975847515555,988
-437.9071299820263,1034
-435.31521759727354,1003
-432.72402113821954,1083
-430.13354042210767,1094
-427.5437752661022,1111
-424.95472548728867,1054
-422.36639090267386,1059
-419.7787713291855,1043
-417.1918665836721,1130
-414.60567648290385,1102
-412.0202008435715,1106
-409.4354394822874,1136
-406.8513922155845,1136
-404.26805885991723,1128
-401.685439231661,1138
-399.103533147112,1126
-396.522340422488,1069
-393.9418608739278,1084
-391.3620943174908,1054
-388.7830405691583,1090
-386.2046994448317,1064
-383.6270707603344,1053
-381.05015433141045,976
-378.473949973725,891
-375.8984575028645,899
-373.32367673433623,784
-370.74960748356875,743
-368.1762495659117,724
-365.60360279663576,701
-363.03166699093265,654
-360.4604419639154,542
-357.8899275306178,548
-355.32012350599507,554
-352.7510297049233,541
-350.1826459421999,501
-347.61497203254316,510
-345.04800779059235,478
-342.4817530309082,457
-339.91620756797226,486
-337.35137121618743,486
-334.7872437898774,515
-332.22382510328725,538
-329.66111497058273,537
-327.09911320585127,548
-324.53781962310075,549
-321.9772340362607,519
-319.4173562591816,481
-316.8581861056348,462
-314.2997233893127,506
-311.7419679238294,508
-309.1849195227194,501
-306.62857799943856,557
-304.0729431673641,536
-301.51801483979375,535
-298.963792829947,555
-296.41027695096386,576
-293.85746701590574,602
-291.3053628377552,637
-288.7539642294155,591
-286.2032710037115,582
-283.65328297338897,574
-281.1039999511146,614
-278.5554217494762,691
-276.007548180983,801
-273.4603790580651,823
-270.9139141930734,726
-268.3681533982807,712
-265.8230964858798,726
-263.27874326798565,860
-260.7350935566336,929
-258.1921471637804,802
-255.6499039013039,735
-253.10836358100266,670
-250.56752601459698,615
-248.02739101372765,637
-245.48795838995704,673
-242.94922795476816,734
-240.41119951956557,739
-237.8738728956746,697
-235.33724789434166,727
-232.80132432673452,663
-230.2661020039418,634
-227.73158073697357,654
-225.19776033676033,736
-222.66464061415422,810
-220.1322213799284,802
-217.60050244477725,714
-215.06948361931552,699
-212.53916471408013,746
-210.00954553952818,761
-207.48062590603843,864
-204.9524056239104,817
-202.4248845033651,803
-199.8980623545441,738
-197.37193898751036,760
-194.84651421224817,796
-192.32178783866232,847
-189.79775967657952,889
-187.27442953574644,857
-184.7517972258321,891
-182.2298625564256,887
-179.7086253370378,828
-177.18808537710026,829
-174.66824248596583,845
-172.14909647290835,954
-169.6306471471229,1045
-167.11289431772548,1093
-164.59583779375328,1032
-162.07947738416453,1136
-159.5638128978386,1264
-157.04884414357605,1285
-154.53457093009854,1433
-152.02099306604828,1271
-149.50811035998936,1264
-146.99592262040665,1170
-144.48442965570587,1118
-141.97363127421409,1099
-139.46352728417958,1294
-136.95411749377126,1338
-134.44540171107985,1134
-131.93737974411636,1044
-129.43005140081357,1016
-126.92341648902493,1267
-124.41747481652521,1869
-121.91222619101006,2144
-119.40767042009657,2251
-116.90380731132257,2661
-114.40063667214702,2769
-111.8981583099503,2565
-109.3963720320337,2105
-106.89527764561933,1728
-104.39487495785067,1755
-101.89516377579241,2675
-99.39614390642998,3912
-96.89781515667039,4389
-94.40017733334128,3911
-91.90323024319173,3136
-89.40697369289148,2819
-86.91140748903172,3454
-84.41653143812482,5282
-81.92234534660395,5827
-79.42884902082358,5590
-76.93604226705907,7062
-74.4439248915071,11712
-71.95249670028534,17169
-69.46175749943245,22447
-66.97170709490854,24861
-64.48234529259423,22619
-61.99367189829195,17738
-59.50568671772464,14891
-57.01838955653636,12276
-54.53178022029283,8525
-52.045858514480074,6981
-49.560624244506016,9392
-47.07607721569923,12640
-44.59221723330904,14879
-42.10904410250669,14640
-39.62655762838392,14001
-37.14475761595372,14905
-34.66364387015028,16339
-32.18321619582866,18573
-29.70347439776515,19559
-27.224418280657005,18795
-24.74604764912317,17877
-22.26836230770266,17765
-19.7913620608565,24326
-17.315046712966478,38722
-14.83941606833514,51749
-12.36446993118659,65038
-9.89020810566592,65038
-7.416630395839093,65038
-4.94373660569363,65038
-2.471526539137585,65038
-6.821210263296962E-13,65038
2.47084320796705,65038
4.941003281093458,65038
7.410480415786196,65038
9.879274808531363,65038
12.347386655893956,65038
14.814816154518212,65038
17.28156350112681,65038
19.74762889252179,65038
22.21301252558385,65038
24.67771459727237,20922
27.141735304626195,3865
29.605074844762612,3087
32.06773341487792,3473
34.52971121224755,3586
36.99100843422559,2973
39.45162527824516,2522
41.91156194181792,2073
44.370818622535126,1713
46.82939551806646,1560
49.287292826160524,1570
51.74451074464503,2637
54.201049471426245,3407
56.65690920448981,3133
59.112090141899785,2348
61.56659248179983,1769
64.02041642241159,1544
66.4735621620365,1343
68.92602989905402,1199
71.37781983192338,1671
73.82893215918205,1865
76.27936707944684,1742
78.72912479141326,1410
81.17820549385567,1359
83.62660938562783,1367
86.07433666566146,1537
88.5213875329681,1598
90.96776218663751,1313
93.41346082583925,1242
95.85848364982041,1290
98.30283085790859,1294
100.7465026495089,1412
103.18949922410604,1821
105.63182078126385,1681
108.07346752062438,1458
110.51443964190923,1234
112.95473734491827,1159
115.39436082953114,1077
117.83331029570547,1210
120.27158594347827,1583
122.7091879729652,1737
125.1461165843615,1849
127.58237197794062,1619
130.01795435405518,1430
132.4528639131364,1217
134.88710085569494,1086
137.32066538231982,1174
139.75355769367923,1409
142.1857779905207,1278
144.61732647366978,1021
147.04820334403132,983
149.47840880258934,1100
151.90794305040674,1257
154.33680628862487,1412
156.76499871846443,1575
159.19252054122433,1635
161.61937195828352,1634
164.04555317109896,1716
166.47106438120693,2042
168.89590579022217,2311
171.320077599839,2549
173.7435800118302,2844
176.16641322804742,2805
178.58857745042144,2783
181.01007288096173,2826
183.43089972175687,2703
185.85105817497413,2861
188.27054844285988,2876
190.6893707277394,2918
193.10752523201643,2994
195.5250121581745,2964
197.9418317087751,3072
200.3579840864594,3033
202.7734694939469,3035
205.18828813403627,3137
207.6024402096051,3423
210.01592592360964,3264
212.42874547908548,3121
214.84089907914665,3090
217.2523869269868,3053
219.66320922587727,3085
222.0733661791695,3057
224.48285799029293,3024
226.8916848627572,3083
229.29984700014882,3129
231.7073446061355,3112
234.11417788446204,2942
236.520347038953,2993
238.92585227351185,3116
241.33069379212054,3296
243.73487179884035,3333
246.1383864978112,3276
248.541238093252,3265
250.9434267894609,3211
253.34495279081432,3289
255.74581630176783,3172
258.1460175268563,3176
260.54555667069314,3144
262.9444339379703,3020
265.3426495334594,3108
267.7402036620107,3097
270.1370965285529,3136
272.53332833809407,3060
274.9288992957214,3040
277.32380960660055,2843
279.718059475976,2930
282.1116491091717,2836
284.5045787115897,2939
286.89684848871195,2983
289.2884586460981,2960
291.67940938938807,2973
294.0697009242996,2914
296.4593334566299,2975
298.84830719225477,2944
301.23662233712923,2908
303.6242790972866,2800
306.01127767884,2784
308.39761828798066,2785
310.78330113097934,2680
313.16832641418534,2699
315.5526943440269,2668
317.9364051270112,2664
320.3194589697242,2626
322.70185607883093,2694
325.0835966610754,2687
327.4646809232805,2614
329.8451090723478,2584
332.2248813152577,2611
334.6039978590701,2645
336.9824589109231,2578
339.36026467803447,2571
341.7374153677,2564
344.113911187295,2543
346.48975234427337,2516
348.8649390461686,2509
351.2394715005918,2504
353.61334991523415,2511
355.9865744978655,2492
358.35914545633375,2518
360.73106299856715,2437
363.10232733257146,2488
365.47293866643247,2452
367.84289720831396,2504
370.2122031664593,2506
372.5808567491905,2438
374.9488581649083,2406
377.31620762209275,2366
379.6829053293021,2381
382.0489514951745,2405
384.4143463284262,2311
386.7790900378528,2447
389.14318283232853,2361
391.50662492080653,2320
393.86941651231916,2298
396.23155781597745,2413
398.5930490409713,2417
400.9538903965696,2441
403.3140820921202,2449
405.6736243370498,2370
408.03251734086336,2380
410.3907613131465,2409
412.74835646356166,2326
415.10530300185144,2307
417.4616011378372,2352
419.81725108141893,2380
422.1722530425758,2284
424.5266072313656,2302
426.880313857925,2269
429.2333731324701,2337
431.58578526529516,2323
433.9375504667738,2294
436.2886689473588,2313
438.63914091758113,2290
440.9889665880513,2289
443.33814616945835,2241
445.68667987257015,2219
448.03456790823395,2252
450.3818104873759,2346
452.72840782100013,2232
455.07436012019105,2241
457.41966759611057,2282
459.7643304600007,2294
462.10834892318155,2273
464.4517231970525,2295
466.79445349309174,2283
469.1365400228566,2247
471.4779829979826,2328
473.81878263018564,2394
476.15893913125876,2336
478.4984527130747,2319
480.8373235875855,2341
483.17555196682144,2404
485.5131380628919,2461
487.8500820879857,2513
490.1863842543697,2699
492.52204477439034,2816
494.8570638604725,2984
497.1914417251204,3236
499.52517858091653,3590
501.85827464052306,3862
504.19073011668036,3830
506.5225452222086,3836
508.85372017000566,3797
511.18425517304956,3609
513.514150444396,3502
515.8434061971808,4049
518.1720226446176,4871
520.4999999999999,5084
522.8273384766991,4693
525.1540382881666,4601
527.480099647932,4184
529.8055227696037,3549
532.1303078668694,2918
534.454455153496,2681
536.777964843328,2533
539.1008371502907,2419
541.4230722883866,2479
543.744670471698,2392
546.0656319143858,2380
548.3859568306899,2399
550.7056454349294,2340
553.0246979415016,2331
555.3431145648834,2392
557.6608955196306,2370
559.978041020377,2351
562.2945512818363,2288
564.6104265188006,2408
566.9256669461412,2399
569.2402727788082,2390
571.5542442318302,2378
573.8675815203156,2371
576.1802848594508,2366
578.4923544645015,2400
580.8037905508126,2430
583.114593333807,2402
585.4247630289875,2315
587.7342998519354,2384
590.0432040183106,2421
592.3514757438526,2355
594.6591152443794,2516
596.9661227357875,2482
599.2724984340531,2425
601.578242555231,2437
603.8833553154542,2388
606.1878369309362,2390
608.4916876179676,2403
610.7949075929192,2395
613.0974970722403,2342
615.3994562724587,2397
617.7007854101818,2361
620.0014847020951,2315
622.3015543649641,2436
624.6009946156324,2379
626.8998056710224,2420
629.1979877481361,2387
631.4955410640538,2453
633.7924658359349,2417
636.0887622810175,2387
638.3844306166192,2366
640.6794710601358,2346
642.9738838290426,2460
645.2676691408932,2393
647.5608272133207,2470
649.853358264037,2412
652.1452625108324,2398
654.4365401715764,2441
656.7271914642178,2446
659.0172166067838,2430
661.3066158173809,2428
663.5953893141935,2451
665.8835373154867,2385
668.1710600396028,2447
670.4579577049639,2461
672.7442305300709,2416
675.0298787335033,2341
677.3149025339197,2385
679.599302150058,2403
681.8830778007342,2469
684.1662297048437,2380
686.4487580813608,2420
688.7306631493387,2433
691.0119451279091,2443
693.2926042362834,2387
695.5726406937516,2392
697.8520547196814,2402
700.1308465335215,2463
702.4090163547982,2398
704.6865644031171,2369
706.9634908981619,2385
709.2397960596965,2405
711.5154801075631,2397
713.7905432616823,2399
716.0649857420548,2438
718.3388077687592,2454
720.612009561953,2386
722.8845913418733,2491
725.1565533288352,2465
727.427895743234,2393
729.6986188055427,2444
731.9687227363137,2452
734.238207756178,2434
736.5070740858458,2402
738.7753219461066,2463
741.0429515578281,2432
743.3099631419569,2386
745.5763569195191,2460
747.8421331116193,2415
750.1072919394409,2466
752.3718336242467,2426
754.6357583873777,2469
756.8990664502545,2424
759.1617580343765,2384
761.423833361321,2491
763.6852926527457,2497
765.9461361303862,2464
768.206364016058,2422
770.4659765316536,2377
772.7249738991469,2481
774.9833563405886,2538
777.2411240781092,2567
779.4982773339183,2410
781.7548163303044,2441
784.010741289634,2450
786.2660524343538,2512
788.5207499869881,2438
790.7748341701416,2535
793.0283052064964,2534
795.2811633188143,2517
797.5334087299362,2458
799.7850416627813,2485
802.0360623403484,2529
804.2864709857143,2534
806.5362678220353,2525
808.7854530725468,2560
811.0340269605625,2426
813.2819897094754,2469
815.5293415427581,2459
817.77608268396,2420
820.0222133567116,2528
822.2677337847211,2571
824.5126441917765,2433
826.7569448017433,2459
829.0006358385675,2476
831.2437175262731,2449
833.4861900889629,2418
835.7280537508192,2475
837.9693087361026,2451
840.2099552691533,2466
842.4499935743896,2417
844.689423876309,2389
846.9282463994886,2450
849.1664613685833,2523
851.4040690083276,2453
853.6410695435349,2543
855.877463199097,2428
858.1132501999847,2422
860.3484307712487,2505
862.5830051380175,2441
864.8169735254988,2494
867.0503361589791,2435
869.2830932638243,2513
871.5152450654786,2560
873.7467917894654,2525
875.9777336613873,2529
878.2080709069252,2560
880.4378037518389,2499
882.666932421968,2574
884.8954571432301,2497
887.1233781416219,2467
889.3506956432192,2607
891.5774098741766,2484
893.803521060728,2554
896.0290294291852,2513
898.2539352059397,2534
900.4782386174619,2481
902.7019398903011,2534
904.925039251085,2653
907.147536926521,2529
909.3694331433943,2626
911.59072812857,2489
913.8114221089921,2470
916.0315153116827,2485
918.2510079637437,2427
920.4699002923547,2556
922.6881925247761,2589
924.905884888345,2541
927.1229776104793,2524
929.3394709186747,2379
931.555365040506,2427
933.7706602036275,2495
935.9853566357709,2459
938.1994545647489,2459
940.4129542184515,2442
942.6258558248488,2480
944.8381596119883,2499
947.0498658079974,2451
949.2609746410825,2395
951.4714863395287,2404
953.6814011316998,2443
955.8907192460387,2425
958.0994409110671,2399
960.3075663553858,2431
962.5150958076741,2492
964.7220294966913,2482
966.928367651274,2433
969.1341105003388,2429
971.3392582728806,2419
973.5438111979742,2317
975.747769504772,2415
977.9511334225061,2344
980.153903180487,2372
982.3560790081052,2298
984.5576611348289,2384
986.7586497902058,2329
988.9590452038618,2431
991.158847605503,2342
993.3580572249133,2355
995.5566742919558,2330
997.7546990365728,2271
999.952131688785,2246
1002.1489724786926,2206
1004.3452216364743,2214
1006.5408793923874,2281
1008.7359459767691,2233
1010.9304216200343,2172
1013.1243065526781,2182
1015.3176010052733,2154
1017.510305208472,2206
1019.7024193930064,2058
1021.8939437896848,2109
1024.0848786293977,2094
1026.2752241431122,2218
1028.4649805618747,2199
1030.6541481168115,2167
1032.842727039127,2059
1035.0307175601051,2142
1037.2181199111074,2232
1039.4049343235752,2118
1041.591161029029,2139
1043.7768002590683,2098
1045.9618522453698,2153
1048.1463172196918,2083
1050.3301954138697,2096
1052.513487059818,2109
1054.69619238953,2119
1056.8783116350783,2100
1059.0598450286152,2157
1061.2407928023704,2053
1063.4211551886528,2168
1065.6009324198508,2109
1067.780124728432,2119
1069.9587323469414,2042
1072.1367555080046,2060
1074.314194444325,2119
1076.4910493886855,2112
1078.667320573947,2073
1080.843008233051,2098
1083.0181125990161,2061
1085.1926339049414,2072
1087.3665723840027,2113
1089.5399282694575,2015
1091.7127017946405,2055
1093.8848931929647,2090
1096.0565026979243,2104
1098.2275305430899,2211
1100.3979769621128,1995
1102.567842188722,2000
1104.737126456726,2052
1106.9058300000124,1983
1109.0739530525475,2013
1111.2414958483764,2125
1113.4084586216231,2006
1115.5748416064907,2097
1117.7406450372605,2004
1119.9058691482942,2033
1122.0705141740304,1986
1124.2345803489884,2036
1126.3980679077658,1963
1128.5609770850388,1976
1130.7233081155623,2052
1132.8850612341707,2074
1135.0462366757774,2054
1137.2068346753745,1993
1139.3668554680326,2010
1141.526299288901,2055
1143.68516637321,2008
1145.8434569562655,2037
1148.001171273455,2073
1150.158309560244,2065
1152.3148720521767,2020
1154.470858984876,1990
1156.626270594044,1978
1158.7811071154629,1992
1160.9353687849912,2046
1163.089055838569,1976
1165.242168512213,2084
1167.3947070420209,1992
1169.5466716641677,2023
1171.6980626149075,2056
1173.8488801305748,1951
1175.9991244475814,1950
1178.1487958024186,1957
1180.2978944316555,2057
1182.4464205719428,2054
1184.5943744600072,2013
1186.7417563326567,2034
1188.8885664267755,1961
1191.0348049793297,1984
1193.1804722273619,2003
1195.325568407995,2037
1197.4700937584303,2019
1199.614048515948,1984
1201.7574329179074,2002
1203.900247201746,2041
1206.042491604982,1997
1208.1841663652099,2065
1210.3252717201053,2057
1212.465807907422,2004
1214.6057751649923,1978
1216.7451737307279,1988
1218.8840038426192,2060
1221.0222657387353,2061
1223.1599596572241,2076
1225.2970858363137,2008
1227.4336445143094,2059
1229.5696359295966,2156
1231.705060320639,2081
1233.8399179259786,2021
1235.9742089842384,2052
1238.107933734118,2124
1240.2410924143974,2068
1242.373685263935,2037
1244.5057125216676,2167
1246.6371744266116,2108
1248.7680712178621,2086
1250.898403134593,2113
1253.028170416058,2041
1255.1573733015875,2039
1257.2860120305932,2113
1259.4140868425648,2108
1261.54159797707,2079
1263.6685456737569,2108
1265.7949301723515,2039
1267.9207517126597,2145
1270.046010534565,2130
1272.1707068780306,2107
1274.2948409830983,2059
1276.4184130898889,2074
1278.541423438603,2106
1280.6638722695184,2184
1282.785759822993,2116
1284.9070863394636,2193
1287.0278520594447,2167
1289.1480572235314,2142
1291.2677020723963,2154
1293.3867868467923,2167
1295.5053117875495,2102
1297.623277135579,2223
1299.740683131868,2268
1301.8575300174857,2154
1303.973818033578,2095
1306.0895474213703,2233
1308.2047184221678,2197
1310.3193312773528,2203
1312.4333862283888,2214
1314.5468835168163,2178
1316.659823384255,2177
1318.7722060724045,2234
1320.8840318230418,2167
1322.9953008780249,2238
1325.1060134792888,2196
1327.2161698688478,2214
1329.3257702887959,2214
1331.4348149813054,2216
1333.5433041886276,2217
1335.6512381530933,2130
1337.7586171171101,2243
1339.8654413231675,2186
1341.9717110138317,2238
1344.0774264317488,2224
1346.1825878196432,2211
1348.2871954203192,2174
1350.3912494766587,2211
1352.4947502316231,2194
1354.5976979282532,2143
1356.7000928096686,2206
1358.8019351190665,2171
1360.9032250997243,2197
1363.0039629949988,2182
1365.1041490483235,2219
1367.2037835032133,2181
1369.3028666032606,2219
1371.401398592137,2219
1373.4993797135926,2186
1375.5968102114575,2169
1377.6936903296396,2284
1379.7900203121262,2205
1381.8858004029835,2259
1383.9810308463561,2174
1386.075711886469,2217
1388.1698437676241,2214
1390.2634267342032,2260
1392.356461030667,2129
1394.4489469015557,2184
1396.5408845914872,2203
1398.6322743451592,2164
1400.7231164073469,2217
1402.813411022907,2270
1404.903158436773,2270
1406.9923588939578,2233
1409.0810126395531,2329
1411.1691199187303,2297
1413.2566809767386,2368
1415.343696058907,2327
1417.4301654106425,2373
1419.5160892774315,2317
1421.6014679048399,2288
1423.6863015385125,2281
1425.7705904241707,2430
1427.8543348076178,2251
1429.9375349347342,2418
1432.0201910514802,2372
1434.102303403894,2345
1436.1838722380944,2383
1438.2648978002767,2327
1440.3453803367174,2349
1442.4253200937692,2469
1444.5047173178677,2417
1446.5835722555234,2376
1448.6618851533285,2456
1450.739656257952,2482
1452.8168858161434,2472
1454.8935740747306,2484
1456.96972128062,2556
1459.045327680797,2537
1461.120393522327,2543
1463.1949190523528,2588
1465.2689045180973,2576
1467.3423501668608,2576
1469.415256246024,2654
1471.4876230030463,2625
1473.559450685465,2658
1475.6307395408976,2713
1477.7014898170391,2737
1479.771701761665,2723
1481.8413756226287,2791
1483.9105116478618,2700
1485.9791100853772,2771
1488.0471711832643,2804
1490.1146951896926,2855
1492.1816823529098,2767
1494.2481329212433,2963
1496.3140471430984,2942
1498.3794252669609,2933
1500.4442675413939,3031
1502.5085742150404,3018
1504.572345536622,2973
1506.6355817549388,3003
1508.6982831188702,3014
1510.7604498773744,3050
1512.8220822794883,3082
1514.8831805743293,3183
1516.9437450110909,3192
1519.003775839048,3148
1521.0632733075522,3198
1523.1222376660367,3196
1525.1806691640113,3183
1527.2385680510652,3151
1529.2959345768668,3259
1531.3527689911643,3338
1533.4090715437833,3429
1535.4648424846291,3508
1537.5200820636855,3481
1539.5747905310159,3429
1541.6289681367616,3524
1543.6826151311434,3628
1545.7357317644614,3696
1547.7883182870937,3731
1549.8403749494987,3669
1551.8919020022113,3777
1553.9428996958477,3791
1555.9933682811015,3867
1558.0433080087469,3946
1560.0927191296346,3791
1562.1416018946961,3947
1564.1899565549415,3937
1566.2377833614592,3949
1568.2850825654164,3873
1570.3318544180606,3767
1572.3780991707158,3855
1574.423817074788,3675
1576.4690083817595,3609
1578.5136733431923,3428
1580.5578122107272,3339
1582.601425236085,3208
1584.6445126710646,3116
1586.6870747675434,3038
1588.7291117774776,3028
1590.7706239529034,2939
1592.8116115459347,2871
1594.8520748087658,2777
1596.8920139936686,2726
1598.9314293529933,2749
1600.9703211391711,2664
1603.008689604711,2545
1605.0465350022005,2543
1607.0838575843068,2550
1609.1206576037753,2407
1611.1569353134305,2446
1613.1926909661765,2400
1615.2279248149953,2413
1617.2626371129481,2330
1619.2968281131757,2417
1621.3304980688963,2372
1623.3636472334088,2397
1625.39627586009,2346
1627.428384202396,2231
1629.459972513861,2256
1631.4910410480993,2270
1633.5215900588028,2273
1635.551619799744,2262
1637.5811305247717,2337
1639.6101224878166,2223
1641.6385959428862,2171
1643.6665511440683,2215
1645.693988345528,2224
1647.7209078015112,2257
1649.7473097663405,2281
1651.7731944944203,2218
1653.7985622402307,2309
1655.823413258333,2256
1657.847747803366,2257
1659.8715661300494,2212
1661.8948684931793,2224
1663.9176551476316,2242
1665.9399263483624,2162
1667.9616823504057,2278
1669.982923408873,2256
1672.0036497789574,2208
1674.0238617159293,2209
1676.043559475138,2164
1678.0627433120121,2115
1680.081413482059,2215
1682.0995702408654,2190
1684.117213844096,2220
1686.134344547495,2195
1688.1509626068864,2152
1690.1670682781705,2282
1692.182661817329,2208
1694.1977434804217,2207
1696.2123135235875,2177
1698.226372203043,2166
1700.2399197750851,2188
1702.2529564960905,2187
1704.2654826225112,2189
1706.277498410882,2151
1708.2890041178139,2191
1710.2999999999988,2220
1712.3104863142066,2173
1714.3204633172854,2243
1716.329931266163,2207
1718.3388904178469,2151
1720.3473410294214,2176
1722.3552833580516,2158
1724.3627176609807,2163
1726.3696441955308,2187
1728.3760632191033,2162
1730.3819749891782,2178
1732.3873797633146,2137
1734.3922777991502,2176
1736.3966693544012,2085
1738.4005546868639,2114
1740.4039340544127,2210
1742.406807715001,2119
1744.4091759266616,2078
1746.4110389475054,2157
1748.4123970357223,2105
1750.413250449582,2111
1752.4135994474318,2044
1754.4134442876993,2090
1756.4127852288902,2028
1758.4116225295893,2110
1760.4099564484595,2110
1762.407787244244,2121
1764.405115175764,2136
1766.4019405019203,2124
1768.3982634816916,2097
1770.3940843741357,2118
1772.3894034383907,2037
1774.3842209336717,2101
1776.378537119274,2103
1778.372352254571,2151
1780.3656665990156,2118
1782.3584804121397,2082
1784.3507939535534,2107
1786.3426074829463,2108
1788.3339212600863,2204
1790.3247355448211,2082
1792.3150505970766,2156
1794.3048666768573,2062
1796.2941840442477,2142
1798.2830029594106,2018
1800.2713236825884,2097
1802.2591464741004,2167
1804.2464715943465,2096
1806.2332993038058,2101
1808.2196298630352,2140
1810.2054635326708,2176
1812.190800573428,2070
1814.175641246101,2065
1816.1599858115628,2026
1818.1438345307652,2124
1820.127187664738,2180
1822.1100454745924,2159
1824.092408221516,2075
1826.0742761667766,2088
1828.055649571721,2096
1830.0365286977735,2053
1832.0169138064398,2034
1833.9968051593014,2026
1835.9762030180214,2088
1837.9551076443408,2114
1839.9335193000788,2090
1841.9114382471344,2071
1843.888864747485,2128
1845.8657990631878,2068
1847.842241456378,2029
1849.8181921892697,2097
1851.7936515241558,2080
1853.7686197234098,2066
1855.7430970494815,2057
1857.7170837649014,2047
1859.6905801322787,2031
1861.6635864143004,2096
1863.6361028737338,2079
1865.608129773424,2035
1867.5796673762961,2078
1869.5507159453537,2046
1871.521275743678,2069
1873.4913470344313,2141
1875.4609300808534,2098
1877.4300251462632,2125
1879.3986324940588,2042
1881.366752387717,2049
1883.3343850907936,2041
1885.3015308669228,2040
1887.268189979819,2056
1889.2343626932739,2063
1891.2000492711595,2078
1893.1652499774254,2110
1895.1299650761011,2090
1897.0941948312952,2043
1899.0579395071945,2046
1901.0211993680641,2117
1902.98397467825,2090
1904.9462657021745,2034
1906.9080727043415,2026
1908.869395949332,1984
1910.8302357018065,2186
1912.790592226504,2085
1914.7504657882428,2070
1916.7098566519212,2100
1918.6687650825133,2061
1920.6271913450764,2107
1922.5851357047422,1969
1924.5425984267245,2107
1926.499579776314,2029
1928.4560800188833,2184
1930.4120994198802,2101
1932.367638244833,2120
1934.32269675935,2138
1936.2772752291175,2142
1938.231373919899,2165
1940.1849930975404,2131
1942.1381330279637,2038
1944.0907939771696,2045
1946.0429762112412,2110
1947.9946799963363,2097
1949.9459055986945,2061
1951.896653284633,2067
1953.8469233205478,2073
1955.7967159729142,2022
1957.7460315082863,2073
1959.6948701932974,2084
1961.6432322946594,2079
1963.5911180791632,2045
1965.5385278136787,2027
1967.4854617651545,2141
1969.4319202006182,2067
1971.377903387176,2038
1973.3234115920136,2064
1975.268445082395,2002
1977.2130041256642,2093
1979.1570889892423,2079
1981.1006999406304,2068
1983.04383724741,2070
1984.986501177238,2025
1986.928691997853,2022
1988.8704099770712,2066
1990.811655382789,2080
1992.7524284829801,2024
1994.692729545698,2092
1996.6325588390755,2062
1998.5719166313224,2123
2000.5108031907307,2062
2002.4492187856677,2081
2004.387163684583,2046
2006.3246381560011,2058
2008.2616424685298,1960
2010.1981768908527,2023
2012.1342416917332,2057
2014.069837140014,2064
2016.0049635046162,1971
2017.9396210545406,2044
2019.8738100588666,2051
2021.8075307867502,2122
2023.740783507431,2030
2025.6735684902228,2032
2027.6058860045214,2007
2029.5377363198004,1996
2031.4691197056118,2003
2033.4000364315875,2016
2035.3304867674374,1990
2037.260470982952,1985
2039.189989347998,2009
2041.1190421325232,2015
2043.047629606554,2034
2044.9757520401945,2081
2046.9034097036288,2036
2048.8306028671195,1979
2050.7573318010086,1970
2052.683596775716,1986
2054.609398061742,1958
2056.5347359296647,1962
2058.4596106501403,1953
2060.384022493906,2054
2062.3079717317764,2060
2064.231458634646,2082
2066.1544834734873,1952
2068.077046519352,2082
2069.99914804337,1958
2071.9207883167524,2063
2073.8419676107865,2021
2075.7626861968406,2018
2077.6829443463607,2027
2079.6027423308715,2031
2081.522080421977,2074
2083.440958891362,1955
2085.359378010786,2065
2087.2773380520907,2011
2089.194839287196,1994
2091.111881988101,2024
2093.0284664268825,2010
2094.9445928756973,2014
2096.86026160678,1916
2098.775472892446,2037
2100.690227005088,1999
2102.604524217178,2003
2104.5183648012676,1963
2106.431749029985,2031
2108.34467717604,1951
2110.2571495122206,2020
2112.169166311393,1999
2114.080727846503,2063
2115.9918343905747,1957
2117.902486216711,2002
2119.8126835980956,2094
2121.722426807987,2036
2123.6317161197285,2082
2125.5405518067364,2011
2127.448934142509,2003
2129.356863400624,2076
2131.264339854737,1986
2133.1713637785815,2092
2135.077935445972,2139
2136.9840551308002,2008
2138.889723107037,2063
2140.7949396487334,2067
2142.699705030018,2014
2144.6040195250994,2029
2146.507883408264,2074
2148.4112969538774,2043
2150.3142604363848,2058
2152.2167741303097,2047
2154.1188383102535,2080
2156.0204532508997,2086
2157.9216192270064,2116
2159.822336513414,2134
2161.7226053850413,2107
2163.622426116884,2025
2165.5217989840185,2066
2167.4207242616,2114
2169.319202224862,2064
2171.2172331491165,2102
2173.1148173097563,2071
2175.0119549822507,2130
2176.90864644215,2087
2178.8048919650823,2073
2180.7006918267534,2101
2182.596046302952,2136
2184.4909556695407,2092
2186.3854202024645,2109
2188.279440177746,2078
2190.173015871487,2105
2192.066147559868,2006
2193.958835519149,2100
2195.851080025667,2087
2197.7428813558417,2150
2199.6342397861667,2097
2201.5251555932186,2109
2203.415629053651,2075
2205.3056604441986,2165
2207.19525004167,2061
2209.084398122958,2147
2210.9731049650327,2148
2212.861370844941,2162
2214.749196039812,2147
2216.636580826851,2120
2218.523525483344,2074
2220.410030286655,2137
2222.296095514226,2039
2224.1817214435805,2132
2226.066908352319,2160
2227.951656518121,2096
2229.835966218746,2157
2231.71983773203,2113
2233.6032713358913,2120
2235.486267308324,2094
2237.3688259274036,2089
2239.2509474712824,2119
2241.132632218193,2154
2243.013880446447,2188
2244.8946924344323,2098
2246.7750684606203,2083
2248.6550088035574,2093
2250.534513741871,2145
2252.413583554265,2157
2254.292218519526,2069
2256.170418916517,2122
2258.0481850241786,2072
2259.925517121534,2099
2261.8024154876825,2204
2263.678880401803,2115
2265.5549121431536,2086
2267.430510991071,2116
2269.305677224971,2077
2271.180411124348,2094
2273.0547129687766,1976
2274.9285830379076,2088
2276.8020216114737,2097
2278.6750289692845,2074
2280.5476053912294,2070
2282.4197511572766,2118
2284.2914665474727,2136
2286.162751841943,2038
2288.0336073208937,2099
2289.904033264608,2174
2291.774029953448,2114
2293.6435976678554,2091
2295.5127366883517,2084
2297.381447295534,2068
2299.2497297700825,2017
2301.1175843927526,1986
2302.9850114443825,2022
2304.852011205885,1977
2306.7185839582553,1919
2308.5847299825664,1883
2310.4504495599676,1904
2312.3157429716925,1851
2314.1806104990483,1878
2316.0450524234247,1908
2317.9090690262888,1871
2319.772660589186,1894
2321.635827393742,1893
2323.498569721661,1918
2325.3608878547248,1926
2327.2227820747967,1864
2329.0842526638157,1888
2330.945299903803,1887
2332.805924076857,1864
2334.6661254651535,1897
2336.525904350951,1893
2338.3852610165827,1896
2340.244195744464,1818
2342.102708817088,1859
2343.9608005170253,1839
2345.8184711269287,1866
2347.675720929526,1834
2349.532550207628,1832
2351.38895924412,1866
2353.24494832197,1904
2355.100517724223,1951
2356.955667734004,1833
2358.810398634514,1849
2360.664710709037,1917
2362.5186042409337,1857
2364.3720795136437,1893
2366.225136810686,1872
2368.0777764156583,1944
2369.929998612237,1891
2371.7818036841777,1903
2373.633191915315,1845
2375.484163589562,1841
2377.3347189909114,1862
2379.184858403434,1891
2381.03458211128,1881
2382.8838903986775,1892
2384.732783549936,1873
2386.5812618494406,1899
2388.4293255816588,1878
2390.2769750311327,1865
2392.1242104824883,1847
2393.971032220427,1842
2395.8174405297295,1859
2397.6634356952563,1918
2399.509018001947,1858
2401.3541877348193,1871
2403.1989451789705,1857
2405.043290619576,1879
2406.8872243418905,1870
2408.730746631247,1860
2410.5738577730594,1912
2412.4165580528183,1956
2414.258847756095,1918
2416.100727168537,1854
2417.9421965758734,1818
2419.783256263912,1807
2421.623906518538,1831
2423.4641476257157,1790
2425.303979871491,1839
2427.143403541984,1860
2428.9824189233977,1911
2430.821026302012,1891
2432.6592259641866,1913
2434.497018196361,1922
2436.33440328505,1839
2438.171381516851,1847
2440.00795317844,1872
2441.844118556569,1912
2443.6798779380724,1840
2445.5152316098606,1859
2447.3501798589255,1837
2449.1847229723357,1907
2451.0188612372403,1846
2452.8525949408663,1931
2454.6859243705203,1850
2456.518849813587,1886
2458.3513715575314,1826
2460.183489889895,1844
2462.015205098301,1890
2463.8465174704493,1839
2465.67742729412,1892
2467.5079348571717,1891
2469.338040447542,1888
2471.1677443532476,1885
2472.9970468623833,1853
2474.825948263123,1842
2476.6544488437207,1885
2478.482548892508,1874
2480.310248697896,1872
2482.137548548374,1884
2483.9644487325118,1847
2485.790949538956,1910
2487.617051256433,1836
2489.44275417375,1993
2491.26805857979,1858
2493.0929647635157,1913
2494.917473013971,1888
2496.741583620276,1932
2498.5652968716304,1895
2500.3886130573137,1939
2502.2115324666834,1864
2504.0340553891765,1862
2505.856182114308,1999
2507.6779129316733,1905
2509.499248130945,1923
2511.3201880018764,1911
2513.140732834298,1937
2514.9608829181198,1883
2516.780638543331,1940
2518.6,1913
2520.418967578273,1875
2522.237541568376,1900
2524.0557222606144,1919
2525.8735099453706,1969
2527.6909049131086,1932
2529.507907454368,1892
2531.32451785977,1961
2533.140736420014,1933
2534.9565634258774,1931
2536.771999168218,1995
2538.5870439379714,1991
2540.4016980261526,1971
2542.2159617238544,1931
2544.02983532225,1966
2545.8433191125914,2028
2547.656413386209,1888
2549.4691184345115,1923
2551.2814345489874,1994
2553.093362021204,1923
2554.904901142808,1938
2556.716052205523,1940
2558.526815501153,2004
2560.3371913215824,2009
2562.147179958771,1982
2563.956781704761,1960
2565.7659968516705,1911
2567.5748256916986,2029
2569.3832685171224,2099
2571.1913256202984,2015
2572.9989972936614,2070
2574.806283829725,1995
2576.613185521084,1996
2578.4197026604074,2105
2580.2258355404483,2018
2582.031584454035,2016
2583.836949694077,1992
2585.6419315535613,2091
2587.4465303255533,2110
2589.2507463032002,2089
2591.0545797797245,2127
2592.8580310484303,2117
2594.6611004026995,2072
2596.463788135992,2068
2598.266094541849,2184
2600.0680199138874,2173
2601.869564545807,2104
2603.670728731383,2164
2605.4715127644704,2125
2607.2719169390048,2137
2609.071941548998,2096
2610.8715868885433,2113
2612.670853251811,2114
2614.469740933052,2139
2616.268250226594,2127
2618.0663814268455,2128
2619.864134828292,2098
2621.6615107255006,2123
2623.458509413115,2046
2625.2551311858597,2161
2627.0513763385347,2059
2628.8472451660223,2070
2630.6427379632833,2115
2632.4378550253564,2050
2634.232596647359,2095
2636.026963124488,1989
2637.8209547520187,2027
2639.6145718253065,2019
2641.407814639785,2005
2643.200683490966,2045
2644.9931786744414,2068
2646.7853004858807,1991
2648.577049221034,1950
2650.3684251757277,1983
2652.1594286458712,2006
2653.9500599274484,1952
2655.740319316525,1991
2657.5302071092437,1898
2659.3197236018286,2013
2661.10886909058,1947
2662.8976438718782,1922
2664.686048242183,1930
2666.4740824980327,1957
2668.2617469360443,1999
2670.0490418529134,1982
2671.8359675454153,1910
2673.622524310403,1923
2675.408712444811,1935
2677.1945322456495,1922
2678.979984010009,1956
2680.76506803506,1989
2682.5497846180497,1918
2684.334134056306,1873
2686.1181166472343,1826
2687.9017326883213,1806
2689.6849824771293,1834
2691.4678663113013,1869
2693.2503844885596,1919
2695.032537306705,1859
2696.8143250636167,1893
2698.5957480572542,1918
2700.3768065856534,1875
2702.1575009469316,1832
2703.937831439283,1833
2705.717798360982,1840
2707.4974020103837,1843
2709.276642685917,1788
2711.055520686095,1872
2712.834036309506,1862
2714.612189854819,1812
2716.389981620782,1786
2718.1674119062204,1736
2719.944481010041,1827
2721.721189231226,1879
2723.4975368688415,1838
2725.273524222027,1760
2727.0491515900053,1787
2728.824419272075,1758
2730.5993275676146,1800
2732.3738767760838,1825
2734.148067197016,1749
2735.921899130031,1807
2737.6953728748194,1796
2739.468488731156,1821
2741.2412469988926,1830
2743.0136479779617,1792
2744.785691968372,1809
2746.5573792702116,1766
2748.3287101836504,1814
2750.099685008934,1738
2751.870304046388,1818
2753.640567596418,1832
2755.4104759595057,1816
2757.1800294362156,1766
2758.949228327187,1803
2760.7180729331412,1791
2762.486563554877,1820
2764.254700493272,1799
2766.022484049284,1747
2767.789914523947,1808
2769.5569922183786,1790
2771.3237174337705,1850
2773.090090471394,1701
2774.8561116326036,1686
2776.6217812188274,1780
2778.3870995315756,1815
2780.1520668724356,1732
2781.9166835430747,1779
2783.6809498452394,1765
2785.444866080754,1748
2787.2084325515225,1822
2788.971649559527,1805
2790.73451740683,1811
2792.4970363955713,1749
2794.2592068279705,1755
2796.0210290063264,1758
2797.7825032330147,1780
2799.543629810493,1765
2801.304409041296,1731
2803.0648412280366,1802
2804.8249266734088,1826
2806.5846656801846,1734
2808.344058551212,1807
2810.1031055894246,1711
2811.8618070978273,1744
2813.6201633795085,1756
2815.378174737636,1717
2817.1358414754536,1745
2818.893163896285,1687
2820.6501423035334,1692
2822.4067770006814,1734
2824.1630682912883,1777
2825.9190164789957,1836
2827.6746218675207,1792
2829.429884760661,1772
2831.184805462294,1790
2832.9393842763743,1759
2834.693621506936,1854
2836.4475174580916,1759
2838.201072434034,1786
2839.954286739034,1826
2841.707160677441,1787
2843.459694553685,1792
2845.2118886722724,1801
2846.96374333779,1767
2848.7152588549034,1701
2850.4664355283567,1721
2852.217273662973,1776
2853.9677735636546,1785
2855.7179355353833,1747
2857.4677598832186,1789
2859.217246912299,1714
2860.9663969278427,1796
2862.715210235146,1743
2864.4636871395846,1732
2866.211827946614,1667
2867.9596329617652,1751
2869.7071024906536,1753
2871.4542368389684,1710
2873.20103631248,1679
2874.947501217038,1701
2876.6936318585695,1712
2878.4394285430812,1731
2880.1848915766604,1787
2881.9300212654707,1747
2883.6748179157553,1815
2885.4192818338374,1736
2887.1634133261173,1715
2888.907212699077,1792
2890.6506802592744,1741
2892.393816313348,1738
2894.1366211680142,1766
2895.8790951300693,1704
2897.621238506388,1740
2899.363051603925,1778
2901.1045347297118,1708
2902.8456881908596,1694
2904.58651229456,1710
2906.327007348081,1698
2908.067173658772,1749
2909.8070115340597,1679
2911.5465212814497,1731
2913.285703208527,1734
2915.0245576229563,1752
2916.7630848324807,1722
2918.5012851449196,1820
2920.2391588681758,1765
2921.976706310227,1729
2923.7139277791334,1721
2925.4508235830313,1714
2927.187394030137,1704
2928.923639428745,1701
2930.6595600872306,1744
2932.395156314046,1728
2934.1304284177218,1706
2935.8653767068713,1749
2937.6000014901815,1779
2939.3343030764227,1746
2941.068281774442,1723
2942.8019378931644,1756
2944.5352717415976,1845
2946.2682836288236,1781
2948.0009738640065,1738
2949.7333427563885,1756
2951.465390615289,1737
2953.1971177501086,1741
2954.9285244703265,1797
2956.6596110855,1807
2958.3903779052657,1680
2960.1208252393385,1686
2961.8509533975125,1690
2963.5807626896617,1762
2965.3102534257378,1793
2967.0394259157715,1755
2968.768280469873,1737
2970.496817398232,1721
2972.2250370111146,1740
2973.952939618869,1732
2975.6805255319196,1668
2977.4077950607707,1669
2979.134748516006,1766
2980.861386208289,1726
2982.587708448359,1788
2984.313715547037,1702
2986.039407815222,1757
2987.764785563891,1701
2989.489849104102,1800
2991.2145987469908,1692
2992.9390348037705,1702
2994.6631575857346,1709
2996.3869674042576,1743
2998.1104645707887,1684
2999.83364939686,1698
3001.5565221940783,1701
3003.2790832741334,1698
3005.0013329487924,1762
3006.7232715298996,1711
3008.4448993293804,1648
3010.166216659239,1676
3011.887223831558,1699
3013.607921158498,1644
3015.3283089522993,1672
3017.0483875252826,1668
3018.7681571898443,1697
3020.4876182584626,1698
3022.2067710436927,1627
3023.9256158581707,1697
3025.644153014609,1675
3027.362382825801,1712
3029.0803056046193,1707
3030.797921664012,1603
3032.5152313170106,1672
3034.2322348767225,1681
3035.9489326563353,1669
3037.665324969115,1694
3039.3814121284063,1610
3041.097194447633,1681
3042.812672240299,1669
3044.5278458199855,1699
3046.2427155003525,1731
3047.9572815951406,1668
3049.671544418167,1583
3051.38550428333,1668
3053.0991615046073,1644
3054.812516396051,1646
3056.5255692717974,1732
3058.2383204460575,1674
3059.9507702331257,1734
3061.662918947372,1667
3063.3747669032446,1734
3065.0863144152736,1658
3066.7975617980674,1656
3068.508509366309,1630
3070.219157434767,1655
3071.9295063182844,1672
3073.639556331785,1689
3075.3493077902704,1743
3077.058761008821,1781
3078.7679163025964,1694
3080.476773986837,1656
3082.1853343768594,1715
3083.89359778806,1679
3085.6015645359153,1703
3087.3092349359786,1699
3089.016609303884,1726
3090.7236879553434,1686
3092.4304712061476,1739
3094.136959372166,1673
3095.843152769349,1695
3097.5490517137237,1748
3099.2546565213966,1701
3100.959967508554,1659
3102.66498499146,1674
3104.3697092864577,1694
3106.0741407099695,1677
3107.778279578498,1674
3109.482126208622,1637
3111.1856809170004,1583
3112.8889440203716,1733
3114.5919158355528,1727
3116.294596679439,1699
3117.996986869006,1708
3119.6990867213062,1699
3121.4008965534726,1641
3123.102416682717,1647
3124.803647426329,1767
3126.5045891016784,1665
3128.205242026213,1694
3129.90560651746,1695
3131.605682893025,1725
3133.3054714705922,1740
3135.0049725679282,1704
3136.7041865028714,1670
3138.4031135933465,1661
3140.101754157353,1726
3141.800108512971,1627
3143.498176978357,1640
3145.1959598717494,1657
3146.8934575114636,1714
3148.5906702158954,1667
3150.2875983035183,1684
3151.9842420928853,1617
3153.680601902627,1701
3155.376678051456,1658
3157.07247085816,1599
3158.767980641609,1648
3160.463207720748,1627
3162.158152414606,1631
3163.8528150422862,1630
3165.5471959229726,1653
3167.2412953759303,1692
3168.9351137204976,1668
3170.628651276098,1648
3172.3219083622307,1654
3174.014885298474,1646
3175.707582404485,1696
3177.4000000000005,1627
3179.092138404835,1667
3180.7839979388846,1654
3182.47557892212,1618
3184.166881674594,1662
3185.8579065164386,1562
3187.5486537678626,1645
3189.2391237491547,1642
3190.9293167806827,1616
3192.6192331828934,1636
3194.3088732763117,1652
3195.998237381542,1641
3197.687325819268,1615
3199.376138910251,1682
3201.064676975334,1622
3202.7529403354347,1632
3204.4409293115523,1714
3206.1286442247647,1645
3207.816085396229,1606
3209.5032531471825,1592
3211.190147798936,1681
3212.8767696728846,1633
3214.5631190905015,1668
3216.2491963733373,1676
3217.9350018430214,1650
3219.6205358212637,1638
3221.305798629851,1649
3222.990790590651,1596
3224.6755120256103,1599
3226.359963256751,1575
3228.0441446061795,1585
3229.7280563960758,1610
3231.411698948703,1628
3233.0950725863995,1614
3234.778177631587,1617
3236.461014406761,1610
3238.1435832345005,1584
3239.8258844374595,1598
3241.507918338374,1658
3243.1896852600576,1642
3244.8711855254023,1597
3246.552419457381,1629
3248.233387379042,1600
3249.914089613516,1677
3251.59452648401,1661
3253.274698313813,1606
3254.95460542629,1551
3256.6342481448855,1568
3258.313626793125,1648
3259.9927416946084,1612
3261.6715931730196,1555
3263.3501815521176,1652
3265.0285071557437,1544
3266.706570307815,1576
3268.3843713323286,1611
3270.0619105533615,1567
3271.739188295068,1584
3273.4162048816834,1539
3275.0929606375184,1627
3276.769455886966,1586
3278.445690954498,1618
3280.1216661646613,1617
3281.797381842087,1667
3283.4728383114807,1629
3285.1480358976296,1605
3286.8229749253996,1566
3288.4976557197333,1599
3290.172078605655,1600
3291.846243908266,1610
3293.5201519527463,1477
3295.193803064357,1588
3296.8671975684374,1568
3298.5403357904024,1547
3300.21321805575,1601
3301.8858446900567,1644
3303.558216018975,1636
3305.23033236824,1558
3306.9021940636603,1605
3308.57380143113,1613
3310.2451547966184,1606
3311.916254486174,1622
3313.5871008259246,1570
3315.2576941420766,1609
3316.9280347609147,1562
3318.5981230088046,1542
3320.2679592121895,1606
3321.9375436975924,1537
3323.606876791612,1579
3325.27595882093,1576
3326.944790112305,1549
3328.6133709925753,1573
3330.2817017886573,1565
3331.949782827547,1569
3333.617614436319,1583
3335.2851969421245,1613
3336.952530672199,1594
3338.619615953853,1589
3340.286453114475,1626
3341.9530424815357,1537
3343.619384382583,1566
3345.2854791452437,1634
3346.951327097224,1565
3348.6169285663073,1604
3350.2822838803577,1612
3351.947393367319,1522
3353.61225735521,1565
3355.2768761721345,1577
3356.9412501462693,1585
3358.605379605873,1634
3360.2692648792827,1581
3361.9329062949146,1566
3363.596304181263,1576
