CollectionTime,7/10/2024 3:24:40 PM
ExposureUsed,3
CalibratedSpectrum
-962.7078968117929,564
-959.9714848408522,583
-957.2358232597828,606
-954.5009119013725,570
-951.7667505983302,626
-949.0333391832855,639
-946.3006774887896,629
-943.5687653473143,635
-940.837602591253,659
-938.1071890529199,606
-935.3775245645503,640
-932.6486089583007,657
-929.9204420662485,677
-927.1930237203925,640
-924.4663537526524,622
-921.7404319948689,666
-919.0152582788041,633
-916.2908324361409,626
-913.5671542984834,604
-910.8442236973568,615
-908.1220404642074,630
-905.4006044304027,638
-902.679915427231,661
-899.959973285902,631
-897.2407778375464,658
-894.5223289132158,643
-891.8046263438832,632
-889.0876699604426,625
-886.3714595937089,616
-883.6559950744183,634
-880.9412762332282,598
-878.2273029007168,636
-875.5140749073835,590
-872.8015920836489,607
-870.0898542598545,638
-867.3788612662631,615
-864.6686129330585,585
-861.9591090903457,616
-859.2503495681506,624
-856.5423341964203,601
-853.8350628050229,656
-851.1285352237478,656
-848.4227512823054,593
-845.7177108103272,640
-843.0134136373656,584
-840.3098595928943,587
-837.6070485063082,640
-834.9049802069229,640
-832.2036545239757,630
-829.5030712866244,619
-826.8032303239481,622
-824.1041314649472,646
-821.4057745385428,618
-818.7081593735775,609
-816.0112857988148,637
-813.3151536429393,624
-810.6197627345566,620
-807.9251129021936,624
-805.2312039742981,639
-802.5380357792392,639
-799.8456081453069,659
-797.1539209007124,658
-794.462973873588,634
-791.772766891987,700
-789.083299783884,652
-786.3945723771743,633
-783.7065844996748,628
-781.0193359791231,646
-778.3328266431781,638
-775.6470563194197,641
-772.9620248353489,631
-770.2777320183878,596
-767.5941776958798,629
-764.9113616950891,620
-762.2292838432011,665
-759.5479439673222,656
-756.8673418944801,668
-754.1874774516235,641
-751.5083504656222,637
-748.8299607632671,691
-746.15230817127,674
-743.475392516264,671
-740.7992136248035,688
-738.1237713233636,701
-735.4490654383407,671
-732.7750957960521,658
-730.1018622227365,696
-727.4293645445534,732
-724.7576025875837,664
-722.0865761778291,656
-719.4162851412126,679
-716.7467293035781,724
-714.0779084906909,714
-711.409822528237,717
-708.7424712418238,675
-706.0758544569796,658
-703.4099719991541,722
-700.7448236937178,708
-698.0804093659622,758
-695.4167288411002,709
-692.7537819442656,698
-690.0915685005134,671
-687.4300883348199,684
-684.7693412720819,697
-682.1093271371178,715
-679.4500457546669,700
-676.7914969493897,731
-674.1336805458676,688
-671.4765963686034,717
-668.8202442420206,720
-666.1646239904642,703
-663.5097354382001,684
-660.8555784094151,722
-658.2021527282176,704
-655.5494582186366,725
-652.8974947046223,773
-650.2462620100463,723
-647.5957599587009,772
-644.9459883742998,777
-642.2969470804776,778
-639.6486359007902,793
-637.0010546587141,774
-634.3542031776476,800
-631.7080812809096,721
-629.0626887917401,754
-626.4180255333008,821
-623.7740913286734,777
-621.1308860008619,874
-618.4884093727904,773
-615.8466612673046,767
-613.2056415071715,810
-610.5653499150785,786
-607.9257863136347,787
-605.28695052537,822
-602.6488423727357,746
-600.0114616781036,723
-597.3748082637674,794
-594.7388819519412,811
-592.1036825647604,832
-589.4692099242818,858
-586.8354638524829,829
-584.2024441712624,812
-581.5701507024403,814
-578.9385832677575,820
-576.3077416888759,842
-573.6776257873787,829
-571.0482353847704,785
-568.4195703024757,833
-565.7916303618415,848
-563.164415384135,825
-560.5379251905453,894
-557.9121596021815,822
-555.2871184400748,825
-552.6628015251767,825
-550.0392086783606,777
-547.4163397204204,799
-544.794194472071,848
-542.1727727539491,856
-539.5520743866118,858
-536.9320991905377,866
-534.3128469861261,931
-531.6943175936979,1002
-529.0765108334947,1004
-526.4594265256793,1042
-523.8430644903358,1139
-521.2274245474689,1251
-518.612506517005,1250
-515.9983102187913,1222
-513.3848354725959,1313
-510.77208209810846,1390
-508.16004991493924,1513
-505.5487387426199,1697
-502.9381484006032,1892
-500.3282787082628,2028
-497.71912948489364,1940
-495.1107005497117,1874
-492.5029917218539,1772
-489.8960028203786,1506
-487.28973366426493,1372
-484.68418407241325,1289
-482.07935386364494,1170
-479.47524285670266,1140
-476.87185087025,1141
-474.2691777228715,1110
-471.66722323307334,1146
-469.0659872192821,1126
-466.4654694998459,1109
-463.86566989303384,1072
-461.26658821703614,1059
-458.66822428996414,1049
-456.07057792985,1065
-453.4736489546475,1069
-450.877437182231,1065
-448.28194243039627,1064
-445.68716451686,968
-443.09310325926003,958
-440.49975847515555,1019
-437.9071299820263,1016
-435.31521759727354,971
-432.72402113821954,1012
-430.13354042210767,1094
-427.5437752661022,1146
-424.95472548728867,1084
-422.36639090267386,1088
-419.7787713291855,1149
-417.1918665836721,1133
-414.60567648290385,1148
-412.0202008435715,1173
-409.4354394822874,1203
-406.8513922155845,1153
-404.26805885991723,1151
-401.685439231661,1145
-399.103533147112,1077
-396.522340422488,1067
-393.9418608739278,1125
-391.3620943174908,1087
-388.7830405691583,1150
-386.2046994448317,1071
-383.6270707603344,1015
-381.05015433141045,1000
-378.473949973725,919
-375.8984575028645,872
-373.32367673433623,814
-370.74960748356875,776
-368.1762495659117,737
-365.60360279663576,715
-363.03166699093265,636
-360.4604419639154,630
-357.8899275306178,575
-355.32012350599507,553
-352.7510297049233,571
-350.1826459421999,556
-347.61497203254316,548
-345.04800779059235,506
-342.4817530309082,521
-339.91620756797226,539
-337.35137121618743,554
-334.7872437898774,570
-332.22382510328725,607
-329.66111497058273,561
-327.09911320585127,609
-324.53781962310075,597
-321.9772340362607,562
-319.4173562591816,489
-316.8581861056348,537
-314.2997233893127,551
-311.7419679238294,548
-309.1849195227194,560
-306.62857799943856,655
-304.0729431673641,640
-301.51801483979375,592
-298.963792829947,634
-296.41027695096386,639
-293.85746701590574,671
-291.3053628377552,701
-288.7539642294155,747
-286.2032710037115,702
-283.65328297338897,653
-281.1039999511146,667
-278.5554217494762,690
-276.007548180983,863
-273.4603790580651,831
-270.9139141930734,785
-268.3681533982807,782
-265.8230964858798,765
-263.27874326798565,927
-260.7350935566336,926
-258.1921471637804,904
-255.6499039013039,820
-253.10836358100266,769
-250.56752601459698,684
-248.02739101372765,703
-245.48795838995704,771
-242.94922795476816,847
-240.41119951956557,857
-237.8738728956746,845
-235.33724789434166,802
-232.80132432673452,741
-230.2661020039418,723
-227.73158073697357,776
-225.19776033676033,863
-222.66464061415422,932
-220.1322213799284,901
-217.60050244477725,816
-215.06948361931552,757
-212.53916471408013,850
-210.00954553952818,831
-207.48062590603843,873
-204.9524056239104,886
-202.4248845033651,922
-199.8980623545441,904
-197.37193898751036,866
-194.84651421224817,872
-192.32178783866232,920
-189.79775967657952,980
-187.27442953574644,1025
-184.7517972258321,1087
-182.2298625564256,993
-179.7086253370378,973
-177.18808537710026,943
-174.66824248596583,971
-172.14909647290835,1058
-169.6306471471229,1002
-167.11289431772548,1115
-164.59583779375328,1132
-162.07947738416453,1254
-159.5638128978386,1415
-157.04884414357605,1439
-154.53457093009854,1522
-152.02099306604828,1343
-149.50811035998936,1371
-146.99592262040665,1297
-144.48442965570587,1271
-141.97363127421409,1197
-139.46352728417958,1418
-136.95411749377126,1575
-134.44540171107985,1381
-131.93737974411636,1238
-129.43005140081357,1155
-126.92341648902493,1443
-124.41747481652521,2175
-121.91222619101006,2545
-119.40767042009657,2763
-116.90380731132257,3079
-114.40063667214702,3638
-111.8981583099503,3735
-109.3963720320337,3296
-106.89527764561933,2705
-104.39487495785067,2696
-101.89516377579241,3985
-99.39614390642998,6129
-96.89781515667039,7418
-94.40017733334128,6712
-91.90323024319173,4902
-89.40697369289148,4223
-86.91140748903172,5080
-84.41653143812482,8155
-81.92234534660395,9997
-79.42884902082358,9566
-76.93604226705907,10478
-74.4439248915071,17060
-71.95249670028534,24590
-69.46175749943245,32663
-66.97170709490854,36622
-64.48234529259423,32390
-61.99367189829195,23257
-59.50568671772464,18011
-57.01838955653636,14298
-54.53178022029283,10185
-52.045858514480074,7936
-49.560624244506016,10104
-47.07607721569923,13036
-44.59221723330904,14631
-42.10904410250669,14633
-39.62655762838392,15164
-37.14475761595372,15590
-34.66364387015028,17367
-32.18321619582866,20946
-29.70347439776515,22960
-27.224418280657005,21751
-24.74604764912317,21480
-22.26836230770266,22029
-19.7913620608565,32284
-17.315046712966478,54802
-14.83941606833514,65039
-12.36446993118659,65039
-9.89020810566592,65039
-7.416630395839093,65039
-4.94373660569363,65039
-2.471526539137585,65039
-6.821210263296962E-13,65039
2.47084320796705,65039
4.941003281093458,65039
7.410480415786196,65039
9.879274808531363,65039
12.347386655893956,65039
14.814816154518212,65039
17.28156350112681,65039
19.74762889252179,65039
22.21301252558385,65039
24.67771459727237,21442
27.141735304626195,4435
29.605074844762612,3682
32.06773341487792,3834
34.52971121224755,4229
36.99100843422559,3574
39.45162527824516,3067
41.91156194181792,2530
44.370818622535126,2147
46.82939551806646,1906
49.287292826160524,1795
51.74451074464503,2964
54.201049471426245,3991
56.65690920448981,4064
59.112090141899785,3091
61.56659248179983,2377
64.02041642241159,2024
66.4735621620365,1641
68.92602989905402,1501
71.37781983192338,2018
73.82893215918205,2227
76.27936707944684,1960
78.72912479141326,1739
81.17820549385567,1618
83.62660938562783,1645
86.07433666566146,1787
88.5213875329681,1749
90.96776218663751,1456
93.41346082583925,1498
95.85848364982041,1531
98.30283085790859,1508
100.7465026495089,1614
103.18949922410604,2028
105.63182078126385,1943
108.07346752062438,1739
110.51443964190923,1481
112.95473734491827,1330
115.39436082953114,1232
117.83331029570547,1298
120.27158594347827,1771
122.7091879729652,1974
125.1461165843615,2051
127.58237197794062,1858
130.01795435405518,1641
132.4528639131364,1430
134.88710085569494,1288
137.32066538231982,1344
139.75355769367923,1619
142.1857779905207,1385
144.61732647366978,1230
147.04820334403132,1090
149.47840880258934,1175
151.90794305040674,1348
154.33680628862487,1616
156.76499871846443,1667
159.19252054122433,1782
161.61937195828352,1739
164.04555317109896,1767
166.47106438120693,2036
168.89590579022217,2456
171.320077599839,2567
173.7435800118302,2825
176.16641322804742,2824
178.58857745042144,2769
181.01007288096173,2742
183.43089972175687,2745
185.85105817497413,2783
188.27054844285988,2835
190.6893707277394,2957
193.10752523201643,2890
195.5250121581745,2991
197.9418317087751,3024
200.3579840864594,2975
202.7734694939469,3019
205.18828813403627,3090
207.6024402096051,3297
210.01592592360964,3317
212.42874547908548,3192
214.84089907914665,3235
217.2523869269868,3065
219.66320922587727,3093
222.0733661791695,3017
224.48285799029293,3136
226.8916848627572,3091
229.29984700014882,3153
231.7073446061355,3246
234.11417788446204,3077
236.520347038953,3047
238.92585227351185,3116
241.33069379212054,3229
243.73487179884035,3280
246.1383864978112,3323
248.541238093252,3155
250.9434267894609,3107
253.34495279081432,3072
255.74581630176783,3185
258.1460175268563,3216
260.54555667069314,3091
262.9444339379703,3138
265.3426495334594,3033
267.7402036620107,3002
270.1370965285529,3171
272.53332833809407,3257
274.9288992957214,3092
277.32380960660055,3091
279.718059475976,3017
282.1116491091717,3110
284.5045787115897,2983
286.89684848871195,2998
289.2884586460981,3112
291.67940938938807,3093
294.0697009242996,3112
296.4593334566299,3126
298.84830719225477,3056
301.23662233712923,3012
303.6242790972866,2981
306.01127767884,2898
308.39761828798066,2840
310.78330113097934,2802
313.16832641418534,2913
315.5526943440269,2895
317.9364051270112,2772
320.3194589697242,2753
322.70185607883093,2887
325.0835966610754,2932
327.4646809232805,2801
329.8451090723478,2783
332.2248813152577,2754
334.6039978590701,2727
336.9824589109231,2788
339.36026467803447,2814
341.7374153677,2805
344.113911187295,2720
346.48975234427337,2634
348.8649390461686,2716
351.2394715005918,2525
353.61334991523415,2599
355.9865744978655,2598
358.35914545633375,2659
360.73106299856715,2650
363.10232733257146,2650
365.47293866643247,2588
367.84289720831396,2584
370.2122031664593,2584
372.5808567491905,2516
374.9488581649083,2598
377.31620762209275,2498
379.6829053293021,2556
382.0489514951745,2575
384.4143463284262,2524
386.7790900378528,2577
389.14318283232853,2434
391.50662492080653,2477
393.86941651231916,2537
396.23155781597745,2561
398.5930490409713,2555
400.9538903965696,2554
403.3140820921202,2530
405.6736243370498,2498
408.03251734086336,2473
410.3907613131465,2535
412.74835646356166,2518
415.10530300185144,2425
417.4616011378372,2470
419.81725108141893,2498
422.1722530425758,2418
424.5266072313656,2466
426.880313857925,2400
429.2333731324701,2521
431.58578526529516,2488
433.9375504667738,2383
436.2886689473588,2418
438.63914091758113,2421
440.9889665880513,2352
443.33814616945835,2459
445.68667987257015,2366
448.03456790823395,2379
450.3818104873759,2361
452.72840782100013,2438
455.07436012019105,2327
457.41966759611057,2456
459.7643304600007,2419
462.10834892318155,2390
464.4517231970525,2379
466.79445349309174,2400
469.1365400228566,2361
471.4779829979826,2418
473.81878263018564,2449
476.15893913125876,2522
478.4984527130747,2505
480.8373235875855,2538
483.17555196682144,2647
485.5131380628919,2708
487.8500820879857,2753
490.1863842543697,2827
492.52204477439034,3112
494.8570638604725,3340
497.1914417251204,3633
499.52517858091653,4033
501.85827464052306,4327
504.19073011668036,4317
506.5225452222086,4435
508.85372017000566,4139
511.18425517304956,3914
513.514150444396,4022
515.8434061971808,4612
518.1720226446176,5306
520.4999999999999,5558
522.8273384766991,5200
525.1540382881666,4890
527.480099647932,4411
529.8055227696037,3800
532.1303078668694,3250
534.454455153496,2810
536.777964843328,2703
539.1008371502907,2668
541.4230722883866,2636
543.744670471698,2499
546.0656319143858,2403
548.3859568306899,2570
550.7056454349294,2436
553.0246979415016,2420
555.3431145648834,2443
557.6608955196306,2517
559.978041020377,2417
562.2945512818363,2385
564.6104265188006,2496
566.9256669461412,2519
569.2402727788082,2472
571.5542442318302,2504
573.8675815203156,2555
576.1802848594508,2482
578.4923544645015,2584
580.8037905508126,2614
583.114593333807,2471
585.4247630289875,2473
587.7342998519354,2596
590.0432040183106,2562
592.3514757438526,2565
594.6591152443794,2580
596.9661227357875,2544
599.2724984340531,2525
601.578242555231,2582
603.8833553154542,2579
606.1878369309362,2581
608.4916876179676,2523
610.7949075929192,2528
613.0974970722403,2554
615.3994562724587,2531
617.7007854101818,2487
620.0014847020951,2583
622.3015543649641,2573
624.6009946156324,2545
626.8998056710224,2571
629.1979877481361,2590
631.4955410640538,2487
633.7924658359349,2570
636.0887622810175,2618
638.3844306166192,2518
640.6794710601358,2559
642.9738838290426,2610
645.2676691408932,2490
647.5608272133207,2577
649.853358264037,2553
652.1452625108324,2517
654.4365401715764,2572
656.7271914642178,2535
659.0172166067838,2540
661.3066158173809,2492
663.5953893141935,2589
665.8835373154867,2559
668.1710600396028,2572
670.4579577049639,2536
672.7442305300709,2564
675.0298787335033,2591
677.3149025339197,2583
679.599302150058,2574
681.8830778007342,2591
684.1662297048437,2490
686.4487580813608,2472
688.7306631493387,2657
691.0119451279091,2579
693.2926042362834,2596
695.5726406937516,2487
697.8520547196814,2656
700.1308465335215,2533
702.4090163547982,2452
704.6865644031171,2563
706.9634908981619,2527
709.2397960596965,2620
711.5154801075631,2525
713.7905432616823,2626
716.0649857420548,2602
718.3388077687592,2585
720.612009561953,2569
722.8845913418733,2553
725.1565533288352,2520
727.427895743234,2605
729.6986188055427,2541
731.9687227363137,2612
734.238207756178,2558
736.5070740858458,2527
738.7753219461066,2495
741.0429515578281,2539
743.3099631419569,2600
745.5763569195191,2585
747.8421331116193,2558
750.1072919394409,2510
752.3718336242467,2512
754.6357583873777,2668
756.8990664502545,2583
759.1617580343765,2587
761.423833361321,2500
763.6852926527457,2591
765.9461361303862,2678
768.206364016058,2546
770.4659765316536,2485
772.7249738991469,2574
774.9833563405886,2649
777.2411240781092,2693
779.4982773339183,2604
781.7548163303044,2682
784.010741289634,2717
786.2660524343538,2691
788.5207499869881,2615
790.7748341701416,2652
793.0283052064964,2646
795.2811633188143,2700
797.5334087299362,2599
799.7850416627813,2590
802.0360623403484,2653
804.2864709857143,2620
806.5362678220353,2561
808.7854530725468,2649
811.0340269605625,2555
813.2819897094754,2592
815.5293415427581,2565
817.77608268396,2787
820.0222133567116,2604
822.2677337847211,2565
824.5126441917765,2612
826.7569448017433,2622
829.0006358385675,2599
831.2437175262731,2611
833.4861900889629,2717
835.7280537508192,2632
837.9693087361026,2661
840.2099552691533,2617
842.4499935743896,2743
844.689423876309,2567
846.9282463994886,2587
849.1664613685833,2716
851.4040690083276,2714
853.6410695435349,2547
855.877463199097,2549
858.1132501999847,2615
860.3484307712487,2702
862.5830051380175,2619
864.8169735254988,2602
867.0503361589791,2684
869.2830932638243,2694
871.5152450654786,2705
873.7467917894654,2600
875.9777336613873,2624
878.2080709069252,2695
880.4378037518389,2658
882.666932421968,2674
884.8954571432301,2738
887.1233781416219,2723
889.3506956432192,2723
891.5774098741766,2751
893.803521060728,2758
896.0290294291852,2720
898.2539352059397,2746
900.4782386174619,2721
902.7019398903011,2668
904.925039251085,2752
907.147536926521,2701
909.3694331433943,2656
911.59072812857,2743
913.8114221089921,2683
916.0315153116827,2709
918.2510079637437,2678
920.4699002923547,2517
922.6881925247761,2679
924.905884888345,2627
927.1229776104793,2670
929.3394709186747,2616
931.555365040506,2666
933.7706602036275,2609
935.9853566357709,2683
938.1994545647489,2622
940.4129542184515,2725
942.6258558248488,2612
944.8381596119883,2588
947.0498658079974,2580
949.2609746410825,2621
951.4714863395287,2612
953.6814011316998,2545
955.8907192460387,2630
958.0994409110671,2510
960.3075663553858,2492
962.5150958076741,2535
964.7220294966913,2575
966.928367651274,2474
969.1341105003388,2507
971.3392582728806,2518
973.5438111979742,2477
975.747769504772,2531
977.9511334225061,2450
980.153903180487,2445
982.3560790081052,2504
984.5576611348289,2504
986.7586497902058,2450
988.9590452038618,2495
991.158847605503,2509
993.3580572249133,2465
995.5566742919558,2411
997.7546990365728,2460
999.952131688785,2399
1002.1489724786926,2386
1004.3452216364743,2404
1006.5408793923874,2324
1008.7359459767691,2402
1010.9304216200343,2278
1013.1243065526781,2269
1015.3176010052733,2346
1017.510305208472,2331
1019.7024193930064,2237
1021.8939437896848,2261
1024.0848786293977,2344
1026.2752241431122,2268
1028.4649805618747,2259
1030.6541481168115,2334
1032.842727039127,2198
1035.0307175601051,2267
1037.2181199111074,2195
1039.4049343235752,2241
1041.591161029029,2277
1043.7768002590683,2195
1045.9618522453698,2233
1048.1463172196918,2257
1050.3301954138697,2189
1052.513487059818,2232
1054.69619238953,2259
1056.8783116350783,2192
1059.0598450286152,2222
1061.2407928023704,2169
1063.4211551886528,2170
1065.6009324198508,2201
1067.780124728432,2236
1069.9587323469414,2220
1072.1367555080046,2245
1074.314194444325,2200
1076.4910493886855,2209
1078.667320573947,2248
1080.843008233051,2160
1083.0181125990161,2201
1085.1926339049414,2207
1087.3665723840027,2218
1089.5399282694575,2262
1091.7127017946405,2203
1093.8848931929647,2171
1096.0565026979243,2187
1098.2275305430899,2160
1100.3979769621128,2174
1102.567842188722,2167
1104.737126456726,2170
1106.9058300000124,2107
1109.0739530525475,2139
1111.2414958483764,2178
1113.4084586216231,2200
1115.5748416064907,2187
1117.7406450372605,2285
1119.9058691482942,2207
1122.0705141740304,2151
1124.2345803489884,2217
1126.3980679077658,2205
1128.5609770850388,2186
1130.7233081155623,2093
1132.8850612341707,2133
1135.0462366757774,2122
1137.2068346753745,2147
1139.3668554680326,2123
1141.526299288901,2067
1143.68516637321,2155
1145.8434569562655,2146
1148.001171273455,2204
1150.158309560244,2189
1152.3148720521767,2153
1154.470858984876,2084
1156.626270594044,2129
1158.7811071154629,2111
1160.9353687849912,2149
1163.089055838569,2103
1165.242168512213,2180
1167.3947070420209,2196
1169.5466716641677,2091
1171.6980626149075,2064
1173.8488801305748,2100
1175.9991244475814,2192
1178.1487958024186,2047
1180.2978944316555,2112
1182.4464205719428,2202
1184.5943744600072,2151
1186.7417563326567,2084
1188.8885664267755,2097
1191.0348049793297,2155
1193.1804722273619,2080
1195.325568407995,2043
1197.4700937584303,2172
1199.614048515948,2154
1201.7574329179074,2211
1203.900247201746,2090
1206.042491604982,2123
1208.1841663652099,2094
1210.3252717201053,2163
1212.465807907422,2123
1214.6057751649923,2152
1216.7451737307279,2158
1218.8840038426192,2178
1221.0222657387353,2186
1223.1599596572241,2134
1225.2970858363137,2172
1227.4336445143094,2122
1229.5696359295966,2158
1231.705060320639,2105
1233.8399179259786,2208
1235.9742089842384,2184
1238.107933734118,2224
1240.2410924143974,2238
1242.373685263935,2169
1244.5057125216676,2179
1246.6371744266116,2206
1248.7680712178621,2156
1250.898403134593,2161
1253.028170416058,2210
1255.1573733015875,2154
1257.2860120305932,2221
1259.4140868425648,2101
1261.54159797707,2083
1263.6685456737569,2210
1265.7949301723515,2266
1267.9207517126597,2210
1270.046010534565,2245
1272.1707068780306,2225
1274.2948409830983,2190
1276.4184130898889,2183
1278.541423438603,2245
1280.6638722695184,2194
1282.785759822993,2171
1284.9070863394636,2257
1287.0278520594447,2204
1289.1480572235314,2241
1291.2677020723963,2199
1293.3867868467923,2236
1295.5053117875495,2291
1297.623277135579,2329
1299.740683131868,2296
1301.8575300174857,2271
1303.973818033578,2324
1306.0895474213703,2310
1308.2047184221678,2326
1310.3193312773528,2249
1312.4333862283888,2282
1314.5468835168163,2361
1316.659823384255,2250
1318.7722060724045,2315
1320.8840318230418,2237
1322.9953008780249,2333
1325.1060134792888,2233
1327.2161698688478,2329
1329.3257702887959,2353
1331.4348149813054,2297
1333.5433041886276,2278
1335.6512381530933,2279
1337.7586171171101,2326
1339.8654413231675,2251
1341.9717110138317,2279
1344.0774264317488,2250
1346.1825878196432,2243
1348.2871954203192,2305
1350.3912494766587,2277
1352.4947502316231,2282
1354.5976979282532,2220
1356.7000928096686,2241
1358.8019351190665,2256
1360.9032250997243,2267
1363.0039629949988,2206
1365.1041490483235,2279
1367.2037835032133,2215
1369.3028666032606,2277
1371.401398592137,2311
1373.4993797135926,2279
1375.5968102114575,2243
1377.6936903296396,2227
1379.7900203121262,2292
1381.8858004029835,2261
1383.9810308463561,2335
1386.075711886469,2258
1388.1698437676241,2333
1390.2634267342032,2335
1392.356461030667,2292
1394.4489469015557,2328
1396.5408845914872,2347
1398.6322743451592,2279
1400.7231164073469,2300
1402.813411022907,2315
1404.903158436773,2330
1406.9923588939578,2262
1409.0810126395531,2328
1411.1691199187303,2387
1413.2566809767386,2387
1415.343696058907,2403
1417.4301654106425,2376
1419.5160892774315,2401
1421.6014679048399,2386
1423.6863015385125,2334
1425.7705904241707,2414
1427.8543348076178,2398
1429.9375349347342,2377
1432.0201910514802,2434
1434.102303403894,2391
1436.1838722380944,2416
1438.2648978002767,2389
1440.3453803367174,2383
1442.4253200937692,2427
1444.5047173178677,2399
1446.5835722555234,2469
1448.6618851533285,2502
1450.739656257952,2421
1452.8168858161434,2467
1454.8935740747306,2411
1456.96972128062,2547
1459.045327680797,2517
1461.120393522327,2550
1463.1949190523528,2546
1465.2689045180973,2568
1467.3423501668608,2546
1469.415256246024,2669
1471.4876230030463,2610
1473.559450685465,2562
1475.6307395408976,2695
1477.7014898170391,2562
1479.771701761665,2608
1481.8413756226287,2697
1483.9105116478618,2648
1485.9791100853772,2598
1488.0471711832643,2720
1490.1146951896926,2715
1492.1816823529098,2660
1494.2481329212433,2773
1496.3140471430984,2744
1498.3794252669609,2750
1500.4442675413939,2649
1502.5085742150404,2903
1504.572345536622,2777
1506.6355817549388,2736
1508.6982831188702,2721
1510.7604498773744,2809
1512.8220822794883,2832
1514.8831805743293,2868
1516.9437450110909,2806
1519.003775839048,2844
1521.0632733075522,2905
1523.1222376660367,2851
1525.1806691640113,2900
1527.2385680510652,2915
1529.2959345768668,2949
1531.3527689911643,3000
1533.4090715437833,2962
1535.4648424846291,3017
1537.5200820636855,3085
1539.5747905310159,3159
1541.6289681367616,3149
1543.6826151311434,3125
1545.7357317644614,3048
1547.7883182870937,3239
1549.8403749494987,3150
1551.8919020022113,3200
1553.9428996958477,3203
1555.9933682811015,3221
1558.0433080087469,3289
1560.0927191296346,3371
1562.1416018946961,3380
1564.1899565549415,3434
1566.2377833614592,3476
1568.2850825654164,3337
1570.3318544180606,3378
1572.3780991707158,3291
1574.423817074788,3229
1576.4690083817595,3172
1578.5136733431923,3203
1580.5578122107272,3144
1582.601425236085,3000
1584.6445126710646,2936
1586.6870747675434,3008
1588.7291117774776,2859
1590.7706239529034,2747
1592.8116115459347,2768
1594.8520748087658,2689
1596.8920139936686,2567
1598.9314293529933,2637
1600.9703211391711,2625
1603.008689604711,2565
1605.0465350022005,2523
1607.0838575843068,2498
1609.1206576037753,2543
1611.1569353134305,2494
1613.1926909661765,2503
1615.2279248149953,2394
1617.2626371129481,2408
1619.2968281131757,2457
1621.3304980688963,2398
1623.3636472334088,2372
1625.39627586009,2461
1627.428384202396,2360
1629.459972513861,2453
1631.4910410480993,2418
1633.5215900588028,2417
1635.551619799744,2382
1637.5811305247717,2370
1639.6101224878166,2394
1641.6385959428862,2315
1643.6665511440683,2307
1645.693988345528,2379
1647.7209078015112,2403
1649.7473097663405,2370
1651.7731944944203,2307
1653.7985622402307,2396
1655.823413258333,2420
1657.847747803366,2370
1659.8715661300494,2365
1661.8948684931793,2310
1663.9176551476316,2404
1665.9399263483624,2352
1667.9616823504057,2260
1669.982923408873,2310
1672.0036497789574,2351
1674.0238617159293,2280
1676.043559475138,2336
1678.0627433120121,2257
1680.081413482059,2228
1682.0995702408654,2367
1684.117213844096,2335
1686.134344547495,2292
1688.1509626068864,2328
1690.1670682781705,2330
1692.182661817329,2292
1694.1977434804217,2261
1696.2123135235875,2339
1698.226372203043,2312
1700.2399197750851,2293
1702.2529564960905,2337
1704.2654826225112,2336
1706.277498410882,2365
1708.2890041178139,2352
1710.2999999999988,2305
1712.3104863142066,2314
1714.3204633172854,2300
1716.329931266163,2355
1718.3388904178469,2307
1720.3473410294214,2308
1722.3552833580516,2316
1724.3627176609807,2331
1726.3696441955308,2393
1728.3760632191033,2233
1730.3819749891782,2253
1732.3873797633146,2311
1734.3922777991502,2352
1736.3966693544012,2274
1738.4005546868639,2224
1740.4039340544127,2229
1742.406807715001,2311
1744.4091759266616,2240
1746.4110389475054,2288
1748.4123970357223,2299
1750.413250449582,2258
1752.4135994474318,2327
1754.4134442876993,2268
1756.4127852288902,2279
1758.4116225295893,2211
1760.4099564484595,2239
1762.407787244244,2242
1764.405115175764,2282
1766.4019405019203,2259
1768.3982634816916,2244
1770.3940843741357,2307
1772.3894034383907,2182
1774.3842209336717,2288
1776.378537119274,2291
1778.372352254571,2342
1780.3656665990156,2215
1782.3584804121397,2285
1784.3507939535534,2209
1786.3426074829463,2228
1788.3339212600863,2290
1790.3247355448211,2231
1792.3150505970766,2331
1794.3048666768573,2358
1796.2941840442477,2311
1798.2830029594106,2311
1800.2713236825884,2328
1802.2591464741004,2319
1804.2464715943465,2298
1806.2332993038058,2368
1808.2196298630352,2346
1810.2054635326708,2287
1812.190800573428,2327
1814.175641246101,2330
1816.1599858115628,2271
1818.1438345307652,2354
1820.127187664738,2279
1822.1100454745924,2260
1824.092408221516,2263
1826.0742761667766,2265
1828.055649571721,2203
1830.0365286977735,2282
1832.0169138064398,2349
1833.9968051593014,2315
1835.9762030180214,2272
1837.9551076443408,2257
1839.9335193000788,2363
1841.9114382471344,2308
1843.888864747485,2220
1845.8657990631878,2271
1847.842241456378,2282
1849.8181921892697,2235
1851.7936515241558,2321
1853.7686197234098,2238
1855.7430970494815,2316
1857.7170837649014,2302
1859.6905801322787,2307
1861.6635864143004,2252
1863.6361028737338,2286
1865.608129773424,2275
1867.5796673762961,2278
1869.5507159453537,2271
1871.521275743678,2306
1873.4913470344313,2255
1875.4609300808534,2311
1877.4300251462632,2276
1879.3986324940588,2205
1881.366752387717,2309
1883.3343850907936,2249
1885.3015308669228,2287
1887.268189979819,2274
1889.2343626932739,2267
1891.2000492711595,2362
1893.1652499774254,2262
1895.1299650761011,2347
1897.0941948312952,2339
1899.0579395071945,2392
1901.0211993680641,2294
1902.98397467825,2311
1904.9462657021745,2251
1906.9080727043415,2221
1908.869395949332,2232
1910.8302357018065,2271
1912.790592226504,2175
1914.7504657882428,2240
1916.7098566519212,2276
1918.6687650825133,2219
1920.6271913450764,2252
1922.5851357047422,2256
1924.5425984267245,2318
1926.499579776314,2221
1928.4560800188833,2347
1930.4120994198802,2237
1932.367638244833,2257
1934.32269675935,2192
1936.2772752291175,2236
1938.231373919899,2239
1940.1849930975404,2249
1942.1381330279637,2281
1944.0907939771696,2250
1946.0429762112412,2248
1947.9946799963363,2254
1949.9459055986945,2201
1951.896653284633,2239
1953.8469233205478,2296
1955.7967159729142,2239
1957.7460315082863,2269
1959.6948701932974,2210
1961.6432322946594,2275
1963.5911180791632,2226
1965.5385278136787,2270
1967.4854617651545,2210
1969.4319202006182,2251
1971.377903387176,2275
1973.3234115920136,2281
1975.268445082395,2232
1977.2130041256642,2229
1979.1570889892423,2256
1981.1006999406304,2300
1983.04383724741,2237
1984.986501177238,2257
1986.928691997853,2269
1988.8704099770712,2156
1990.811655382789,2215
1992.7524284829801,2261
1994.692729545698,2307
1996.6325588390755,2205
1998.5719166313224,2288
2000.5108031907307,2271
2002.4492187856677,2302
2004.387163684583,2220
2006.3246381560011,2256
2008.2616424685298,2226
2010.1981768908527,2248
2012.1342416917332,2249
2014.069837140014,2220
2016.0049635046162,2221
2017.9396210545406,2227
2019.8738100588666,2219
2021.8075307867502,2279
2023.740783507431,2190
2025.6735684902228,2188
2027.6058860045214,2208
2029.5377363198004,2189
2031.4691197056118,2225
2033.4000364315875,2191
2035.3304867674374,2284
2037.260470982952,2156
2039.189989347998,2179
2041.1190421325232,2194
2043.047629606554,2203
2044.9757520401945,2184
2046.9034097036288,2203
2048.8306028671195,2243
2050.7573318010086,2187
2052.683596775716,2241
2054.609398061742,2223
2056.5347359296647,2130
2058.4596106501403,2256
2060.384022493906,2161
2062.3079717317764,2227
2064.231458634646,2115
2066.1544834734873,2254
2068.077046519352,2158
2069.99914804337,2196
2071.9207883167524,2220
2073.8419676107865,2216
2075.7626861968406,2194
2077.6829443463607,2249
2079.6027423308715,2134
2081.522080421977,2175
2083.440958891362,2179
2085.359378010786,2198
2087.2773380520907,2252
2089.194839287196,2195
2091.111881988101,2214
2093.0284664268825,2182
2094.9445928756973,2211
2096.86026160678,2183
2098.775472892446,2225
2100.690227005088,2247
2102.604524217178,2207
2104.5183648012676,2170
2106.431749029985,2176
2108.34467717604,2247
2110.2571495122206,2211
2112.169166311393,2174
2114.080727846503,2151
2115.9918343905747,2184
2117.902486216711,2184
2119.8126835980956,2218
2121.722426807987,2134
2123.6317161197285,2161
2125.5405518067364,2199
2127.448934142509,2197
2129.356863400624,2222
2131.264339854737,2270
2133.1713637785815,2255
2135.077935445972,2271
2136.9840551308002,2261
2138.889723107037,2251
2140.7949396487334,2188
2142.699705030018,2291
2144.6040195250994,2262
2146.507883408264,2252
2148.4112969538774,2294
2150.3142604363848,2259
2152.2167741303097,2304
2154.1188383102535,2269
2156.0204532508997,2294
2157.9216192270064,2259
2159.822336513414,2247
2161.7226053850413,2285
2163.622426116884,2241
2165.5217989840185,2203
2167.4207242616,2207
2169.319202224862,2248
2171.2172331491165,2322
2173.1148173097563,2296
2175.0119549822507,2256
2176.90864644215,2312
2178.8048919650823,2333
2180.7006918267534,2281
2182.596046302952,2256
2184.4909556695407,2194
2186.3854202024645,2241
2188.279440177746,2274
2190.173015871487,2223
2192.066147559868,2289
2193.958835519149,2311
2195.851080025667,2169
2197.7428813558417,2231
2199.6342397861667,2264
2201.5251555932186,2271
2203.415629053651,2279
2205.3056604441986,2155
2207.19525004167,2285
2209.084398122958,2339
2210.9731049650327,2271
2212.861370844941,2363
2214.749196039812,2282
2216.636580826851,2342
2218.523525483344,2375
2220.410030286655,2282
2222.296095514226,2316
2224.1817214435805,2314
2226.066908352319,2247
2227.951656518121,2342
2229.835966218746,2278
2231.71983773203,2264
2233.6032713358913,2357
2235.486267308324,2313
2237.3688259274036,2181
2239.2509474712824,2236
2241.132632218193,2299
2243.013880446447,2284
2244.8946924344323,2307
2246.7750684606203,2300
2248.6550088035574,2303
2250.534513741871,2263
2252.413583554265,2247
2254.292218519526,2298
2256.170418916517,2240
2258.0481850241786,2259
2259.925517121534,2172
2261.8024154876825,2278
2263.678880401803,2288
2265.5549121431536,2266
2267.430510991071,2330
2269.305677224971,2260
2271.180411124348,2284
2273.0547129687766,2227
2274.9285830379076,2231
2276.8020216114737,2216
2278.6750289692845,2260
2280.5476053912294,2220
2282.4197511572766,2223
2284.2914665474727,2204
2286.162751841943,2306
2288.0336073208937,2370
2289.904033264608,2319
2291.774029953448,2292
2293.6435976678554,2342
2295.5127366883517,2334
2297.381447295534,2164
2299.2497297700825,2229
2301.1175843927526,2169
2302.9850114443825,2094
2304.852011205885,2103
2306.7185839582553,2093
2308.5847299825664,2056
2310.4504495599676,1971
2312.3157429716925,2026
2314.1806104990483,2037
2316.0450524234247,2042
2317.9090690262888,2043
2319.772660589186,2128
2321.635827393742,1977
2323.498569721661,2108
2325.3608878547248,2068
2327.2227820747967,1986
2329.0842526638157,1924
2330.945299903803,1972
2332.805924076857,2009
2334.6661254651535,2048
2336.525904350951,1955
2338.3852610165827,2032
2340.244195744464,1995
2342.102708817088,1997
2343.9608005170253,2026
2345.8184711269287,2029
2347.675720929526,1986
2349.532550207628,2041
2351.38895924412,2042
2353.24494832197,2042
2355.100517724223,1977
2356.955667734004,2039
2358.810398634514,2024
2360.664710709037,1983
2362.5186042409337,2032
2364.3720795136437,2019
2366.225136810686,1956
2368.0777764156583,2101
2369.929998612237,1996
2371.7818036841777,1941
2373.633191915315,2066
2375.484163589562,1987
2377.3347189909114,1955
2379.184858403434,2039
2381.03458211128,1998
2382.8838903986775,2039
2384.732783549936,1981
2386.5812618494406,1986
2388.4293255816588,2008
2390.2769750311327,2058
2392.1242104824883,2039
2393.971032220427,1962
2395.8174405297295,2085
2397.6634356952563,2038
2399.509018001947,1988
2401.3541877348193,1981
2403.1989451789705,2013
2405.043290619576,2026
2406.8872243418905,2057
2408.730746631247,1946
2410.5738577730594,2104
2412.4165580528183,1999
2414.258847756095,2044
2416.100727168537,2017
2417.9421965758734,2077
2419.783256263912,2025
2421.623906518538,2018
2423.4641476257157,1966
2425.303979871491,1981
2427.143403541984,1995
2428.9824189233977,1978
2430.821026302012,2037
2432.6592259641866,1961
2434.497018196361,1957
2436.33440328505,2009
2438.171381516851,2043
2440.00795317844,1980
2441.844118556569,1956
2443.6798779380724,2008
2445.5152316098606,1996
2447.3501798589255,1961
2449.1847229723357,2044
2451.0188612372403,2039
2452.8525949408663,1926
2454.6859243705203,1935
2456.518849813587,1990
2458.3513715575314,1886
2460.183489889895,1959
2462.015205098301,2009
2463.8465174704493,2002
2465.67742729412,1984
2467.5079348571717,2017
2469.338040447542,2112
2471.1677443532476,2015
2472.9970468623833,1960
2474.825948263123,2015
2476.6544488437207,1945
2478.482548892508,2029
2480.310248697896,1942
2482.137548548374,1925
2483.9644487325118,2019
2485.790949538956,1954
2487.617051256433,1998
2489.44275417375,2026
2491.26805857979,2064
2493.0929647635157,2041
2494.917473013971,2051
2496.741583620276,2009
2498.5652968716304,1987
2500.3886130573137,2003
2502.2115324666834,2053
2504.0340553891765,2055
2505.856182114308,1985
2507.6779129316733,2025
2509.499248130945,2051
2511.3201880018764,2012
2513.140732834298,2065
2514.9608829181198,2069
2516.780638543331,1976
2518.6,1913
2520.418967578273,1991
2522.237541568376,2089
2524.0557222606144,2055
2525.8735099453706,1941
2527.6909049131086,1995
2529.507907454368,1975
2531.32451785977,1953
2533.140736420014,2001
2534.9565634258774,2091
2536.771999168218,2088
2538.5870439379714,2106
2540.4016980261526,2060
2542.2159617238544,2088
2544.02983532225,2046
2545.8433191125914,2029
2547.656413386209,2040
2549.4691184345115,2048
2551.2814345489874,2169
2553.093362021204,2104
2554.904901142808,2125
2556.716052205523,2122
2558.526815501153,2107
2560.3371913215824,2098
2562.147179958771,2068
2563.956781704761,2136
2565.7659968516705,2106
2567.5748256916986,2105
2569.3832685171224,2116
2571.1913256202984,2049
2572.9989972936614,2147
2574.806283829725,2168
2576.613185521084,2109
2578.4197026604074,2119
2580.2258355404483,2066
2582.031584454035,2097
2583.836949694077,2121
2585.6419315535613,2239
2587.4465303255533,2192
2589.2507463032002,2201
2591.0545797797245,2134
2592.8580310484303,2160
2594.6611004026995,2147
2596.463788135992,2238
2598.266094541849,2082
2600.0680199138874,2142
2601.869564545807,2190
2603.670728731383,2189
2605.4715127644704,2149
2607.2719169390048,2190
2609.071941548998,2163
2610.8715868885433,2111
2612.670853251811,2200
2614.469740933052,2140
2616.268250226594,2110
2618.0663814268455,2218
2619.864134828292,2175
2621.6615107255006,2187
2623.458509413115,2202
2625.2551311858597,2075
2627.0513763385347,2107
2628.8472451660223,2184
2630.6427379632833,2120
2632.4378550253564,2156
2634.232596647359,2118
2636.026963124488,2102
2637.8209547520187,2138
2639.6145718253065,2097
2641.407814639785,2097
2643.200683490966,2090
2644.9931786744414,2171
2646.7853004858807,2066
2648.577049221034,2110
2650.3684251757277,2114
2652.1594286458712,2129
2653.9500599274484,2100
2655.740319316525,2032
2657.5302071092437,2042
2659.3197236018286,2010
2661.10886909058,2103
2662.8976438718782,2075
2664.686048242183,2083
2666.4740824980327,1976
2668.2617469360443,2059
2670.0490418529134,2045
2671.8359675454153,1980
2673.622524310403,2007
2675.408712444811,2046
2677.1945322456495,2043
2678.979984010009,2087
2680.76506803506,2010
2682.5497846180497,1987
2684.334134056306,2009
2686.1181166472343,2029
2687.9017326883213,1985
2689.6849824771293,1975
2691.4678663113013,1936
2693.2503844885596,1964
2695.032537306705,1959
2696.8143250636167,1995
2698.5957480572542,1996
2700.3768065856534,1915
2702.1575009469316,2049
2703.937831439283,1934
2705.717798360982,1978
2707.4974020103837,1966
2709.276642685917,1970
2711.055520686095,1945
2712.834036309506,1873
2714.612189854819,1958
2716.389981620782,1995
2718.1674119062204,1899
2719.944481010041,1979
2721.721189231226,1959
2723.4975368688415,1958
2725.273524222027,1881
2727.0491515900053,1996
2728.824419272075,1892
2730.5993275676146,1860
2732.3738767760838,2005
2734.148067197016,1916
2735.921899130031,1875
2737.6953728748194,1916
2739.468488731156,1989
2741.2412469988926,1920
2743.0136479779617,1952
2744.785691968372,1960
2746.5573792702116,1897
2748.3287101836504,1889
2750.099685008934,1930
2751.870304046388,1941
2753.640567596418,1865
2755.4104759595057,1890
2757.1800294362156,1916
2758.949228327187,1887
2760.7180729331412,1885
2762.486563554877,1949
2764.254700493272,1887
2766.022484049284,1895
2767.789914523947,1949
2769.5569922183786,1916
2771.3237174337705,1858
2773.090090471394,1881
2774.8561116326036,1873
2776.6217812188274,1874
2778.3870995315756,1917
2780.1520668724356,1859
2781.9166835430747,1893
2783.6809498452394,1940
2785.444866080754,1882
2787.2084325515225,1934
2788.971649559527,1891
2790.73451740683,1942
2792.4970363955713,1932
2794.2592068279705,1904
2796.0210290063264,1924
2797.7825032330147,1853
2799.543629810493,1884
2801.304409041296,1875
2803.0648412280366,1880
2804.8249266734088,1951
2806.5846656801846,1869
2808.344058551212,1862
2810.1031055894246,1990
2811.8618070978273,1896
2813.6201633795085,1892
2815.378174737636,1910
2817.1358414754536,1915
2818.893163896285,1875
2820.6501423035334,1909
2822.4067770006814,1873
2824.1630682912883,1878
2825.9190164789957,1890
2827.6746218675207,1911
2829.429884760661,1838
2831.184805462294,1909
2832.9393842763743,1954
2834.693621506936,1916
2836.4475174580916,1943
2838.201072434034,1880
2839.954286739034,1919
2841.707160677441,1925
2843.459694553685,1966
2845.2118886722724,1920
2846.96374333779,1954
2848.7152588549034,1943
2850.4664355283567,1902
2852.217273662973,1921
2853.9677735636546,1861
2855.7179355353833,1887
2857.4677598832186,1871
2859.217246912299,1872
2860.9663969278427,1883
2862.715210235146,1876
2864.4636871395846,1860
2866.211827946614,1821
2867.9596329617652,1943
2869.7071024906536,1861
2871.4542368389684,1870
2873.20103631248,1847
2874.947501217038,1841
2876.6936318585695,1883
2878.4394285430812,1866
2880.1848915766604,1928
2881.9300212654707,1873
2883.6748179157553,1900
2885.4192818338374,1929
2887.1634133261173,1828
2888.907212699077,1823
2890.6506802592744,1819
2892.393816313348,1908
2894.1366211680142,1860
2895.8790951300693,1892
2897.621238506388,1866
2899.363051603925,1789
2901.1045347297118,1897
2902.8456881908596,1931
2904.58651229456,1869
2906.327007348081,1911
2908.067173658772,1876
2909.8070115340597,1929
2911.5465212814497,1881
2913.285703208527,1906
2915.0245576229563,1914
2916.7630848324807,1889
2918.5012851449196,1895
2920.2391588681758,1850
2921.976706310227,1830
2923.7139277791334,1906
2925.4508235830313,1900
2927.187394030137,1781
2928.923639428745,1809
2930.6595600872306,1912
2932.395156314046,1838
2934.1304284177218,1898
2935.8653767068713,1771
2937.6000014901815,1861
2939.3343030764227,1881
2941.068281774442,1860
2942.8019378931644,1805
2944.5352717415976,1975
2946.2682836288236,1889
2948.0009738640065,1851
2949.7333427563885,1816
2951.465390615289,1874
2953.1971177501086,1857
2954.9285244703265,1830
2956.6596110855,1928
2958.3903779052657,1860
2960.1208252393385,1863
2961.8509533975125,1877
2963.5807626896617,1868
2965.3102534257378,1816
2967.0394259157715,1781
2968.768280469873,1786
2970.496817398232,1913
2972.2250370111146,1846
2973.952939618869,1877
2975.6805255319196,1777
2977.4077950607707,1895
2979.134748516006,1920
2980.861386208289,1850
2982.587708448359,1848
2984.313715547037,1822
2986.039407815222,1894
2987.764785563891,1831
2989.489849104102,1829
2991.2145987469908,1852
2992.9390348037705,1906
2994.6631575857346,1900
2996.3869674042576,1885
2998.1104645707887,1812
2999.83364939686,1883
3001.5565221940783,1840
3003.2790832741334,1817
3005.0013329487924,1799
3006.7232715298996,1781
3008.4448993293804,1811
3010.166216659239,1887
3011.887223831558,1767
3013.607921158498,1817
3015.3283089522993,1779
3017.0483875252826,1868
3018.7681571898443,1843
3020.4876182584626,1800
3022.2067710436927,1836
3023.9256158581707,1837
3025.644153014609,1873
3027.362382825801,1736
3029.0803056046193,1876
3030.797921664012,1840
3032.5152313170106,1786
3034.2322348767225,1841
3035.9489326563353,1779
3037.665324969115,1817
3039.3814121284063,1825
3041.097194447633,1799
3042.812672240299,1815
3044.5278458199855,1876
3046.2427155003525,1751
3047.9572815951406,1802
3049.671544418167,1812
3051.38550428333,1823
3053.0991615046073,1812
3054.812516396051,1810
3056.5255692717974,1766
3058.2383204460575,1795
3059.9507702331257,1767
3061.662918947372,1729
3063.3747669032446,1777
3065.0863144152736,1772
3066.7975617980674,1843
3068.508509366309,1769
3070.219157434767,1795
3071.9295063182844,1811
3073.639556331785,1864
3075.3493077902704,1769
3077.058761008821,1798
3078.7679163025964,1815
3080.476773986837,1874
3082.1853343768594,1775
3083.89359778806,1822
3085.6015645359153,1738
3087.3092349359786,1755
3089.016609303884,1772
3090.7236879553434,1810
3092.4304712061476,1858
3094.136959372166,1796
3095.843152769349,1771
3097.5490517137237,1756
3099.2546565213966,1817
3100.959967508554,1855
3102.66498499146,1806
3104.3697092864577,1806
3106.0741407099695,1825
3107.778279578498,1769
3109.482126208622,1794
3111.1856809170004,1786
3112.8889440203716,1822
3114.5919158355528,1812
3116.294596679439,1845
3117.996986869006,1835
3119.6990867213062,1844
3121.4008965534726,1863
3123.102416682717,1830
3124.803647426329,1854
3126.5045891016784,1775
3128.205242026213,1848
3129.90560651746,1819
3131.605682893025,1805
3133.3054714705922,1821
3135.0049725679282,1807
3136.7041865028714,1782
3138.4031135933465,1861
3140.101754157353,1728
3141.800108512971,1779
3143.498176978357,1815
3145.1959598717494,1760
3146.8934575114636,1747
3148.5906702158954,1825
3150.2875983035183,1723
3151.9842420928853,1774
3153.680601902627,1721
3155.376678051456,1806
3157.07247085816,1783
3158.767980641609,1762
3160.463207720748,1796
3162.158152414606,1770
3163.8528150422862,1798
3165.5471959229726,1780
3167.2412953759303,1794
3168.9351137204976,1766
3170.628651276098,1770
3172.3219083622307,1793
3174.014885298474,1778
3175.707582404485,1774
3177.4000000000005,1832
3179.092138404835,1786
3180.7839979388846,1728
3182.47557892212,1728
3184.166881674594,1789
3185.8579065164386,1803
3187.5486537678626,1839
3189.2391237491547,1805
3190.9293167806827,1761
3192.6192331828934,1766
3194.3088732763117,1781
3195.998237381542,1759
3197.687325819268,1769
3199.376138910251,1832
3201.064676975334,1754
3202.7529403354347,1763
3204.4409293115523,1830
3206.1286442247647,1766
3207.816085396229,1742
3209.5032531471825,1779
3211.190147798936,1753
3212.8767696728846,1678
3214.5631190905015,1743
3216.2491963733373,1681
3217.9350018430214,1639
3219.6205358212637,1712
3221.305798629851,1776
3222.990790590651,1688
3224.6755120256103,1714
3226.359963256751,1736
3228.0441446061795,1677
3229.7280563960758,1664
3231.411698948703,1707
3233.0950725863995,1717
3234.778177631587,1748
3236.461014406761,1736
3238.1435832345005,1743
3239.8258844374595,1759
3241.507918338374,1709
3243.1896852600576,1767
3244.8711855254023,1731
3246.552419457381,1782
3248.233387379042,1808
3249.914089613516,1766
3251.59452648401,1718
3253.274698313813,1778
3254.95460542629,1722
3256.6342481448855,1770
3258.313626793125,1675
3259.9927416946084,1699
3261.6715931730196,1655
3263.3501815521176,1701
3265.0285071557437,1672
3266.706570307815,1670
3268.3843713323286,1722
3270.0619105533615,1716
3271.739188295068,1701
3273.4162048816834,1693
3275.0929606375184,1770
3276.769455886966,1680
3278.445690954498,1713
3280.1216661646613,1699
3281.797381842087,1749
3283.4728383114807,1747
3285.1480358976296,1709
3286.8229749253996,1726
3288.4976557197333,1749
3290.172078605655,1727
3291.846243908266,1712
3293.5201519527463,1693
3295.193803064357,1731
3296.8671975684374,1774
3298.5403357904024,1725
3300.21321805575,1714
3301.8858446900567,1770
3303.558216018975,1712
3305.23033236824,1748
3306.9021940636603,1707
3308.57380143113,1752
3310.2451547966184,1749
3311.916254486174,1731
3313.5871008259246,1731
3315.2576941420766,1740
3316.9280347609147,1751
3318.5981230088046,1701
3320.2679592121895,1657
3321.9375436975924,1689
3323.606876791612,1734
3325.27595882093,1694
3326.944790112305,1698
3328.6133709925753,1720
3330.2817017886573,1652
3331.949782827547,1688
3333.617614436319,1681
3335.2851969421245,1669
3336.952530672199,1739
3338.619615953853,1717
3340.286453114475,1697
3341.9530424815357,1703
3343.619384382583,1708
3345.2854791452437,1671
3346.951327097224,1704
3348.6169285663073,1788
3350.2822838803577,1698
3351.947393367319,1657
3353.61225735521,1716
3355.2768761721345,1738
3356.9412501462693,1716
3358.605379605873,1698
3360.2692648792827,1733
3361.9329062949146,1739
3363.596304181263,1715
