CollectionTime,7/10/2024 3:24:33 PM
ExposureUsed,3
CalibratedSpectrum
-962.7078968117929,528
-959.9714848408522,558
-957.2358232597828,590
-954.5009119013725,582
-951.7667505983302,575
-949.0333391832855,612
-946.3006774887896,577
-943.5687653473143,610
-940.837602591253,602
-938.1071890529199,581
-935.3775245645503,585
-932.6486089583007,624
-929.9204420662485,630
-927.1930237203925,619
-924.4663537526524,613
-921.7404319948689,604
-919.0152582788041,605
-916.2908324361409,635
-913.5671542984834,619
-910.8442236973568,614
-908.1220404642074,606
-905.4006044304027,640
-902.679915427231,636
-899.959973285902,597
-897.2407778375464,626
-894.5223289132158,606
-891.8046263438832,576
-889.0876699604426,605
-886.3714595937089,587
-883.6559950744183,593
-880.9412762332282,588
-878.2273029007168,543
-875.5140749073835,570
-872.8015920836489,555
-870.0898542598545,574
-867.3788612662631,592
-864.6686129330585,591
-861.9591090903457,637
-859.2503495681506,588
-856.5423341964203,582
-853.8350628050229,616
-851.1285352237478,614
-848.4227512823054,572
-845.7177108103272,563
-843.0134136373656,573
-840.3098595928943,607
-837.6070485063082,622
-834.9049802069229,648
-832.2036545239757,614
-829.5030712866244,593
-826.8032303239481,617
-824.1041314649472,618
-821.4057745385428,588
-818.7081593735775,648
-816.0112857988148,617
-813.3151536429393,597
-810.6197627345566,618
-807.9251129021936,629
-805.2312039742981,582
-802.5380357792392,589
-799.8456081453069,667
-797.1539209007124,618
-794.462973873588,621
-791.772766891987,645
-789.083299783884,644
-786.3945723771743,609
-783.7065844996748,592
-781.0193359791231,619
-778.3328266431781,614
-775.6470563194197,628
-772.9620248353489,607
-770.2777320183878,589
-767.5941776958798,594
-764.9113616950891,597
-762.2292838432011,637
-759.5479439673222,622
-756.8673418944801,613
-754.1874774516235,629
-751.5083504656222,642
-748.8299607632671,661
-746.15230817127,631
-743.475392516264,610
-740.7992136248035,675
-738.1237713233636,646
-735.4490654383407,643
-732.7750957960521,663
-730.1018622227365,660
-727.4293645445534,681
-724.7576025875837,651
-722.0865761778291,651
-719.4162851412126,670
-716.7467293035781,713
-714.0779084906909,656
-711.409822528237,687
-708.7424712418238,648
-706.0758544569796,652
-703.4099719991541,687
-700.7448236937178,692
-698.0804093659622,711
-695.4167288411002,669
-692.7537819442656,664
-690.0915685005134,696
-687.4300883348199,629
-684.7693412720819,694
-682.1093271371178,685
-679.4500457546669,662
-676.7914969493897,697
-674.1336805458676,678
-671.4765963686034,697
-668.8202442420206,710
-666.1646239904642,683
-663.5097354382001,662
-660.8555784094151,688
-658.2021527282176,699
-655.5494582186366,716
-652.8974947046223,745
-650.2462620100463,686
-647.5957599587009,706
-644.9459883742998,693
-642.2969470804776,715
-639.6486359007902,712
-637.0010546587141,754
-634.3542031776476,755
-631.7080812809096,714
-629.0626887917401,708
-626.4180255333008,754
-623.7740913286734,741
-621.1308860008619,788
-618.4884093727904,790
-615.8466612673046,795
-613.2056415071715,725
-610.5653499150785,744
-607.9257863136347,792
-605.28695052537,803
-602.6488423727357,785
-600.0114616781036,761
-597.3748082637674,766
-594.7388819519412,825
-592.1036825647604,869
-589.4692099242818,860
-586.8354638524829,828
-584.2024441712624,814
-581.5701507024403,824
-578.9385832677575,769
-576.3077416888759,750
-573.6776257873787,818
-571.0482353847704,781
-568.4195703024757,777
-565.7916303618415,830
-563.164415384135,831
-560.5379251905453,816
-557.9121596021815,767
-555.2871184400748,801
-552.6628015251767,845
-550.0392086783606,810
-547.4163397204204,868
-544.794194472071,831
-542.1727727539491,843
-539.5520743866118,889
-536.9320991905377,840
-534.3128469861261,915
-531.6943175936979,956
-529.0765108334947,959
-526.4594265256793,995
-523.8430644903358,1107
-521.2274245474689,1169
-518.612506517005,1236
-515.9983102187913,1228
-513.3848354725959,1203
-510.77208209810846,1382
-508.16004991493924,1541
-505.5487387426199,1714
-502.9381484006032,1870
-500.3282787082628,2008
-497.71912948489364,1984
-495.1107005497117,1960
-492.5029917218539,1701
-489.8960028203786,1492
-487.28973366426493,1315
-484.68418407241325,1215
-482.07935386364494,1181
-479.47524285670266,1065
-476.87185087025,1137
-474.2691777228715,1130
-471.66722323307334,1112
-469.0659872192821,1135
-466.4654694998459,1039
-463.86566989303384,1034
-461.26658821703614,1017
-458.66822428996414,980
-456.07057792985,1051
-453.4736489546475,991
-450.877437182231,1023
-448.28194243039627,1012
-445.68716451686,982
-443.09310325926003,1022
-440.49975847515555,1027
-437.9071299820263,1014
-435.31521759727354,977
-432.72402113821954,1008
-430.13354042210767,1093
-427.5437752661022,1075
-424.95472548728867,1046
-422.36639090267386,1104
-419.7787713291855,1108
-417.1918665836721,1135
-414.60567648290385,1081
-412.0202008435715,1118
-409.4354394822874,1102
-406.8513922155845,1049
-404.26805885991723,1143
-401.685439231661,1092
-399.103533147112,1044
-396.522340422488,1091
-393.9418608739278,1121
-391.3620943174908,1087
-388.7830405691583,1092
-386.2046994448317,1028
-383.6270707603344,992
-381.05015433141045,933
-378.473949973725,927
-375.8984575028645,870
-373.32367673433623,769
-370.74960748356875,776
-368.1762495659117,695
-365.60360279663576,702
-363.03166699093265,627
-360.4604419639154,639
-357.8899275306178,617
-355.32012350599507,575
-352.7510297049233,622
-350.1826459421999,562
-347.61497203254316,524
-345.04800779059235,498
-342.4817530309082,530
-339.91620756797226,573
-337.35137121618743,565
-334.7872437898774,620
-332.22382510328725,619
-329.66111497058273,568
-327.09911320585127,576
-324.53781962310075,612
-321.9772340362607,569
-319.4173562591816,480
-316.8581861056348,496
-314.2997233893127,524
-311.7419679238294,519
-309.1849195227194,527
-306.62857799943856,607
-304.0729431673641,618
-301.51801483979375,629
-298.963792829947,641
-296.41027695096386,618
-293.85746701590574,683
-291.3053628377552,697
-288.7539642294155,674
-286.2032710037115,674
-283.65328297338897,607
-281.1039999511146,632
-278.5554217494762,643
-276.007548180983,703
-273.4603790580651,705
-270.9139141930734,665
-268.3681533982807,670
-265.8230964858798,715
-263.27874326798565,798
-260.7350935566336,843
-258.1921471637804,814
-255.6499039013039,850
-253.10836358100266,836
-250.56752601459698,791
-248.02739101372765,704
-245.48795838995704,786
-242.94922795476816,821
-240.41119951956557,845
-237.8738728956746,764
-235.33724789434166,787
-232.80132432673452,762
-230.2661020039418,657
-227.73158073697357,713
-225.19776033676033,781
-222.66464061415422,812
-220.1322213799284,802
-217.60050244477725,750
-215.06948361931552,794
-212.53916471408013,817
-210.00954553952818,857
-207.48062590603843,876
-204.9524056239104,898
-202.4248845033651,844
-199.8980623545441,894
-197.37193898751036,780
-194.84651421224817,828
-192.32178783866232,896
-189.79775967657952,993
-187.27442953574644,1018
-184.7517972258321,1097
-182.2298625564256,1023
-179.7086253370378,965
-177.18808537710026,887
-174.66824248596583,931
-172.14909647290835,961
-169.6306471471229,1055
-167.11289431772548,962
-164.59583779375328,942
-162.07947738416453,1061
-159.5638128978386,1257
-157.04884414357605,1198
-154.53457093009854,1239
-152.02099306604828,1207
-149.50811035998936,1044
-146.99592262040665,1034
-144.48442965570587,1019
-141.97363127421409,1135
-139.46352728417958,1260
-136.95411749377126,1367
-134.44540171107985,1222
-131.93737974411636,1114
-129.43005140081357,1151
-126.92341648902493,1640
-124.41747481652521,2388
-121.91222619101006,2670
-119.40767042009657,2845
-116.90380731132257,3201
-114.40063667214702,3579
-111.8981583099503,3486
-109.3963720320337,2887
-106.89527764561933,2425
-104.39487495785067,2597
-101.89516377579241,4331
-99.39614390642998,6436
-96.89781515667039,7660
-94.40017733334128,6958
-91.90323024319173,5132
-89.40697369289148,4367
-86.91140748903172,5042
-84.41653143812482,7595
-81.92234534660395,9188
-79.42884902082358,8874
-76.93604226705907,9983
-74.4439248915071,16528
-71.95249670028534,23714
-69.46175749943245,30386
-66.97170709490854,33896
-64.48234529259423,29022
-61.99367189829195,20199
-59.50568671772464,15559
-57.01838955653636,11859
-54.53178022029283,8702
-52.045858514480074,7389
-49.560624244506016,8754
-47.07607721569923,10156
-44.59221723330904,10442
-42.10904410250669,12501
-39.62655762838392,13898
-37.14475761595372,14067
-34.66364387015028,14791
-32.18321619582866,18392
-29.70347439776515,19990
-27.224418280657005,18477
-24.74604764912317,18713
-22.26836230770266,20543
-19.7913620608565,31013
-17.315046712966478,54466
-14.83941606833514,65039
-12.36446993118659,65039
-9.89020810566592,65039
-7.416630395839093,65039
-4.94373660569363,65039
-2.471526539137585,65039
-6.821210263296962E-13,65039
2.47084320796705,65039
4.941003281093458,65039
7.410480415786196,65039
9.879274808531363,65039
12.347386655893956,65039
14.814816154518212,65039
17.28156350112681,65039
19.74762889252179,65039
22.21301252558385,65039
24.67771459727237,20992
27.141735304626195,4181
29.605074844762612,3275
32.06773341487792,3509
34.52971121224755,3510
36.99100843422559,3044
39.45162527824516,2926
41.91156194181792,2696
44.370818622535126,2170
46.82939551806646,1955
49.287292826160524,1912
51.74451074464503,2682
54.201049471426245,3445
56.65690920448981,3357
59.112090141899785,2923
61.56659248179983,2060
64.02041642241159,1771
66.4735621620365,1488
68.92602989905402,1459
71.37781983192338,1844
73.82893215918205,1855
76.27936707944684,1631
78.72912479141326,1524
81.17820549385567,1504
83.62660938562783,1787
86.07433666566146,1805
88.5213875329681,1494
90.96776218663751,1357
93.41346082583925,1322
95.85848364982041,1434
98.30283085790859,1429
100.7465026495089,1425
103.18949922410604,1826
105.63182078126385,1717
108.07346752062438,1628
110.51443964190923,1539
112.95473734491827,1460
115.39436082953114,1253
117.83331029570547,1243
120.27158594347827,1524
122.7091879729652,1637
125.1461165843615,1902
127.58237197794062,1800
130.01795435405518,1426
132.4528639131364,1203
134.88710085569494,1151
137.32066538231982,1151
139.75355769367923,1269
142.1857779905207,1225
144.61732647366978,1091
147.04820334403132,1004
149.47840880258934,1061
151.90794305040674,1148
154.33680628862487,1339
156.76499871846443,1567
159.19252054122433,1722
161.61937195828352,1721
164.04555317109896,1700
166.47106438120693,1970
168.89590579022217,2296
171.320077599839,2479
173.7435800118302,2619
176.16641322804742,2641
178.58857745042144,2539
181.01007288096173,2602
183.43089972175687,2731
185.85105817497413,2730
188.27054844285988,2820
190.6893707277394,2892
193.10752523201643,2856
195.5250121581745,2755
197.9418317087751,2899
200.3579840864594,2875
202.7734694939469,2824
205.18828813403627,3037
207.6024402096051,3230
210.01592592360964,3106
212.42874547908548,3068
214.84089907914665,3049
217.2523869269868,2849
219.66320922587727,2953
222.0733661791695,2970
224.48285799029293,2950
226.8916848627572,2923
229.29984700014882,2963
231.7073446061355,3184
234.11417788446204,3137
236.520347038953,3009
238.92585227351185,3005
241.33069379212054,3101
243.73487179884035,3145
246.1383864978112,3160
248.541238093252,3061
250.9434267894609,2979
253.34495279081432,3004
255.74581630176783,3070
258.1460175268563,3030
260.54555667069314,2953
262.9444339379703,2956
265.3426495334594,3042
267.7402036620107,2910
270.1370965285529,3126
272.53332833809407,3223
274.9288992957214,3024
277.32380960660055,3060
279.718059475976,2968
282.1116491091717,3040
284.5045787115897,3036
286.89684848871195,3040
289.2884586460981,3088
291.67940938938807,3008
294.0697009242996,3027
296.4593334566299,3082
298.84830719225477,3052
301.23662233712923,2943
303.6242790972866,2992
306.01127767884,2938
308.39761828798066,2916
310.78330113097934,2937
313.16832641418534,2862
315.5526943440269,2836
317.9364051270112,2825
320.3194589697242,2814
322.70185607883093,2826
325.0835966610754,2850
327.4646809232805,2778
329.8451090723478,2654
332.2248813152577,2669
334.6039978590701,2637
336.9824589109231,2761
339.36026467803447,2694
341.7374153677,2677
344.113911187295,2601
346.48975234427337,2578
348.8649390461686,2595
351.2394715005918,2581
353.61334991523415,2596
355.9865744978655,2611
358.35914545633375,2609
360.73106299856715,2587
363.10232733257146,2543
365.47293866643247,2596
367.84289720831396,2452
370.2122031664593,2546
372.5808567491905,2473
374.9488581649083,2492
377.31620762209275,2538
379.6829053293021,2445
382.0489514951745,2513
384.4143463284262,2507
386.7790900378528,2526
389.14318283232853,2497
391.50662492080653,2448
393.86941651231916,2417
396.23155781597745,2533
398.5930490409713,2567
400.9538903965696,2539
403.3140820921202,2545
405.6736243370498,2558
408.03251734086336,2526
410.3907613131465,2508
412.74835646356166,2412
415.10530300185144,2482
417.4616011378372,2444
419.81725108141893,2484
422.1722530425758,2421
424.5266072313656,2348
426.880313857925,2452
429.2333731324701,2385
431.58578526529516,2455
433.9375504667738,2431
436.2886689473588,2470
438.63914091758113,2394
440.9889665880513,2426
443.33814616945835,2433
445.68667987257015,2301
448.03456790823395,2407
450.3818104873759,2435
452.72840782100013,2355
455.07436012019105,2414
457.41966759611057,2321
459.7643304600007,2380
462.10834892318155,2425
464.4517231970525,2318
466.79445349309174,2322
469.1365400228566,2382
471.4779829979826,2451
473.81878263018564,2392
476.15893913125876,2456
478.4984527130747,2444
480.8373235875855,2462
483.17555196682144,2594
485.5131380628919,2606
487.8500820879857,2701
490.1863842543697,2895
492.52204477439034,3107
494.8570638604725,3396
497.1914417251204,3707
499.52517858091653,4007
501.85827464052306,4369
504.19073011668036,4439
506.5225452222086,4352
508.85372017000566,4206
511.18425517304956,4141
513.514150444396,4054
515.8434061971808,4466
518.1720226446176,5220
520.4999999999999,5514
522.8273384766991,5269
525.1540382881666,4865
527.480099647932,4374
529.8055227696037,3830
532.1303078668694,3179
534.454455153496,2836
536.777964843328,2645
539.1008371502907,2574
541.4230722883866,2600
543.744670471698,2626
546.0656319143858,2549
548.3859568306899,2513
550.7056454349294,2496
553.0246979415016,2532
555.3431145648834,2456
557.6608955196306,2561
559.978041020377,2441
562.2945512818363,2435
564.6104265188006,2552
566.9256669461412,2559
569.2402727788082,2555
571.5542442318302,2508
573.8675815203156,2572
576.1802848594508,2507
578.4923544645015,2586
580.8037905508126,2630
583.114593333807,2549
585.4247630289875,2565
587.7342998519354,2523
590.0432040183106,2502
592.3514757438526,2612
594.6591152443794,2586
596.9661227357875,2612
599.2724984340531,2518
601.578242555231,2648
603.8833553154542,2596
606.1878369309362,2600
608.4916876179676,2615
610.7949075929192,2670
613.0974970722403,2590
615.3994562724587,2589
617.7007854101818,2686
620.0014847020951,2573
622.3015543649641,2635
624.6009946156324,2421
626.8998056710224,2560
629.1979877481361,2526
631.4955410640538,2602
633.7924658359349,2598
636.0887622810175,2507
638.3844306166192,2499
640.6794710601358,2557
642.9738838290426,2569
645.2676691408932,2648
647.5608272133207,2590
649.853358264037,2558
652.1452625108324,2650
654.4365401715764,2566
656.7271914642178,2585
659.0172166067838,2621
661.3066158173809,2587
663.5953893141935,2528
665.8835373154867,2581
668.1710600396028,2602
670.4579577049639,2559
672.7442305300709,2559
675.0298787335033,2609
677.3149025339197,2622
679.599302150058,2596
681.8830778007342,2544
684.1662297048437,2507
686.4487580813608,2533
688.7306631493387,2629
691.0119451279091,2561
693.2926042362834,2555
695.5726406937516,2539
697.8520547196814,2526
700.1308465335215,2590
702.4090163547982,2540
704.6865644031171,2516
706.9634908981619,2571
709.2397960596965,2478
711.5154801075631,2585
713.7905432616823,2506
716.0649857420548,2551
718.3388077687592,2600
720.612009561953,2590
722.8845913418733,2509
725.1565533288352,2572
727.427895743234,2542
729.6986188055427,2579
731.9687227363137,2576
734.238207756178,2540
736.5070740858458,2672
738.7753219461066,2629
741.0429515578281,2600
743.3099631419569,2598
745.5763569195191,2516
747.8421331116193,2564
750.1072919394409,2475
752.3718336242467,2625
754.6357583873777,2641
756.8990664502545,2627
759.1617580343765,2555
761.423833361321,2599
763.6852926527457,2591
765.9461361303862,2630
768.206364016058,2620
770.4659765316536,2626
772.7249738991469,2660
774.9833563405886,2638
777.2411240781092,2656
779.4982773339183,2676
781.7548163303044,2608
784.010741289634,2605
786.2660524343538,2670
788.5207499869881,2636
790.7748341701416,2627
793.0283052064964,2672
795.2811633188143,2633
797.5334087299362,2637
799.7850416627813,2635
802.0360623403484,2689
804.2864709857143,2705
806.5362678220353,2604
808.7854530725468,2629
811.0340269605625,2700
813.2819897094754,2712
815.5293415427581,2651
817.77608268396,2604
820.0222133567116,2648
822.2677337847211,2631
824.5126441917765,2634
826.7569448017433,2546
829.0006358385675,2629
831.2437175262731,2692
833.4861900889629,2718
835.7280537508192,2643
837.9693087361026,2721
840.2099552691533,2592
842.4499935743896,2653
844.689423876309,2691
846.9282463994886,2641
849.1664613685833,2580
851.4040690083276,2657
853.6410695435349,2654
855.877463199097,2668
858.1132501999847,2698
860.3484307712487,2603
862.5830051380175,2561
864.8169735254988,2610
867.0503361589791,2697
869.2830932638243,2705
871.5152450654786,2644
873.7467917894654,2618
875.9777336613873,2794
878.2080709069252,2644
880.4378037518389,2826
882.666932421968,2748
884.8954571432301,2696
887.1233781416219,2761
889.3506956432192,2738
891.5774098741766,2776
893.803521060728,2713
896.0290294291852,2801
898.2539352059397,2695
900.4782386174619,2700
902.7019398903011,2638
904.925039251085,2764
907.147536926521,2772
909.3694331433943,2682
911.59072812857,2653
913.8114221089921,2647
916.0315153116827,2671
918.2510079637437,2742
920.4699002923547,2574
922.6881925247761,2572
924.905884888345,2644
927.1229776104793,2661
929.3394709186747,2647
931.555365040506,2580
933.7706602036275,2633
935.9853566357709,2624
938.1994545647489,2644
940.4129542184515,2667
942.6258558248488,2647
944.8381596119883,2586
947.0498658079974,2577
949.2609746410825,2559
951.4714863395287,2658
953.6814011316998,2629
955.8907192460387,2521
958.0994409110671,2611
960.3075663553858,2588
962.5150958076741,2552
964.7220294966913,2529
966.928367651274,2618
969.1341105003388,2610
971.3392582728806,2596
973.5438111979742,2506
975.747769504772,2509
977.9511334225061,2593
980.153903180487,2551
982.3560790081052,2527
984.5576611348289,2453
986.7586497902058,2534
988.9590452038618,2550
991.158847605503,2531
993.3580572249133,2436
995.5566742919558,2402
997.7546990365728,2481
999.952131688785,2472
1002.1489724786926,2395
1004.3452216364743,2323
1006.5408793923874,2334
1008.7359459767691,2340
1010.9304216200343,2338
1013.1243065526781,2380
1015.3176010052733,2313
1017.510305208472,2305
1019.7024193930064,2405
1021.8939437896848,2327
1024.0848786293977,2259
1026.2752241431122,2314
1028.4649805618747,2255
1030.6541481168115,2307
1032.842727039127,2299
1035.0307175601051,2269
1037.2181199111074,2262
1039.4049343235752,2286
1041.591161029029,2197
1043.7768002590683,2274
1045.9618522453698,2245
1048.1463172196918,2298
1050.3301954138697,2266
1052.513487059818,2357
1054.69619238953,2222
1056.8783116350783,2225
1059.0598450286152,2227
1061.2407928023704,2257
1063.4211551886528,2228
1065.6009324198508,2221
1067.780124728432,2284
1069.9587323469414,2264
1072.1367555080046,2289
1074.314194444325,2257
1076.4910493886855,2180
1078.667320573947,2180
1080.843008233051,2167
1083.0181125990161,2152
1085.1926339049414,2170
1087.3665723840027,2222
1089.5399282694575,2260
1091.7127017946405,2234
1093.8848931929647,2182
1096.0565026979243,2219
1098.2275305430899,2204
1100.3979769621128,2197
1102.567842188722,2143
1104.737126456726,2171
1106.9058300000124,2178
1109.0739530525475,2180
1111.2414958483764,2151
1113.4084586216231,2141
1115.5748416064907,2165
1117.7406450372605,2019
1119.9058691482942,2158
1122.0705141740304,2215
1124.2345803489884,2237
1126.3980679077658,2245
1128.5609770850388,2143
1130.7233081155623,2197
1132.8850612341707,2275
1135.0462366757774,2225
1137.2068346753745,2216
1139.3668554680326,2096
1141.526299288901,2192
1143.68516637321,2188
1145.8434569562655,2183
1148.001171273455,2086
1150.158309560244,2166
1152.3148720521767,2245
1154.470858984876,2076
1156.626270594044,2118
1158.7811071154629,2184
1160.9353687849912,2157
1163.089055838569,2158
1165.242168512213,2172
1167.3947070420209,2113
1169.5466716641677,2076
1171.6980626149075,2146
1173.8488801305748,2062
1175.9991244475814,2130
1178.1487958024186,2074
1180.2978944316555,2119
1182.4464205719428,2160
1184.5943744600072,2138
1186.7417563326567,2110
1188.8885664267755,2088
1191.0348049793297,2111
1193.1804722273619,2077
1195.325568407995,2123
1197.4700937584303,2073
1199.614048515948,2096
1201.7574329179074,2064
1203.900247201746,2130
1206.042491604982,2150
1208.1841663652099,2171
1210.3252717201053,2183
1212.465807907422,2187
1214.6057751649923,2152
1216.7451737307279,2223
1218.8840038426192,2205
1221.0222657387353,2158
1223.1599596572241,2120
1225.2970858363137,2143
1227.4336445143094,2156
1229.5696359295966,2183
1231.705060320639,2222
1233.8399179259786,2282
1235.9742089842384,2218
1238.107933734118,2209
1240.2410924143974,2294
1242.373685263935,2166
1244.5057125216676,2206
1246.6371744266116,2197
1248.7680712178621,2179
1250.898403134593,2279
1253.028170416058,2199
1255.1573733015875,2181
1257.2860120305932,2192
1259.4140868425648,2121
1261.54159797707,2177
1263.6685456737569,2167
1265.7949301723515,2181
1267.9207517126597,2248
1270.046010534565,2249
1272.1707068780306,2189
1274.2948409830983,2219
1276.4184130898889,2242
1278.541423438603,2230
1280.6638722695184,2204
1282.785759822993,2232
1284.9070863394636,2194
1287.0278520594447,2179
1289.1480572235314,2207
1291.2677020723963,2232
1293.3867868467923,2221
1295.5053117875495,2262
1297.623277135579,2319
1299.740683131868,2294
1301.8575300174857,2287
1303.973818033578,2278
1306.0895474213703,2331
1308.2047184221678,2210
1310.3193312773528,2293
1312.4333862283888,2307
1314.5468835168163,2295
1316.659823384255,2310
1318.7722060724045,2321
1320.8840318230418,2280
1322.9953008780249,2243
1325.1060134792888,2274
1327.2161698688478,2268
1329.3257702887959,2271
1331.4348149813054,2267
1333.5433041886276,2229
1335.6512381530933,2281
1337.7586171171101,2267
1339.8654413231675,2291
1341.9717110138317,2231
1344.0774264317488,2306
1346.1825878196432,2250
1348.2871954203192,2237
1350.3912494766587,2242
1352.4947502316231,2307
1354.5976979282532,2335
1356.7000928096686,2326
1358.8019351190665,2284
1360.9032250997243,2302
1363.0039629949988,2256
1365.1041490483235,2272
1367.2037835032133,2316
1369.3028666032606,2283
1371.401398592137,2259
1373.4993797135926,2272
1375.5968102114575,2313
1377.6936903296396,2318
1379.7900203121262,2391
1381.8858004029835,2275
1383.9810308463561,2356
1386.075711886469,2269
1388.1698437676241,2228
1390.2634267342032,2310
1392.356461030667,2354
1394.4489469015557,2375
1396.5408845914872,2388
1398.6322743451592,2330
1400.7231164073469,2303
1402.813411022907,2328
1404.903158436773,2315
1406.9923588939578,2296
1409.0810126395531,2352
1411.1691199187303,2388
1413.2566809767386,2342
1415.343696058907,2283
1417.4301654106425,2284
1419.5160892774315,2342
1421.6014679048399,2342
1423.6863015385125,2397
1425.7705904241707,2347
1427.8543348076178,2312
1429.9375349347342,2353
1432.0201910514802,2281
1434.102303403894,2348
1436.1838722380944,2314
1438.2648978002767,2372
1440.3453803367174,2328
1442.4253200937692,2336
1444.5047173178677,2350
1446.5835722555234,2375
1448.6618851533285,2385
1450.739656257952,2500
1452.8168858161434,2380
1454.8935740747306,2427
1456.96972128062,2434
1459.045327680797,2469
1461.120393522327,2429
1463.1949190523528,2461
1465.2689045180973,2507
1467.3423501668608,2522
1469.415256246024,2490
1471.4876230030463,2511
1473.559450685465,2630
1475.6307395408976,2550
1477.7014898170391,2537
1479.771701761665,2574
1481.8413756226287,2571
1483.9105116478618,2660
1485.9791100853772,2647
1488.0471711832643,2650
1490.1146951896926,2611
1492.1816823529098,2667
1494.2481329212433,2642
1496.3140471430984,2637
1498.3794252669609,2650
1500.4442675413939,2622
1502.5085742150404,2726
1504.572345536622,2703
1506.6355817549388,2685
1508.6982831188702,2712
1510.7604498773744,2745
1512.8220822794883,2745
1514.8831805743293,2787
1516.9437450110909,2730
1519.003775839048,2716
1521.0632733075522,2728
1523.1222376660367,2787
1525.1806691640113,2851
1527.2385680510652,2822
1529.2959345768668,2864
1531.3527689911643,2923
1533.4090715437833,2811
1535.4648424846291,2919
1537.5200820636855,2995
1539.5747905310159,2951
1541.6289681367616,3097
1543.6826151311434,3015
1545.7357317644614,3075
1547.7883182870937,2992
1549.8403749494987,3011
1551.8919020022113,3067
1553.9428996958477,3033
1555.9933682811015,3052
1558.0433080087469,3116
1560.0927191296346,3148
1562.1416018946961,3242
1564.1899565549415,3232
1566.2377833614592,3229
1568.2850825654164,3294
1570.3318544180606,3257
1572.3780991707158,3302
1574.423817074788,3223
1576.4690083817595,3123
1578.5136733431923,3090
1580.5578122107272,2947
1582.601425236085,2965
1584.6445126710646,2961
1586.6870747675434,2926
1588.7291117774776,2816
1590.7706239529034,2802
1592.8116115459347,2687
1594.8520748087658,2623
1596.8920139936686,2689
1598.9314293529933,2591
1600.9703211391711,2556
1603.008689604711,2564
1605.0465350022005,2583
1607.0838575843068,2487
1609.1206576037753,2491
1611.1569353134305,2567
1613.1926909661765,2417
1615.2279248149953,2448
1617.2626371129481,2438
1619.2968281131757,2409
1621.3304980688963,2454
1623.3636472334088,2358
1625.39627586009,2272
1627.428384202396,2440
1629.459972513861,2368
1631.4910410480993,2406
1633.5215900588028,2354
1635.551619799744,2336
1637.5811305247717,2365
1639.6101224878166,2345
1641.6385959428862,2310
1643.6665511440683,2347
1645.693988345528,2296
1647.7209078015112,2327
1649.7473097663405,2412
1651.7731944944203,2325
1653.7985622402307,2359
1655.823413258333,2347
1657.847747803366,2317
1659.8715661300494,2288
1661.8948684931793,2357
1663.9176551476316,2457
1665.9399263483624,2283
1667.9616823504057,2369
1669.982923408873,2363
1672.0036497789574,2307
1674.0238617159293,2250
1676.043559475138,2319
1678.0627433120121,2305
1680.081413482059,2228
1682.0995702408654,2174
1684.117213844096,2253
1686.134344547495,2311
1688.1509626068864,2370
1690.1670682781705,2347
1692.182661817329,2261
1694.1977434804217,2382
1696.2123135235875,2266
1698.226372203043,2297
1700.2399197750851,2325
1702.2529564960905,2302
1704.2654826225112,2337
1706.277498410882,2321
1708.2890041178139,2357
1710.2999999999988,2358
1712.3104863142066,2326
1714.3204633172854,2348
1716.329931266163,2379
1718.3388904178469,2248
1720.3473410294214,2380
1722.3552833580516,2399
1724.3627176609807,2315
1726.3696441955308,2271
1728.3760632191033,2256
1730.3819749891782,2323
1732.3873797633146,2217
1734.3922777991502,2249
1736.3966693544012,2296
1738.4005546868639,2313
1740.4039340544127,2281
1742.406807715001,2234
1744.4091759266616,2292
1746.4110389475054,2215
1748.4123970357223,2316
1750.413250449582,2278
1752.4135994474318,2307
1754.4134442876993,2310
1756.4127852288902,2247
1758.4116225295893,2336
1760.4099564484595,2263
1762.407787244244,2226
1764.405115175764,2259
1766.4019405019203,2307
1768.3982634816916,2264
1770.3940843741357,2265
1772.3894034383907,2214
1774.3842209336717,2237
1776.378537119274,2321
1778.372352254571,2228
1780.3656665990156,2247
1782.3584804121397,2276
1784.3507939535534,2204
1786.3426074829463,2302
1788.3339212600863,2231
1790.3247355448211,2220
1792.3150505970766,2203
1794.3048666768573,2274
1796.2941840442477,2429
1798.2830029594106,2373
1800.2713236825884,2169
1802.2591464741004,2268
1804.2464715943465,2279
1806.2332993038058,2281
1808.2196298630352,2320
1810.2054635326708,2274
1812.190800573428,2350
1814.175641246101,2347
1816.1599858115628,2309
1818.1438345307652,2315
1820.127187664738,2242
1822.1100454745924,2289
1824.092408221516,2320
1826.0742761667766,2359
1828.055649571721,2346
1830.0365286977735,2382
1832.0169138064398,2304
1833.9968051593014,2272
1835.9762030180214,2340
1837.9551076443408,2273
1839.9335193000788,2315
1841.9114382471344,2354
1843.888864747485,2279
1845.8657990631878,2357
1847.842241456378,2317
1849.8181921892697,2199
1851.7936515241558,2248
1853.7686197234098,2274
1855.7430970494815,2320
1857.7170837649014,2314
1859.6905801322787,2282
1861.6635864143004,2260
1863.6361028737338,2231
1865.608129773424,2264
1867.5796673762961,2263
1869.5507159453537,2317
1871.521275743678,2271
1873.4913470344313,2261
1875.4609300808534,2224
1877.4300251462632,2218
1879.3986324940588,2291
1881.366752387717,2267
1883.3343850907936,2263
1885.3015308669228,2255
1887.268189979819,2269
1889.2343626932739,2291
1891.2000492711595,2245
1893.1652499774254,2287
1895.1299650761011,2239
1897.0941948312952,2264
1899.0579395071945,2244
1901.0211993680641,2341
1902.98397467825,2226
1904.9462657021745,2263
1906.9080727043415,2295
1908.869395949332,2314
1910.8302357018065,2259
1912.790592226504,2310
1914.7504657882428,2254
1916.7098566519212,2197
1918.6687650825133,2270
1920.6271913450764,2251
1922.5851357047422,2287
1924.5425984267245,2252
1926.499579776314,2264
1928.4560800188833,2242
1930.4120994198802,2269
1932.367638244833,2259
1934.32269675935,2268
1936.2772752291175,2280
1938.231373919899,2244
1940.1849930975404,2326
1942.1381330279637,2281
1944.0907939771696,2316
1946.0429762112412,2307
1947.9946799963363,2353
1949.9459055986945,2334
1951.896653284633,2334
1953.8469233205478,2265
1955.7967159729142,2296
1957.7460315082863,2219
1959.6948701932974,2232
1961.6432322946594,2288
1963.5911180791632,2184
1965.5385278136787,2286
1967.4854617651545,2253
1969.4319202006182,2211
1971.377903387176,2264
1973.3234115920136,2203
1975.268445082395,2303
1977.2130041256642,2294
1979.1570889892423,2323
1981.1006999406304,2318
1983.04383724741,2240
1984.986501177238,2313
1986.928691997853,2271
1988.8704099770712,2227
1990.811655382789,2231
1992.7524284829801,2330
1994.692729545698,2275
1996.6325588390755,2250
1998.5719166313224,2293
2000.5108031907307,2236
2002.4492187856677,2292
2004.387163684583,2241
2006.3246381560011,2244
2008.2616424685298,2166
2010.1981768908527,2249
2012.1342416917332,2211
2014.069837140014,2235
2016.0049635046162,2164
2017.9396210545406,2329
2019.8738100588666,2270
2021.8075307867502,2236
2023.740783507431,2235
2025.6735684902228,2268
2027.6058860045214,2224
2029.5377363198004,2206
2031.4691197056118,2139
2033.4000364315875,2225
2035.3304867674374,2248
2037.260470982952,2215
2039.189989347998,2270
2041.1190421325232,2213
2043.047629606554,2192
2044.9757520401945,2211
2046.9034097036288,2328
2048.8306028671195,2251
2050.7573318010086,2204
2052.683596775716,2205
2054.609398061742,2224
2056.5347359296647,2272
2058.4596106501403,2199
2060.384022493906,2213
2062.3079717317764,2232
2064.231458634646,2160
2066.1544834734873,2211
2068.077046519352,2268
2069.99914804337,2169
2071.9207883167524,2255
2073.8419676107865,2292
2075.7626861968406,2184
2077.6829443463607,2171
2079.6027423308715,2293
2081.522080421977,2188
2083.440958891362,2291
2085.359378010786,2271
2087.2773380520907,2238
2089.194839287196,2190
2091.111881988101,2270
2093.0284664268825,2239
2094.9445928756973,2285
2096.86026160678,2258
2098.775472892446,2233
2100.690227005088,2217
2102.604524217178,2201
2104.5183648012676,2188
2106.431749029985,2221
2108.34467717604,2270
2110.2571495122206,2231
2112.169166311393,2223
2114.080727846503,2273
2115.9918343905747,2182
2117.902486216711,2217
2119.8126835980956,2190
2121.722426807987,2233
2123.6317161197285,2315
2125.5405518067364,2212
2127.448934142509,2249
2129.356863400624,2253
2131.264339854737,2228
2133.1713637785815,2277
2135.077935445972,2367
2136.9840551308002,2279
2138.889723107037,2277
2140.7949396487334,2231
2142.699705030018,2231
2144.6040195250994,2300
2146.507883408264,2281
2148.4112969538774,2274
2150.3142604363848,2290
2152.2167741303097,2258
2154.1188383102535,2190
2156.0204532508997,2374
2157.9216192270064,2261
2159.822336513414,2264
2161.7226053850413,2310
2163.622426116884,2333
2165.5217989840185,2250
2167.4207242616,2311
2169.319202224862,2270
2171.2172331491165,2315
2173.1148173097563,2374
2175.0119549822507,2343
2176.90864644215,2301
2178.8048919650823,2287
2180.7006918267534,2296
2182.596046302952,2298
2184.4909556695407,2349
2186.3854202024645,2332
2188.279440177746,2341
2190.173015871487,2299
2192.066147559868,2267
2193.958835519149,2361
2195.851080025667,2238
2197.7428813558417,2243
2199.6342397861667,2333
2201.5251555932186,2393
2203.415629053651,2354
2205.3056604441986,2269
2207.19525004167,2333
2209.084398122958,2271
2210.9731049650327,2366
2212.861370844941,2329
2214.749196039812,2311
2216.636580826851,2357
2218.523525483344,2401
2220.410030286655,2455
2222.296095514226,2368
2224.1817214435805,2306
2226.066908352319,2313
2227.951656518121,2262
2229.835966218746,2334
2231.71983773203,2356
2233.6032713358913,2345
2235.486267308324,2373
2237.3688259274036,2398
2239.2509474712824,2313
2241.132632218193,2329
2243.013880446447,2326
2244.8946924344323,2317
2246.7750684606203,2361
2248.6550088035574,2335
2250.534513741871,2365
2252.413583554265,2415
2254.292218519526,2319
2256.170418916517,2299
2258.0481850241786,2266
2259.925517121534,2297
2261.8024154876825,2283
2263.678880401803,2307
2265.5549121431536,2356
2267.430510991071,2272
2269.305677224971,2315
2271.180411124348,2391
2273.0547129687766,2326
2274.9285830379076,2405
2276.8020216114737,2266
2278.6750289692845,2246
2280.5476053912294,2278
2282.4197511572766,2308
2284.2914665474727,2316
2286.162751841943,2392
2288.0336073208937,2454
2289.904033264608,2344
2291.774029953448,2382
2293.6435976678554,2392
2295.5127366883517,2286
2297.381447295534,2259
2299.2497297700825,2251
2301.1175843927526,2218
2302.9850114443825,2219
2304.852011205885,2202
2306.7185839582553,2127
2308.5847299825664,2086
2310.4504495599676,2144
2312.3157429716925,2097
2314.1806104990483,2066
2316.0450524234247,2032
2317.9090690262888,2041
2319.772660589186,2026
2321.635827393742,2034
2323.498569721661,2031
2325.3608878547248,2086
2327.2227820747967,2083
2329.0842526638157,2010
2330.945299903803,2064
2332.805924076857,2056
2334.6661254651535,2011
2336.525904350951,1983
2338.3852610165827,2026
2340.244195744464,2000
2342.102708817088,2042
2343.9608005170253,1995
2345.8184711269287,2030
2347.675720929526,2003
2349.532550207628,1998
2351.38895924412,2002
2353.24494832197,2066
2355.100517724223,1992
2356.955667734004,2077
2358.810398634514,2053
2360.664710709037,2094
2362.5186042409337,2062
2364.3720795136437,2005
2366.225136810686,2036
2368.0777764156583,1964
2369.929998612237,1983
2371.7818036841777,2065
2373.633191915315,2062
2375.484163589562,2018
2377.3347189909114,2079
2379.184858403434,2066
2381.03458211128,1977
2382.8838903986775,2016
2384.732783549936,1976
2386.5812618494406,2069
2388.4293255816588,1980
2390.2769750311327,1951
2392.1242104824883,2012
2393.971032220427,1957
2395.8174405297295,1998
2397.6634356952563,1982
2399.509018001947,2023
2401.3541877348193,2036
2403.1989451789705,2038
2405.043290619576,2029
2406.8872243418905,2021
2408.730746631247,1976
2410.5738577730594,2008
2412.4165580528183,2015
2414.258847756095,2016
2416.100727168537,2094
2417.9421965758734,1995
2419.783256263912,2048
2421.623906518538,2015
2423.4641476257157,1955
2425.303979871491,2019
2427.143403541984,2051
2428.9824189233977,1901
2430.821026302012,2037
2432.6592259641866,2037
2434.497018196361,1961
2436.33440328505,2040
2438.171381516851,2026
2440.00795317844,1989
2441.844118556569,2023
2443.6798779380724,1968
2445.5152316098606,1996
2447.3501798589255,1998
2449.1847229723357,1927
2451.0188612372403,2060
2452.8525949408663,1962
2454.6859243705203,1927
2456.518849813587,1963
2458.3513715575314,2022
2460.183489889895,2035
2462.015205098301,2062
2463.8465174704493,1999
2465.67742729412,2011
2467.5079348571717,2011
2469.338040447542,2008
2471.1677443532476,2079
2472.9970468623833,2077
2474.825948263123,2083
2476.6544488437207,1988
2478.482548892508,1950
2480.310248697896,1987
2482.137548548374,2009
2483.9644487325118,2012
2485.790949538956,1993
2487.617051256433,1950
2489.44275417375,2028
2491.26805857979,2060
2493.0929647635157,2060
2494.917473013971,1992
2496.741583620276,2046
2498.5652968716304,2066
2500.3886130573137,2092
2502.2115324666834,2046
2504.0340553891765,2029
2505.856182114308,2075
2507.6779129316733,2039
2509.499248130945,2050
2511.3201880018764,1965
2513.140732834298,2056
2514.9608829181198,1992
2516.780638543331,2057
2518.6,2016
2520.418967578273,2082
2522.237541568376,2026
2524.0557222606144,2057
2525.8735099453706,2019
2527.6909049131086,2013
2529.507907454368,2062
2531.32451785977,1991
2533.140736420014,1952
2534.9565634258774,2055
2536.771999168218,2061
2538.5870439379714,2035
2540.4016980261526,2072
2542.2159617238544,2084
2544.02983532225,2029
2545.8433191125914,2016
2547.656413386209,2064
2549.4691184345115,2086
2551.2814345489874,2062
2553.093362021204,2092
2554.904901142808,2102
2556.716052205523,2124
2558.526815501153,2126
2560.3371913215824,2140
2562.147179958771,2115
2563.956781704761,2158
2565.7659968516705,2062
2567.5748256916986,2041
2569.3832685171224,2186
2571.1913256202984,2150
2572.9989972936614,2170
2574.806283829725,2092
2576.613185521084,2119
2578.4197026604074,2165
2580.2258355404483,2067
2582.031584454035,2114
2583.836949694077,2134
2585.6419315535613,2140
2587.4465303255533,2176
2589.2507463032002,2179
2591.0545797797245,2147
2592.8580310484303,2150
2594.6611004026995,2184
2596.463788135992,2236
2598.266094541849,2217
2600.0680199138874,2146
2601.869564545807,2154
2603.670728731383,2194
2605.4715127644704,2168
2607.2719169390048,2151
2609.071941548998,2123
2610.8715868885433,2222
2612.670853251811,2180
2614.469740933052,2217
2616.268250226594,2155
2618.0663814268455,2175
2619.864134828292,2168
2621.6615107255006,2211
2623.458509413115,2195
2625.2551311858597,2145
2627.0513763385347,2198
2628.8472451660223,2150
2630.6427379632833,2203
2632.4378550253564,2139
2634.232596647359,2139
2636.026963124488,2108
2637.8209547520187,2203
2639.6145718253065,2176
2641.407814639785,2152
2643.200683490966,2090
2644.9931786744414,2119
2646.7853004858807,2073
2648.577049221034,1973
2650.3684251757277,2051
2652.1594286458712,2123
2653.9500599274484,2018
2655.740319316525,2068
2657.5302071092437,1992
2659.3197236018286,2090
2661.10886909058,1987
2662.8976438718782,1993
2664.686048242183,2020
2666.4740824980327,1977
2668.2617469360443,2017
2670.0490418529134,1958
2671.8359675454153,2028
2673.622524310403,2002
2675.408712444811,2005
2677.1945322456495,1986
2678.979984010009,2067
2680.76506803506,2051
2682.5497846180497,2020
2684.334134056306,1994
2686.1181166472343,2020
2687.9017326883213,1946
2689.6849824771293,1943
2691.4678663113013,1992
2693.2503844885596,2014
2695.032537306705,2023
2696.8143250636167,2036
2698.5957480572542,2062
2700.3768065856534,1966
2702.1575009469316,1958
2703.937831439283,1997
2705.717798360982,1956
2707.4974020103837,1951
2709.276642685917,1956
2711.055520686095,1911
2712.834036309506,1966
2714.612189854819,1907
2716.389981620782,1919
2718.1674119062204,1934
2719.944481010041,1899
2721.721189231226,1903
2723.4975368688415,1966
2725.273524222027,1898
2727.0491515900053,1936
2728.824419272075,1901
2730.5993275676146,1951
2732.3738767760838,1942
2734.148067197016,1988
2735.921899130031,1949
2737.6953728748194,1883
2739.468488731156,1933
2741.2412469988926,1919
2743.0136479779617,1823
2744.785691968372,1919
2746.5573792702116,1901
2748.3287101836504,1947
2750.099685008934,1947
2751.870304046388,1872
2753.640567596418,1968
2755.4104759595057,1968
2757.1800294362156,1916
2758.949228327187,1994
2760.7180729331412,1922
2762.486563554877,1917
2764.254700493272,1880
2766.022484049284,1945
2767.789914523947,1859
2769.5569922183786,1953
2771.3237174337705,1960
2773.090090471394,1975
2774.8561116326036,1887
2776.6217812188274,1887
2778.3870995315756,1843
2780.1520668724356,1971
2781.9166835430747,1930
2783.6809498452394,1925
2785.444866080754,1942
2787.2084325515225,1890
2788.971649559527,1876
2790.73451740683,1952
2792.4970363955713,1915
2794.2592068279705,1919
2796.0210290063264,1841
2797.7825032330147,1949
2799.543629810493,1923
2801.304409041296,1877
2803.0648412280366,1918
2804.8249266734088,1974
2806.5846656801846,1938
2808.344058551212,1886
2810.1031055894246,1962
2811.8618070978273,1925
2813.6201633795085,1922
2815.378174737636,1965
2817.1358414754536,1879
2818.893163896285,1908
2820.6501423035334,1861
2822.4067770006814,1859
2824.1630682912883,1927
2825.9190164789957,1904
2827.6746218675207,2023
2829.429884760661,1879
2831.184805462294,1968
2832.9393842763743,1897
2834.693621506936,1940
2836.4475174580916,1941
2838.201072434034,1872
2839.954286739034,1966
2841.707160677441,1992
2843.459694553685,1888
2845.2118886722724,1867
2846.96374333779,1957
2848.7152588549034,1907
2850.4664355283567,1879
2852.217273662973,1932
2853.9677735636546,1890
2855.7179355353833,1942
2857.4677598832186,1915
2859.217246912299,1875
2860.9663969278427,1934
2862.715210235146,1929
2864.4636871395846,1927
2866.211827946614,1891
2867.9596329617652,1811
2869.7071024906536,1899
2871.4542368389684,1894
2873.20103631248,1893
2874.947501217038,1924
2876.6936318585695,1875
2878.4394285430812,1904
2880.1848915766604,1893
2881.9300212654707,1863
2883.6748179157553,1886
2885.4192818338374,1924
2887.1634133261173,1842
2888.907212699077,1896
2890.6506802592744,1914
2892.393816313348,1902
2894.1366211680142,1844
2895.8790951300693,1906
2897.621238506388,1836
2899.363051603925,1859
2901.1045347297118,1919
2902.8456881908596,1940
2904.58651229456,1924
2906.327007348081,1856
2908.067173658772,1898
2909.8070115340597,1841
2911.5465212814497,1897
2913.285703208527,1914
2915.0245576229563,1844
2916.7630848324807,1879
2918.5012851449196,1886
2920.2391588681758,1885
2921.976706310227,1898
2923.7139277791334,1823
2925.4508235830313,1875
2927.187394030137,1822
2928.923639428745,1849
2930.6595600872306,1815
2932.395156314046,1814
2934.1304284177218,1815
2935.8653767068713,1889
2937.6000014901815,1834
2939.3343030764227,1883
2941.068281774442,1935
2942.8019378931644,1991
2944.5352717415976,1884
2946.2682836288236,1847
2948.0009738640065,1829
2949.7333427563885,1855
2951.465390615289,1894
2953.1971177501086,1821
2954.9285244703265,1889
2956.6596110855,1802
2958.3903779052657,1837
2960.1208252393385,1892
2961.8509533975125,1908
2963.5807626896617,1854
2965.3102534257378,1902
2967.0394259157715,1842
2968.768280469873,1857
2970.496817398232,1806
2972.2250370111146,1873
2973.952939618869,1870
2975.6805255319196,1898
2977.4077950607707,1918
2979.134748516006,1848
2980.861386208289,1908
2982.587708448359,1848
2984.313715547037,1824
2986.039407815222,1814
2987.764785563891,1880
2989.489849104102,1843
2991.2145987469908,1848
2992.9390348037705,1759
2994.6631575857346,1825
2996.3869674042576,1886
2998.1104645707887,1869
2999.83364939686,1863
3001.5565221940783,1839
3003.2790832741334,1804
3005.0013329487924,1838
3006.7232715298996,1833
3008.4448993293804,1876
3010.166216659239,1796
3011.887223831558,1795
3013.607921158498,1813
3015.3283089522993,1817
3017.0483875252826,1799
3018.7681571898443,1807
3020.4876182584626,1843
3022.2067710436927,1879
3023.9256158581707,1795
3025.644153014609,1851
3027.362382825801,1767
3029.0803056046193,1825
3030.797921664012,1823
3032.5152313170106,1856
3034.2322348767225,1770
3035.9489326563353,1796
3037.665324969115,1791
3039.3814121284063,1875
3041.097194447633,1805
3042.812672240299,1804
3044.5278458199855,1863
3046.2427155003525,1802
3047.9572815951406,1809
3049.671544418167,1807
3051.38550428333,1783
3053.0991615046073,1829
3054.812516396051,1779
3056.5255692717974,1791
3058.2383204460575,1830
3059.9507702331257,1876
3061.662918947372,1880
3063.3747669032446,1784
3065.0863144152736,1791
3066.7975617980674,1847
3068.508509366309,1823
3070.219157434767,1772
3071.9295063182844,1870
3073.639556331785,1782
3075.3493077902704,1847
3077.058761008821,1757
3078.7679163025964,1776
3080.476773986837,1824
3082.1853343768594,1854
3083.89359778806,1815
3085.6015645359153,1768
3087.3092349359786,1777
3089.016609303884,1779
3090.7236879553434,1885
3092.4304712061476,1798
3094.136959372166,1756
3095.843152769349,1810
3097.5490517137237,1787
3099.2546565213966,1817
3100.959967508554,1778
3102.66498499146,1763
3104.3697092864577,1844
3106.0741407099695,1900
3107.778279578498,1808
3109.482126208622,1789
3111.1856809170004,1831
3112.8889440203716,1791
3114.5919158355528,1839
3116.294596679439,1782
3117.996986869006,1815
3119.6990867213062,1771
3121.4008965534726,1824
3123.102416682717,1898
3124.803647426329,1874
3126.5045891016784,1862
3128.205242026213,1754
3129.90560651746,1863
3131.605682893025,1855
3133.3054714705922,1743
3135.0049725679282,1888
3136.7041865028714,1756
3138.4031135933465,1798
3140.101754157353,1792
3141.800108512971,1747
3143.498176978357,1792
3145.1959598717494,1762
3146.8934575114636,1794
3148.5906702158954,1800
3150.2875983035183,1795
3151.9842420928853,1767
3153.680601902627,1842
3155.376678051456,1790
3157.07247085816,1771
3158.767980641609,1762
3160.463207720748,1792
3162.158152414606,1813
3163.8528150422862,1791
3165.5471959229726,1770
3167.2412953759303,1773
3168.9351137204976,1810
3170.628651276098,1816
3172.3219083622307,1744
3174.014885298474,1730
3175.707582404485,1710
3177.4000000000005,1756
3179.092138404835,1808
3180.7839979388846,1767
3182.47557892212,1779
3184.166881674594,1782
3185.8579065164386,1681
3187.5486537678626,1742
3189.2391237491547,1873
3190.9293167806827,1755
3192.6192331828934,1808
3194.3088732763117,1792
3195.998237381542,1765
3197.687325819268,1788
3199.376138910251,1778
3201.064676975334,1724
3202.7529403354347,1813
3204.4409293115523,1777
3206.1286442247647,1827
3207.816085396229,1773
3209.5032531471825,1752
3211.190147798936,1772
3212.8767696728846,1732
3214.5631190905015,1692
3216.2491963733373,1728
3217.9350018430214,1760
3219.6205358212637,1737
3221.305798629851,1669
3222.990790590651,1674
3224.6755120256103,1628
3226.359963256751,1660
3228.0441446061795,1725
3229.7280563960758,1726
3231.411698948703,1781
3233.0950725863995,1769
3234.778177631587,1736
3236.461014406761,1789
3238.1435832345005,1724
3239.8258844374595,1741
3241.507918338374,1761
3243.1896852600576,1748
3244.8711855254023,1769
3246.552419457381,1775
3248.233387379042,1794
3249.914089613516,1769
3251.59452648401,1776
3253.274698313813,1770
3254.95460542629,1723
3256.6342481448855,1754
3258.313626793125,1772
3259.9927416946084,1702
3261.6715931730196,1750
3263.3501815521176,1752
3265.0285071557437,1712
3266.706570307815,1653
3268.3843713323286,1733
3270.0619105533615,1708
3271.739188295068,1732
3273.4162048816834,1767
3275.0929606375184,1710
3276.769455886966,1648
3278.445690954498,1713
3280.1216661646613,1692
3281.797381842087,1777
3283.4728383114807,1666
3285.1480358976296,1791
3286.8229749253996,1705
3288.4976557197333,1758
3290.172078605655,1696
3291.846243908266,1766
3293.5201519527463,1708
3295.193803064357,1714
3296.8671975684374,1709
3298.5403357904024,1785
3300.21321805575,1727
3301.8858446900567,1690
3303.558216018975,1638
3305.23033236824,1765
3306.9021940636603,1755
3308.57380143113,1728
3310.2451547966184,1821
3311.916254486174,1663
3313.5871008259246,1783
3315.2576941420766,1693
3316.9280347609147,1717
3318.5981230088046,1662
3320.2679592121895,1689
3321.9375436975924,1677
3323.606876791612,1715
3325.27595882093,1714
3326.944790112305,1741
3328.6133709925753,1669
3330.2817017886573,1710
3331.949782827547,1705
3333.617614436319,1672
3335.2851969421245,1702
3336.952530672199,1665
3338.619615953853,1694
3340.286453114475,1682
3341.9530424815357,1740
3343.619384382583,1745
3345.2854791452437,1758
3346.951327097224,1687
3348.6169285663073,1681
3350.2822838803577,1750
3351.947393367319,1682
3353.61225735521,1674
3355.2768761721345,1668
3356.9412501462693,1688
3358.605379605873,1720
3360.2692648792827,1703
3361.9329062949146,1736
3363.596304181263,1840
