CollectionTime,7/10/2024 3:29:20 PM
ExposureUsed,3
CalibratedSpectrum
-962.7078968117929,784
-959.9714848408522,817
-957.2358232597828,850
-954.5009119013725,852
-951.7667505983302,859
-949.0333391832855,882
-946.3006774887896,832
-943.5687653473143,862
-940.837602591253,863
-938.1071890529199,817
-935.3775245645503,837
-932.6486089583007,835
-929.9204420662485,848
-927.1930237203925,877
-924.4663537526524,865
-921.7404319948689,842
-919.0152582788041,875
-916.2908324361409,859
-913.5671542984834,815
-910.8442236973568,855
-908.1220404642074,823
-905.4006044304027,850
-902.679915427231,861
-899.959973285902,814
-897.2407778375464,841
-894.5223289132158,864
-891.8046263438832,901
-889.0876699604426,822
-886.3714595937089,831
-883.6559950744183,831
-880.9412762332282,868
-878.2273029007168,823
-875.5140749073835,873
-872.8015920836489,813
-870.0898542598545,838
-867.3788612662631,807
-864.6686129330585,844
-861.9591090903457,838
-859.2503495681506,854
-856.5423341964203,861
-853.8350628050229,851
-851.1285352237478,843
-848.4227512823054,866
-845.7177108103272,862
-843.0134136373656,858
-840.3098595928943,869
-837.6070485063082,852
-834.9049802069229,915
-832.2036545239757,869
-829.5030712866244,844
-826.8032303239481,848
-824.1041314649472,860
-821.4057745385428,859
-818.7081593735775,881
-816.0112857988148,905
-813.3151536429393,887
-810.6197627345566,864
-807.9251129021936,870
-805.2312039742981,875
-802.5380357792392,926
-799.8456081453069,885
-797.1539209007124,889
-794.462973873588,871
-791.772766891987,896
-789.083299783884,887
-786.3945723771743,903
-783.7065844996748,900
-781.0193359791231,907
-778.3328266431781,913
-775.6470563194197,916
-772.9620248353489,883
-770.2777320183878,902
-767.5941776958798,930
-764.9113616950891,867
-762.2292838432011,883
-759.5479439673222,893
-756.8673418944801,898
-754.1874774516235,960
-751.5083504656222,939
-748.8299607632671,905
-746.15230817127,925
-743.475392516264,864
-740.7992136248035,947
-738.1237713233636,922
-735.4490654383407,965
-732.7750957960521,898
-730.1018622227365,992
-727.4293645445534,942
-724.7576025875837,946
-722.0865761778291,945
-719.4162851412126,928
-716.7467293035781,909
-714.0779084906909,925
-711.409822528237,960
-708.7424712418238,937
-706.0758544569796,905
-703.4099719991541,937
-700.7448236937178,958
-698.0804093659622,1017
-695.4167288411002,957
-692.7537819442656,951
-690.0915685005134,919
-687.4300883348199,941
-684.7693412720819,987
-682.1093271371178,981
-679.4500457546669,957
-676.7914969493897,998
-674.1336805458676,972
-671.4765963686034,944
-668.8202442420206,920
-666.1646239904642,947
-663.5097354382001,954
-660.8555784094151,997
-658.2021527282176,1031
-655.5494582186366,1068
-652.8974947046223,1007
-650.2462620100463,994
-647.5957599587009,1005
-644.9459883742998,1055
-642.2969470804776,1034
-639.6486359007902,1044
-637.0010546587141,1084
-634.3542031776476,1023
-631.7080812809096,1012
-629.0626887917401,997
-626.4180255333008,974
-623.7740913286734,1019
-621.1308860008619,1016
-618.4884093727904,1030
-615.8466612673046,1034
-613.2056415071715,1044
-610.5653499150785,1059
-607.9257863136347,1053
-605.28695052537,1048
-602.6488423727357,1023
-600.0114616781036,1036
-597.3748082637674,1063
-594.7388819519412,1123
-592.1036825647604,1133
-589.4692099242818,1101
-586.8354638524829,1043
-584.2024441712624,1096
-581.5701507024403,1084
-578.9385832677575,1118
-576.3077416888759,1116
-573.6776257873787,1077
-571.0482353847704,1046
-568.4195703024757,1095
-565.7916303618415,1075
-563.164415384135,1114
-560.5379251905453,1150
-557.9121596021815,1104
-555.2871184400748,1106
-552.6628015251767,1136
-550.0392086783606,1120
-547.4163397204204,1062
-544.794194472071,1099
-542.1727727539491,1085
-539.5520743866118,1175
-536.9320991905377,1191
-534.3128469861261,1171
-531.6943175936979,1227
-529.0765108334947,1240
-526.4594265256793,1236
-523.8430644903358,1330
-521.2274245474689,1454
-518.612506517005,1499
-515.9983102187913,1496
-513.3848354725959,1517
-510.77208209810846,1551
-508.16004991493924,1723
-505.5487387426199,1856
-502.9381484006032,1998
-500.3282787082628,1975
-497.71912948489364,2044
-495.1107005497117,1980
-492.5029917218539,1819
-489.8960028203786,1687
-487.28973366426493,1593
-484.68418407241325,1450
-482.07935386364494,1351
-479.47524285670266,1311
-476.87185087025,1362
-474.2691777228715,1420
-471.66722323307334,1377
-469.0659872192821,1364
-466.4654694998459,1343
-463.86566989303384,1346
-461.26658821703614,1368
-458.66822428996414,1374
-456.07057792985,1361
-453.4736489546475,1301
-450.877437182231,1366
-448.28194243039627,1326
-445.68716451686,1293
-443.09310325926003,1285
-440.49975847515555,1283
-437.9071299820263,1307
-435.31521759727354,1280
-432.72402113821954,1387
-430.13354042210767,1411
-427.5437752661022,1392
-424.95472548728867,1353
-422.36639090267386,1334
-419.7787713291855,1305
-417.1918665836721,1335
-414.60567648290385,1378
-412.0202008435715,1363
-409.4354394822874,1436
-406.8513922155845,1426
-404.26805885991723,1491
-401.685439231661,1502
-399.103533147112,1401
-396.522340422488,1453
-393.9418608739278,1440
-391.3620943174908,1377
-388.7830405691583,1323
-386.2046994448317,1252
-383.6270707603344,1240
-381.05015433141045,1154
-378.473949973725,1067
-375.8984575028645,1069
-373.32367673433623,928
-370.74960748356875,827
-368.1762495659117,775
-365.60360279663576,729
-363.03166699093265,679
-360.4604419639154,582
-357.8899275306178,578
-355.32012350599507,534
-352.7510297049233,543
-350.1826459421999,531
-347.61497203254316,482
-345.04800779059235,489
-342.4817530309082,501
-339.91620756797226,513
-337.35137121618743,538
-334.7872437898774,547
-332.22382510328725,520
-329.66111497058273,530
-327.09911320585127,541
-324.53781962310075,539
-321.9772340362607,523
-319.4173562591816,502
-316.8581861056348,471
-314.2997233893127,544
-311.7419679238294,543
-309.1849195227194,554
-306.62857799943856,576
-304.0729431673641,565
-301.51801483979375,592
-298.963792829947,651
-296.41027695096386,584
-293.85746701590574,554
-291.3053628377552,575
-288.7539642294155,579
-286.2032710037115,584
-283.65328297338897,551
-281.1039999511146,605
-278.5554217494762,626
-276.007548180983,723
-273.4603790580651,679
-270.9139141930734,605
-268.3681533982807,627
-265.8230964858798,627
-263.27874326798565,698
-260.7350935566336,724
-258.1921471637804,704
-255.6499039013039,662
-253.10836358100266,628
-250.56752601459698,617
-248.02739101372765,666
-245.48795838995704,682
-242.94922795476816,701
-240.41119951956557,688
-237.8738728956746,638
-235.33724789434166,643
-232.80132432673452,628
-230.2661020039418,660
-227.73158073697357,615
-225.19776033676033,673
-222.66464061415422,768
-220.1322213799284,786
-217.60050244477725,764
-215.06948361931552,732
-212.53916471408013,781
-210.00954553952818,779
-207.48062590603843,814
-204.9524056239104,790
-202.4248845033651,758
-199.8980623545441,748
-197.37193898751036,786
-194.84651421224817,853
-192.32178783866232,859
-189.79775967657952,914
-187.27442953574644,821
-184.7517972258321,772
-182.2298625564256,820
-179.7086253370378,892
-177.18808537710026,902
-174.66824248596583,888
-172.14909647290835,895
-169.6306471471229,995
-167.11289431772548,937
-164.59583779375328,831
-162.07947738416453,884
-159.5638128978386,1051
-157.04884414357605,1114
-154.53457093009854,1179
-152.02099306604828,1088
-149.50811035998936,959
-146.99592262040665,850
-144.48442965570587,992
-141.97363127421409,1150
-139.46352728417958,1221
-136.95411749377126,1161
-134.44540171107985,947
-131.93737974411636,971
-129.43005140081357,1137
-126.92341648902493,1472
-124.41747481652521,1966
-121.91222619101006,2059
-119.40767042009657,2088
-116.90380731132257,2463
-114.40063667214702,2427
-111.8981583099503,2240
-109.3963720320337,1973
-106.89527764561933,1643
-104.39487495785067,1883
-101.89516377579241,2897
-99.39614390642998,4169
-96.89781515667039,4784
-94.40017733334128,4615
-91.90323024319173,3339
-89.40697369289148,2700
-86.91140748903172,3061
-84.41653143812482,4749
-81.92234534660395,5310
-79.42884902082358,5197
-76.93604226705907,6432
-74.4439248915071,10303
-71.95249670028534,15143
-69.46175749943245,19414
-66.97170709490854,21988
-64.48234529259423,20080
-61.99367189829195,15210
-59.50568671772464,12557
-57.01838955653636,10576
-54.53178022029283,7774
-52.045858514480074,7514
-49.560624244506016,9699
-47.07607721569923,11485
-44.59221723330904,13399
-42.10904410250669,13483
-39.62655762838392,11702
-37.14475761595372,13337
-34.66364387015028,14414
-32.18321619582866,16347
-29.70347439776515,18151
-27.224418280657005,17183
-24.74604764912317,15770
-22.26836230770266,16749
-19.7913620608565,25520
-17.315046712966478,43578
-14.83941606833514,58214
-12.36446993118659,65039
-9.89020810566592,65039
-7.416630395839093,65039
-4.94373660569363,65039
-2.471526539137585,65039
-6.821210263296962E-13,65039
2.47084320796705,65039
4.941003281093458,65039
7.410480415786196,65039
9.879274808531363,65039
12.347386655893956,65039
14.814816154518212,65039
17.28156350112681,65039
19.74762889252179,65039
22.21301252558385,65039
24.67771459727237,21105
27.141735304626195,4253
29.605074844762612,3107
32.06773341487792,3179
34.52971121224755,3098
36.99100843422559,2484
39.45162527824516,2282
41.91156194181792,2150
44.370818622535126,1889
46.82939551806646,1941
49.287292826160524,2049
51.74451074464503,2542
54.201049471426245,3024
56.65690920448981,2637
59.112090141899785,2170
61.56659248179983,1752
64.02041642241159,1532
66.4735621620365,1375
68.92602989905402,1245
71.37781983192338,1586
73.82893215918205,1627
76.27936707944684,1496
78.72912479141326,1201
81.17820549385567,1225
83.62660938562783,1466
86.07433666566146,1557
88.5213875329681,1368
90.96776218663751,1139
93.41346082583925,1191
95.85848364982041,1312
98.30283085790859,1286
100.7465026495089,1313
103.18949922410604,1598
105.63182078126385,1430
108.07346752062438,1176
110.51443964190923,1175
112.95473734491827,1112
115.39436082953114,1203
117.83331029570547,1430
120.27158594347827,1734
122.7091879729652,1579
125.1461165843615,1453
127.58237197794062,1268
130.01795435405518,1253
132.4528639131364,1174
134.88710085569494,1055
137.32066538231982,1204
139.75355769367923,1182
142.1857779905207,959
144.61732647366978,889
147.04820334403132,910
149.47840880258934,1069
151.90794305040674,1216
154.33680628862487,1353
156.76499871846443,1437
159.19252054122433,1479
161.61937195828352,1651
164.04555317109896,1806
166.47106438120693,2077
168.89590579022217,2496
171.320077599839,2597
173.7435800118302,2659
176.16641322804742,2777
178.58857745042144,2990
181.01007288096173,2944
183.43089972175687,2986
185.85105817497413,2922
188.27054844285988,2979
190.6893707277394,3089
193.10752523201643,3069
195.5250121581745,3285
197.9418317087751,3288
200.3579840864594,3249
202.7734694939469,3240
205.18828813403627,3402
207.6024402096051,3618
210.01592592360964,3656
212.42874547908548,3469
214.84089907914665,3367
217.2523869269868,3416
219.66320922587727,3372
222.0733661791695,3374
224.48285799029293,3372
226.8916848627572,3325
229.29984700014882,3380
231.7073446061355,3480
234.11417788446204,3393
236.520347038953,3397
238.92585227351185,3408
241.33069379212054,3560
243.73487179884035,3487
246.1383864978112,3500
248.541238093252,3480
250.9434267894609,3474
253.34495279081432,3496
255.74581630176783,3426
258.1460175268563,3536
260.54555667069314,3437
262.9444339379703,3402
265.3426495334594,3419
267.7402036620107,3412
270.1370965285529,3367
272.53332833809407,3248
274.9288992957214,3368
277.32380960660055,3191
279.718059475976,3211
282.1116491091717,3141
284.5045787115897,3143
286.89684848871195,3249
289.2884586460981,3206
291.67940938938807,3215
294.0697009242996,3235
296.4593334566299,3238
298.84830719225477,3203
301.23662233712923,3178
303.6242790972866,3176
306.01127767884,3137
308.39761828798066,3098
310.78330113097934,3118
313.16832641418534,2992
315.5526943440269,3017
317.9364051270112,3027
320.3194589697242,3025
322.70185607883093,3018
325.0835966610754,2986
327.4646809232805,2888
329.8451090723478,2887
332.2248813152577,2911
334.6039978590701,2913
336.9824589109231,2915
339.36026467803447,2900
341.7374153677,2883
344.113911187295,2811
346.48975234427337,2811
348.8649390461686,2821
351.2394715005918,2802
353.61334991523415,2737
355.9865744978655,2849
358.35914545633375,2860
360.73106299856715,2807
363.10232733257146,2837
365.47293866643247,2825
367.84289720831396,2838
370.2122031664593,2741
372.5808567491905,2917
374.9488581649083,2769
377.31620762209275,2702
379.6829053293021,2690
382.0489514951745,2701
384.4143463284262,2670
386.7790900378528,2694
389.14318283232853,2792
391.50662492080653,2694
393.86941651231916,2666
396.23155781597745,2644
398.5930490409713,2745
400.9538903965696,2823
403.3140820921202,2686
405.6736243370498,2708
408.03251734086336,2626
410.3907613131465,2651
412.74835646356166,2678
415.10530300185144,2654
417.4616011378372,2662
419.81725108141893,2741
422.1722530425758,2659
424.5266072313656,2630
426.880313857925,2625
429.2333731324701,2699
431.58578526529516,2583
433.9375504667738,2636
436.2886689473588,2585
438.63914091758113,2561
440.9889665880513,2522
443.33814616945835,2578
445.68667987257015,2526
448.03456790823395,2545
450.3818104873759,2554
452.72840782100013,2549
455.07436012019105,2534
457.41966759611057,2601
459.7643304600007,2585
462.10834892318155,2553
464.4517231970525,2552
466.79445349309174,2551
469.1365400228566,2605
471.4779829979826,2623
473.81878263018564,2650
476.15893913125876,2582
478.4984527130747,2640
480.8373235875855,2756
483.17555196682144,2756
485.5131380628919,2743
487.8500820879857,2902
490.1863842543697,3034
492.52204477439034,3111
494.8570638604725,3370
497.1914417251204,3537
499.52517858091653,3882
501.85827464052306,4074
504.19073011668036,4100
506.5225452222086,4029
508.85372017000566,4044
511.18425517304956,3736
513.514150444396,3807
515.8434061971808,4446
518.1720226446176,5037
520.4999999999999,5190
522.8273384766991,5151
525.1540382881666,4714
527.480099647932,4338
529.8055227696037,3731
532.1303078668694,3284
534.454455153496,2993
536.777964843328,2922
539.1008371502907,2875
541.4230722883866,2856
543.744670471698,2797
546.0656319143858,2752
548.3859568306899,2612
550.7056454349294,2658
553.0246979415016,2713
555.3431145648834,2708
557.6608955196306,2590
559.978041020377,2617
562.2945512818363,2741
564.6104265188006,2744
566.9256669461412,2812
569.2402727788082,2625
571.5542442318302,2747
573.8675815203156,2706
576.1802848594508,2666
578.4923544645015,2739
580.8037905508126,2725
583.114593333807,2785
585.4247630289875,2747
587.7342998519354,2714
590.0432040183106,2737
592.3514757438526,2672
594.6591152443794,2741
596.9661227357875,2692
599.2724984340531,2687
601.578242555231,2765
603.8833553154542,2728
606.1878369309362,2748
608.4916876179676,2685
610.7949075929192,2718
613.0974970722403,2669
615.3994562724587,2694
617.7007854101818,2716
620.0014847020951,2705
622.3015543649641,2734
624.6009946156324,2671
626.8998056710224,2694
629.1979877481361,2686
631.4955410640538,2687
633.7924658359349,2728
636.0887622810175,2743
638.3844306166192,2678
640.6794710601358,2660
642.9738838290426,2692
645.2676691408932,2739
647.5608272133207,2720
649.853358264037,2755
652.1452625108324,2720
654.4365401715764,2750
656.7271914642178,2646
659.0172166067838,2702
661.3066158173809,2703
663.5953893141935,2774
665.8835373154867,2719
668.1710600396028,2766
670.4579577049639,2837
672.7442305300709,2665
675.0298787335033,2761
677.3149025339197,2714
679.599302150058,2751
681.8830778007342,2604
684.1662297048437,2693
686.4487580813608,2729
688.7306631493387,2728
691.0119451279091,2679
693.2926042362834,2638
695.5726406937516,2727
697.8520547196814,2778
700.1308465335215,2669
702.4090163547982,2674
704.6865644031171,2716
706.9634908981619,2687
709.2397960596965,2740
711.5154801075631,2790
713.7905432616823,2751
716.0649857420548,2696
718.3388077687592,2694
720.612009561953,2707
722.8845913418733,2654
725.1565533288352,2716
727.427895743234,2681
729.6986188055427,2766
731.9687227363137,2690
734.238207756178,2733
736.5070740858458,2783
738.7753219461066,2703
741.0429515578281,2709
743.3099631419569,2712
745.5763569195191,2739
747.8421331116193,2691
750.1072919394409,2697
752.3718336242467,2632
754.6357583873777,2768
756.8990664502545,2741
759.1617580343765,2759
761.423833361321,2753
763.6852926527457,2685
765.9461361303862,2725
768.206364016058,2727
770.4659765316536,2793
772.7249738991469,2781
774.9833563405886,2808
777.2411240781092,2789
779.4982773339183,2722
781.7548163303044,2741
784.010741289634,2747
786.2660524343538,2799
788.5207499869881,2742
790.7748341701416,2752
793.0283052064964,2746
795.2811633188143,2860
797.5334087299362,2765
799.7850416627813,2669
802.0360623403484,2825
804.2864709857143,2769
806.5362678220353,2750
808.7854530725468,2676
811.0340269605625,2804
813.2819897094754,2751
815.5293415427581,2698
817.77608268396,2748
820.0222133567116,2699
822.2677337847211,2756
824.5126441917765,2776
826.7569448017433,2791
829.0006358385675,2738
831.2437175262731,2732
833.4861900889629,2757
835.7280537508192,2834
837.9693087361026,2722
840.2099552691533,2841
842.4499935743896,2808
844.689423876309,2756
846.9282463994886,2770
849.1664613685833,2711
851.4040690083276,2702
853.6410695435349,2685
855.877463199097,2664
858.1132501999847,2809
860.3484307712487,2774
862.5830051380175,2762
864.8169735254988,2683
867.0503361589791,2745
869.2830932638243,2703
871.5152450654786,2763
873.7467917894654,2833
875.9777336613873,2817
878.2080709069252,2817
880.4378037518389,2822
882.666932421968,2732
884.8954571432301,2860
887.1233781416219,2830
889.3506956432192,2800
891.5774098741766,2829
893.803521060728,2851
896.0290294291852,2795
898.2539352059397,2885
900.4782386174619,2869
902.7019398903011,2845
904.925039251085,2848
907.147536926521,2734
909.3694331433943,2830
911.59072812857,2769
913.8114221089921,2766
916.0315153116827,2769
918.2510079637437,2712
920.4699002923547,2749
922.6881925247761,2710
924.905884888345,2655
927.1229776104793,2713
929.3394709186747,2759
931.555365040506,2678
933.7706602036275,2708
935.9853566357709,2681
938.1994545647489,2701
940.4129542184515,2748
942.6258558248488,2727
944.8381596119883,2661
947.0498658079974,2640
949.2609746410825,2678
951.4714863395287,2684
953.6814011316998,2711
955.8907192460387,2626
958.0994409110671,2677
960.3075663553858,2728
962.5150958076741,2690
964.7220294966913,2714
966.928367651274,2721
969.1341105003388,2689
971.3392582728806,2678
973.5438111979742,2655
975.747769504772,2644
977.9511334225061,2659
980.153903180487,2686
982.3560790081052,2550
984.5576611348289,2526
986.7586497902058,2521
988.9590452038618,2566
991.158847605503,2578
993.3580572249133,2544
995.5566742919558,2516
997.7546990365728,2576
999.952131688785,2509
1002.1489724786926,2558
1004.3452216364743,2446
1006.5408793923874,2404
1008.7359459767691,2462
1010.9304216200343,2408
1013.1243065526781,2402
1015.3176010052733,2350
1017.510305208472,2365
1019.7024193930064,2395
1021.8939437896848,2404
1024.0848786293977,2399
1026.2752241431122,2382
1028.4649805618747,2357
1030.6541481168115,2380
1032.842727039127,2390
1035.0307175601051,2476
1037.2181199111074,2304
1039.4049343235752,2341
1041.591161029029,2349
1043.7768002590683,2413
1045.9618522453698,2354
1048.1463172196918,2359
1050.3301954138697,2317
1052.513487059818,2348
1054.69619238953,2443
1056.8783116350783,2398
1059.0598450286152,2323
1061.2407928023704,2389
1063.4211551886528,2323
1065.6009324198508,2357
1067.780124728432,2391
1069.9587323469414,2341
1072.1367555080046,2444
1074.314194444325,2448
1076.4910493886855,2324
1078.667320573947,2317
1080.843008233051,2291
1083.0181125990161,2265
1085.1926339049414,2318
1087.3665723840027,2330
1089.5399282694575,2280
1091.7127017946405,2393
1093.8848931929647,2419
1096.0565026979243,2331
1098.2275305430899,2290
1100.3979769621128,2175
1102.567842188722,2310
1104.737126456726,2378
1106.9058300000124,2361
1109.0739530525475,2308
1111.2414958483764,2316
1113.4084586216231,2303
1115.5748416064907,2280
1117.7406450372605,2306
1119.9058691482942,2250
1122.0705141740304,2322
1124.2345803489884,2390
1126.3980679077658,2303
1128.5609770850388,2344
1130.7233081155623,2256
1132.8850612341707,2276
1135.0462366757774,2291
1137.2068346753745,2271
1139.3668554680326,2290
1141.526299288901,2301
1143.68516637321,2224
1145.8434569562655,2317
1148.001171273455,2351
1150.158309560244,2256
1152.3148720521767,2286
1154.470858984876,2272
1156.626270594044,2298
1158.7811071154629,2276
1160.9353687849912,2258
1163.089055838569,2244
1165.242168512213,2193
1167.3947070420209,2218
1169.5466716641677,2244
1171.6980626149075,2274
1173.8488801305748,2196
1175.9991244475814,2214
1178.1487958024186,2244
1180.2978944316555,2189
1182.4464205719428,2215
1184.5943744600072,2259
1186.7417563326567,2205
1188.8885664267755,2192
1191.0348049793297,2218
1193.1804722273619,2184
1195.325568407995,2230
1197.4700937584303,2251
1199.614048515948,2331
1201.7574329179074,2236
1203.900247201746,2317
1206.042491604982,2272
1208.1841663652099,2194
1210.3252717201053,2240
1212.465807907422,2205
1214.6057751649923,2280
1216.7451737307279,2183
1218.8840038426192,2280
1221.0222657387353,2224
1223.1599596572241,2312
1225.2970858363137,2315
1227.4336445143094,2318
1229.5696359295966,2267
1231.705060320639,2270
1233.8399179259786,2253
1235.9742089842384,2296
1238.107933734118,2379
1240.2410924143974,2410
1242.373685263935,2315
1244.5057125216676,2283
1246.6371744266116,2251
1248.7680712178621,2289
1250.898403134593,2279
1253.028170416058,2245
1255.1573733015875,2303
1257.2860120305932,2297
1259.4140868425648,2338
1261.54159797707,2315
1263.6685456737569,2357
1265.7949301723515,2301
1267.9207517126597,2278
1270.046010534565,2376
1272.1707068780306,2375
1274.2948409830983,2377
1276.4184130898889,2369
1278.541423438603,2345
1280.6638722695184,2346
1282.785759822993,2322
1284.9070863394636,2368
1287.0278520594447,2417
1289.1480572235314,2369
1291.2677020723963,2354
1293.3867868467923,2435
1295.5053117875495,2466
1297.623277135579,2428
1299.740683131868,2378
1301.8575300174857,2391
1303.973818033578,2447
1306.0895474213703,2500
1308.2047184221678,2475
1310.3193312773528,2441
1312.4333862283888,2416
1314.5468835168163,2423
1316.659823384255,2440
1318.7722060724045,2368
1320.8840318230418,2437
1322.9953008780249,2408
1325.1060134792888,2377
1327.2161698688478,2435
1329.3257702887959,2456
1331.4348149813054,2442
1333.5433041886276,2503
1335.6512381530933,2459
1337.7586171171101,2437
1339.8654413231675,2487
1341.9717110138317,2431
1344.0774264317488,2458
1346.1825878196432,2508
1348.2871954203192,2439
1350.3912494766587,2322
1352.4947502316231,2393
1354.5976979282532,2392
1356.7000928096686,2451
1358.8019351190665,2430
1360.9032250997243,2455
1363.0039629949988,2444
1365.1041490483235,2385
1367.2037835032133,2412
1369.3028666032606,2421
1371.401398592137,2411
1373.4993797135926,2388
1375.5968102114575,2482
1377.6936903296396,2405
1379.7900203121262,2417
1381.8858004029835,2395
1383.9810308463561,2459
1386.075711886469,2475
1388.1698437676241,2387
1390.2634267342032,2486
1392.356461030667,2475
1394.4489469015557,2490
1396.5408845914872,2370
1398.6322743451592,2465
1400.7231164073469,2470
1402.813411022907,2491
1404.903158436773,2420
1406.9923588939578,2389
1409.0810126395531,2508
1411.1691199187303,2497
1413.2566809767386,2451
1415.343696058907,2488
1417.4301654106425,2497
1419.5160892774315,2505
1421.6014679048399,2472
1423.6863015385125,2528
1425.7705904241707,2568
1427.8543348076178,2533
1429.9375349347342,2531
1432.0201910514802,2527
1434.102303403894,2521
1436.1838722380944,2590
1438.2648978002767,2581
1440.3453803367174,2560
1442.4253200937692,2543
1444.5047173178677,2576
1446.5835722555234,2692
1448.6618851533285,2691
1450.739656257952,2711
1452.8168858161434,2650
1454.8935740747306,2636
1456.96972128062,2795
1459.045327680797,2715
1461.120393522327,2689
1463.1949190523528,2710
1465.2689045180973,2823
1467.3423501668608,2751
1469.415256246024,2778
1471.4876230030463,2884
1473.559450685465,2864
1475.6307395408976,2868
1477.7014898170391,2803
1479.771701761665,2919
1481.8413756226287,2946
1483.9105116478618,3012
1485.9791100853772,2990
1488.0471711832643,2980
1490.1146951896926,3019
1492.1816823529098,3038
1494.2481329212433,3039
1496.3140471430984,3105
1498.3794252669609,3185
1500.4442675413939,3067
1502.5085742150404,3092
1504.572345536622,3233
1506.6355817549388,3272
1508.6982831188702,3159
1510.7604498773744,3168
1512.8220822794883,3245
1514.8831805743293,3228
1516.9437450110909,3192
1519.003775839048,3271
1521.0632733075522,3357
1523.1222376660367,3486
1525.1806691640113,3424
1527.2385680510652,3478
1529.2959345768668,3492
1531.3527689911643,3448
1533.4090715437833,3546
1535.4648424846291,3578
1537.5200820636855,3618
1539.5747905310159,3654
1541.6289681367616,3735
1543.6826151311434,3771
1545.7357317644614,3704
1547.7883182870937,3850
1549.8403749494987,3754
1551.8919020022113,3935
1553.9428996958477,3979
1555.9933682811015,4029
1558.0433080087469,4179
1560.0927191296346,4155
1562.1416018946961,4109
1564.1899565549415,4233
1566.2377833614592,4115
1568.2850825654164,4110
1570.3318544180606,4008
1572.3780991707158,3990
1574.423817074788,3790
1576.4690083817595,3797
1578.5136733431923,3664
1580.5578122107272,3539
1582.601425236085,3447
1584.6445126710646,3335
1586.6870747675434,3303
1588.7291117774776,3146
1590.7706239529034,3010
1592.8116115459347,3123
1594.8520748087658,2946
1596.8920139936686,2887
1598.9314293529933,2935
1600.9703211391711,2769
1603.008689604711,2773
1605.0465350022005,2784
1607.0838575843068,2606
1609.1206576037753,2650
1611.1569353134305,2714
1613.1926909661765,2692
1615.2279248149953,2657
1617.2626371129481,2526
1619.2968281131757,2522
1621.3304980688963,2470
1623.3636472334088,2500
1625.39627586009,2528
1627.428384202396,2492
1629.459972513861,2532
1631.4910410480993,2363
1633.5215900588028,2357
1635.551619799744,2477
1637.5811305247717,2423
1639.6101224878166,2375
1641.6385959428862,2391
1643.6665511440683,2405
1645.693988345528,2384
1647.7209078015112,2441
1649.7473097663405,2407
1651.7731944944203,2505
1653.7985622402307,2432
1655.823413258333,2396
1657.847747803366,2406
1659.8715661300494,2379
1661.8948684931793,2362
1663.9176551476316,2384
1665.9399263483624,2376
1667.9616823504057,2359
1669.982923408873,2434
1672.0036497789574,2268
1674.0238617159293,2417
1676.043559475138,2403
1678.0627433120121,2364
1680.081413482059,2247
1682.0995702408654,2364
1684.117213844096,2342
1686.134344547495,2372
1688.1509626068864,2315
1690.1670682781705,2356
1692.182661817329,2392
1694.1977434804217,2396
1696.2123135235875,2407
1698.226372203043,2346
1700.2399197750851,2358
1702.2529564960905,2332
1704.2654826225112,2345
1706.277498410882,2383
1708.2890041178139,2350
1710.2999999999988,2384
1712.3104863142066,2346
1714.3204633172854,2406
1716.329931266163,2304
1718.3388904178469,2356
1720.3473410294214,2361
1722.3552833580516,2317
1724.3627176609807,2322
1726.3696441955308,2260
1728.3760632191033,2347
1730.3819749891782,2313
1732.3873797633146,2297
1734.3922777991502,2281
1736.3966693544012,2320
1738.4005546868639,2310
1740.4039340544127,2320
1742.406807715001,2313
1744.4091759266616,2192
1746.4110389475054,2247
1748.4123970357223,2367
1750.413250449582,2369
1752.4135994474318,2279
1754.4134442876993,2262
1756.4127852288902,2279
1758.4116225295893,2256
1760.4099564484595,2271
1762.407787244244,2296
1764.405115175764,2311
1766.4019405019203,2269
1768.3982634816916,2263
1770.3940843741357,2316
1772.3894034383907,2197
1774.3842209336717,2234
1776.378537119274,2249
1778.372352254571,2227
1780.3656665990156,2221
1782.3584804121397,2295
1784.3507939535534,2183
1786.3426074829463,2247
1788.3339212600863,2263
1790.3247355448211,2293
1792.3150505970766,2205
1794.3048666768573,2199
1796.2941840442477,2258
1798.2830029594106,2147
1800.2713236825884,2274
1802.2591464741004,2248
1804.2464715943465,2283
1806.2332993038058,2261
1808.2196298630352,2304
1810.2054635326708,2173
1812.190800573428,2269
1814.175641246101,2250
1816.1599858115628,2322
1818.1438345307652,2271
1820.127187664738,2333
1822.1100454745924,2269
1824.092408221516,2275
1826.0742761667766,2260
1828.055649571721,2266
1830.0365286977735,2180
1832.0169138064398,2211
1833.9968051593014,2360
1835.9762030180214,2331
1837.9551076443408,2280
1839.9335193000788,2236
1841.9114382471344,2236
1843.888864747485,2269
1845.8657990631878,2200
1847.842241456378,2258
1849.8181921892697,2222
1851.7936515241558,2215
1853.7686197234098,2284
1855.7430970494815,2247
1857.7170837649014,2234
1859.6905801322787,2292
1861.6635864143004,2204
1863.6361028737338,2239
1865.608129773424,2300
1867.5796673762961,2293
1869.5507159453537,2244
1871.521275743678,2307
1873.4913470344313,2241
1875.4609300808534,2277
1877.4300251462632,2234
1879.3986324940588,2225
1881.366752387717,2275
1883.3343850907936,2314
1885.3015308669228,2241
1887.268189979819,2275
1889.2343626932739,2290
1891.2000492711595,2281
1893.1652499774254,2329
1895.1299650761011,2252
1897.0941948312952,2282
1899.0579395071945,2233
1901.0211993680641,2263
1902.98397467825,2228
1904.9462657021745,2342
1906.9080727043415,2244
1908.869395949332,2288
1910.8302357018065,2311
1912.790592226504,2244
1914.7504657882428,2279
1916.7098566519212,2311
1918.6687650825133,2265
1920.6271913450764,2265
1922.5851357047422,2206
1924.5425984267245,2275
1926.499579776314,2220
1928.4560800188833,2242
1930.4120994198802,2238
1932.367638244833,2225
1934.32269675935,2172
1936.2772752291175,2279
1938.231373919899,2251
1940.1849930975404,2198
1942.1381330279637,2232
1944.0907939771696,2253
1946.0429762112412,2220
1947.9946799963363,2301
1949.9459055986945,2226
1951.896653284633,2250
1953.8469233205478,2195
1955.7967159729142,2242
1957.7460315082863,2294
1959.6948701932974,2254
1961.6432322946594,2246
1963.5911180791632,2196
1965.5385278136787,2207
1967.4854617651545,2261
1969.4319202006182,2221
1971.377903387176,2231
1973.3234115920136,2213
1975.268445082395,2218
1977.2130041256642,2194
1979.1570889892423,2229
1981.1006999406304,2205
1983.04383724741,2224
1984.986501177238,2258
1986.928691997853,2256
1988.8704099770712,2231
1990.811655382789,2250
1992.7524284829801,2211
1994.692729545698,2262
1996.6325588390755,2173
1998.5719166313224,2266
2000.5108031907307,2287
2002.4492187856677,2242
2004.387163684583,2151
2006.3246381560011,2124
2008.2616424685298,2216
2010.1981768908527,2159
2012.1342416917332,2194
2014.069837140014,2106
2016.0049635046162,2156
2017.9396210545406,2216
2019.8738100588666,2172
2021.8075307867502,2176
2023.740783507431,2169
2025.6735684902228,2175
2027.6058860045214,2187
2029.5377363198004,2164
2031.4691197056118,2237
2033.4000364315875,2189
2035.3304867674374,2156
2037.260470982952,2169
2039.189989347998,2212
2041.1190421325232,2136
2043.047629606554,2091
2044.9757520401945,2130
2046.9034097036288,2172
2048.8306028671195,2185
2050.7573318010086,2171
2052.683596775716,2269
2054.609398061742,2131
2056.5347359296647,2183
2058.4596106501403,2184
2060.384022493906,2199
2062.3079717317764,2138
2064.231458634646,2135
2066.1544834734873,2157
2068.077046519352,2208
2069.99914804337,2120
2071.9207883167524,2230
2073.8419676107865,2143
2075.7626861968406,2150
2077.6829443463607,2194
2079.6027423308715,2091
2081.522080421977,2139
2083.440958891362,2291
2085.359378010786,2153
2087.2773380520907,2175
2089.194839287196,2107
2091.111881988101,2215
2093.0284664268825,2247
2094.9445928756973,2214
2096.86026160678,2207
2098.775472892446,2114
2100.690227005088,2178
2102.604524217178,2139
2104.5183648012676,2158
2106.431749029985,2130
2108.34467717604,2181
2110.2571495122206,2214
2112.169166311393,2183
2114.080727846503,2160
2115.9918343905747,2213
2117.902486216711,2105
2119.8126835980956,2189
2121.722426807987,2147
2123.6317161197285,2250
2125.5405518067364,2212
2127.448934142509,2193
2129.356863400624,2152
2131.264339854737,2183
2133.1713637785815,2137
2135.077935445972,2143
2136.9840551308002,2236
2138.889723107037,2217
2140.7949396487334,2175
2142.699705030018,2178
2144.6040195250994,2222
2146.507883408264,2271
2148.4112969538774,2174
2150.3142604363848,2273
2152.2167741303097,2166
2154.1188383102535,2216
2156.0204532508997,2251
2157.9216192270064,2168
2159.822336513414,2166
2161.7226053850413,2213
2163.622426116884,2198
2165.5217989840185,2262
2167.4207242616,2278
2169.319202224862,2223
2171.2172331491165,2228
2173.1148173097563,2245
2175.0119549822507,2262
2176.90864644215,2269
2178.8048919650823,2227
2180.7006918267534,2242
2182.596046302952,2312
2184.4909556695407,2308
2186.3854202024645,2351
2188.279440177746,2241
2190.173015871487,2267
2192.066147559868,2234
2193.958835519149,2256
2195.851080025667,2322
2197.7428813558417,2375
2199.6342397861667,2288
2201.5251555932186,2258
2203.415629053651,2323
2205.3056604441986,2320
2207.19525004167,2218
2209.084398122958,2190
2210.9731049650327,2221
2212.861370844941,2249
2214.749196039812,2208
2216.636580826851,2343
2218.523525483344,2253
2220.410030286655,2282
2222.296095514226,2314
2224.1817214435805,2300
2226.066908352319,2376
2227.951656518121,2275
2229.835966218746,2259
2231.71983773203,2300
2233.6032713358913,2248
2235.486267308324,2313
2237.3688259274036,2328
2239.2509474712824,2284
2241.132632218193,2295
2243.013880446447,2326
2244.8946924344323,2264
2246.7750684606203,2281
2248.6550088035574,2227
2250.534513741871,2230
2252.413583554265,2268
2254.292218519526,2250
2256.170418916517,2323
2258.0481850241786,2263
2259.925517121534,2244
2261.8024154876825,2233
2263.678880401803,2361
2265.5549121431536,2310
2267.430510991071,2261
2269.305677224971,2227
2271.180411124348,2226
2273.0547129687766,2238
2274.9285830379076,2216
2276.8020216114737,2227
2278.6750289692845,2278
2280.5476053912294,2303
2282.4197511572766,2213
2284.2914665474727,2261
2286.162751841943,2233
2288.0336073208937,2346
2289.904033264608,2352
2291.774029953448,2288
2293.6435976678554,2334
2295.5127366883517,2231
2297.381447295534,2225
2299.2497297700825,2213
2301.1175843927526,2155
2302.9850114443825,2139
2304.852011205885,2168
2306.7185839582553,2118
2308.5847299825664,2137
2310.4504495599676,2114
2312.3157429716925,2052
2314.1806104990483,2062
2316.0450524234247,2033
2317.9090690262888,2062
2319.772660589186,2121
2321.635827393742,2048
2323.498569721661,2012
2325.3608878547248,1997
2327.2227820747967,2011
2329.0842526638157,2011
2330.945299903803,2052
2332.805924076857,1981
2334.6661254651535,2022
2336.525904350951,2033
2338.3852610165827,2039
2340.244195744464,2091
2342.102708817088,1964
2343.9608005170253,2017
2345.8184711269287,1946
2347.675720929526,2026
2349.532550207628,2037
2351.38895924412,2008
2353.24494832197,1993
2355.100517724223,2024
2356.955667734004,1954
2358.810398634514,2011
2360.664710709037,2040
2362.5186042409337,2021
2364.3720795136437,1977
2366.225136810686,1955
2368.0777764156583,2028
2369.929998612237,2009
2371.7818036841777,1979
2373.633191915315,1989
2375.484163589562,2005
2377.3347189909114,2020
2379.184858403434,2052
2381.03458211128,2052
2382.8838903986775,2060
2384.732783549936,2024
2386.5812618494406,1984
2388.4293255816588,2027
2390.2769750311327,2062
2392.1242104824883,2006
2393.971032220427,2039
2395.8174405297295,2067
2397.6634356952563,2079
2399.509018001947,2027
2401.3541877348193,2038
2403.1989451789705,2042
2405.043290619576,1989
2406.8872243418905,2064
2408.730746631247,2032
2410.5738577730594,1992
2412.4165580528183,2011
2414.258847756095,2018
2416.100727168537,1976
2417.9421965758734,1958
2419.783256263912,1963
2421.623906518538,1993
2423.4641476257157,1983
2425.303979871491,2037
2427.143403541984,2058
2428.9824189233977,1998
2430.821026302012,2017
2432.6592259641866,2032
2434.497018196361,2070
2436.33440328505,1968
2438.171381516851,2046
2440.00795317844,1990
2441.844118556569,1979
2443.6798779380724,2042
2445.5152316098606,2039
2447.3501798589255,2054
2449.1847229723357,2025
2451.0188612372403,2109
2452.8525949408663,1983
2454.6859243705203,2087
2456.518849813587,2048
2458.3513715575314,2081
2460.183489889895,2098
2462.015205098301,2050
2463.8465174704493,2042
2465.67742729412,2033
2467.5079348571717,1979
2469.338040447542,2006
2471.1677443532476,2015
2472.9970468623833,2016
2474.825948263123,2019
2476.6544488437207,2021
2478.482548892508,2095
2480.310248697896,2013
2482.137548548374,2034
2483.9644487325118,2023
2485.790949538956,2059
2487.617051256433,2037
2489.44275417375,1985
2491.26805857979,2054
2493.0929647635157,2066
2494.917473013971,2054
2496.741583620276,2129
2498.5652968716304,2105
2500.3886130573137,2129
2502.2115324666834,2102
2504.0340553891765,1972
2505.856182114308,2096
2507.6779129316733,2073
2509.499248130945,2014
2511.3201880018764,1973
2513.140732834298,2055
2514.9608829181198,2052
2516.780638543331,2006
2518.6,2099
2520.418967578273,2057
2522.237541568376,2097
2524.0557222606144,2025
2525.8735099453706,1989
2527.6909049131086,2036
2529.507907454368,2062
2531.32451785977,2042
2533.140736420014,2112
2534.9565634258774,2138
2536.771999168218,2090
2538.5870439379714,2126
2540.4016980261526,2097
2542.2159617238544,2100
2544.02983532225,2009
2545.8433191125914,2056
2547.656413386209,2018
2549.4691184345115,2125
2551.2814345489874,2145
2553.093362021204,2129
2554.904901142808,2216
2556.716052205523,2089
2558.526815501153,2131
2560.3371913215824,2146
2562.147179958771,2127
2563.956781704761,2107
2565.7659968516705,2189
2567.5748256916986,2171
2569.3832685171224,2185
2571.1913256202984,2164
2572.9989972936614,2250
2574.806283829725,2175
2576.613185521084,2273
2578.4197026604074,2173
2580.2258355404483,2220
2582.031584454035,2196
2583.836949694077,2226
2585.6419315535613,2209
2587.4465303255533,2254
2589.2507463032002,2272
2591.0545797797245,2303
2592.8580310484303,2267
2594.6611004026995,2233
2596.463788135992,2262
2598.266094541849,2241
2600.0680199138874,2232
2601.869564545807,2187
2603.670728731383,2278
2605.4715127644704,2294
2607.2719169390048,2227
2609.071941548998,2357
2610.8715868885433,2226
2612.670853251811,2307
2614.469740933052,2268
2616.268250226594,2190
2618.0663814268455,2276
2619.864134828292,2174
2621.6615107255006,2276
2623.458509413115,2182
2625.2551311858597,2256
2627.0513763385347,2134
2628.8472451660223,2247
2630.6427379632833,2276
2632.4378550253564,2239
2634.232596647359,2259
2636.026963124488,2241
2637.8209547520187,2300
2639.6145718253065,2252
2641.407814639785,2221
2643.200683490966,2158
2644.9931786744414,2141
2646.7853004858807,2132
2648.577049221034,2238
2650.3684251757277,2103
2652.1594286458712,2187
2653.9500599274484,2144
2655.740319316525,2171
2657.5302071092437,2186
2659.3197236018286,2131
2661.10886909058,2143
2662.8976438718782,2108
2664.686048242183,2130
2666.4740824980327,2114
2668.2617469360443,2109
2670.0490418529134,2083
2671.8359675454153,2064
2673.622524310403,2029
2675.408712444811,2081
2677.1945322456495,2046
2678.979984010009,2079
2680.76506803506,2067
2682.5497846180497,2067
2684.334134056306,2041
2686.1181166472343,2028
2687.9017326883213,2100
2689.6849824771293,2042
2691.4678663113013,2013
2693.2503844885596,2012
2695.032537306705,1970
2696.8143250636167,2061
2698.5957480572542,2059
2700.3768065856534,1977
2702.1575009469316,2014
2703.937831439283,1956
2705.717798360982,1987
2707.4974020103837,1980
2709.276642685917,2031
2711.055520686095,1972
2712.834036309506,2010
2714.612189854819,1962
2716.389981620782,2019
2718.1674119062204,2041
2719.944481010041,2012
2721.721189231226,1987
2723.4975368688415,1993
2725.273524222027,1911
2727.0491515900053,1932
2728.824419272075,2012
2730.5993275676146,1841
2732.3738767760838,1951
2734.148067197016,1986
2735.921899130031,2042
2737.6953728748194,1937
2739.468488731156,1968
2741.2412469988926,1917
2743.0136479779617,1922
2744.785691968372,1946
2746.5573792702116,1971
2748.3287101836504,1926
2750.099685008934,1898
2751.870304046388,1906
2753.640567596418,2004
2755.4104759595057,1980
2757.1800294362156,1925
2758.949228327187,1880
2760.7180729331412,1930
2762.486563554877,1954
2764.254700493272,1911
2766.022484049284,1948
2767.789914523947,1918
2769.5569922183786,1984
2771.3237174337705,1915
2773.090090471394,1945
2774.8561116326036,1964
2776.6217812188274,1976
2778.3870995315756,1947
2780.1520668724356,1920
2781.9166835430747,1914
2783.6809498452394,1958
2785.444866080754,2006
2787.2084325515225,1895
2788.971649559527,1907
2790.73451740683,1963
2792.4970363955713,1936
2794.2592068279705,1847
2796.0210290063264,1898
2797.7825032330147,1964
2799.543629810493,1872
2801.304409041296,1892
2803.0648412280366,1956
2804.8249266734088,1941
2806.5846656801846,1914
2808.344058551212,1897
2810.1031055894246,1947
2811.8618070978273,1970
2813.6201633795085,1917
2815.378174737636,1934
2817.1358414754536,1968
2818.893163896285,1952
2820.6501423035334,1868
2822.4067770006814,1996
2824.1630682912883,1920
2825.9190164789957,2026
2827.6746218675207,1841
2829.429884760661,1953
2831.184805462294,2017
2832.9393842763743,1942
2834.693621506936,1901
2836.4475174580916,1952
2838.201072434034,1972
2839.954286739034,1891
2841.707160677441,1922
2843.459694553685,1944
2845.2118886722724,1901
2846.96374333779,1950
2848.7152588549034,1868
2850.4664355283567,1965
2852.217273662973,1921
2853.9677735636546,2001
2855.7179355353833,1912
2857.4677598832186,1917
2859.217246912299,1931
2860.9663969278427,1960
2862.715210235146,1895
2864.4636871395846,1939
2866.211827946614,1960
2867.9596329617652,1882
2869.7071024906536,1857
2871.4542368389684,1942
2873.20103631248,1923
2874.947501217038,1909
2876.6936318585695,1922
2878.4394285430812,1820
2880.1848915766604,1924
2881.9300212654707,1941
2883.6748179157553,1860
2885.4192818338374,1893
2887.1634133261173,1923
2888.907212699077,1890
2890.6506802592744,1966
2892.393816313348,1962
2894.1366211680142,1918
2895.8790951300693,1881
2897.621238506388,1890
2899.363051603925,1885
2901.1045347297118,1944
2902.8456881908596,1906
2904.58651229456,2007
2906.327007348081,1884
2908.067173658772,1888
2909.8070115340597,1930
2911.5465212814497,1922
2913.285703208527,1953
2915.0245576229563,1829
2916.7630848324807,1862
2918.5012851449196,1889
2920.2391588681758,1943
2921.976706310227,1802
2923.7139277791334,1887
2925.4508235830313,1867
2927.187394030137,1860
2928.923639428745,1877
2930.6595600872306,1885
2932.395156314046,1911
2934.1304284177218,1912
2935.8653767068713,1929
2937.6000014901815,1908
2939.3343030764227,1913
2941.068281774442,1928
2942.8019378931644,1903
2944.5352717415976,1919
2946.2682836288236,1935
2948.0009738640065,1932
2949.7333427563885,1843
2951.465390615289,1914
2953.1971177501086,1913
2954.9285244703265,1897
2956.6596110855,1848
2958.3903779052657,1908
2960.1208252393385,1907
2961.8509533975125,1945
2963.5807626896617,1856
2965.3102534257378,1903
2967.0394259157715,1867
2968.768280469873,1869
2970.496817398232,1879
2972.2250370111146,1907
2973.952939618869,1898
2975.6805255319196,1878
2977.4077950607707,1959
2979.134748516006,1869
2980.861386208289,1885
2982.587708448359,1918
2984.313715547037,1922
2986.039407815222,1944
2987.764785563891,1932
2989.489849104102,1867
2991.2145987469908,1848
2992.9390348037705,1845
2994.6631575857346,1866
2996.3869674042576,1795
2998.1104645707887,1817
2999.83364939686,1868
3001.5565221940783,1855
3003.2790832741334,1854
3005.0013329487924,1898
3006.7232715298996,1835
3008.4448993293804,1774
3010.166216659239,1838
3011.887223831558,1899
3013.607921158498,1859
3015.3283089522993,1875
3017.0483875252826,1831
3018.7681571898443,1875
3020.4876182584626,1843
3022.2067710436927,1824
3023.9256158581707,1879
3025.644153014609,1825
3027.362382825801,1896
3029.0803056046193,1850
3030.797921664012,1883
3032.5152313170106,1903
3034.2322348767225,1858
3035.9489326563353,1852
3037.665324969115,1879
3039.3814121284063,1862
3041.097194447633,1827
3042.812672240299,1813
3044.5278458199855,1826
3046.2427155003525,1856
3047.9572815951406,1876
3049.671544418167,1843
3051.38550428333,1877
3053.0991615046073,1828
3054.812516396051,1865
3056.5255692717974,1802
3058.2383204460575,1811
3059.9507702331257,1874
3061.662918947372,1892
3063.3747669032446,1854
3065.0863144152736,1853
3066.7975617980674,1883
3068.508509366309,1892
3070.219157434767,1837
3071.9295063182844,1832
3073.639556331785,1876
3075.3493077902704,1780
3077.058761008821,1861
3078.7679163025964,1836
3080.476773986837,1890
3082.1853343768594,1870
3083.89359778806,1857
3085.6015645359153,1858
3087.3092349359786,1875
3089.016609303884,1895
3090.7236879553434,1857
3092.4304712061476,1856
3094.136959372166,1846
3095.843152769349,1883
3097.5490517137237,1859
3099.2546565213966,1823
3100.959967508554,1855
3102.66498499146,1858
3104.3697092864577,1883
3106.0741407099695,1890
3107.778279578498,1836
3109.482126208622,1808
3111.1856809170004,1801
3112.8889440203716,1831
3114.5919158355528,1892
3116.294596679439,1931
3117.996986869006,1893
3119.6990867213062,1896
3121.4008965534726,1828
3123.102416682717,1923
3124.803647426329,1868
3126.5045891016784,1906
3128.205242026213,1867
3129.90560651746,1872
3131.605682893025,1858
3133.3054714705922,1843
3135.0049725679282,1872
3136.7041865028714,1944
3138.4031135933465,1906
3140.101754157353,1839
3141.800108512971,1859
3143.498176978357,1900
3145.1959598717494,1789
3146.8934575114636,1827
3148.5906702158954,1787
3150.2875983035183,1805
3151.9842420928853,1775
3153.680601902627,1794
3155.376678051456,1846
3157.07247085816,1866
3158.767980641609,1799
3160.463207720748,1825
3162.158152414606,1873
3163.8528150422862,1881
3165.5471959229726,1834
3167.2412953759303,1828
3168.9351137204976,1940
3170.628651276098,1890
3172.3219083622307,1852
3174.014885298474,1782
3175.707582404485,1785
3177.4000000000005,1822
3179.092138404835,1891
3180.7839979388846,1854
3182.47557892212,1843
3184.166881674594,1799
3185.8579065164386,1903
3187.5486537678626,1878
3189.2391237491547,1838
3190.9293167806827,1856
3192.6192331828934,1866
3194.3088732763117,1860
3195.998237381542,1876
3197.687325819268,1881
3199.376138910251,1841
3201.064676975334,1853
3202.7529403354347,1873
3204.4409293115523,1833
3206.1286442247647,1769
3207.816085396229,1804
3209.5032531471825,1780
3211.190147798936,1828
3212.8767696728846,1762
3214.5631190905015,1762
3216.2491963733373,1784
3217.9350018430214,1760
3219.6205358212637,1730
3221.305798629851,1786
3222.990790590651,1762
3224.6755120256103,1759
3226.359963256751,1806
3228.0441446061795,1770
3229.7280563960758,1771
3231.411698948703,1759
3233.0950725863995,1784
3234.778177631587,1773
3236.461014406761,1822
3238.1435832345005,1853
3239.8258844374595,1798
3241.507918338374,1820
3243.1896852600576,1876
3244.8711855254023,1836
3246.552419457381,1821
3248.233387379042,1811
3249.914089613516,1769
3251.59452648401,1719
3253.274698313813,1861
3254.95460542629,1831
3256.6342481448855,1742
3258.313626793125,1773
3259.9927416946084,1811
3261.6715931730196,1766
3263.3501815521176,1756
3265.0285071557437,1798
3266.706570307815,1808
3268.3843713323286,1768
3270.0619105533615,1767
3271.739188295068,1824
3273.4162048816834,1774
3275.0929606375184,1761
3276.769455886966,1856
3278.445690954498,1834
3280.1216661646613,1911
3281.797381842087,1820
3283.4728383114807,1815
3285.1480358976296,1780
3286.8229749253996,1789
3288.4976557197333,1770
3290.172078605655,1798
3291.846243908266,1810
3293.5201519527463,1765
3295.193803064357,1695
3296.8671975684374,1832
3298.5403357904024,1812
3300.21321805575,1789
3301.8858446900567,1742
3303.558216018975,1827
3305.23033236824,1904
3306.9021940636603,1732
3308.57380143113,1760
3310.2451547966184,1797
3311.916254486174,1796
3313.5871008259246,1796
3315.2576941420766,1752
3316.9280347609147,1727
3318.5981230088046,1727
3320.2679592121895,1727
3321.9375436975924,1734
3323.606876791612,1746
3325.27595882093,1714
3326.944790112305,1750
3328.6133709925753,1724
3330.2817017886573,1733
3331.949782827547,1779
3333.617614436319,1802
3335.2851969421245,1814
3336.952530672199,1722
3338.619615953853,1760
3340.286453114475,1794
3341.9530424815357,1765
3343.619384382583,1789
3345.2854791452437,1820
3346.951327097224,1774
3348.6169285663073,1845
3350.2822838803577,1781
3351.947393367319,1795
3353.61225735521,1784
3355.2768761721345,1805
3356.9412501462693,1835
3358.605379605873,1726
3360.2692648792827,1777
3361.9329062949146,1808
3363.596304181263,1754
