CollectionTime,7/10/2024 3:22:06 PM
ExposureUsed,30
CalibratedSpectrum
-962.7078968117929,751
-959.9714848408522,807
-957.2358232597828,823
-954.5009119013725,808
-951.7667505983302,808
-949.0333391832855,858
-946.3006774887896,868
-943.5687653473143,808
-940.837602591253,804
-938.1071890529199,899
-935.3775245645503,842
-932.6486089583007,852
-929.9204420662485,871
-927.1930237203925,872
-924.4663537526524,796
-921.7404319948689,802
-919.0152582788041,857
-916.2908324361409,1099
-913.5671542984834,890
-910.8442236973568,791
-908.1220404642074,750
-905.4006044304027,811
-902.679915427231,804
-899.959973285902,830
-897.2407778375464,781
-894.5223289132158,827
-891.8046263438832,769
-889.0876699604426,846
-886.3714595937089,787
-883.6559950744183,857
-880.9412762332282,832
-878.2273029007168,812
-875.5140749073835,809
-872.8015920836489,817
-870.0898542598545,828
-867.3788612662631,792
-864.6686129330585,837
-861.9591090903457,883
-859.2503495681506,835
-856.5423341964203,860
-853.8350628050229,818
-851.1285352237478,870
-848.4227512823054,877
-845.7177108103272,883
-843.0134136373656,886
-840.3098595928943,896
-837.6070485063082,952
-834.9049802069229,950
-832.2036545239757,889
-829.5030712866244,838
-826.8032303239481,862
-824.1041314649472,836
-821.4057745385428,846
-818.7081593735775,912
-816.0112857988148,847
-813.3151536429393,854
-810.6197627345566,935
-807.9251129021936,960
-805.2312039742981,831
-802.5380357792392,929
-799.8456081453069,947
-797.1539209007124,892
-794.462973873588,960
-791.772766891987,968
-789.083299783884,957
-786.3945723771743,985
-783.7065844996748,906
-781.0193359791231,897
-778.3328266431781,945
-775.6470563194197,931
-772.9620248353489,893
-770.2777320183878,881
-767.5941776958798,917
-764.9113616950891,916
-762.2292838432011,994
-759.5479439673222,908
-756.8673418944801,874
-754.1874774516235,966
-751.5083504656222,979
-748.8299607632671,1032
-746.15230817127,1000
-743.475392516264,998
-740.7992136248035,966
-738.1237713233636,933
-735.4490654383407,1041
-732.7750957960521,1040
-730.1018622227365,995
-727.4293645445534,952
-724.7576025875837,967
-722.0865761778291,985
-719.4162851412126,1010
-716.7467293035781,991
-714.0779084906909,945
-711.409822528237,967
-708.7424712418238,990
-706.0758544569796,1002
-703.4099719991541,1040
-700.7448236937178,1060
-698.0804093659622,1086
-695.4167288411002,1077
-692.7537819442656,994
-690.0915685005134,1028
-687.4300883348199,999
-684.7693412720819,1009
-682.1093271371178,1121
-679.4500457546669,1127
-676.7914969493897,1077
-674.1336805458676,1032
-671.4765963686034,1068
-668.8202442420206,1077
-666.1646239904642,1104
-663.5097354382001,1029
-660.8555784094151,1048
-658.2021527282176,1051
-655.5494582186366,1058
-652.8974947046223,1072
-650.2462620100463,1084
-647.5957599587009,1117
-644.9459883742998,1122
-642.2969470804776,1107
-639.6486359007902,1180
-637.0010546587141,1133
-634.3542031776476,1103
-631.7080812809096,1217
-629.0626887917401,1127
-626.4180255333008,1127
-623.7740913286734,1163
-621.1308860008619,1218
-618.4884093727904,1179
-615.8466612673046,1125
-613.2056415071715,1113
-610.5653499150785,1119
-607.9257863136347,1138
-605.28695052537,1242
-602.6488423727357,1175
-600.0114616781036,1127
-597.3748082637674,1180
-594.7388819519412,1232
-592.1036825647604,1366
-589.4692099242818,1324
-586.8354638524829,1294
-584.2024441712624,1185
-581.5701507024403,1245
-578.9385832677575,1333
-576.3077416888759,1273
-573.6776257873787,1282
-571.0482353847704,1274
-568.4195703024757,1217
-565.7916303618415,1316
-563.164415384135,1297
-560.5379251905453,1292
-557.9121596021815,1295
-555.2871184400748,1311
-552.6628015251767,1327
-550.0392086783606,1303
-547.4163397204204,1359
-544.794194472071,1442
-542.1727727539491,1403
-539.5520743866118,1447
-536.9320991905377,1395
-534.3128469861261,1419
-531.6943175936979,1461
-529.0765108334947,1475
-526.4594265256793,1506
-523.8430644903358,1808
-521.2274245474689,2306
-518.612506517005,2738
-515.9983102187913,2736
-513.3848354725959,2574
-510.77208209810846,2334
-508.16004991493924,1986
-505.5487387426199,1799
-502.9381484006032,1691
-500.3282787082628,1431
-497.71912948489364,1481
-495.1107005497117,1449
-492.5029917218539,1398
-489.8960028203786,1388
-487.28973366426493,1390
-484.68418407241325,1431
-482.07935386364494,1441
-479.47524285670266,1446
-476.87185087025,1503
-474.2691777228715,1500
-471.66722323307334,1502
-469.0659872192821,1527
-466.4654694998459,1618
-463.86566989303384,1535
-461.26658821703614,1583
-458.66822428996414,1518
-456.07057792985,1609
-453.4736489546475,1679
-450.877437182231,1577
-448.28194243039627,1558
-445.68716451686,1605
-443.09310325926003,1594
-440.49975847515555,1554
-437.9071299820263,1497
-435.31521759727354,1624
-432.72402113821954,1624
-430.13354042210767,1731
-427.5437752661022,1628
-424.95472548728867,1656
-422.36639090267386,1737
-419.7787713291855,1753
-417.1918665836721,1747
-414.60567648290385,1820
-412.0202008435715,1818
-409.4354394822874,1863
-406.8513922155845,1809
-404.26805885991723,1805
-401.685439231661,1796
-399.103533147112,1779
-396.522340422488,1787
-393.9418608739278,1764
-391.3620943174908,1740
-388.7830405691583,1677
-386.2046994448317,1612
-383.6270707603344,1553
-381.05015433141045,1559
-378.473949973725,1480
-375.8984575028645,1469
-373.32367673433623,1321
-370.74960748356875,1243
-368.1762495659117,1285
-365.60360279663576,1233
-363.03166699093265,983
-360.4604419639154,952
-357.8899275306178,957
-355.32012350599507,892
-352.7510297049233,918
-350.1826459421999,888
-347.61497203254316,839
-345.04800779059235,831
-342.4817530309082,914
-339.91620756797226,914
-337.35137121618743,1000
-334.7872437898774,1051
-332.22382510328725,1090
-329.66111497058273,868
-327.09911320585127,902
-324.53781962310075,1071
-321.9772340362607,882
-319.4173562591816,819
-316.8581861056348,788
-314.2997233893127,828
-311.7419679238294,804
-309.1849195227194,861
-306.62857799943856,916
-304.0729431673641,1000
-301.51801483979375,1026
-298.963792829947,1008
-296.41027695096386,968
-293.85746701590574,974
-291.3053628377552,1047
-288.7539642294155,1066
-286.2032710037115,1118
-283.65328297338897,1015
-281.1039999511146,1050
-278.5554217494762,1119
-276.007548180983,1205
-273.4603790580651,1127
-270.9139141930734,1107
-268.3681533982807,1069
-265.8230964858798,1098
-263.27874326798565,1249
-260.7350935566336,1344
-258.1921471637804,1369
-255.6499039013039,1453
-253.10836358100266,1311
-250.56752601459698,1265
-248.02739101372765,1373
-245.48795838995704,1411
-242.94922795476816,1292
-240.41119951956557,1310
-237.8738728956746,1437
-235.33724789434166,1301
-232.80132432673452,1271
-230.2661020039418,1172
-227.73158073697357,1249
-225.19776033676033,1232
-222.66464061415422,1328
-220.1322213799284,1293
-217.60050244477725,1185
-215.06948361931552,1217
-212.53916471408013,1527
-210.00954553952818,1754
-207.48062590603843,1588
-204.9524056239104,1527
-202.4248845033651,1582
-199.8980623545441,1648
-197.37193898751036,1595
-194.84651421224817,1504
-192.32178783866232,1613
-189.79775967657952,1586
-187.27442953574644,1696
-184.7517972258321,1675
-182.2298625564256,1589
-179.7086253370378,1617
-177.18808537710026,1491
-174.66824248596583,1579
-172.14909647290835,1602
-169.6306471471229,1721
-167.11289431772548,1657
-164.59583779375328,1695
-162.07947738416453,1784
-159.5638128978386,2145
-157.04884414357605,2816
-154.53457093009854,2648
-152.02099306604828,2265
-149.50811035998936,1951
-146.99592262040665,1819
-144.48442965570587,2279
-141.97363127421409,2970
-139.46352728417958,3272
-136.95411749377126,3256
-134.44540171107985,2504
-131.93737974411636,2102
-129.43005140081357,1957
-126.92341648902493,2679
-124.41747481652521,4566
-121.91222619101006,6656
-119.40767042009657,7597
-116.90380731132257,7189
-114.40063667214702,5049
-111.8981583099503,3972
-109.3963720320337,3380
-106.89527764561933,4166
-104.39487495785067,8201
-101.89516377579241,14842
-99.39614390642998,20622
-96.89781515667039,21515
-94.40017733334128,20890
-91.90323024319173,23819
-89.40697369289148,26979
-86.91140748903172,26415
-84.41653143812482,22756
-81.92234534660395,14503
-79.42884902082358,16220
-76.93604226705907,31826
-74.4439248915071,51547
-71.95249670028534,61095
-69.46175749943245,57310
-66.97170709490854,47455
-64.48234529259423,32626
-61.99367189829195,21165
-59.50568671772464,18476
-57.01838955653636,19410
-54.53178022029283,20365
-52.045858514480074,22338
-49.560624244506016,24789
-47.07607721569923,27189
-44.59221723330904,28449
-42.10904410250669,27181
-39.62655762838392,24745
-37.14475761595372,24211
-34.66364387015028,21454
-32.18321619582866,21257
-29.70347439776515,22482
-27.224418280657005,22067
-24.74604764912317,25385
-22.26836230770266,38000
-19.7913620608565,65044
-17.315046712966478,65044
-14.83941606833514,65044
-12.36446993118659,65044
-9.89020810566592,65044
-7.416630395839093,65044
-4.94373660569363,65044
-2.471526539137585,65044
-6.821210263296962E-13,65044
2.47084320796705,65044
4.941003281093458,65044
7.410480415786196,65044
9.879274808531363,65044
12.347386655893956,65044
14.814816154518212,65044
17.28156350112681,65044
19.74762889252179,65044
22.21301252558385,65044
24.67771459727237,24827
27.141735304626195,8757
29.605074844762612,6560
32.06773341487792,5319
34.52971121224755,5585
36.99100843422559,5840
39.45162527824516,5021
41.91156194181792,4401
44.370818622535126,3472
46.82939551806646,3359
49.287292826160524,4451
51.74451074464503,5646
54.201049471426245,5267
56.65690920448981,4598
59.112090141899785,3567
61.56659248179983,2627
64.02041642241159,2505
66.4735621620365,2962
68.92602989905402,3868
71.37781983192338,4186
73.82893215918205,4561
76.27936707944684,3960
78.72912479141326,3502
81.17820549385567,3158
83.62660938562783,2835
86.07433666566146,2967
88.5213875329681,2298
90.96776218663751,2234
93.41346082583925,2332
95.85848364982041,3037
98.30283085790859,3196
100.7465026495089,2949
103.18949922410604,2257
105.63182078126385,2525
108.07346752062438,2636
110.51443964190923,2700
112.95473734491827,2351
115.39436082953114,2042
117.83331029570547,2180
120.27158594347827,2540
122.7091879729652,2692
125.1461165843615,2472
127.58237197794062,2405
130.01795435405518,1823
132.4528639131364,1811
134.88710085569494,1916
137.32066538231982,1673
139.75355769367923,1880
142.1857779905207,2310
144.61732647366978,2123
147.04820334403132,1744
149.47840880258934,1862
151.90794305040674,2016
154.33680628862487,2650
156.76499871846443,3019
159.19252054122433,3001
161.61937195828352,3120
164.04555317109896,3612
166.47106438120693,4224
168.89590579022217,4733
171.320077599839,4739
173.7435800118302,4884
176.16641322804742,4970
178.58857745042144,4907
181.01007288096173,4998
183.43089972175687,5148
185.85105817497413,5232
188.27054844285988,5395
190.6893707277394,5499
193.10752523201643,5781
195.5250121581745,5917
197.9418317087751,6019
200.3579840864594,5895
202.7734694939469,5933
205.18828813403627,6171
207.6024402096051,6350
210.01592592360964,6604
212.42874547908548,6717
214.84089907914665,6836
217.2523869269868,6923
219.66320922587727,7696
222.0733661791695,8388
224.48285799029293,8810
226.8916848627572,9158
229.29984700014882,9453
231.7073446061355,9389
234.11417788446204,8992
236.520347038953,8349
238.92585227351185,7840
241.33069379212054,7312
243.73487179884035,7114
246.1383864978112,6599
248.541238093252,6347
250.9434267894609,6264
253.34495279081432,6226
255.74581630176783,6257
258.1460175268563,6070
260.54555667069314,6186
262.9444339379703,6443
265.3426495334594,6456
267.7402036620107,6753
270.1370965285529,6947
272.53332833809407,6825
274.9288992957214,6338
277.32380960660055,6138
279.718059475976,5841
282.1116491091717,5813
284.5045787115897,5721
286.89684848871195,5501
289.2884586460981,5509
291.67940938938807,5578
294.0697009242996,5684
296.4593334566299,5649
298.84830719225477,5669
301.23662233712923,5537
303.6242790972866,5482
306.01127767884,5327
308.39761828798066,5516
310.78330113097934,5430
313.16832641418534,5331
315.5526943440269,5175
317.9364051270112,5232
320.3194589697242,5313
322.70185607883093,5296
325.0835966610754,5224
327.4646809232805,5146
329.8451090723478,5055
332.2248813152577,5052
334.6039978590701,5142
336.9824589109231,5217
339.36026467803447,4979
341.7374153677,4927
344.113911187295,4989
346.48975234427337,5050
348.8649390461686,5044
351.2394715005918,5109
353.61334991523415,5104
355.9865744978655,5074
358.35914545633375,4890
360.73106299856715,5104
363.10232733257146,5142
365.47293866643247,5196
367.84289720831396,5004
370.2122031664593,4939
372.5808567491905,5124
374.9488581649083,5056
377.31620762209275,4895
379.6829053293021,4797
382.0489514951745,4779
384.4143463284262,4811
386.7790900378528,4621
389.14318283232853,4637
391.50662492080653,4794
393.86941651231916,4797
396.23155781597745,4890
398.5930490409713,4800
400.9538903965696,4923
403.3140820921202,4854
405.6736243370498,4943
408.03251734086336,4903
410.3907613131465,4676
412.74835646356166,4871
415.10530300185144,4873
417.4616011378372,4768
419.81725108141893,4816
422.1722530425758,4789
424.5266072313656,4742
426.880313857925,4797
429.2333731324701,4735
431.58578526529516,4697
433.9375504667738,4831
436.2886689473588,4687
438.63914091758113,4597
440.9889665880513,4749
443.33814616945835,4738
445.68667987257015,4797
448.03456790823395,4788
450.3818104873759,4762
452.72840782100013,4739
455.07436012019105,4792
457.41966759611057,4754
459.7643304600007,4740
462.10834892318155,4675
464.4517231970525,4711
466.79445349309174,4570
469.1365400228566,4700
471.4779829979826,4606
473.81878263018564,4679
476.15893913125876,4682
478.4984527130747,4740
480.8373235875855,4837
483.17555196682144,4674
485.5131380628919,4760
487.8500820879857,4792
490.1863842543697,4797
492.52204477439034,4792
494.8570638604725,4880
497.1914417251204,4884
499.52517858091653,4845
501.85827464052306,4992
504.19073011668036,5035
506.5225452222086,5256
508.85372017000566,5691
511.18425517304956,6654
513.514150444396,8670
515.8434061971808,11333
518.1720226446176,13471
520.4999999999999,14070
522.8273384766991,13423
525.1540382881666,12297
527.480099647932,10397
529.8055227696037,8215
532.1303078668694,6635
534.454455153496,5702
536.777964843328,5469
539.1008371502907,5316
541.4230722883866,5172
543.744670471698,5023
546.0656319143858,5102
548.3859568306899,4963
550.7056454349294,4858
553.0246979415016,4732
555.3431145648834,4815
557.6608955196306,4964
559.978041020377,4921
562.2945512818363,4786
564.6104265188006,4887
566.9256669461412,4845
569.2402727788082,4871
571.5542442318302,4913
573.8675815203156,4854
576.1802848594508,4828
578.4923544645015,4827
580.8037905508126,4905
583.114593333807,4793
585.4247630289875,4932
587.7342998519354,4882
590.0432040183106,4751
592.3514757438526,4824
594.6591152443794,4828
596.9661227357875,4814
599.2724984340531,4843
601.578242555231,4784
603.8833553154542,4851
606.1878369309362,4757
608.4916876179676,4888
610.7949075929192,4876
613.0974970722403,4860
615.3994562724587,4910
617.7007854101818,4830
620.0014847020951,4859
622.3015543649641,4802
624.6009946156324,4951
626.8998056710224,4902
629.1979877481361,4765
631.4955410640538,4859
633.7924658359349,4893
636.0887622810175,4867
638.3844306166192,4895
640.6794710601358,4960
642.9738838290426,4989
645.2676691408932,4970
647.5608272133207,4909
649.853358264037,4964
652.1452625108324,4958
654.4365401715764,4916
656.7271914642178,4983
659.0172166067838,5216
661.3066158173809,5095
663.5953893141935,4989
665.8835373154867,5183
668.1710600396028,5083
670.4579577049639,5104
672.7442305300709,4939
675.0298787335033,4956
677.3149025339197,4952
679.599302150058,5099
681.8830778007342,5049
684.1662297048437,5120
686.4487580813608,5111
688.7306631493387,5081
691.0119451279091,5058
693.2926042362834,4961
695.5726406937516,5113
697.8520547196814,4911
700.1308465335215,5122
702.4090163547982,4968
704.6865644031171,4943
706.9634908981619,5078
709.2397960596965,4936
711.5154801075631,5081
713.7905432616823,5059
716.0649857420548,5033
718.3388077687592,5154
720.612009561953,5184
722.8845913418733,4982
725.1565533288352,4957
727.427895743234,5008
729.6986188055427,5191
731.9687227363137,5091
734.238207756178,5168
736.5070740858458,5033
738.7753219461066,4989
741.0429515578281,5074
743.3099631419569,5253
745.5763569195191,5165
747.8421331116193,5174
750.1072919394409,5169
752.3718336242467,5151
754.6357583873777,5064
756.8990664502545,5141
759.1617580343765,5180
761.423833361321,5293
763.6852926527457,5156
765.9461361303862,5181
768.206364016058,5289
770.4659765316536,5188
772.7249738991469,5201
774.9833563405886,5337
777.2411240781092,5165
779.4982773339183,5206
781.7548163303044,5138
784.010741289634,5274
786.2660524343538,5858
788.5207499869881,5299
790.7748341701416,5109
793.0283052064964,5291
795.2811633188143,5179
797.5334087299362,5266
799.7850416627813,5256
802.0360623403484,5239
804.2864709857143,5177
806.5362678220353,5147
808.7854530725468,5116
811.0340269605625,5193
813.2819897094754,5318
815.5293415427581,5255
817.77608268396,5194
820.0222133567116,5163
822.2677337847211,5143
824.5126441917765,5116
826.7569448017433,5132
829.0006358385675,5067
831.2437175262731,5246
833.4861900889629,5292
835.7280537508192,5235
837.9693087361026,5196
840.2099552691533,5201
842.4499935743896,5320
844.689423876309,5250
846.9282463994886,5285
849.1664613685833,5246
851.4040690083276,5208
853.6410695435349,5125
855.877463199097,5077
858.1132501999847,5348
860.3484307712487,5264
862.5830051380175,5295
864.8169735254988,5191
867.0503361589791,5233
869.2830932638243,5158
871.5152450654786,5285
873.7467917894654,5163
875.9777336613873,5048
878.2080709069252,5065
880.4378037518389,5263
882.666932421968,5179
884.8954571432301,5275
887.1233781416219,5256
889.3506956432192,5341
891.5774098741766,5275
893.803521060728,5320
896.0290294291852,5070
898.2539352059397,4992
900.4782386174619,5095
902.7019398903011,5091
904.925039251085,5064
907.147536926521,5048
909.3694331433943,4973
911.59072812857,5000
913.8114221089921,5095
916.0315153116827,5071
918.2510079637437,5100
920.4699002923547,5025
922.6881925247761,5055
924.905884888345,5030
927.1229776104793,5094
929.3394709186747,5170
931.555365040506,5182
933.7706602036275,5131
935.9853566357709,5153
938.1994545647489,5194
940.4129542184515,5215
942.6258558248488,5303
944.8381596119883,5152
947.0498658079974,5294
949.2609746410825,5193
951.4714863395287,5225
953.6814011316998,5205
955.8907192460387,5318
958.0994409110671,5249
960.3075663553858,5347
962.5150958076741,5373
964.7220294966913,5510
966.928367651274,5378
969.1341105003388,5202
971.3392582728806,5294
973.5438111979742,5326
975.747769504772,5183
977.9511334225061,5283
980.153903180487,5220
982.3560790081052,5136
984.5576611348289,5141
986.7586497902058,5043
988.9590452038618,5114
991.158847605503,4971
993.3580572249133,4989
995.5566742919558,4822
997.7546990365728,4978
999.952131688785,4987
1002.1489724786926,4801
1004.3452216364743,4791
1006.5408793923874,4772
1008.7359459767691,4776
1010.9304216200343,4823
1013.1243065526781,4789
1015.3176010052733,4780
1017.510305208472,4750
1019.7024193930064,4721
1021.8939437896848,4668
1024.0848786293977,4634
1026.2752241431122,4658
1028.4649805618747,4617
1030.6541481168115,4763
1032.842727039127,4730
1035.0307175601051,4691
1037.2181199111074,4586
1039.4049343235752,4605
1041.591161029029,4540
1043.7768002590683,4549
1045.9618522453698,4697
1048.1463172196918,4662
1050.3301954138697,4717
1052.513487059818,4809
1054.69619238953,4836
1056.8783116350783,4757
1059.0598450286152,4688
1061.2407928023704,4716
1063.4211551886528,4711
1065.6009324198508,4730
1067.780124728432,4601
1069.9587323469414,4668
1072.1367555080046,4816
1074.314194444325,4611
1076.4910493886855,4658
1078.667320573947,4486
1080.843008233051,4487
1083.0181125990161,4528
1085.1926339049414,4477
1087.3665723840027,4569
1089.5399282694575,4495
1091.7127017946405,4446
1093.8848931929647,4531
1096.0565026979243,4578
1098.2275305430899,4597
1100.3979769621128,4526
1102.567842188722,4489
1104.737126456726,4451
1106.9058300000124,4474
1109.0739530525475,4517
1111.2414958483764,4523
1113.4084586216231,4477
1115.5748416064907,4454
1117.7406450372605,4552
1119.9058691482942,4455
1122.0705141740304,4463
1124.2345803489884,4486
1126.3980679077658,4519
1128.5609770850388,4526
1130.7233081155623,4513
1132.8850612341707,4638
1135.0462366757774,4565
1137.2068346753745,4499
1139.3668554680326,4576
1141.526299288901,4595
1143.68516637321,4521
1145.8434569562655,4386
1148.001171273455,4520
1150.158309560244,4613
1152.3148720521767,4616
1154.470858984876,4613
1156.626270594044,4546
1158.7811071154629,4490
1160.9353687849912,4584
1163.089055838569,4587
1165.242168512213,4515
1167.3947070420209,4540
1169.5466716641677,4524
1171.6980626149075,4578
1173.8488801305748,4569
1175.9991244475814,4436
1178.1487958024186,4558
1180.2978944316555,4557
1182.4464205719428,4498
1184.5943744600072,4509
1186.7417563326567,4542
1188.8885664267755,4458
1191.0348049793297,4482
1193.1804722273619,4483
1195.325568407995,4593
1197.4700937584303,4642
1199.614048515948,4682
1201.7574329179074,4568
1203.900247201746,4466
1206.042491604982,4551
1208.1841663652099,4626
1210.3252717201053,4553
1212.465807907422,4629
1214.6057751649923,4746
1216.7451737307279,4722
1218.8840038426192,4635
1221.0222657387353,4683
1223.1599596572241,4707
1225.2970858363137,4776
1227.4336445143094,4679
1229.5696359295966,4703
1231.705060320639,4797
1233.8399179259786,4767
1235.9742089842384,4883
1238.107933734118,4841
1240.2410924143974,4725
1242.373685263935,4793
1244.5057125216676,4718
1246.6371744266116,4735
1248.7680712178621,4782
1250.898403134593,4844
1253.028170416058,4909
1255.1573733015875,4862
1257.2860120305932,4719
1259.4140868425648,4786
1261.54159797707,4955
1263.6685456737569,4893
1265.7949301723515,4846
1267.9207517126597,4933
1270.046010534565,4806
1272.1707068780306,4926
1274.2948409830983,4974
1276.4184130898889,4901
1278.541423438603,4956
1280.6638722695184,4843
1282.785759822993,4925
1284.9070863394636,4873
1287.0278520594447,4948
1289.1480572235314,4984
1291.2677020723963,5084
1293.3867868467923,5121
1295.5053117875495,5207
1297.623277135579,5191
1299.740683131868,5160
1301.8575300174857,5273
1303.973818033578,5190
1306.0895474213703,5317
1308.2047184221678,5368
1310.3193312773528,5234
1312.4333862283888,5256
1314.5468835168163,5487
1316.659823384255,5376
1318.7722060724045,5477
1320.8840318230418,5456
1322.9953008780249,5503
1325.1060134792888,5377
1327.2161698688478,5527
1329.3257702887959,5571
1331.4348149813054,5444
1333.5433041886276,5566
1335.6512381530933,5564
1337.7586171171101,5548
1339.8654413231675,5573
1341.9717110138317,5509
1344.0774264317488,5438
1346.1825878196432,5486
1348.2871954203192,5566
1350.3912494766587,5527
1352.4947502316231,5546
1354.5976979282532,5486
1356.7000928096686,5479
1358.8019351190665,5485
1360.9032250997243,5470
1363.0039629949988,5467
1365.1041490483235,5453
1367.2037835032133,5430
1369.3028666032606,5399
1371.401398592137,5458
1373.4993797135926,5461
1375.5968102114575,5375
1377.6936903296396,5591
1379.7900203121262,5491
1381.8858004029835,5467
1383.9810308463561,5436
1386.075711886469,5340
1388.1698437676241,5346
1390.2634267342032,5454
1392.356461030667,5452
1394.4489469015557,5449
1396.5408845914872,5439
1398.6322743451592,5468
1400.7231164073469,5483
1402.813411022907,5483
1404.903158436773,5493
1406.9923588939578,5501
1409.0810126395531,5575
1411.1691199187303,5483
1413.2566809767386,5536
1415.343696058907,5527
1417.4301654106425,5563
1419.5160892774315,5544
1421.6014679048399,5605
1423.6863015385125,5699
1425.7705904241707,5638
1427.8543348076178,5742
1429.9375349347342,5659
1432.0201910514802,5710
1434.102303403894,5879
1436.1838722380944,5839
1438.2648978002767,5842
1440.3453803367174,5872
1442.4253200937692,5948
1444.5047173178677,5972
1446.5835722555234,6122
1448.6618851533285,6169
1450.739656257952,6186
1452.8168858161434,6045
1454.8935740747306,6092
1456.96972128062,6049
1459.045327680797,6153
1461.120393522327,6261
1463.1949190523528,6282
1465.2689045180973,6464
1467.3423501668608,6408
1469.415256246024,6542
1471.4876230030463,6576
1473.559450685465,6546
1475.6307395408976,6622
1477.7014898170391,6714
1479.771701761665,6703
1481.8413756226287,6695
1483.9105116478618,6817
1485.9791100853772,6839
1488.0471711832643,6873
1490.1146951896926,6948
1492.1816823529098,6808
1494.2481329212433,7071
1496.3140471430984,7211
1498.3794252669609,7162
1500.4442675413939,7216
1502.5085742150404,7278
1504.572345536622,7167
1506.6355817549388,7281
1508.6982831188702,7210
1510.7604498773744,7180
1512.8220822794883,7398
1514.8831805743293,7311
1516.9437450110909,7338
1519.003775839048,7384
1521.0632733075522,7430
1523.1222376660367,7389
1525.1806691640113,7292
1527.2385680510652,7246
1529.2959345768668,7346
1531.3527689911643,7387
1533.4090715437833,7261
1535.4648424846291,7607
1537.5200820636855,7558
1539.5747905310159,7730
1541.6289681367616,7760
1543.6826151311434,7741
1545.7357317644614,7838
1547.7883182870937,7930
1549.8403749494987,7778
1551.8919020022113,7942
1553.9428996958477,8081
1555.9933682811015,8076
1558.0433080087469,8254
1560.0927191296346,8239
1562.1416018946961,8176
1564.1899565549415,8491
1566.2377833614592,8584
1568.2850825654164,8736
1570.3318544180606,8827
1572.3780991707158,8912
1574.423817074788,9202
1576.4690083817595,9517
1578.5136733431923,9739
1580.5578122107272,10158
1582.601425236085,10484
1584.6445126710646,10909
1586.6870747675434,11037
1588.7291117774776,11102
1590.7706239529034,11089
1592.8116115459347,10897
1594.8520748087658,10587
1596.8920139936686,9728
1598.9314293529933,9293
1600.9703211391711,8948
1603.008689604711,8333
1605.0465350022005,8133
1607.0838575843068,7677
1609.1206576037753,7221
1611.1569353134305,7118
1613.1926909661765,6865
1615.2279248149953,6652
1617.2626371129481,6648
1619.2968281131757,6288
1621.3304980688963,6241
1623.3636472334088,6095
1625.39627586009,5994
1627.428384202396,5942
1629.459972513861,5748
1631.4910410480993,5649
1633.5215900588028,5484
1635.551619799744,5661
1637.5811305247717,5382
1639.6101224878166,5410
1641.6385959428862,5280
1643.6665511440683,5301
1645.693988345528,5095
1647.7209078015112,5190
1649.7473097663405,4956
1651.7731944944203,5097
1653.7985622402307,5102
1655.823413258333,5160
1657.847747803366,5106
1659.8715661300494,5041
1661.8948684931793,5303
1663.9176551476316,5005
1665.9399263483624,4989
1667.9616823504057,4984
1669.982923408873,5049
1672.0036497789574,4964
1674.0238617159293,4939
1676.043559475138,5093
1678.0627433120121,4990
1680.081413482059,5122
1682.0995702408654,5036
1684.117213844096,5034
1686.134344547495,4979
1688.1509626068864,4838
1690.1670682781705,5020
1692.182661817329,4944
1694.1977434804217,5098
1696.2123135235875,5061
1698.226372203043,5180
1700.2399197750851,5190
1702.2529564960905,5167
1704.2654826225112,5115
1706.277498410882,5064
1708.2890041178139,5100
1710.2999999999988,4986
1712.3104863142066,5028
1714.3204633172854,5047
1716.329931266163,5014
1718.3388904178469,5029
1720.3473410294214,5071
1722.3552833580516,5086
1724.3627176609807,5160
1726.3696441955308,5153
1728.3760632191033,5117
1730.3819749891782,5142
1732.3873797633146,5064
1734.3922777991502,4988
1736.3966693544012,5005
1738.4005546868639,5016
1740.4039340544127,5056
1742.406807715001,5060
1744.4091759266616,5020
1746.4110389475054,5019
1748.4123970357223,4922
1750.413250449582,4918
1752.4135994474318,4987
1754.4134442876993,5000
1756.4127852288902,4874
1758.4116225295893,4921
1760.4099564484595,4898
1762.407787244244,4845
1764.405115175764,4788
1766.4019405019203,4849
1768.3982634816916,4908
1770.3940843741357,4866
1772.3894034383907,4858
1774.3842209336717,4823
1776.378537119274,4770
1778.372352254571,4690
1780.3656665990156,4828
1782.3584804121397,4829
1784.3507939535534,4781
1786.3426074829463,4759
1788.3339212600863,4750
1790.3247355448211,4767
1792.3150505970766,4835
1794.3048666768573,4747
1796.2941840442477,4866
1798.2830029594106,4796
1800.2713236825884,4836
1802.2591464741004,4745
1804.2464715943465,4633
1806.2332993038058,4692
1808.2196298630352,4708
1810.2054635326708,4715
1812.190800573428,4845
1814.175641246101,4730
1816.1599858115628,4707
1818.1438345307652,4798
1820.127187664738,4720
1822.1100454745924,4654
1824.092408221516,4744
1826.0742761667766,4637
1828.055649571721,4729
1830.0365286977735,4677
1832.0169138064398,4712
1833.9968051593014,4687
1835.9762030180214,4692
1837.9551076443408,4704
1839.9335193000788,4679
1841.9114382471344,4765
1843.888864747485,4657
1845.8657990631878,4583
1847.842241456378,4687
1849.8181921892697,4743
1851.7936515241558,4612
1853.7686197234098,4594
1855.7430970494815,4585
1857.7170837649014,4640
1859.6905801322787,4722
1861.6635864143004,4789
1863.6361028737338,4684
1865.608129773424,4804
1867.5796673762961,4714
1869.5507159453537,4642
1871.521275743678,4644
1873.4913470344313,4740
1875.4609300808534,4607
1877.4300251462632,4605
1879.3986324940588,4710
1881.366752387717,4793
1883.3343850907936,4800
1885.3015308669228,4696
1887.268189979819,4719
1889.2343626932739,4722
1891.2000492711595,4823
1893.1652499774254,4808
1895.1299650761011,4823
1897.0941948312952,4868
1899.0579395071945,4748
1901.0211993680641,4840
1902.98397467825,4821
1904.9462657021745,4861
1906.9080727043415,4913
1908.869395949332,4852
1910.8302357018065,4908
1912.790592226504,4898
1914.7504657882428,4964
1916.7098566519212,4859
1918.6687650825133,4853
1920.6271913450764,4923
1922.5851357047422,4785
1924.5425984267245,4966
1926.499579776314,4738
1928.4560800188833,4879
1930.4120994198802,4900
1932.367638244833,4866
1934.32269675935,4799
1936.2772752291175,4739
1938.231373919899,5016
1940.1849930975404,4867
1942.1381330279637,4779
1944.0907939771696,4869
1946.0429762112412,4836
1947.9946799963363,4838
1949.9459055986945,4766
1951.896653284633,4782
1953.8469233205478,4865
1955.7967159729142,4798
1957.7460315082863,4701
1959.6948701932974,4774
1961.6432322946594,4753
1963.5911180791632,4808
1965.5385278136787,4750
1967.4854617651545,4776
1969.4319202006182,4771
1971.377903387176,4744
1973.3234115920136,4806
1975.268445082395,4689
1977.2130041256642,4816
1979.1570889892423,4743
1981.1006999406304,4725
1983.04383724741,4749
1984.986501177238,4657
1986.928691997853,4782
1988.8704099770712,4757
1990.811655382789,4624
1992.7524284829801,4768
1994.692729545698,4629
1996.6325588390755,4646
1998.5719166313224,4583
2000.5108031907307,4705
2002.4492187856677,4576
2004.387163684583,4627
2006.3246381560011,4584
2008.2616424685298,4615
2010.1981768908527,4690
2012.1342416917332,4600
2014.069837140014,4673
2016.0049635046162,4537
2017.9396210545406,4671
2019.8738100588666,4576
2021.8075307867502,4644
2023.740783507431,4655
2025.6735684902228,4655
2027.6058860045214,4664
2029.5377363198004,4680
2031.4691197056118,4685
2033.4000364315875,4584
2035.3304867674374,4608
2037.260470982952,4646
2039.189989347998,4505
2041.1190421325232,4600
2043.047629606554,4518
2044.9757520401945,4565
2046.9034097036288,4559
2048.8306028671195,4529
2050.7573318010086,4675
2052.683596775716,4697
2054.609398061742,4740
2056.5347359296647,4643
2058.4596106501403,4595
2060.384022493906,4627
2062.3079717317764,4648
2064.231458634646,4658
2066.1544834734873,4597
2068.077046519352,4603
2069.99914804337,4662
2071.9207883167524,4620
2073.8419676107865,4580
2075.7626861968406,4651
2077.6829443463607,4589
2079.6027423308715,4624
2081.522080421977,4644
2083.440958891362,4680
2085.359378010786,4656
2087.2773380520907,4513
2089.194839287196,4509
2091.111881988101,4686
2093.0284664268825,4629
2094.9445928756973,4551
2096.86026160678,4505
2098.775472892446,4656
2100.690227005088,4655
2102.604524217178,4509
2104.5183648012676,4526
2106.431749029985,4578
2108.34467717604,4610
2110.2571495122206,4520
2112.169166311393,4537
2114.080727846503,4642
2115.9918343905747,4631
2117.902486216711,4407
2119.8126835980956,4538
2121.722426807987,4588
2123.6317161197285,4523
2125.5405518067364,4588
2127.448934142509,4563
2129.356863400624,4462
2131.264339854737,4504
2133.1713637785815,4560
2135.077935445972,4717
2136.9840551308002,4601
2138.889723107037,4604
2140.7949396487334,4547
2142.699705030018,4608
2144.6040195250994,4520
2146.507883408264,4557
2148.4112969538774,4558
2150.3142604363848,4565
2152.2167741303097,4588
2154.1188383102535,4606
2156.0204532508997,4557
2157.9216192270064,4568
2159.822336513414,4634
2161.7226053850413,4482
2163.622426116884,4589
2165.5217989840185,4546
2167.4207242616,4548
2169.319202224862,4597
2171.2172331491165,4563
2173.1148173097563,4592
2175.0119549822507,4554
2176.90864644215,4588
2178.8048919650823,4581
2180.7006918267534,4633
2182.596046302952,4612
2184.4909556695407,4549
2186.3854202024645,4573
2188.279440177746,4627
2190.173015871487,4524
2192.066147559868,4570
2193.958835519149,4549
2195.851080025667,4648
2197.7428813558417,4631
2199.6342397861667,4449
2201.5251555932186,4602
2203.415629053651,4440
2205.3056604441986,4432
2207.19525004167,4540
2209.084398122958,4524
2210.9731049650327,4597
2212.861370844941,4519
2214.749196039812,4472
2216.636580826851,4519
2218.523525483344,4476
2220.410030286655,4713
2222.296095514226,4532
2224.1817214435805,4627
2226.066908352319,4533
2227.951656518121,4554
2229.835966218746,4600
2231.71983773203,4564
2233.6032713358913,4549
2235.486267308324,4503
2237.3688259274036,4644
2239.2509474712824,4576
2241.132632218193,4571
2243.013880446447,4457
2244.8946924344323,4433
2246.7750684606203,4574
2248.6550088035574,4543
2250.534513741871,4486
2252.413583554265,4643
2254.292218519526,4536
2256.170418916517,4421
2258.0481850241786,4472
2259.925517121534,4431
2261.8024154876825,4638
2263.678880401803,4488
2265.5549121431536,4499
2267.430510991071,4415
2269.305677224971,4499
2271.180411124348,4438
2273.0547129687766,4384
2274.9285830379076,4518
2276.8020216114737,4548
2278.6750289692845,4490
2280.5476053912294,4537
2282.4197511572766,4483
2284.2914665474727,4533
2286.162751841943,4478
2288.0336073208937,4506
2289.904033264608,4538
2291.774029953448,4614
2293.6435976678554,4556
2295.5127366883517,4472
2297.381447295534,4450
2299.2497297700825,4460
2301.1175843927526,4443
2302.9850114443825,4502
2304.852011205885,4329
2306.7185839582553,4345
2308.5847299825664,4354
2310.4504495599676,4378
2312.3157429716925,4242
2314.1806104990483,4435
2316.0450524234247,4389
2317.9090690262888,4216
2319.772660589186,4383
2321.635827393742,4406
2323.498569721661,4400
2325.3608878547248,4274
2327.2227820747967,4292
2329.0842526638157,4194
2330.945299903803,4231
2332.805924076857,4440
2334.6661254651535,4381
2336.525904350951,4437
2338.3852610165827,4247
2340.244195744464,4244
2342.102708817088,4386
2343.9608005170253,4360
2345.8184711269287,4401
2347.675720929526,4407
2349.532550207628,4269
2351.38895924412,4450
2353.24494832197,4333
2355.100517724223,4225
2356.955667734004,4279
2358.810398634514,4356
2360.664710709037,4337
2362.5186042409337,4389
2364.3720795136437,4493
2366.225136810686,4288
2368.0777764156583,4323
2369.929998612237,4239
2371.7818036841777,4271
2373.633191915315,4380
2375.484163589562,4398
2377.3347189909114,4429
2379.184858403434,4281
2381.03458211128,4404
2382.8838903986775,4332
2384.732783549936,4342
2386.5812618494406,4320
2388.4293255816588,4391
2390.2769750311327,4334
2392.1242104824883,4413
2393.971032220427,4352
2395.8174405297295,4366
2397.6634356952563,4379
2399.509018001947,4558
2401.3541877348193,4416
2403.1989451789705,4496
2405.043290619576,4439
2406.8872243418905,4301
2408.730746631247,4357
2410.5738577730594,4375
2412.4165580528183,4408
2414.258847756095,4315
2416.100727168537,4277
2417.9421965758734,4368
2419.783256263912,4323
2421.623906518538,4342
2423.4641476257157,4372
2425.303979871491,4297
2427.143403541984,4371
2428.9824189233977,4367
2430.821026302012,4301
2432.6592259641866,4454
2434.497018196361,4309
2436.33440328505,4317
2438.171381516851,4358
2440.00795317844,4329
2441.844118556569,4326
2443.6798779380724,4356
2445.5152316098606,4402
2447.3501798589255,4421
2449.1847229723357,4351
2451.0188612372403,4378
2452.8525949408663,4374
2454.6859243705203,4424
2456.518849813587,4375
2458.3513715575314,4461
2460.183489889895,4376
2462.015205098301,4427
2463.8465174704493,4370
2465.67742729412,4388
2467.5079348571717,4419
2469.338040447542,4347
2471.1677443532476,4340
2472.9970468623833,4378
2474.825948263123,4392
2476.6544488437207,4479
2478.482548892508,4380
2480.310248697896,4410
2482.137548548374,4341
2483.9644487325118,4282
2485.790949538956,4305
2487.617051256433,4430
2489.44275417375,4348
2491.26805857979,4421
2493.0929647635157,4345
2494.917473013971,4407
2496.741583620276,4502
2498.5652968716304,4392
2500.3886130573137,4442
2502.2115324666834,4416
2504.0340553891765,4475
2505.856182114308,4435
2507.6779129316733,4326
2509.499248130945,4410
2511.3201880018764,4324
2513.140732834298,4384
2514.9608829181198,4285
2516.780638543331,4443
2518.6,4417
2520.418967578273,4299
2522.237541568376,4409
2524.0557222606144,4409
2525.8735099453706,4363
2527.6909049131086,4377
2529.507907454368,4295
2531.32451785977,4443
2533.140736420014,4420
2534.9565634258774,4381
2536.771999168218,4414
2538.5870439379714,4453
2540.4016980261526,4499
2542.2159617238544,4507
2544.02983532225,4530
2545.8433191125914,4542
2547.656413386209,4530
2549.4691184345115,4489
2551.2814345489874,4486
2553.093362021204,4640
2554.904901142808,4578
2556.716052205523,4600
2558.526815501153,4530
2560.3371913215824,4619
2562.147179958771,4567
2563.956781704761,4680
2565.7659968516705,4540
2567.5748256916986,4589
2569.3832685171224,4645
2571.1913256202984,4726
2572.9989972936614,4731
2574.806283829725,4667
2576.613185521084,4775
2578.4197026604074,4872
2580.2258355404483,4914
2582.031584454035,4848
2583.836949694077,4887
2585.6419315535613,4782
2587.4465303255533,4845
2589.2507463032002,5057
2591.0545797797245,5084
2592.8580310484303,5084
2594.6611004026995,5201
2596.463788135992,5221
2598.266094541849,5237
2600.0680199138874,5188
2601.869564545807,5275
2603.670728731383,5326
2605.4715127644704,5438
2607.2719169390048,5545
2609.071941548998,5424
2610.8715868885433,5513
2612.670853251811,5543
2614.469740933052,5580
2616.268250226594,5611
2618.0663814268455,5603
2619.864134828292,5544
2621.6615107255006,5802
2623.458509413115,5697
2625.2551311858597,5759
2627.0513763385347,5686
2628.8472451660223,5847
2630.6427379632833,5797
2632.4378550253564,5730
2634.232596647359,5795
2636.026963124488,5907
2637.8209547520187,5863
2639.6145718253065,5828
2641.407814639785,5813
2643.200683490966,5707
2644.9931786744414,5765
2646.7853004858807,5739
2648.577049221034,5535
2650.3684251757277,5545
2652.1594286458712,5443
2653.9500599274484,5387
2655.740319316525,5458
2657.5302071092437,5415
2659.3197236018286,5407
2661.10886909058,5268
2662.8976438718782,5205
2664.686048242183,5216
2666.4740824980327,5232
2668.2617469360443,5129
2670.0490418529134,5051
2671.8359675454153,5170
2673.622524310403,5035
2675.408712444811,4953
2677.1945322456495,4980
2678.979984010009,4906
2680.76506803506,4974
2682.5497846180497,4845
2684.334134056306,4855
2686.1181166472343,4731
2687.9017326883213,4708
2689.6849824771293,4669
2691.4678663113013,4664
2693.2503844885596,4704
2695.032537306705,4643
2696.8143250636167,4615
2698.5957480572542,4437
2700.3768065856534,4624
2702.1575009469316,4576
2703.937831439283,4547
2705.717798360982,4396
2707.4974020103837,4426
2709.276642685917,4509
2711.055520686095,4424
2712.834036309506,4376
2714.612189854819,4357
2716.389981620782,4311
2718.1674119062204,4429
2719.944481010041,4412
2721.721189231226,4377
2723.4975368688415,4205
2725.273524222027,4252
2727.0491515900053,4211
2728.824419272075,4230
2730.5993275676146,4263
2732.3738767760838,4192
2734.148067197016,4189
2735.921899130031,4214
2737.6953728748194,4266
2739.468488731156,4205
2741.2412469988926,4163
2743.0136479779617,4214
2744.785691968372,4191
2746.5573792702116,4150
2748.3287101836504,4156
2750.099685008934,4137
2751.870304046388,4165
2753.640567596418,4141
2755.4104759595057,4087
2757.1800294362156,4100
2758.949228327187,4159
2760.7180729331412,4122
2762.486563554877,4165
2764.254700493272,4120
2766.022484049284,4056
2767.789914523947,3972
2769.5569922183786,4030
2771.3237174337705,4151
2773.090090471394,4019
2774.8561116326036,3978
2776.6217812188274,4125
2778.3870995315756,4156
2780.1520668724356,4098
2781.9166835430747,4105
2783.6809498452394,4027
2785.444866080754,4322
2787.2084325515225,4025
2788.971649559527,3939
2790.73451740683,4117
2792.4970363955713,4080
2794.2592068279705,4029
2796.0210290063264,4095
2797.7825032330147,4050
2799.543629810493,4029
2801.304409041296,4125
2803.0648412280366,4117
2804.8249266734088,4041
2806.5846656801846,4027
2808.344058551212,4081
2810.1031055894246,4001
2811.8618070978273,4041
2813.6201633795085,4114
2815.378174737636,4053
2817.1358414754536,3994
2818.893163896285,4011
2820.6501423035334,3983
2822.4067770006814,4079
2824.1630682912883,4036
2825.9190164789957,4043
2827.6746218675207,3930
2829.429884760661,3967
2831.184805462294,4021
2832.9393842763743,4012
2834.693621506936,4028
2836.4475174580916,4100
2838.201072434034,4175
2839.954286739034,4027
2841.707160677441,4109
2843.459694553685,3994
2845.2118886722724,3993
2846.96374333779,3917
2848.7152588549034,3963
2850.4664355283567,4123
2852.217273662973,4074
2853.9677735636546,4107
2855.7179355353833,3945
2857.4677598832186,3976
2859.217246912299,3997
2860.9663969278427,4007
2862.715210235146,4053
2864.4636871395846,4019
2866.211827946614,3940
2867.9596329617652,4015
2869.7071024906536,4062
2871.4542368389684,4038
2873.20103631248,4060
2874.947501217038,3948
2876.6936318585695,3960
2878.4394285430812,3973
2880.1848915766604,3961
2881.9300212654707,4064
2883.6748179157553,3852
2885.4192818338374,3978
2887.1634133261173,3899
2888.907212699077,3946
2890.6506802592744,3967
2892.393816313348,3992
2894.1366211680142,3977
2895.8790951300693,3946
2897.621238506388,4024
2899.363051603925,3931
2901.1045347297118,3955
2902.8456881908596,4060
2904.58651229456,4001
2906.327007348081,3969
2908.067173658772,3974
2909.8070115340597,3942
2911.5465212814497,3969
2913.285703208527,4083
2915.0245576229563,3958
2916.7630848324807,3978
2918.5012851449196,3935
2920.2391588681758,3932
2921.976706310227,3816
2923.7139277791334,3870
2925.4508235830313,3934
2927.187394030137,3943
2928.923639428745,3954
2930.6595600872306,3957
2932.395156314046,3816
2934.1304284177218,4029
2935.8653767068713,3985
2937.6000014901815,3986
2939.3343030764227,3859
2941.068281774442,3877
2942.8019378931644,3975
2944.5352717415976,3885
2946.2682836288236,3908
2948.0009738640065,4026
2949.7333427563885,3891
2951.465390615289,3928
2953.1971177501086,3943
2954.9285244703265,3899
2956.6596110855,3840
2958.3903779052657,3865
2960.1208252393385,3929
2961.8509533975125,3783
2963.5807626896617,3780
2965.3102534257378,3896
2967.0394259157715,3818
2968.768280469873,3887
2970.496817398232,3904
2972.2250370111146,3805
2973.952939618869,3887
2975.6805255319196,3826
2977.4077950607707,3990
2979.134748516006,3919
2980.861386208289,3811
2982.587708448359,3983
2984.313715547037,3827
2986.039407815222,3864
2987.764785563891,3847
2989.489849104102,3820
2991.2145987469908,3817
2992.9390348037705,3775
2994.6631575857346,3858
2996.3869674042576,3847
2998.1104645707887,3807
2999.83364939686,3798
3001.5565221940783,3880
3003.2790832741334,3858
3005.0013329487924,3948
3006.7232715298996,3768
3008.4448993293804,3806
3010.166216659239,3727
3011.887223831558,3797
3013.607921158498,3793
3015.3283089522993,3792
3017.0483875252826,3862
3018.7681571898443,3789
3020.4876182584626,3792
3022.2067710436927,3766
3023.9256158581707,3795
3025.644153014609,3821
3027.362382825801,3793
3029.0803056046193,3690
3030.797921664012,3781
3032.5152313170106,3885
3034.2322348767225,3856
3035.9489326563353,3725
3037.665324969115,3714
3039.3814121284063,3845
3041.097194447633,3715
3042.812672240299,3762
3044.5278458199855,3706
3046.2427155003525,3827
3047.9572815951406,3756
3049.671544418167,3844
3051.38550428333,3856
3053.0991615046073,3806
3054.812516396051,3787
3056.5255692717974,3803
3058.2383204460575,3849
3059.9507702331257,3684
3061.662918947372,3795
3063.3747669032446,3812
3065.0863144152736,3704
3066.7975617980674,3785
3068.508509366309,3761
3070.219157434767,3746
3071.9295063182844,3712
3073.639556331785,3785
3075.3493077902704,3778
3077.058761008821,3716
3078.7679163025964,3751
3080.476773986837,3798
3082.1853343768594,3723
3083.89359778806,3784
3085.6015645359153,3802
3087.3092349359786,3800
3089.016609303884,3748
3090.7236879553434,3832
3092.4304712061476,3764
3094.136959372166,3743
3095.843152769349,3759
3097.5490517137237,3660
3099.2546565213966,3778
3100.959967508554,3717
3102.66498499146,3770
3104.3697092864577,3737
3106.0741407099695,3761
3107.778279578498,3743
3109.482126208622,3711
3111.1856809170004,3697
3112.8889440203716,3672
3114.5919158355528,3791
3116.294596679439,3725
3117.996986869006,3782
3119.6990867213062,3660
3121.4008965534726,3800
3123.102416682717,3742
3124.803647426329,3868
3126.5045891016784,3935
3128.205242026213,3787
3129.90560651746,3668
3131.605682893025,3749
3133.3054714705922,3812
3135.0049725679282,3944
3136.7041865028714,3745
3138.4031135933465,3691
3140.101754157353,3693
3141.800108512971,3622
3143.498176978357,3813
3145.1959598717494,3759
3146.8934575114636,3705
3148.5906702158954,3750
3150.2875983035183,3734
3151.9842420928853,3775
3153.680601902627,3824
3155.376678051456,3667
3157.07247085816,3678
3158.767980641609,3774
3160.463207720748,3692
3162.158152414606,3724
3163.8528150422862,3578
3165.5471959229726,3716
3167.2412953759303,3700
3168.9351137204976,3711
3170.628651276098,3619
3172.3219083622307,3761
3174.014885298474,3702
3175.707582404485,3712
3177.4000000000005,3733
3179.092138404835,3796
3180.7839979388846,3651
3182.47557892212,3715
3184.166881674594,3680
3185.8579065164386,3735
3187.5486537678626,3767
3189.2391237491547,3687
3190.9293167806827,3664
3192.6192331828934,3571
3194.3088732763117,3722
3195.998237381542,3794
3197.687325819268,3626
3199.376138910251,3696
3201.064676975334,3663
3202.7529403354347,3676
3204.4409293115523,3687
3206.1286442247647,3678
3207.816085396229,3653
3209.5032531471825,3532
3211.190147798936,3555
3212.8767696728846,3633
3214.5631190905015,3631
3216.2491963733373,3637
3217.9350018430214,3639
3219.6205358212637,3523
3221.305798629851,3588
3222.990790590651,3482
3224.6755120256103,3647
3226.359963256751,3600
3228.0441446061795,3576
3229.7280563960758,3532
3231.411698948703,3628
3233.0950725863995,3546
3234.778177631587,3593
3236.461014406761,3600
3238.1435832345005,3507
3239.8258844374595,3535
3241.507918338374,3636
3243.1896852600576,3625
3244.8711855254023,3609
3246.552419457381,3555
3248.233387379042,3594
3249.914089613516,3563
3251.59452648401,3564
3253.274698313813,3492
3254.95460542629,3585
3256.6342481448855,3492
3258.313626793125,3549
3259.9927416946084,3395
3261.6715931730196,3464
3263.3501815521176,3543
3265.0285071557437,3501
3266.706570307815,3545
3268.3843713323286,3512
3270.0619105533615,3399
3271.739188295068,3493
3273.4162048816834,3572
3275.0929606375184,3554
3276.769455886966,3585
3278.445690954498,3546
3280.1216661646613,3595
3281.797381842087,3520
3283.4728383114807,3588
3285.1480358976296,3561
3286.8229749253996,3460
3288.4976557197333,3492
3290.172078605655,3542
3291.846243908266,3414
3293.5201519527463,3416
3295.193803064357,3503
3296.8671975684374,3433
3298.5403357904024,3417
3300.21321805575,3481
3301.8858446900567,3498
3303.558216018975,3515
3305.23033236824,3432
3306.9021940636603,3552
3308.57380143113,3499
3310.2451547966184,3540
3311.916254486174,3586
3313.5871008259246,3498
3315.2576941420766,3525
3316.9280347609147,3441
3318.5981230088046,3505
3320.2679592121895,3510
3321.9375436975924,3410
3323.606876791612,3433
3325.27595882093,3416
3326.944790112305,3407
3328.6133709925753,3315
3330.2817017886573,3486
3331.949782827547,3367
3333.617614436319,3468
3335.2851969421245,3438
3336.952530672199,3435
3338.619615953853,3484
3340.286453114475,3511
3341.9530424815357,3584
3343.619384382583,3523
3345.2854791452437,3529
3346.951327097224,3441
3348.6169285663073,3453
3350.2822838803577,3456
3351.947393367319,3451
3353.61225735521,3448
3355.2768761721345,3522
3356.9412501462693,3436
3358.605379605873,3423
3360.2692648792827,3297
3361.9329062949146,3417
3363.596304181263,3406
