CollectionTime,6/28/2024 2:55:06 PM
ExposureUsed,3
CalibratedSpectrum
-962.7078968117929,749
-959.9714848408522,808
-957.2358232597828,802
-954.5009119013725,780
-951.7667505983302,788
-949.0333391832855,819
-946.3006774887896,743
-943.5687653473143,783
-940.837602591253,813
-938.1071890529199,818
-935.3775245645503,823
-932.6486089583007,772
-929.9204420662485,806
-927.1930237203925,823
-924.4663537526524,829
-921.7404319948689,776
-919.0152582788041,819
-916.2908324361409,838
-913.5671542984834,830
-910.8442236973568,853
-908.1220404642074,809
-905.4006044304027,799
-902.679915427231,832
-899.959973285902,799
-897.2407778375464,851
-894.5223289132158,783
-891.8046263438832,746
-889.0876699604426,763
-886.3714595937089,793
-883.6559950744183,771
-880.9412762332282,789
-878.2273029007168,766
-875.5140749073835,759
-872.8015920836489,723
-870.0898542598545,763
-867.3788612662631,760
-864.6686129330585,772
-861.9591090903457,743
-859.2503495681506,746
-856.5423341964203,738
-853.8350628050229,820
-851.1285352237478,778
-848.4227512823054,774
-845.7177108103272,747
-843.0134136373656,722
-840.3098595928943,785
-837.6070485063082,768
-834.9049802069229,754
-832.2036545239757,756
-829.5030712866244,761
-826.8032303239481,738
-824.1041314649472,716
-821.4057745385428,729
-818.7081593735775,778
-816.0112857988148,760
-813.3151536429393,802
-810.6197627345566,733
-807.9251129021936,723
-805.2312039742981,751
-802.5380357792392,773
-799.8456081453069,734
-797.1539209007124,733
-794.462973873588,765
-791.772766891987,728
-789.083299783884,792
-786.3945723771743,730
-783.7065844996748,735
-781.0193359791231,796
-778.3328266431781,797
-775.6470563194197,784
-772.9620248353489,770
-770.2777320183878,737
-767.5941776958798,743
-764.9113616950891,737
-762.2292838432011,735
-759.5479439673222,760
-756.8673418944801,771
-754.1874774516235,777
-751.5083504656222,779
-748.8299607632671,760
-746.15230817127,765
-743.475392516264,791
-740.7992136248035,773
-738.1237713233636,801
-735.4490654383407,770
-732.7750957960521,798
-730.1018622227365,792
-727.4293645445534,786
-724.7576025875837,806
-722.0865761778291,780
-719.4162851412126,807
-716.7467293035781,836
-714.0779084906909,798
-711.409822528237,830
-708.7424712418238,795
-706.0758544569796,806
-703.4099719991541,829
-700.7448236937178,834
-698.0804093659622,862
-695.4167288411002,853
-692.7537819442656,855
-690.0915685005134,832
-687.4300883348199,792
-684.7693412720819,839
-682.1093271371178,840
-679.4500457546669,816
-676.7914969493897,853
-674.1336805458676,836
-671.4765963686034,848
-668.8202442420206,868
-666.1646239904642,871
-663.5097354382001,848
-660.8555784094151,860
-658.2021527282176,881
-655.5494582186366,933
-652.8974947046223,885
-650.2462620100463,901
-647.5957599587009,901
-644.9459883742998,925
-642.2969470804776,951
-639.6486359007902,982
-637.0010546587141,957
-634.3542031776476,944
-631.7080812809096,888
-629.0626887917401,902
-626.4180255333008,867
-623.7740913286734,861
-621.1308860008619,851
-618.4884093727904,818
-615.8466612673046,870
-613.2056415071715,835
-610.5653499150785,835
-607.9257863136347,864
-605.28695052537,855
-602.6488423727357,866
-600.0114616781036,874
-597.3748082637674,834
-594.7388819519412,878
-592.1036825647604,890
-589.4692099242818,889
-586.8354638524829,850
-584.2024441712624,919
-581.5701507024403,856
-578.9385832677575,901
-576.3077416888759,908
-573.6776257873787,871
-571.0482353847704,876
-568.4195703024757,924
-565.7916303618415,882
-563.164415384135,897
-560.5379251905453,917
-557.9121596021815,890
-555.2871184400748,874
-552.6628015251767,950
-550.0392086783606,907
-547.4163397204204,904
-544.794194472071,893
-542.1727727539491,967
-539.5520743866118,966
-536.9320991905377,962
-534.3128469861261,981
-531.6943175936979,974
-529.0765108334947,1026
-526.4594265256793,1064
-523.8430644903358,1274
-521.2274245474689,1346
-518.612506517005,1513
-515.9983102187913,1595
-513.3848354725959,1675
-510.77208209810846,1667
-508.16004991493924,1706
-505.5487387426199,1786
-502.9381484006032,1936
-500.3282787082628,2078
-497.71912948489364,2089
-495.1107005497117,2140
-492.5029917218539,2015
-489.8960028203786,1870
-487.28973366426493,1625
-484.68418407241325,1389
-482.07935386364494,1297
-479.47524285670266,1222
-476.87185087025,1217
-474.2691777228715,1222
-471.66722323307334,1178
-469.0659872192821,1147
-466.4654694998459,1167
-463.86566989303384,1138
-461.26658821703614,1156
-458.66822428996414,1092
-456.07057792985,1139
-453.4736489546475,1124
-450.877437182231,1154
-448.28194243039627,1101
-445.68716451686,1092
-443.09310325926003,1093
-440.49975847515555,1057
-437.9071299820263,1038
-435.31521759727354,1088
-432.72402113821954,1112
-430.13354042210767,1113
-427.5437752661022,1172
-424.95472548728867,1219
-422.36639090267386,1191
-419.7787713291855,1149
-417.1918665836721,1156
-414.60567648290385,1181
-412.0202008435715,1170
-409.4354394822874,1199
-406.8513922155845,1154
-404.26805885991723,1175
-401.685439231661,1230
-399.103533147112,1104
-396.522340422488,1176
-393.9418608739278,1128
-391.3620943174908,1101
-388.7830405691583,1099
-386.2046994448317,1097
-383.6270707603344,1049
-381.05015433141045,937
-378.473949973725,892
-375.8984575028645,877
-373.32367673433623,818
-370.74960748356875,758
-368.1762495659117,663
-365.60360279663576,660
-363.03166699093265,616
-360.4604419639154,601
-357.8899275306178,519
-355.32012350599507,554
-352.7510297049233,558
-350.1826459421999,549
-347.61497203254316,547
-345.04800779059235,497
-342.4817530309082,507
-339.91620756797226,500
-337.35137121618743,514
-334.7872437898774,489
-332.22382510328725,534
-329.66111497058273,562
-327.09911320585127,572
-324.53781962310075,573
-321.9772340362607,574
-319.4173562591816,574
-316.8581861056348,555
-314.2997233893127,523
-311.7419679238294,569
-309.1849195227194,560
-306.62857799943856,519
-304.0729431673641,560
-301.51801483979375,555
-298.963792829947,538
-296.41027695096386,553
-293.85746701590574,613
-291.3053628377552,662
-288.7539642294155,605
-286.2032710037115,638
-283.65328297338897,570
-281.1039999511146,617
-278.5554217494762,663
-276.007548180983,650
-273.4603790580651,609
-270.9139141930734,595
-268.3681533982807,635
-265.8230964858798,605
-263.27874326798565,670
-260.7350935566336,727
-258.1921471637804,674
-255.6499039013039,637
-253.10836358100266,629
-250.56752601459698,685
-248.02739101372765,756
-245.48795838995704,831
-242.94922795476816,765
-240.41119951956557,722
-237.8738728956746,758
-235.33724789434166,822
-232.80132432673452,931
-230.2661020039418,845
-227.73158073697357,730
-225.19776033676033,724
-222.66464061415422,768
-220.1322213799284,713
-217.60050244477725,764
-215.06948361931552,795
-212.53916471408013,836
-210.00954553952818,831
-207.48062590603843,834
-204.9524056239104,856
-202.4248845033651,802
-199.8980623545441,766
-197.37193898751036,711
-194.84651421224817,775
-192.32178783866232,850
-189.79775967657952,848
-187.27442953574644,902
-184.7517972258321,875
-182.2298625564256,872
-179.7086253370378,901
-177.18808537710026,825
-174.66824248596583,799
-172.14909647290835,994
-169.6306471471229,990
-167.11289431772548,896
-164.59583779375328,842
-162.07947738416453,977
-159.5638128978386,1070
-157.04884414357605,1014
-154.53457093009854,1005
-152.02099306604828,990
-149.50811035998936,1013
-146.99592262040665,1004
-144.48442965570587,1144
-141.97363127421409,1152
-139.46352728417958,1142
-136.95411749377126,1084
-134.44540171107985,1262
-131.93737974411636,1344
-129.43005140081357,1290
-126.92341648902493,1367
-124.41747481652521,1436
-121.91222619101006,1363
-119.40767042009657,1267
-116.90380731132257,1332
-114.40063667214702,1467
-111.8981583099503,1584
-109.3963720320337,1735
-106.89527764561933,1667
-104.39487495785067,1726
-101.89516377579241,1609
-99.39614390642998,1695
-96.89781515667039,1690
-94.40017733334128,2199
-91.90323024319173,2022
-89.40697369289148,1995
-86.91140748903172,1995
-84.41653143812482,1887
-81.92234534660395,2049
-79.42884902082358,2054
-76.93604226705907,2195
-74.4439248915071,2030
-71.95249670028534,1997
-69.46175749943245,2207
-66.97170709490854,2809
-64.48234529259423,3116
-61.99367189829195,2517
-59.50568671772464,2395
-57.01838955653636,2979
-54.53178022029283,3297
-52.045858514480074,3138
-49.560624244506016,3302
-47.07607721569923,3254
-44.59221723330904,3163
-42.10904410250669,3117
-39.62655762838392,4352
-37.14475761595372,6046
-34.66364387015028,6428
-32.18321619582866,6474
-29.70347439776515,7082
-27.224418280657005,8920
-24.74604764912317,12693
-22.26836230770266,21926
-19.7913620608565,38797
-17.315046712966478,51859
-14.83941606833514,65030
-12.36446993118659,65030
-9.89020810566592,65030
-7.416630395839093,65030
-4.94373660569363,65030
-2.471526539137585,65030
-6.821210263296962E-13,65030
2.47084320796705,65030
4.941003281093458,65030
7.410480415786196,65030
9.879274808531363,65030
12.347386655893956,65030
14.814816154518212,65030
17.28156350112681,65030
19.74762889252179,65030
22.21301252558385,65030
24.67771459727237,52981
27.141735304626195,25358
29.605074844762612,13317
32.06773341487792,8494
34.52971121224755,7787
36.99100843422559,8251
39.45162527824516,8243
41.91156194181792,6892
44.370818622535126,7449
46.82939551806646,9668
49.287292826160524,13009
51.74451074464503,12999
54.201049471426245,9909
56.65690920448981,8483
59.112090141899785,6330
61.56659248179983,4287
64.02041642241159,3439
66.4735621620365,3615
68.92602989905402,2830
71.37781983192338,2617
73.82893215918205,2939
76.27936707944684,2992
78.72912479141326,2724
81.17820549385567,2712
83.62660938562783,2445
86.07433666566146,2230
88.5213875329681,2214
90.96776218663751,2298
93.41346082583925,2165
95.85848364982041,2177
98.30283085790859,2098
100.7465026495089,2179
103.18949922410604,2146
105.63182078126385,2114
108.07346752062438,2071
110.51443964190923,1774
112.95473734491827,1580
115.39436082953114,1497
117.83331029570547,1598
120.27158594347827,1722
122.7091879729652,1569
125.1461165843615,1636
127.58237197794062,1783
130.01795435405518,1438
132.4528639131364,1486
134.88710085569494,1542
137.32066538231982,1470
139.75355769367923,1479
142.1857779905207,1606
144.61732647366978,1653
147.04820334403132,1684
149.47840880258934,1668
151.90794305040674,1731
154.33680628862487,1807
156.76499871846443,1779
159.19252054122433,1951
161.61937195828352,2175
164.04555317109896,2324
166.47106438120693,2574
168.89590579022217,2900
171.320077599839,2965
173.7435800118302,3018
176.16641322804742,3001
178.58857745042144,3136
181.01007288096173,3150
183.43089972175687,3257
185.85105817497413,3200
188.27054844285988,3319
190.6893707277394,3313
193.10752523201643,3324
195.5250121581745,3458
197.9418317087751,3620
200.3579840864594,3514
202.7734694939469,3616
205.18828813403627,3406
207.6024402096051,3455
210.01592592360964,3501
212.42874547908548,3334
214.84089907914665,3229
217.2523869269868,3272
219.66320922587727,3384
222.0733661791695,3315
224.48285799029293,3373
226.8916848627572,3435
229.29984700014882,3424
231.7073446061355,3402
234.11417788446204,3457
236.520347038953,3584
238.92585227351185,3634
241.33069379212054,3683
243.73487179884035,3702
246.1383864978112,3710
248.541238093252,3718
250.9434267894609,3767
253.34495279081432,3741
255.74581630176783,3619
258.1460175268563,3756
260.54555667069314,3811
262.9444339379703,3666
265.3426495334594,3496
267.7402036620107,3506
270.1370965285529,3462
272.53332833809407,3210
274.9288992957214,3135
277.32380960660055,3094
279.718059475976,3023
282.1116491091717,3048
284.5045787115897,2955
286.89684848871195,3022
289.2884586460981,3034
291.67940938938807,2904
294.0697009242996,2998
296.4593334566299,2966
298.84830719225477,2873
301.23662233712923,2909
303.6242790972866,2923
306.01127767884,2864
308.39761828798066,2807
310.78330113097934,2854
313.16832641418534,2792
315.5526943440269,2710
317.9364051270112,2659
320.3194589697242,2679
322.70185607883093,2623
325.0835966610754,2535
327.4646809232805,2576
329.8451090723478,2499
332.2248813152577,2520
334.6039978590701,2438
336.9824589109231,2413
339.36026467803447,2472
341.7374153677,2507
344.113911187295,2451
346.48975234427337,2371
348.8649390461686,2396
351.2394715005918,2402
353.61334991523415,2347
355.9865744978655,2427
358.35914545633375,2338
360.73106299856715,2433
363.10232733257146,2403
365.47293866643247,2321
367.84289720831396,2362
370.2122031664593,2380
372.5808567491905,2263
374.9488581649083,2277
377.31620762209275,2334
379.6829053293021,2297
382.0489514951745,2311
384.4143463284262,2296
386.7790900378528,2254
389.14318283232853,2286
391.50662492080653,2249
393.86941651231916,2165
396.23155781597745,2296
398.5930490409713,2139
400.9538903965696,2141
403.3140820921202,2248
405.6736243370498,2218
408.03251734086336,2202
410.3907613131465,2300
412.74835646356166,2248
415.10530300185144,2191
417.4616011378372,2248
419.81725108141893,2132
422.1722530425758,2204
424.5266072313656,2251
426.880313857925,2172
429.2333731324701,2101
431.58578526529516,2130
433.9375504667738,2016
436.2886689473588,2185
438.63914091758113,2140
440.9889665880513,2111
443.33814616945835,2017
445.68667987257015,2115
448.03456790823395,2133
450.3818104873759,2068
452.72840782100013,2102
455.07436012019105,2093
457.41966759611057,2109
459.7643304600007,2111
462.10834892318155,2032
464.4517231970525,2108
466.79445349309174,2125
469.1365400228566,2193
471.4779829979826,2200
473.81878263018564,2214
476.15893913125876,2157
478.4984527130747,2194
480.8373235875855,2169
483.17555196682144,2257
485.5131380628919,2349
487.8500820879857,2415
490.1863842543697,2593
492.52204477439034,2775
494.8570638604725,3081
497.1914417251204,3335
499.52517858091653,3594
501.85827464052306,3744
504.19073011668036,3792
506.5225452222086,3705
508.85372017000566,3550
511.18425517304956,3485
513.514150444396,3768
515.8434061971808,4543
518.1720226446176,4987
520.4999999999999,5346
522.8273384766991,5643
525.1540382881666,5827
527.480099647932,5564
529.8055227696037,4424
532.1303078668694,3079
534.454455153496,2425
536.777964843328,2212
539.1008371502907,2111
541.4230722883866,2094
543.744670471698,2054
546.0656319143858,1987
548.3859568306899,2013
550.7056454349294,1927
553.0246979415016,1971
555.3431145648834,1948
557.6608955196306,1884
559.978041020377,1861
562.2945512818363,1919
564.6104265188006,1860
566.9256669461412,1906
569.2402727788082,1889
571.5542442318302,1933
573.8675815203156,1895
576.1802848594508,1922
578.4923544645015,1883
580.8037905508126,1884
583.114593333807,1858
585.4247630289875,1952
587.7342998519354,1847
590.0432040183106,1908
592.3514757438526,1868
594.6591152443794,1960
596.9661227357875,1922
599.2724984340531,1871
601.578242555231,1954
603.8833553154542,1941
606.1878369309362,1946
608.4916876179676,2002
610.7949075929192,2059
613.0974970722403,1914
615.3994562724587,1920
617.7007854101818,1903
620.0014847020951,1858
622.3015543649641,1920
624.6009946156324,1897
626.8998056710224,1990
629.1979877481361,1941
631.4955410640538,1931
633.7924658359349,1915
636.0887622810175,1953
638.3844306166192,1904
640.6794710601358,2006
642.9738838290426,1993
645.2676691408932,1924
647.5608272133207,1967
649.853358264037,2003
652.1452625108324,1983
654.4365401715764,2025
656.7271914642178,2010
659.0172166067838,1937
661.3066158173809,1974
663.5953893141935,1990
665.8835373154867,2005
668.1710600396028,2043
670.4579577049639,2001
672.7442305300709,2026
675.0298787335033,2086
677.3149025339197,2016
679.599302150058,2021
681.8830778007342,2057
684.1662297048437,1986
686.4487580813608,2067
688.7306631493387,1946
691.0119451279091,1983
693.2926042362834,1994
695.5726406937516,2051
697.8520547196814,2061
700.1308465335215,2018
702.4090163547982,2006
704.6865644031171,2046
706.9634908981619,2102
709.2397960596965,2046
711.5154801075631,1979
713.7905432616823,2001
716.0649857420548,1978
718.3388077687592,1926
720.612009561953,1906
722.8845913418733,2026
725.1565533288352,1994
727.427895743234,1999
729.6986188055427,1969
731.9687227363137,2037
734.238207756178,1975
736.5070740858458,1953
738.7753219461066,1918
741.0429515578281,1937
743.3099631419569,2011
745.5763569195191,1953
747.8421331116193,1927
750.1072919394409,2001
752.3718336242467,1959
754.6357583873777,1975
756.8990664502545,1964
759.1617580343765,1940
761.423833361321,1945
763.6852926527457,1954
765.9461361303862,2015
768.206364016058,1926
770.4659765316536,2039
772.7249738991469,1939
774.9833563405886,1944
777.2411240781092,2047
779.4982773339183,2020
781.7548163303044,1975
784.010741289634,2017
786.2660524343538,2046
788.5207499869881,2036
790.7748341701416,1972
793.0283052064964,2005
795.2811633188143,2051
797.5334087299362,2022
799.7850416627813,2056
802.0360623403484,1996
804.2864709857143,2022
806.5362678220353,2021
808.7854530725468,2028
811.0340269605625,1936
813.2819897094754,2014
815.5293415427581,2011
817.77608268396,2053
820.0222133567116,1993
822.2677337847211,2006
824.5126441917765,1988
826.7569448017433,2000
829.0006358385675,1928
831.2437175262731,1956
833.4861900889629,1985
835.7280537508192,1970
837.9693087361026,2011
840.2099552691533,2049
842.4499935743896,2085
844.689423876309,2024
846.9282463994886,2050
849.1664613685833,2026
851.4040690083276,1991
853.6410695435349,2008
855.877463199097,1973
858.1132501999847,2008
860.3484307712487,2013
862.5830051380175,2039
864.8169735254988,2082
867.0503361589791,2086
869.2830932638243,1984
871.5152450654786,2016
873.7467917894654,2018
875.9777336613873,2087
878.2080709069252,2073
880.4378037518389,2107
882.666932421968,2050
884.8954571432301,2045
887.1233781416219,2066
889.3506956432192,2070
891.5774098741766,2042
893.803521060728,2144
896.0290294291852,2083
898.2539352059397,2057
900.4782386174619,2094
902.7019398903011,2120
904.925039251085,2110
907.147536926521,2064
909.3694331433943,2081
911.59072812857,2046
913.8114221089921,2115
916.0315153116827,2098
918.2510079637437,2063
920.4699002923547,2038
922.6881925247761,2010
924.905884888345,2047
927.1229776104793,2094
929.3394709186747,2047
931.555365040506,2041
933.7706602036275,2022
935.9853566357709,2067
938.1994545647489,2129
940.4129542184515,2119
942.6258558248488,2097
944.8381596119883,2014
947.0498658079974,1974
949.2609746410825,2022
951.4714863395287,2022
953.6814011316998,2003
955.8907192460387,2053
958.0994409110671,1990
960.3075663553858,2001
962.5150958076741,1945
964.7220294966913,2019
966.928367651274,1920
969.1341105003388,2020
971.3392582728806,1904
973.5438111979742,1977
975.747769504772,1907
977.9511334225061,1995
980.153903180487,1922
982.3560790081052,1872
984.5576611348289,1935
986.7586497902058,1981
988.9590452038618,1923
991.158847605503,1891
993.3580572249133,1851
995.5566742919558,1755
997.7546990365728,1813
999.952131688785,1793
1002.1489724786926,1763
1004.3452216364743,1719
1006.5408793923874,1725
1008.7359459767691,1675
1010.9304216200343,1703
1013.1243065526781,1671
1015.3176010052733,1683
1017.510305208472,1730
1019.7024193930064,1690
1021.8939437896848,1673
1024.0848786293977,1663
1026.2752241431122,1696
1028.4649805618747,1618
1030.6541481168115,1583
1032.842727039127,1676
1035.0307175601051,1625
1037.2181199111074,1672
1039.4049343235752,1552
1041.591161029029,1598
1043.7768002590683,1607
1045.9618522453698,1580
1048.1463172196918,1618
1050.3301954138697,1606
1052.513487059818,1609
1054.69619238953,1679
1056.8783116350783,1558
1059.0598450286152,1559
1061.2407928023704,1648
1063.4211551886528,1622
1065.6009324198508,1559
1067.780124728432,1565
1069.9587323469414,1566
1072.1367555080046,1576
1074.314194444325,1632
1076.4910493886855,1584
1078.667320573947,1515
1080.843008233051,1611
1083.0181125990161,1541
1085.1926339049414,1538
1087.3665723840027,1530
1089.5399282694575,1523
1091.7127017946405,1466
1093.8848931929647,1520
1096.0565026979243,1521
1098.2275305430899,1483
1100.3979769621128,1543
1102.567842188722,1495
1104.737126456726,1466
1106.9058300000124,1457
1109.0739530525475,1514
1111.2414958483764,1479
1113.4084586216231,1461
1115.5748416064907,1499
1117.7406450372605,1511
1119.9058691482942,1502
1122.0705141740304,1525
1124.2345803489884,1484
1126.3980679077658,1525
1128.5609770850388,1432
1130.7233081155623,1467
1132.8850612341707,1461
1135.0462366757774,1418
1137.2068346753745,1458
1139.3668554680326,1450
1141.526299288901,1423
1143.68516637321,1439
1145.8434569562655,1422
1148.001171273455,1457
1150.158309560244,1435
1152.3148720521767,1465
1154.470858984876,1447
1156.626270594044,1473
1158.7811071154629,1450
1160.9353687849912,1479
1163.089055838569,1512
1165.242168512213,1450
1167.3947070420209,1471
1169.5466716641677,1479
1171.6980626149075,1450
1173.8488801305748,1489
1175.9991244475814,1400
1178.1487958024186,1407
1180.2978944316555,1457
1182.4464205719428,1450
1184.5943744600072,1475
1186.7417563326567,1403
1188.8885664267755,1434
1191.0348049793297,1327
1193.1804722273619,1423
1195.325568407995,1463
1197.4700937584303,1410
1199.614048515948,1400
1201.7574329179074,1462
1203.900247201746,1489
1206.042491604982,1458
1208.1841663652099,1437
1210.3252717201053,1473
1212.465807907422,1405
1214.6057751649923,1465
1216.7451737307279,1441
1218.8840038426192,1430
1221.0222657387353,1503
1223.1599596572241,1475
1225.2970858363137,1498
1227.4336445143094,1453
1229.5696359295966,1433
1231.705060320639,1450
1233.8399179259786,1497
1235.9742089842384,1420
1238.107933734118,1508
1240.2410924143974,1441
1242.373685263935,1477
1244.5057125216676,1498
1246.6371744266116,1553
1248.7680712178621,1472
1250.898403134593,1435
1253.028170416058,1490
1255.1573733015875,1546
1257.2860120305932,1453
1259.4140868425648,1487
1261.54159797707,1449
1263.6685456737569,1432
1265.7949301723515,1462
1267.9207517126597,1531
1270.046010534565,1546
1272.1707068780306,1469
1274.2948409830983,1485
1276.4184130898889,1518
1278.541423438603,1560
1280.6638722695184,1581
1282.785759822993,1458
1284.9070863394636,1548
1287.0278520594447,1549
1289.1480572235314,1535
1291.2677020723963,1551
1293.3867868467923,1569
1295.5053117875495,1620
1297.623277135579,1571
1299.740683131868,1594
1301.8575300174857,1601
1303.973818033578,1635
1306.0895474213703,1592
1308.2047184221678,1574
1310.3193312773528,1620
1312.4333862283888,1636
1314.5468835168163,1631
1316.659823384255,1620
1318.7722060724045,1670
1320.8840318230418,1638
1322.9953008780249,1628
1325.1060134792888,1601
1327.2161698688478,1589
1329.3257702887959,1658
1331.4348149813054,1690
1333.5433041886276,1591
1335.6512381530933,1582
1337.7586171171101,1607
1339.8654413231675,1546
1341.9717110138317,1653
1344.0774264317488,1518
1346.1825878196432,1512
1348.2871954203192,1547
1350.3912494766587,1569
1352.4947502316231,1579
1354.5976979282532,1545
1356.7000928096686,1585
1358.8019351190665,1592
1360.9032250997243,1590
1363.0039629949988,1573
1365.1041490483235,1642
1367.2037835032133,1571
1369.3028666032606,1552
1371.401398592137,1589
1373.4993797135926,1636
1375.5968102114575,1594
1377.6936903296396,1567
1379.7900203121262,1632
1381.8858004029835,1631
1383.9810308463561,1550
1386.075711886469,1662
1388.1698437676241,1619
1390.2634267342032,1596
1392.356461030667,1642
1394.4489469015557,1629
1396.5408845914872,1630
1398.6322743451592,1701
1400.7231164073469,1659
1402.813411022907,1636
1404.903158436773,1650
1406.9923588939578,1728
1409.0810126395531,1677
1411.1691199187303,1763
1413.2566809767386,1715
1415.343696058907,1739
1417.4301654106425,1770
1419.5160892774315,1748
1421.6014679048399,1736
1423.6863015385125,1760
1425.7705904241707,1754
1427.8543348076178,1751
1429.9375349347342,1816
1432.0201910514802,1711
1434.102303403894,1798
1436.1838722380944,1831
1438.2648978002767,1843
1440.3453803367174,1911
1442.4253200937692,1913
1444.5047173178677,2001
1446.5835722555234,1958
1448.6618851533285,2092
1450.739656257952,1972
1452.8168858161434,2003
1454.8935740747306,2101
1456.96972128062,2082
1459.045327680797,2087
1461.120393522327,2146
1463.1949190523528,2216
1465.2689045180973,2170
1467.3423501668608,2279
1469.415256246024,2378
1471.4876230030463,2375
1473.559450685465,2369
1475.6307395408976,2443
1477.7014898170391,2486
1479.771701761665,2540
1481.8413756226287,2511
1483.9105116478618,2562
1485.9791100853772,2656
1488.0471711832643,2674
1490.1146951896926,2710
1492.1816823529098,2771
1494.2481329212433,2762
1496.3140471430984,2829
1498.3794252669609,2791
1500.4442675413939,2884
1502.5085742150404,2900
1504.572345536622,2974
1506.6355817549388,3033
1508.6982831188702,2984
1510.7604498773744,3062
1512.8220822794883,3078
1514.8831805743293,3205
1516.9437450110909,3169
1519.003775839048,3296
1521.0632733075522,3223
1523.1222376660367,3242
1525.1806691640113,3425
1527.2385680510652,3470
1529.2959345768668,3615
1531.3527689911643,3625
1533.4090715437833,3557
1535.4648424846291,3666
1537.5200820636855,3782
1539.5747905310159,3756
1541.6289681367616,3884
1543.6826151311434,3904
1545.7357317644614,4001
1547.7883182870937,4037
1549.8403749494987,4016
1551.8919020022113,4175
1553.9428996958477,4256
1555.9933682811015,4394
1558.0433080087469,4544
1560.0927191296346,4497
1562.1416018946961,4665
1564.1899565549415,4603
1566.2377833614592,4575
1568.2850825654164,4579
1570.3318544180606,4443
1572.3780991707158,4082
1574.423817074788,4080
1576.4690083817595,3836
1578.5136733431923,3587
1580.5578122107272,3492
1582.601425236085,3261
1584.6445126710646,3186
1586.6870747675434,2931
1588.7291117774776,2906
1590.7706239529034,2693
1592.8116115459347,2693
1594.8520748087658,2434
1596.8920139936686,2381
1598.9314293529933,2298
1600.9703211391711,2191
1603.008689604711,2085
1605.0465350022005,2051
1607.0838575843068,2007
1609.1206576037753,1908
1611.1569353134305,1962
1613.1926909661765,1926
1615.2279248149953,1951
1617.2626371129481,1793
1619.2968281131757,1741
1621.3304980688963,1716
1623.3636472334088,1725
1625.39627586009,1714
1627.428384202396,1760
1629.459972513861,1656
1631.4910410480993,1633
1633.5215900588028,1674
1635.551619799744,1634
1637.5811305247717,1625
1639.6101224878166,1545
1641.6385959428862,1622
1643.6665511440683,1548
1645.693988345528,1632
1647.7209078015112,1590
1649.7473097663405,1525
1651.7731944944203,1607
1653.7985622402307,1584
1655.823413258333,1513
1657.847747803366,1523
1659.8715661300494,1526
1661.8948684931793,1500
1663.9176551476316,1484
1665.9399263483624,1523
1667.9616823504057,1550
1669.982923408873,1498
1672.0036497789574,1518
1674.0238617159293,1545
1676.043559475138,1521
1678.0627433120121,1571
1680.081413482059,1520
1682.0995702408654,1495
1684.117213844096,1513
1686.134344547495,1495
1688.1509626068864,1530
1690.1670682781705,1504
1692.182661817329,1510
1694.1977434804217,1520
1696.2123135235875,1503
1698.226372203043,1490
1700.2399197750851,1476
1702.2529564960905,1558
1704.2654826225112,1544
1706.277498410882,1605
1708.2890041178139,1545
1710.2999999999988,1526
1712.3104863142066,1455
1714.3204633172854,1457
1716.329931266163,1468
1718.3388904178469,1530
1720.3473410294214,1504
1722.3552833580516,1464
1724.3627176609807,1426
1726.3696441955308,1437
1728.3760632191033,1499
1730.3819749891782,1442
1732.3873797633146,1414
1734.3922777991502,1421
1736.3966693544012,1397
1738.4005546868639,1461
1740.4039340544127,1485
1742.406807715001,1441
1744.4091759266616,1429
1746.4110389475054,1417
1748.4123970357223,1440
1750.413250449582,1425
1752.4135994474318,1420
1754.4134442876993,1388
1756.4127852288902,1414
1758.4116225295893,1422
1760.4099564484595,1413
1762.407787244244,1394
1764.405115175764,1390
1766.4019405019203,1369
1768.3982634816916,1374
1770.3940843741357,1387
1772.3894034383907,1419
1774.3842209336717,1305
1776.378537119274,1397
1778.372352254571,1334
1780.3656665990156,1342
1782.3584804121397,1345
1784.3507939535534,1319
1786.3426074829463,1356
1788.3339212600863,1367
1790.3247355448211,1324
1792.3150505970766,1340
1794.3048666768573,1316
1796.2941840442477,1319
1798.2830029594106,1306
1800.2713236825884,1346
1802.2591464741004,1318
1804.2464715943465,1344
1806.2332993038058,1333
1808.2196298630352,1340
1810.2054635326708,1348
1812.190800573428,1288
1814.175641246101,1362
1816.1599858115628,1325
1818.1438345307652,1287
1820.127187664738,1317
1822.1100454745924,1338
1824.092408221516,1347
1826.0742761667766,1327
1828.055649571721,1314
1830.0365286977735,1307
1832.0169138064398,1352
1833.9968051593014,1303
1835.9762030180214,1319
1837.9551076443408,1262
1839.9335193000788,1322
1841.9114382471344,1305
1843.888864747485,1301
1845.8657990631878,1352
1847.842241456378,1340
1849.8181921892697,1340
1851.7936515241558,1322
1853.7686197234098,1319
1855.7430970494815,1314
1857.7170837649014,1394
1859.6905801322787,1311
1861.6635864143004,1329
1863.6361028737338,1301
1865.608129773424,1317
1867.5796673762961,1352
1869.5507159453537,1315
1871.521275743678,1320
1873.4913470344313,1306
1875.4609300808534,1327
1877.4300251462632,1317
1879.3986324940588,1286
1881.366752387717,1317
1883.3343850907936,1318
1885.3015308669228,1311
1887.268189979819,1307
1889.2343626932739,1329
1891.2000492711595,1336
1893.1652499774254,1275
1895.1299650761011,1365
1897.0941948312952,1322
1899.0579395071945,1386
1901.0211993680641,1354
1902.98397467825,1309
1904.9462657021745,1312
1906.9080727043415,1305
1908.869395949332,1313
1910.8302357018065,1413
1912.790592226504,1371
1914.7504657882428,1317
1916.7098566519212,1292
1918.6687650825133,1350
1920.6271913450764,1342
1922.5851357047422,1342
1924.5425984267245,1343
1926.499579776314,1342
1928.4560800188833,1348
1930.4120994198802,1325
1932.367638244833,1416
1934.32269675935,1325
1936.2772752291175,1321
1938.231373919899,1321
1940.1849930975404,1381
1942.1381330279637,1329
1944.0907939771696,1318
1946.0429762112412,1318
1947.9946799963363,1381
1949.9459055986945,1333
1951.896653284633,1373
1953.8469233205478,1365
1955.7967159729142,1286
1957.7460315082863,1322
1959.6948701932974,1352
1961.6432322946594,1277
1963.5911180791632,1315
1965.5385278136787,1334
1967.4854617651545,1342
1969.4319202006182,1376
1971.377903387176,1307
1973.3234115920136,1380
1975.268445082395,1359
1977.2130041256642,1362
1979.1570889892423,1307
1981.1006999406304,1347
1983.04383724741,1260
1984.986501177238,1317
1986.928691997853,1322
1988.8704099770712,1370
1990.811655382789,1285
1992.7524284829801,1275
1994.692729545698,1273
1996.6325588390755,1296
1998.5719166313224,1235
2000.5108031907307,1280
2002.4492187856677,1253
2004.387163684583,1313
2006.3246381560011,1292
2008.2616424685298,1338
2010.1981768908527,1337
2012.1342416917332,1299
2014.069837140014,1324
2016.0049635046162,1288
2017.9396210545406,1308
2019.8738100588666,1322
2021.8075307867502,1288
2023.740783507431,1282
2025.6735684902228,1311
2027.6058860045214,1281
2029.5377363198004,1273
2031.4691197056118,1281
2033.4000364315875,1244
2035.3304867674374,1251
2037.260470982952,1282
2039.189989347998,1326
2041.1190421325232,1253
2043.047629606554,1286
2044.9757520401945,1296
2046.9034097036288,1262
2048.8306028671195,1333
2050.7573318010086,1289
2052.683596775716,1271
2054.609398061742,1295
2056.5347359296647,1274
2058.4596106501403,1305
2060.384022493906,1267
2062.3079717317764,1322
2064.231458634646,1248
2066.1544834734873,1293
2068.077046519352,1294
2069.99914804337,1266
2071.9207883167524,1289
2073.8419676107865,1263
2075.7626861968406,1294
2077.6829443463607,1285
2079.6027423308715,1296
2081.522080421977,1309
2083.440958891362,1270
2085.359378010786,1262
2087.2773380520907,1314
2089.194839287196,1241
2091.111881988101,1299
2093.0284664268825,1302
2094.9445928756973,1261
2096.86026160678,1185
2098.775472892446,1266
2100.690227005088,1304
2102.604524217178,1265
2104.5183648012676,1285
2106.431749029985,1303
2108.34467717604,1294
2110.2571495122206,1263
2112.169166311393,1252
2114.080727846503,1239
2115.9918343905747,1258
2117.902486216711,1253
2119.8126835980956,1255
2121.722426807987,1298
2123.6317161197285,1318
2125.5405518067364,1266
2127.448934142509,1314
2129.356863400624,1314
2131.264339854737,1253
2133.1713637785815,1266
2135.077935445972,1263
2136.9840551308002,1310
2138.889723107037,1289
2140.7949396487334,1265
2142.699705030018,1209
2144.6040195250994,1335
2146.507883408264,1246
2148.4112969538774,1265
2150.3142604363848,1220
2152.2167741303097,1308
2154.1188383102535,1257
2156.0204532508997,1294
2157.9216192270064,1249
2159.822336513414,1282
2161.7226053850413,1248
2163.622426116884,1215
2165.5217989840185,1275
2167.4207242616,1330
2169.319202224862,1339
2171.2172331491165,1253
2173.1148173097563,1291
2175.0119549822507,1314
2176.90864644215,1302
2178.8048919650823,1261
2180.7006918267534,1291
2182.596046302952,1297
2184.4909556695407,1233
2186.3854202024645,1245
2188.279440177746,1250
2190.173015871487,1255
2192.066147559868,1258
2193.958835519149,1281
2195.851080025667,1250
2197.7428813558417,1317
2199.6342397861667,1255
2201.5251555932186,1273
2203.415629053651,1279
2205.3056604441986,1283
2207.19525004167,1324
2209.084398122958,1317
2210.9731049650327,1326
2212.861370844941,1302
2214.749196039812,1299
2216.636580826851,1231
2218.523525483344,1261
2220.410030286655,1296
2222.296095514226,1264
2224.1817214435805,1330
2226.066908352319,1277
2227.951656518121,1304
2229.835966218746,1245
2231.71983773203,1306
2233.6032713358913,1297
2235.486267308324,1252
2237.3688259274036,1295
2239.2509474712824,1266
2241.132632218193,1277
2243.013880446447,1270
2244.8946924344323,1292
2246.7750684606203,1216
2248.6550088035574,1276
2250.534513741871,1334
2252.413583554265,1291
2254.292218519526,1278
2256.170418916517,1290
2258.0481850241786,1278
2259.925517121534,1266
2261.8024154876825,1265
2263.678880401803,1262
2265.5549121431536,1328
2267.430510991071,1324
2269.305677224971,1259
2271.180411124348,1321
2273.0547129687766,1247
2274.9285830379076,1331
2276.8020216114737,1368
2278.6750289692845,1249
2280.5476053912294,1249
2282.4197511572766,1265
2284.2914665474727,1325
2286.162751841943,1292
2288.0336073208937,1294
2289.904033264608,1239
2291.774029953448,1278
2293.6435976678554,1258
2295.5127366883517,1279
2297.381447295534,1339
2299.2497297700825,1296
2301.1175843927526,1322
2302.9850114443825,1266
2304.852011205885,1346
2306.7185839582553,1259
2308.5847299825664,1306
2310.4504495599676,1277
2312.3157429716925,1302
2314.1806104990483,1316
2316.0450524234247,1325
2317.9090690262888,1346
2319.772660589186,1346
2321.635827393742,1309
2323.498569721661,1363
2325.3608878547248,1359
2327.2227820747967,1362
2329.0842526638157,1324
2330.945299903803,1321
2332.805924076857,1259
2334.6661254651535,1298
2336.525904350951,1339
2338.3852610165827,1270
2340.244195744464,1293
2342.102708817088,1297
2343.9608005170253,1300
2345.8184711269287,1293
2347.675720929526,1319
2349.532550207628,1279
2351.38895924412,1339
2353.24494832197,1283
2355.100517724223,1334
2356.955667734004,1272
2358.810398634514,1325
2360.664710709037,1295
2362.5186042409337,1352
2364.3720795136437,1381
2366.225136810686,1362
2368.0777764156583,1359
2369.929998612237,1384
2371.7818036841777,1316
2373.633191915315,1335
2375.484163589562,1287
2377.3347189909114,1339
2379.184858403434,1335
2381.03458211128,1309
2382.8838903986775,1316
2384.732783549936,1351
2386.5812618494406,1345
2388.4293255816588,1352
2390.2769750311327,1338
2392.1242104824883,1330
2393.971032220427,1365
2395.8174405297295,1324
2397.6634356952563,1338
2399.509018001947,1316
2401.3541877348193,1331
2403.1989451789705,1341
2405.043290619576,1329
2406.8872243418905,1383
2408.730746631247,1343
2410.5738577730594,1385
2412.4165580528183,1435
2414.258847756095,1424
2416.100727168537,1387
2417.9421965758734,1377
2419.783256263912,1311
2421.623906518538,1324
2423.4641476257157,1406
2425.303979871491,1355
2427.143403541984,1384
2428.9824189233977,1369
2430.821026302012,1378
2432.6592259641866,1381
2434.497018196361,1365
2436.33440328505,1401
2438.171381516851,1412
2440.00795317844,1376
2441.844118556569,1460
2443.6798779380724,1409
2445.5152316098606,1356
2447.3501798589255,1381
2449.1847229723357,1377
2451.0188612372403,1323
2452.8525949408663,1372
2454.6859243705203,1357
2456.518849813587,1332
2458.3513715575314,1368
2460.183489889895,1377
2462.015205098301,1336
2463.8465174704493,1326
2465.67742729412,1386
2467.5079348571717,1420
2469.338040447542,1381
2471.1677443532476,1359
2472.9970468623833,1407
2474.825948263123,1452
2476.6544488437207,1414
2478.482548892508,1413
2480.310248697896,1397
2482.137548548374,1396
2483.9644487325118,1375
2485.790949538956,1370
2487.617051256433,1376
2489.44275417375,1367
2491.26805857979,1394
2493.0929647635157,1389
2494.917473013971,1355
2496.741583620276,1418
2498.5652968716304,1396
2500.3886130573137,1434
2502.2115324666834,1415
2504.0340553891765,1396
2505.856182114308,1399
2507.6779129316733,1393
2509.499248130945,1428
2511.3201880018764,1441
2513.140732834298,1438
2514.9608829181198,1423
2516.780638543331,1442
2518.6,1462
2520.418967578273,1477
2522.237541568376,1451
2524.0557222606144,1419
2525.8735099453706,1410
2527.6909049131086,1442
2529.507907454368,1450
2531.32451785977,1462
2533.140736420014,1470
2534.9565634258774,1505
2536.771999168218,1454
2538.5870439379714,1446
2540.4016980261526,1495
2542.2159617238544,1499
2544.02983532225,1519
2545.8433191125914,1533
2547.656413386209,1547
2549.4691184345115,1572
2551.2814345489874,1506
2553.093362021204,1478
2554.904901142808,1607
2556.716052205523,1524
2558.526815501153,1507
2560.3371913215824,1534
2562.147179958771,1601
2563.956781704761,1549
2565.7659968516705,1612
2567.5748256916986,1587
2569.3832685171224,1625
2571.1913256202984,1679
2572.9989972936614,1669
2574.806283829725,1585
2576.613185521084,1656
2578.4197026604074,1654
2580.2258355404483,1698
2582.031584454035,1737
2583.836949694077,1692
2585.6419315535613,1727
2587.4465303255533,1731
2589.2507463032002,1656
2591.0545797797245,1679
2592.8580310484303,1686
2594.6611004026995,1769
2596.463788135992,1711
2598.266094541849,1752
2600.0680199138874,1737
2601.869564545807,1779
2603.670728731383,1777
2605.4715127644704,1730
2607.2719169390048,1775
2609.071941548998,1813
2610.8715868885433,1804
2612.670853251811,1779
2614.469740933052,1754
2616.268250226594,1757
2618.0663814268455,1709
2619.864134828292,1763
2621.6615107255006,1762
2623.458509413115,1748
2625.2551311858597,1718
2627.0513763385347,1745
2628.8472451660223,1700
2630.6427379632833,1647
2632.4378550253564,1666
2634.232596647359,1643
2636.026963124488,1705
2637.8209547520187,1689
2639.6145718253065,1663
2641.407814639785,1650
2643.200683490966,1644
2644.9931786744414,1616
2646.7853004858807,1559
2648.577049221034,1578
2650.3684251757277,1625
2652.1594286458712,1598
2653.9500599274484,1583
2655.740319316525,1518
2657.5302071092437,1548
2659.3197236018286,1509
2661.10886909058,1494
2662.8976438718782,1521
2664.686048242183,1453
2666.4740824980327,1590
2668.2617469360443,1508
2670.0490418529134,1476
2671.8359675454153,1550
2673.622524310403,1463
2675.408712444811,1416
2677.1945322456495,1434
2678.979984010009,1447
2680.76506803506,1419
2682.5497846180497,1431
2684.334134056306,1419
2686.1181166472343,1397
2687.9017326883213,1427
2689.6849824771293,1468
2691.4678663113013,1369
2693.2503844885596,1367
2695.032537306705,1436
2696.8143250636167,1400
2698.5957480572542,1356
2700.3768065856534,1373
2702.1575009469316,1381
2703.937831439283,1365
2705.717798360982,1358
2707.4974020103837,1329
2709.276642685917,1369
2711.055520686095,1393
2712.834036309506,1364
2714.612189854819,1329
2716.389981620782,1340
2718.1674119062204,1351
2719.944481010041,1392
2721.721189231226,1346
2723.4975368688415,1324
2725.273524222027,1307
2727.0491515900053,1354
2728.824419272075,1353
2730.5993275676146,1324
2732.3738767760838,1298
2734.148067197016,1310
2735.921899130031,1333
2737.6953728748194,1267
2739.468488731156,1306
2741.2412469988926,1319
2743.0136479779617,1315
2744.785691968372,1316
2746.5573792702116,1382
2748.3287101836504,1361
2750.099685008934,1336
2751.870304046388,1325
2753.640567596418,1281
2755.4104759595057,1296
2757.1800294362156,1299
2758.949228327187,1287
2760.7180729331412,1275
2762.486563554877,1329
2764.254700493272,1292
2766.022484049284,1294
2767.789914523947,1346
2769.5569922183786,1265
2771.3237174337705,1314
2773.090090471394,1281
2774.8561116326036,1251
2776.6217812188274,1257
2778.3870995315756,1317
2780.1520668724356,1268
2781.9166835430747,1237
2783.6809498452394,1299
2785.444866080754,1272
2787.2084325515225,1298
2788.971649559527,1258
2790.73451740683,1281
2792.4970363955713,1265
2794.2592068279705,1227
2796.0210290063264,1244
2797.7825032330147,1320
2799.543629810493,1342
2801.304409041296,1277
2803.0648412280366,1248
2804.8249266734088,1215
2806.5846656801846,1276
2808.344058551212,1249
2810.1031055894246,1354
2811.8618070978273,1259
2813.6201633795085,1297
2815.378174737636,1256
2817.1358414754536,1321
2818.893163896285,1264
2820.6501423035334,1228
2822.4067770006814,1302
2824.1630682912883,1251
2825.9190164789957,1259
2827.6746218675207,1281
2829.429884760661,1300
2831.184805462294,1260
2832.9393842763743,1269
2834.693621506936,1297
2836.4475174580916,1264
2838.201072434034,1280
2839.954286739034,1276
2841.707160677441,1293
2843.459694553685,1319
2845.2118886722724,1246
2846.96374333779,1280
2848.7152588549034,1298
2850.4664355283567,1263
2852.217273662973,1313
2853.9677735636546,1308
2855.7179355353833,1261
2857.4677598832186,1307
2859.217246912299,1256
2860.9663969278427,1245
2862.715210235146,1248
2864.4636871395846,1319
2866.211827946614,1317
2867.9596329617652,1300
2869.7071024906536,1258
2871.4542368389684,1329
2873.20103631248,1316
2874.947501217038,1246
2876.6936318585695,1294
2878.4394285430812,1305
2880.1848915766604,1263
2881.9300212654707,1314
2883.6748179157553,1216
2885.4192818338374,1279
2887.1634133261173,1267
2888.907212699077,1262
2890.6506802592744,1282
2892.393816313348,1296
2894.1366211680142,1269
2895.8790951300693,1277
2897.621238506388,1250
2899.363051603925,1300
2901.1045347297118,1278
2902.8456881908596,1341
2904.58651229456,1242
2906.327007348081,1316
2908.067173658772,1291
2909.8070115340597,1293
2911.5465212814497,1271
2913.285703208527,1263
2915.0245576229563,1263
2916.7630848324807,1300
2918.5012851449196,1270
2920.2391588681758,1263
2921.976706310227,1278
2923.7139277791334,1314
2925.4508235830313,1330
2927.187394030137,1320
2928.923639428745,1289
2930.6595600872306,1277
2932.395156314046,1292
2934.1304284177218,1349
2935.8653767068713,1275
2937.6000014901815,1287
2939.3343030764227,1240
2941.068281774442,1314
2942.8019378931644,1308
2944.5352717415976,1294
2946.2682836288236,1282
2948.0009738640065,1246
2949.7333427563885,1264
2951.465390615289,1268
2953.1971177501086,1275
2954.9285244703265,1298
2956.6596110855,1275
2958.3903779052657,1259
2960.1208252393385,1242
2961.8509533975125,1283
2963.5807626896617,1247
2965.3102534257378,1222
2967.0394259157715,1269
2968.768280469873,1334
2970.496817398232,1289
2972.2250370111146,1240
2973.952939618869,1286
2975.6805255319196,1298
2977.4077950607707,1277
2979.134748516006,1272
2980.861386208289,1303
2982.587708448359,1251
2984.313715547037,1281
2986.039407815222,1309
2987.764785563891,1294
2989.489849104102,1302
2991.2145987469908,1236
2992.9390348037705,1287
2994.6631575857346,1288
2996.3869674042576,1289
2998.1104645707887,1241
2999.83364939686,1304
3001.5565221940783,1279
3003.2790832741334,1258
3005.0013329487924,1287
3006.7232715298996,1289
3008.4448993293804,1266
3010.166216659239,1274
3011.887223831558,1262
3013.607921158498,1232
3015.3283089522993,1296
3017.0483875252826,1259
3018.7681571898443,1206
3020.4876182584626,1222
3022.2067710436927,1250
3023.9256158581707,1279
3025.644153014609,1291
3027.362382825801,1260
3029.0803056046193,1295
3030.797921664012,1316
3032.5152313170106,1271
3034.2322348767225,1309
3035.9489326563353,1265
3037.665324969115,1275
3039.3814121284063,1287
3041.097194447633,1240
3042.812672240299,1239
3044.5278458199855,1294
3046.2427155003525,1322
3047.9572815951406,1259
3049.671544418167,1253
3051.38550428333,1235
3053.0991615046073,1272
3054.812516396051,1272
3056.5255692717974,1282
3058.2383204460575,1290
3059.9507702331257,1309
3061.662918947372,1272
3063.3747669032446,1262
3065.0863144152736,1277
3066.7975617980674,1341
3068.508509366309,1252
3070.219157434767,1276
3071.9295063182844,1310
3073.639556331785,1247
3075.3493077902704,1273
3077.058761008821,1295
3078.7679163025964,1225
3080.476773986837,1285
3082.1853343768594,1345
3083.89359778806,1338
3085.6015645359153,1234
3087.3092349359786,1280
3089.016609303884,1212
3090.7236879553434,1224
3092.4304712061476,1286
3094.136959372166,1280
3095.843152769349,1313
3097.5490517137237,1277
3099.2546565213966,1264
3100.959967508554,1257
3102.66498499146,1293
3104.3697092864577,1288
3106.0741407099695,1256
3107.778279578498,1219
3109.482126208622,1269
3111.1856809170004,1269
3112.8889440203716,1286
3114.5919158355528,1260
3116.294596679439,1298
3117.996986869006,1276
3119.6990867213062,1307
3121.4008965534726,1285
3123.102416682717,1314
3124.803647426329,1262
3126.5045891016784,1234
3128.205242026213,1272
3129.90560651746,1293
3131.605682893025,1275
3133.3054714705922,1291
3135.0049725679282,1303
3136.7041865028714,1274
3138.4031135933465,1258
3140.101754157353,1254
3141.800108512971,1248
3143.498176978357,1289
3145.1959598717494,1315
3146.8934575114636,1332
3148.5906702158954,1293
3150.2875983035183,1259
3151.9842420928853,1260
3153.680601902627,1269
3155.376678051456,1261
3157.07247085816,1266
3158.767980641609,1236
3160.463207720748,1302
3162.158152414606,1245
3163.8528150422862,1263
3165.5471959229726,1191
3167.2412953759303,1245
3168.9351137204976,1293
3170.628651276098,1299
3172.3219083622307,1279
3174.014885298474,1286
3175.707582404485,1266
3177.4000000000005,1280
3179.092138404835,1228
3180.7839979388846,1221
3182.47557892212,1255
3184.166881674594,1271
3185.8579065164386,1244
3187.5486537678626,1275
3189.2391237491547,1224
3190.9293167806827,1255
3192.6192331828934,1246
3194.3088732763117,1308
3195.998237381542,1248
3197.687325819268,1215
3199.376138910251,1236
3201.064676975334,1286
3202.7529403354347,1226
3204.4409293115523,1321
3206.1286442247647,1243
3207.816085396229,1234
3209.5032531471825,1262
3211.190147798936,1255
3212.8767696728846,1255
3214.5631190905015,1260
3216.2491963733373,1240
3217.9350018430214,1227
3219.6205358212637,1273
3221.305798629851,1226
3222.990790590651,1239
3224.6755120256103,1203
3226.359963256751,1223
3228.0441446061795,1244
3229.7280563960758,1224
3231.411698948703,1284
3233.0950725863995,1225
3234.778177631587,1224
3236.461014406761,1253
3238.1435832345005,1224
3239.8258844374595,1268
3241.507918338374,1268
3243.1896852600576,1299
3244.8711855254023,1220
3246.552419457381,1275
3248.233387379042,1210
3249.914089613516,1237
3251.59452648401,1204
3253.274698313813,1257
3254.95460542629,1246
3256.6342481448855,1253
3258.313626793125,1249
3259.9927416946084,1221
3261.6715931730196,1178
3263.3501815521176,1236
3265.0285071557437,1194
3266.706570307815,1232
3268.3843713323286,1240
3270.0619105533615,1198
3271.739188295068,1206
3273.4162048816834,1258
3275.0929606375184,1193
3276.769455886966,1244
3278.445690954498,1238
3280.1216661646613,1287
3281.797381842087,1266
3283.4728383114807,1215
3285.1480358976296,1243
3286.8229749253996,1200
3288.4976557197333,1239
3290.172078605655,1226
3291.846243908266,1220
3293.5201519527463,1150
3295.193803064357,1194
3296.8671975684374,1228
3298.5403357904024,1241
3300.21321805575,1199
3301.8858446900567,1205
3303.558216018975,1155
3305.23033236824,1191
3306.9021940636603,1270
3308.57380143113,1234
3310.2451547966184,1184
3311.916254486174,1271
3313.5871008259246,1228
3315.2576941420766,1266
3316.9280347609147,1262
3318.5981230088046,1254
3320.2679592121895,1225
3321.9375436975924,1237
3323.606876791612,1184
3325.27595882093,1226
3326.944790112305,1228
3328.6133709925753,1250
3330.2817017886573,1196
3331.949782827547,1225
3333.617614436319,1209
3335.2851969421245,1114
3336.952530672199,1215
3338.619615953853,1237
3340.286453114475,1215
3341.9530424815357,1223
3343.619384382583,1290
3345.2854791452437,1296
3346.951327097224,1195
3348.6169285663073,1260
3350.2822838803577,1251
3351.947393367319,1247
3353.61225735521,1247
3355.2768761721345,1264
3356.9412501462693,1220
3358.605379605873,1254
3360.2692648792827,1236
3361.9329062949146,1250
3363.596304181263,1215
