CollectionTime,6/28/2024 2:54:20 PM
ExposureUsed,3
CalibratedSpectrum
-962.7078968117929,762
-959.9714848408522,789
-957.2358232597828,789
-954.5009119013725,760
-951.7667505983302,799
-949.0333391832855,818
-946.3006774887896,785
-943.5687653473143,801
-940.837602591253,802
-938.1071890529199,838
-935.3775245645503,760
-932.6486089583007,798
-929.9204420662485,804
-927.1930237203925,806
-924.4663537526524,824
-921.7404319948689,816
-919.0152582788041,833
-916.2908324361409,759
-913.5671542984834,828
-910.8442236973568,791
-908.1220404642074,848
-905.4006044304027,808
-902.679915427231,810
-899.959973285902,801
-897.2407778375464,802
-894.5223289132158,769
-891.8046263438832,771
-889.0876699604426,770
-886.3714595937089,765
-883.6559950744183,756
-880.9412762332282,722
-878.2273029007168,752
-875.5140749073835,764
-872.8015920836489,709
-870.0898542598545,726
-867.3788612662631,728
-864.6686129330585,754
-861.9591090903457,744
-859.2503495681506,735
-856.5423341964203,724
-853.8350628050229,739
-851.1285352237478,755
-848.4227512823054,749
-845.7177108103272,725
-843.0134136373656,711
-840.3098595928943,712
-837.6070485063082,735
-834.9049802069229,750
-832.2036545239757,704
-829.5030712866244,787
-826.8032303239481,703
-824.1041314649472,712
-821.4057745385428,754
-818.7081593735775,739
-816.0112857988148,736
-813.3151536429393,717
-810.6197627345566,772
-807.9251129021936,719
-805.2312039742981,720
-802.5380357792392,714
-799.8456081453069,746
-797.1539209007124,696
-794.462973873588,721
-791.772766891987,773
-789.083299783884,737
-786.3945723771743,743
-783.7065844996748,746
-781.0193359791231,800
-778.3328266431781,714
-775.6470563194197,768
-772.9620248353489,752
-770.2777320183878,744
-767.5941776958798,751
-764.9113616950891,769
-762.2292838432011,735
-759.5479439673222,737
-756.8673418944801,732
-754.1874774516235,765
-751.5083504656222,754
-748.8299607632671,766
-746.15230817127,715
-743.475392516264,779
-740.7992136248035,759
-738.1237713233636,742
-735.4490654383407,788
-732.7750957960521,752
-730.1018622227365,733
-727.4293645445534,757
-724.7576025875837,795
-722.0865761778291,803
-719.4162851412126,770
-716.7467293035781,774
-714.0779084906909,845
-711.409822528237,792
-708.7424712418238,793
-706.0758544569796,813
-703.4099719991541,813
-700.7448236937178,855
-698.0804093659622,828
-695.4167288411002,847
-692.7537819442656,824
-690.0915685005134,830
-687.4300883348199,791
-684.7693412720819,834
-682.1093271371178,851
-679.4500457546669,797
-676.7914969493897,803
-674.1336805458676,811
-671.4765963686034,844
-668.8202442420206,863
-666.1646239904642,814
-663.5097354382001,811
-660.8555784094151,847
-658.2021527282176,841
-655.5494582186366,844
-652.8974947046223,871
-650.2462620100463,863
-647.5957599587009,897
-644.9459883742998,904
-642.2969470804776,937
-639.6486359007902,934
-637.0010546587141,936
-634.3542031776476,911
-631.7080812809096,904
-629.0626887917401,862
-626.4180255333008,898
-623.7740913286734,861
-621.1308860008619,806
-618.4884093727904,884
-615.8466612673046,838
-613.2056415071715,857
-610.5653499150785,864
-607.9257863136347,834
-605.28695052537,869
-602.6488423727357,868
-600.0114616781036,846
-597.3748082637674,856
-594.7388819519412,857
-592.1036825647604,902
-589.4692099242818,862
-586.8354638524829,883
-584.2024441712624,875
-581.5701507024403,859
-578.9385832677575,858
-576.3077416888759,818
-573.6776257873787,880
-571.0482353847704,857
-568.4195703024757,936
-565.7916303618415,916
-563.164415384135,898
-560.5379251905453,910
-557.9121596021815,857
-555.2871184400748,826
-552.6628015251767,914
-550.0392086783606,890
-547.4163397204204,885
-544.794194472071,898
-542.1727727539491,867
-539.5520743866118,895
-536.9320991905377,922
-534.3128469861261,969
-531.6943175936979,953
-529.0765108334947,1027
-526.4594265256793,1083
-523.8430644903358,1283
-521.2274245474689,1339
-518.612506517005,1458
-515.9983102187913,1524
-513.3848354725959,1626
-510.77208209810846,1732
-508.16004991493924,1722
-505.5487387426199,1846
-502.9381484006032,1979
-500.3282787082628,2122
-497.71912948489364,2249
-495.1107005497117,2133
-492.5029917218539,2076
-489.8960028203786,1895
-487.28973366426493,1664
-484.68418407241325,1535
-482.07935386364494,1363
-479.47524285670266,1232
-476.87185087025,1244
-474.2691777228715,1262
-471.66722323307334,1243
-469.0659872192821,1210
-466.4654694998459,1106
-463.86566989303384,1139
-461.26658821703614,1123
-458.66822428996414,1129
-456.07057792985,1170
-453.4736489546475,1112
-450.877437182231,1128
-448.28194243039627,1133
-445.68716451686,1101
-443.09310325926003,1016
-440.49975847515555,1055
-437.9071299820263,1025
-435.31521759727354,1101
-432.72402113821954,1098
-430.13354042210767,1167
-427.5437752661022,1137
-424.95472548728867,1111
-422.36639090267386,1214
-419.7787713291855,1156
-417.1918665836721,1104
-414.60567648290385,1154
-412.0202008435715,1201
-409.4354394822874,1156
-406.8513922155845,1204
-404.26805885991723,1178
-401.685439231661,1211
-399.103533147112,1202
-396.522340422488,1163
-393.9418608739278,1179
-391.3620943174908,1135
-388.7830405691583,1121
-386.2046994448317,1083
-383.6270707603344,1048
-381.05015433141045,970
-378.473949973725,864
-375.8984575028645,798
-373.32367673433623,804
-370.74960748356875,779
-368.1762495659117,702
-365.60360279663576,594
-363.03166699093265,624
-360.4604419639154,578
-357.8899275306178,530
-355.32012350599507,555
-352.7510297049233,539
-350.1826459421999,525
-347.61497203254316,561
-345.04800779059235,474
-342.4817530309082,491
-339.91620756797226,538
-337.35137121618743,533
-334.7872437898774,550
-332.22382510328725,543
-329.66111497058273,552
-327.09911320585127,558
-324.53781962310075,583
-321.9772340362607,560
-319.4173562591816,536
-316.8581861056348,564
-314.2997233893127,572
-311.7419679238294,598
-309.1849195227194,589
-306.62857799943856,546
-304.0729431673641,538
-301.51801483979375,546
-298.963792829947,567
-296.41027695096386,565
-293.85746701590574,594
-291.3053628377552,617
-288.7539642294155,686
-286.2032710037115,635
-283.65328297338897,547
-281.1039999511146,629
-278.5554217494762,690
-276.007548180983,641
-273.4603790580651,602
-270.9139141930734,594
-268.3681533982807,690
-265.8230964858798,718
-263.27874326798565,684
-260.7350935566336,640
-258.1921471637804,676
-255.6499039013039,675
-253.10836358100266,625
-250.56752601459698,659
-248.02739101372765,806
-245.48795838995704,854
-242.94922795476816,838
-240.41119951956557,817
-237.8738728956746,798
-235.33724789434166,806
-232.80132432673452,918
-230.2661020039418,850
-227.73158073697357,765
-225.19776033676033,728
-222.66464061415422,762
-220.1322213799284,769
-217.60050244477725,764
-215.06948361931552,802
-212.53916471408013,904
-210.00954553952818,796
-207.48062590603843,806
-204.9524056239104,845
-202.4248845033651,837
-199.8980623545441,849
-197.37193898751036,783
-194.84651421224817,827
-192.32178783866232,911
-189.79775967657952,869
-187.27442953574644,927
-184.7517972258321,832
-182.2298625564256,806
-179.7086253370378,814
-177.18808537710026,826
-174.66824248596583,875
-172.14909647290835,1044
-169.6306471471229,953
-167.11289431772548,911
-164.59583779375328,941
-162.07947738416453,985
-159.5638128978386,1018
-157.04884414357605,998
-154.53457093009854,1050
-152.02099306604828,1099
-149.50811035998936,1052
-146.99592262040665,1030
-144.48442965570587,1034
-141.97363127421409,1181
-139.46352728417958,1214
-136.95411749377126,1106
-134.44540171107985,1176
-131.93737974411636,1331
-129.43005140081357,1375
-126.92341648902493,1450
-124.41747481652521,1437
-121.91222619101006,1305
-119.40767042009657,1230
-116.90380731132257,1366
-114.40063667214702,1491
-111.8981583099503,1491
-109.3963720320337,1568
-106.89527764561933,1720
-104.39487495785067,1773
-101.89516377579241,1645
-99.39614390642998,1665
-96.89781515667039,1653
-94.40017733334128,2043
-91.90323024319173,1934
-89.40697369289148,1848
-86.91140748903172,1817
-84.41653143812482,1806
-81.92234534660395,1965
-79.42884902082358,2261
-76.93604226705907,2500
-74.4439248915071,2201
-71.95249670028534,2121
-69.46175749943245,2368
-66.97170709490854,2848
-64.48234529259423,3309
-61.99367189829195,2650
-59.50568671772464,2554
-57.01838955653636,2989
-54.53178022029283,3139
-52.045858514480074,3142
-49.560624244506016,3140
-47.07607721569923,3009
-44.59221723330904,3140
-42.10904410250669,3258
-39.62655762838392,3955
-37.14475761595372,5281
-34.66364387015028,6216
-32.18321619582866,6589
-29.70347439776515,7871
-27.224418280657005,9897
-24.74604764912317,15022
-22.26836230770266,26910
-19.7913620608565,46902
-17.315046712966478,58571
-14.83941606833514,63525
-12.36446993118659,65030
-9.89020810566592,65030
-7.416630395839093,65030
-4.94373660569363,65030
-2.471526539137585,65030
-6.821210263296962E-13,65030
2.47084320796705,65030
4.941003281093458,65030
7.410480415786196,65030
9.879274808531363,65030
12.347386655893956,65030
14.814816154518212,65030
17.28156350112681,65030
19.74762889252179,65030
22.21301252558385,65030
24.67771459727237,65030
27.141735304626195,32175
29.605074844762612,14648
32.06773341487792,8956
34.52971121224755,7621
36.99100843422559,7720
39.45162527824516,7945
41.91156194181792,7518
44.370818622535126,8083
46.82939551806646,10738
49.287292826160524,15166
51.74451074464503,14975
54.201049471426245,11456
56.65690920448981,8958
59.112090141899785,6577
61.56659248179983,4361
64.02041642241159,3749
66.4735621620365,3858
68.92602989905402,2836
71.37781983192338,2518
73.82893215918205,2981
76.27936707944684,3074
78.72912479141326,2563
81.17820549385567,2292
83.62660938562783,2141
86.07433666566146,2067
88.5213875329681,2250
90.96776218663751,2137
93.41346082583925,2124
95.85848364982041,2374
98.30283085790859,2124
100.7465026495089,2061
103.18949922410604,1958
105.63182078126385,1785
108.07346752062438,2202
110.51443964190923,1978
112.95473734491827,1635
115.39436082953114,1488
117.83331029570547,1561
120.27158594347827,1841
122.7091879729652,1748
125.1461165843615,1477
127.58237197794062,1649
130.01795435405518,1408
132.4528639131364,1348
134.88710085569494,1475
137.32066538231982,1566
139.75355769367923,1530
142.1857779905207,1599
144.61732647366978,1603
147.04820334403132,1618
149.47840880258934,1666
151.90794305040674,1746
154.33680628862487,1811
156.76499871846443,1760
159.19252054122433,1885
161.61937195828352,2168
164.04555317109896,2190
166.47106438120693,2278
168.89590579022217,2678
171.320077599839,2807
173.7435800118302,2970
176.16641322804742,2935
178.58857745042144,2938
181.01007288096173,3129
183.43089972175687,3108
185.85105817497413,3120
188.27054844285988,3207
190.6893707277394,3059
193.10752523201643,3284
195.5250121581745,3483
197.9418317087751,3466
200.3579840864594,3401
202.7734694939469,3434
205.18828813403627,3357
207.6024402096051,3349
210.01592592360964,3386
212.42874547908548,3324
214.84089907914665,3237
217.2523869269868,3197
219.66320922587727,3243
222.0733661791695,3326
224.48285799029293,3186
226.8916848627572,3198
229.29984700014882,3247
231.7073446061355,3384
234.11417788446204,3414
236.520347038953,3585
238.92585227351185,3602
241.33069379212054,3600
243.73487179884035,3658
246.1383864978112,3570
248.541238093252,3530
250.9434267894609,3594
253.34495279081432,3633
255.74581630176783,3581
258.1460175268563,3555
260.54555667069314,3815
262.9444339379703,3652
265.3426495334594,3612
267.7402036620107,3520
270.1370965285529,3348
272.53332833809407,3203
274.9288992957214,3120
277.32380960660055,3048
279.718059475976,3000
282.1116491091717,2951
284.5045787115897,3012
286.89684848871195,3003
289.2884586460981,3034
291.67940938938807,2926
294.0697009242996,2850
296.4593334566299,2951
298.84830719225477,2910
301.23662233712923,2961
303.6242790972866,2865
306.01127767884,2967
308.39761828798066,2928
310.78330113097934,2891
313.16832641418534,2782
315.5526943440269,2692
317.9364051270112,2722
320.3194589697242,2677
322.70185607883093,2629
325.0835966610754,2600
327.4646809232805,2423
329.8451090723478,2607
332.2248813152577,2683
334.6039978590701,2549
336.9824589109231,2479
339.36026467803447,2480
341.7374153677,2572
344.113911187295,2488
346.48975234427337,2464
348.8649390461686,2413
351.2394715005918,2270
353.61334991523415,2477
355.9865744978655,2364
358.35914545633375,2462
360.73106299856715,2400
363.10232733257146,2402
365.47293866643247,2380
367.84289720831396,2335
370.2122031664593,2382
372.5808567491905,2330
374.9488581649083,2334
377.31620762209275,2310
379.6829053293021,2278
382.0489514951745,2250
384.4143463284262,2238
386.7790900378528,2186
389.14318283232853,2344
391.50662492080653,2247
393.86941651231916,2163
396.23155781597745,2176
398.5930490409713,2253
400.9538903965696,2184
403.3140820921202,2241
405.6736243370498,2272
408.03251734086336,2208
410.3907613131465,2312
412.74835646356166,2215
415.10530300185144,2226
417.4616011378372,2233
419.81725108141893,2217
422.1722530425758,2189
424.5266072313656,2271
426.880313857925,2152
429.2333731324701,2138
431.58578526529516,2101
433.9375504667738,2152
436.2886689473588,2174
438.63914091758113,2131
440.9889665880513,2119
443.33814616945835,2122
445.68667987257015,2171
448.03456790823395,2115
450.3818104873759,2107
452.72840782100013,2109
455.07436012019105,2022
457.41966759611057,2136
459.7643304600007,2080
462.10834892318155,2142
464.4517231970525,2214
466.79445349309174,2116
469.1365400228566,2139
471.4779829979826,2229
473.81878263018564,2197
476.15893913125876,2158
478.4984527130747,2223
480.8373235875855,2311
483.17555196682144,2356
485.5131380628919,2429
487.8500820879857,2530
490.1863842543697,2572
492.52204477439034,2828
494.8570638604725,3108
497.1914417251204,3364
499.52517858091653,3639
501.85827464052306,3744
504.19073011668036,3777
506.5225452222086,3771
508.85372017000566,3674
511.18425517304956,3607
513.514150444396,3935
515.8434061971808,4499
518.1720226446176,5007
520.4999999999999,5433
522.8273384766991,5742
525.1540382881666,5815
527.480099647932,5580
529.8055227696037,4455
532.1303078668694,3120
534.454455153496,2469
536.777964843328,2229
539.1008371502907,2096
541.4230722883866,2096
543.744670471698,2066
546.0656319143858,2051
548.3859568306899,1980
550.7056454349294,1969
553.0246979415016,1960
555.3431145648834,1965
557.6608955196306,1888
559.978041020377,1965
562.2945512818363,1971
564.6104265188006,1930
566.9256669461412,1932
569.2402727788082,1959
571.5542442318302,1958
573.8675815203156,1928
576.1802848594508,1909
578.4923544645015,1924
580.8037905508126,1965
583.114593333807,1946
585.4247630289875,1854
587.7342998519354,1921
590.0432040183106,1887
592.3514757438526,1816
594.6591152443794,1880
596.9661227357875,1960
599.2724984340531,1893
601.578242555231,1840
603.8833553154542,1900
606.1878369309362,1908
608.4916876179676,1944
610.7949075929192,1906
613.0974970722403,1957
615.3994562724587,1860
617.7007854101818,1940
620.0014847020951,1925
622.3015543649641,1874
624.6009946156324,1901
626.8998056710224,1938
629.1979877481361,1963
631.4955410640538,1989
633.7924658359349,1990
636.0887622810175,1957
638.3844306166192,1904
640.6794710601358,2040
642.9738838290426,1992
645.2676691408932,1947
647.5608272133207,2028
649.853358264037,1997
652.1452625108324,1965
654.4365401715764,2049
656.7271914642178,2071
659.0172166067838,2054
661.3066158173809,1956
663.5953893141935,1956
665.8835373154867,2024
668.1710600396028,2035
670.4579577049639,2050
672.7442305300709,2042
675.0298787335033,2045
677.3149025339197,2035
679.599302150058,2067
681.8830778007342,2049
684.1662297048437,2019
686.4487580813608,2010
688.7306631493387,1974
691.0119451279091,1983
693.2926042362834,1986
695.5726406937516,1963
697.8520547196814,2013
700.1308465335215,1936
702.4090163547982,2023
704.6865644031171,2029
706.9634908981619,2031
709.2397960596965,1980
711.5154801075631,1998
713.7905432616823,1966
716.0649857420548,2020
718.3388077687592,2010
720.612009561953,2003
722.8845913418733,2042
725.1565533288352,2016
727.427895743234,1952
729.6986188055427,2025
731.9687227363137,1976
734.238207756178,1968
736.5070740858458,1993
738.7753219461066,1900
741.0429515578281,1933
743.3099631419569,1954
745.5763569195191,2018
747.8421331116193,1953
750.1072919394409,1942
752.3718336242467,1946
754.6357583873777,1963
756.8990664502545,1923
759.1617580343765,1941
761.423833361321,1947
763.6852926527457,1918
765.9461361303862,1976
768.206364016058,1943
770.4659765316536,2025
772.7249738991469,1948
774.9833563405886,1987
777.2411240781092,2068
779.4982773339183,2010
781.7548163303044,2015
784.010741289634,1998
786.2660524343538,2067
788.5207499869881,2008
790.7748341701416,1983
793.0283052064964,1961
795.2811633188143,2036
797.5334087299362,1976
799.7850416627813,1970
802.0360623403484,2045
804.2864709857143,1985
806.5362678220353,2017
808.7854530725468,2032
811.0340269605625,1991
813.2819897094754,2009
815.5293415427581,2060
817.77608268396,2024
820.0222133567116,1997
822.2677337847211,2022
824.5126441917765,1999
826.7569448017433,2032
829.0006358385675,1983
831.2437175262731,2033
833.4861900889629,2052
835.7280537508192,1995
837.9693087361026,2048
840.2099552691533,2012
842.4499935743896,2010
844.689423876309,2007
846.9282463994886,1913
849.1664613685833,1967
851.4040690083276,2002
853.6410695435349,1979
855.877463199097,1998
858.1132501999847,2001
860.3484307712487,1969
862.5830051380175,2045
864.8169735254988,2012
867.0503361589791,2069
869.2830932638243,2003
871.5152450654786,2076
873.7467917894654,2023
875.9777336613873,1951
878.2080709069252,2095
880.4378037518389,2146
882.666932421968,2047
884.8954571432301,2171
887.1233781416219,2130
889.3506956432192,2108
891.5774098741766,2078
893.803521060728,2058
896.0290294291852,2067
898.2539352059397,2150
900.4782386174619,2166
902.7019398903011,2113
904.925039251085,2088
907.147536926521,2052
909.3694331433943,2065
911.59072812857,2040
913.8114221089921,2068
916.0315153116827,2082
918.2510079637437,2051
920.4699002923547,1952
922.6881925247761,2005
924.905884888345,2042
927.1229776104793,2184
929.3394709186747,2113
931.555365040506,2043
933.7706602036275,2032
935.9853566357709,2067
938.1994545647489,2040
940.4129542184515,2104
942.6258558248488,2088
944.8381596119883,2156
947.0498658079974,2045
949.2609746410825,2002
951.4714863395287,2019
953.6814011316998,1989
955.8907192460387,2018
958.0994409110671,2067
960.3075663553858,2045
962.5150958076741,1998
964.7220294966913,1955
966.928367651274,1962
969.1341105003388,2025
971.3392582728806,1938
973.5438111979742,2010
975.747769504772,1929
977.9511334225061,1930
980.153903180487,1878
982.3560790081052,1970
984.5576611348289,1904
986.7586497902058,1867
988.9590452038618,1960
991.158847605503,1867
993.3580572249133,1816
995.5566742919558,1865
997.7546990365728,1799
999.952131688785,1718
1002.1489724786926,1763
1004.3452216364743,1693
1006.5408793923874,1739
1008.7359459767691,1674
1010.9304216200343,1661
1013.1243065526781,1603
1015.3176010052733,1720
1017.510305208472,1718
1019.7024193930064,1653
1021.8939437896848,1696
1024.0848786293977,1694
1026.2752241431122,1641
1028.4649805618747,1618
1030.6541481168115,1715
1032.842727039127,1578
1035.0307175601051,1598
1037.2181199111074,1667
1039.4049343235752,1614
1041.591161029029,1556
1043.7768002590683,1617
1045.9618522453698,1641
1048.1463172196918,1637
1050.3301954138697,1565
1052.513487059818,1586
1054.69619238953,1572
1056.8783116350783,1571
1059.0598450286152,1571
1061.2407928023704,1636
1063.4211551886528,1592
1065.6009324198508,1596
1067.780124728432,1587
1069.9587323469414,1539
1072.1367555080046,1584
1074.314194444325,1669
1076.4910493886855,1549
1078.667320573947,1520
1080.843008233051,1587
1083.0181125990161,1527
1085.1926339049414,1479
1087.3665723840027,1557
1089.5399282694575,1519
1091.7127017946405,1561
1093.8848931929647,1544
1096.0565026979243,1516
1098.2275305430899,1590
1100.3979769621128,1540
1102.567842188722,1482
1104.737126456726,1458
1106.9058300000124,1470
1109.0739530525475,1522
1111.2414958483764,1532
1113.4084586216231,1484
1115.5748416064907,1492
1117.7406450372605,1522
1119.9058691482942,1460
1122.0705141740304,1521
1124.2345803489884,1487
1126.3980679077658,1467
1128.5609770850388,1425
1130.7233081155623,1461
1132.8850612341707,1436
1135.0462366757774,1417
1137.2068346753745,1431
1139.3668554680326,1501
1141.526299288901,1429
1143.68516637321,1463
1145.8434569562655,1491
1148.001171273455,1443
1150.158309560244,1410
1152.3148720521767,1468
1154.470858984876,1397
1156.626270594044,1431
1158.7811071154629,1442
1160.9353687849912,1481
1163.089055838569,1477
1165.242168512213,1443
1167.3947070420209,1478
1169.5466716641677,1445
1171.6980626149075,1417
1173.8488801305748,1360
1175.9991244475814,1454
1178.1487958024186,1469
1180.2978944316555,1440
1182.4464205719428,1478
1184.5943744600072,1448
1186.7417563326567,1454
1188.8885664267755,1379
1191.0348049793297,1448
1193.1804722273619,1419
1195.325568407995,1494
1197.4700937584303,1454
1199.614048515948,1466
1201.7574329179074,1441
1203.900247201746,1441
1206.042491604982,1421
1208.1841663652099,1473
1210.3252717201053,1476
1212.465807907422,1425
1214.6057751649923,1431
1216.7451737307279,1429
1218.8840038426192,1472
1221.0222657387353,1425
1223.1599596572241,1428
1225.2970858363137,1449
1227.4336445143094,1418
1229.5696359295966,1454
1231.705060320639,1456
1233.8399179259786,1424
1235.9742089842384,1456
1238.107933734118,1464
1240.2410924143974,1478
1242.373685263935,1449
1244.5057125216676,1471
1246.6371744266116,1477
1248.7680712178621,1377
1250.898403134593,1496
1253.028170416058,1503
1255.1573733015875,1421
1257.2860120305932,1488
1259.4140868425648,1470
1261.54159797707,1488
1263.6685456737569,1461
1265.7949301723515,1457
1267.9207517126597,1466
1270.046010534565,1498
1272.1707068780306,1423
1274.2948409830983,1486
1276.4184130898889,1491
1278.541423438603,1525
1280.6638722695184,1458
1282.785759822993,1498
1284.9070863394636,1510
1287.0278520594447,1571
1289.1480572235314,1498
1291.2677020723963,1551
1293.3867868467923,1578
1295.5053117875495,1544
1297.623277135579,1560
1299.740683131868,1618
1301.8575300174857,1568
1303.973818033578,1585
1306.0895474213703,1608
1308.2047184221678,1652
1310.3193312773528,1592
1312.4333862283888,1559
1314.5468835168163,1636
1316.659823384255,1659
1318.7722060724045,1589
1320.8840318230418,1608
1322.9953008780249,1572
1325.1060134792888,1554
1327.2161698688478,1596
1329.3257702887959,1587
1331.4348149813054,1621
1333.5433041886276,1626
1335.6512381530933,1568
1337.7586171171101,1581
1339.8654413231675,1588
1341.9717110138317,1604
1344.0774264317488,1647
1346.1825878196432,1560
1348.2871954203192,1562
1350.3912494766587,1653
1352.4947502316231,1555
1354.5976979282532,1572
1356.7000928096686,1623
1358.8019351190665,1563
1360.9032250997243,1586
1363.0039629949988,1530
1365.1041490483235,1569
1367.2037835032133,1560
1369.3028666032606,1560
1371.401398592137,1668
1373.4993797135926,1590
1375.5968102114575,1645
1377.6936903296396,1660
1379.7900203121262,1567
1381.8858004029835,1578
1383.9810308463561,1632
1386.075711886469,1597
1388.1698437676241,1647
1390.2634267342032,1617
1392.356461030667,1591
1394.4489469015557,1622
1396.5408845914872,1630
1398.6322743451592,1696
1400.7231164073469,1703
1402.813411022907,1716
1404.903158436773,1649
1406.9923588939578,1712
1409.0810126395531,1666
1411.1691199187303,1732
1413.2566809767386,1694
1415.343696058907,1635
1417.4301654106425,1749
1419.5160892774315,1705
1421.6014679048399,1701
1423.6863015385125,1742
1425.7705904241707,1800
1427.8543348076178,1706
1429.9375349347342,1688
1432.0201910514802,1764
1434.102303403894,1788
1436.1838722380944,1777
1438.2648978002767,1787
1440.3453803367174,1782
1442.4253200937692,1880
1444.5047173178677,1879
1446.5835722555234,1834
1448.6618851533285,1951
1450.739656257952,2004
1452.8168858161434,1900
1454.8935740747306,2030
1456.96972128062,2049
1459.045327680797,2081
1461.120393522327,2125
1463.1949190523528,2178
1465.2689045180973,2148
1467.3423501668608,2207
1469.415256246024,2164
1471.4876230030463,2280
1473.559450685465,2371
1475.6307395408976,2324
1477.7014898170391,2378
1479.771701761665,2376
1481.8413756226287,2397
1483.9105116478618,2444
1485.9791100853772,2511
1488.0471711832643,2579
1490.1146951896926,2602
1492.1816823529098,2594
1494.2481329212433,2646
1496.3140471430984,2823
1498.3794252669609,2775
1500.4442675413939,2816
1502.5085742150404,2840
1504.572345536622,2875
1506.6355817549388,2940
1508.6982831188702,2957
1510.7604498773744,3029
1512.8220822794883,2930
1514.8831805743293,3012
1516.9437450110909,3023
1519.003775839048,3120
1521.0632733075522,3106
1523.1222376660367,3177
1525.1806691640113,3245
1527.2385680510652,3278
1529.2959345768668,3301
1531.3527689911643,3406
1533.4090715437833,3520
1535.4648424846291,3598
1537.5200820636855,3526
1539.5747905310159,3544
1541.6289681367616,3666
1543.6826151311434,3659
1545.7357317644614,3691
1547.7883182870937,3740
1549.8403749494987,3931
1551.8919020022113,3952
1553.9428996958477,3945
1555.9933682811015,4016
1558.0433080087469,4136
1560.0927191296346,4307
1562.1416018946961,4260
1564.1899565549415,4346
1566.2377833614592,4236
1568.2850825654164,4181
1570.3318544180606,4097
1572.3780991707158,4015
1574.423817074788,3794
1576.4690083817595,3618
1578.5136733431923,3440
1580.5578122107272,3297
1582.601425236085,3186
1584.6445126710646,2959
1586.6870747675434,2828
1588.7291117774776,2694
1590.7706239529034,2597
1592.8116115459347,2509
1594.8520748087658,2306
1596.8920139936686,2301
1598.9314293529933,2249
1600.9703211391711,2138
1603.008689604711,2024
1605.0465350022005,2008
1607.0838575843068,2007
1609.1206576037753,1942
1611.1569353134305,1885
1613.1926909661765,1822
1615.2279248149953,1834
1617.2626371129481,1809
1619.2968281131757,1829
1621.3304980688963,1748
1623.3636472334088,1806
1625.39627586009,1698
1627.428384202396,1713
1629.459972513861,1711
1631.4910410480993,1670
1633.5215900588028,1614
1635.551619799744,1654
1637.5811305247717,1631
1639.6101224878166,1634
1641.6385959428862,1616
1643.6665511440683,1593
1645.693988345528,1574
1647.7209078015112,1616
1649.7473097663405,1625
1651.7731944944203,1564
1653.7985622402307,1510
1655.823413258333,1503
1657.847747803366,1521
1659.8715661300494,1518
1661.8948684931793,1524
1663.9176551476316,1555
1665.9399263483624,1510
1667.9616823504057,1521
1669.982923408873,1575
1672.0036497789574,1543
1674.0238617159293,1521
1676.043559475138,1531
1678.0627433120121,1574
1680.081413482059,1505
1682.0995702408654,1453
1684.117213844096,1530
1686.134344547495,1495
1688.1509626068864,1527
1690.1670682781705,1463
1692.182661817329,1527
1694.1977434804217,1466
1696.2123135235875,1510
1698.226372203043,1493
1700.2399197750851,1507
1702.2529564960905,1477
1704.2654826225112,1513
1706.277498410882,1509
1708.2890041178139,1502
1710.2999999999988,1559
1712.3104863142066,1495
1714.3204633172854,1490
1716.329931266163,1488
1718.3388904178469,1449
1720.3473410294214,1461
1722.3552833580516,1424
1724.3627176609807,1442
1726.3696441955308,1463
1728.3760632191033,1463
1730.3819749891782,1469
1732.3873797633146,1481
1734.3922777991502,1465
1736.3966693544012,1419
1738.4005546868639,1410
1740.4039340544127,1436
1742.406807715001,1483
1744.4091759266616,1441
1746.4110389475054,1431
1748.4123970357223,1385
1750.413250449582,1365
1752.4135994474318,1414
1754.4134442876993,1371
1756.4127852288902,1451
1758.4116225295893,1405
1760.4099564484595,1427
1762.407787244244,1340
1764.405115175764,1414
1766.4019405019203,1418
1768.3982634816916,1393
1770.3940843741357,1380
1772.3894034383907,1361
1774.3842209336717,1403
1776.378537119274,1406
1778.372352254571,1442
1780.3656665990156,1399
1782.3584804121397,1330
1784.3507939535534,1374
1786.3426074829463,1338
1788.3339212600863,1373
1790.3247355448211,1372
1792.3150505970766,1356
1794.3048666768573,1339
1796.2941840442477,1348
1798.2830029594106,1387
1800.2713236825884,1343
1802.2591464741004,1376
1804.2464715943465,1318
1806.2332993038058,1414
1808.2196298630352,1312
1810.2054635326708,1334
1812.190800573428,1357
1814.175641246101,1329
1816.1599858115628,1318
1818.1438345307652,1325
1820.127187664738,1340
1822.1100454745924,1310
1824.092408221516,1378
1826.0742761667766,1350
1828.055649571721,1373
1830.0365286977735,1365
1832.0169138064398,1341
1833.9968051593014,1334
1835.9762030180214,1299
1837.9551076443408,1358
1839.9335193000788,1331
1841.9114382471344,1376
1843.888864747485,1317
1845.8657990631878,1294
1847.842241456378,1337
1849.8181921892697,1320
1851.7936515241558,1358
1853.7686197234098,1335
1855.7430970494815,1333
1857.7170837649014,1343
1859.6905801322787,1270
1861.6635864143004,1245
1863.6361028737338,1302
1865.608129773424,1355
1867.5796673762961,1354
1869.5507159453537,1378
1871.521275743678,1376
1873.4913470344313,1341
1875.4609300808534,1339
1877.4300251462632,1340
1879.3986324940588,1354
1881.366752387717,1314
1883.3343850907936,1324
1885.3015308669228,1341
1887.268189979819,1285
1889.2343626932739,1375
1891.2000492711595,1357
1893.1652499774254,1379
1895.1299650761011,1384
1897.0941948312952,1382
1899.0579395071945,1357
1901.0211993680641,1346
1902.98397467825,1329
1904.9462657021745,1332
1906.9080727043415,1409
1908.869395949332,1371
1910.8302357018065,1353
1912.790592226504,1344
1914.7504657882428,1375
1916.7098566519212,1340
1918.6687650825133,1427
1920.6271913450764,1385
1922.5851357047422,1384
1924.5425984267245,1388
1926.499579776314,1334
1928.4560800188833,1412
1930.4120994198802,1393
1932.367638244833,1263
1934.32269675935,1364
1936.2772752291175,1338
1938.231373919899,1362
1940.1849930975404,1372
1942.1381330279637,1387
1944.0907939771696,1339
1946.0429762112412,1326
1947.9946799963363,1352
1949.9459055986945,1289
1951.896653284633,1291
1953.8469233205478,1294
1955.7967159729142,1365
1957.7460315082863,1350
1959.6948701932974,1379
1961.6432322946594,1323
1963.5911180791632,1321
1965.5385278136787,1339
1967.4854617651545,1338
1969.4319202006182,1300
1971.377903387176,1314
1973.3234115920136,1331
1975.268445082395,1335
1977.2130041256642,1342
1979.1570889892423,1325
1981.1006999406304,1356
1983.04383724741,1320
1984.986501177238,1312
1986.928691997853,1327
1988.8704099770712,1296
1990.811655382789,1316
1992.7524284829801,1273
1994.692729545698,1268
1996.6325588390755,1265
1998.5719166313224,1281
2000.5108031907307,1308
2002.4492187856677,1308
2004.387163684583,1353
2006.3246381560011,1314
2008.2616424685298,1303
2010.1981768908527,1298
2012.1342416917332,1281
2014.069837140014,1294
2016.0049635046162,1348
2017.9396210545406,1291
2019.8738100588666,1312
2021.8075307867502,1280
2023.740783507431,1342
2025.6735684902228,1295
2027.6058860045214,1294
2029.5377363198004,1315
2031.4691197056118,1335
2033.4000364315875,1305
2035.3304867674374,1288
2037.260470982952,1327
2039.189989347998,1287
2041.1190421325232,1248
2043.047629606554,1279
2044.9757520401945,1291
2046.9034097036288,1269
2048.8306028671195,1334
2050.7573318010086,1265
2052.683596775716,1297
2054.609398061742,1276
2056.5347359296647,1297
2058.4596106501403,1312
2060.384022493906,1256
2062.3079717317764,1314
2064.231458634646,1333
2066.1544834734873,1311
2068.077046519352,1308
2069.99914804337,1284
2071.9207883167524,1293
2073.8419676107865,1295
2075.7626861968406,1261
2077.6829443463607,1324
2079.6027423308715,1306
2081.522080421977,1266
2083.440958891362,1350
2085.359378010786,1257
2087.2773380520907,1322
2089.194839287196,1286
2091.111881988101,1246
2093.0284664268825,1303
2094.9445928756973,1251
2096.86026160678,1266
2098.775472892446,1271
2100.690227005088,1270
2102.604524217178,1287
2104.5183648012676,1261
2106.431749029985,1268
2108.34467717604,1257
2110.2571495122206,1283
2112.169166311393,1310
2114.080727846503,1278
2115.9918343905747,1248
2117.902486216711,1313
2119.8126835980956,1305
2121.722426807987,1328
2123.6317161197285,1344
2125.5405518067364,1290
2127.448934142509,1311
2129.356863400624,1294
2131.264339854737,1325
2133.1713637785815,1285
2135.077935445972,1228
2136.9840551308002,1294
2138.889723107037,1248
2140.7949396487334,1291
2142.699705030018,1275
2144.6040195250994,1306
2146.507883408264,1319
2148.4112969538774,1302
2150.3142604363848,1332
2152.2167741303097,1257
2154.1188383102535,1280
2156.0204532508997,1292
2157.9216192270064,1289
2159.822336513414,1314
2161.7226053850413,1316
2163.622426116884,1289
2165.5217989840185,1292
2167.4207242616,1313
2169.319202224862,1289
2171.2172331491165,1283
2173.1148173097563,1268
2175.0119549822507,1312
2176.90864644215,1294
2178.8048919650823,1274
2180.7006918267534,1361
2182.596046302952,1298
2184.4909556695407,1313
2186.3854202024645,1297
2188.279440177746,1272
2190.173015871487,1354
2192.066147559868,1322
2193.958835519149,1328
2195.851080025667,1328
2197.7428813558417,1311
2199.6342397861667,1346
2201.5251555932186,1299
2203.415629053651,1302
2205.3056604441986,1303
2207.19525004167,1333
2209.084398122958,1293
2210.9731049650327,1306
2212.861370844941,1322
2214.749196039812,1308
2216.636580826851,1311
2218.523525483344,1351
2220.410030286655,1365
2222.296095514226,1324
2224.1817214435805,1282
2226.066908352319,1287
2227.951656518121,1276
2229.835966218746,1319
2231.71983773203,1358
2233.6032713358913,1256
2235.486267308324,1263
2237.3688259274036,1326
2239.2509474712824,1330
2241.132632218193,1305
2243.013880446447,1328
2244.8946924344323,1335
2246.7750684606203,1348
2248.6550088035574,1322
2250.534513741871,1278
2252.413583554265,1261
2254.292218519526,1299
2256.170418916517,1320
2258.0481850241786,1334
2259.925517121534,1277
2261.8024154876825,1279
2263.678880401803,1307
2265.5549121431536,1292
2267.430510991071,1297
2269.305677224971,1349
2271.180411124348,1290
2273.0547129687766,1272
2274.9285830379076,1330
2276.8020216114737,1290
2278.6750289692845,1293
2280.5476053912294,1281
2282.4197511572766,1273
2284.2914665474727,1327
2286.162751841943,1300
2288.0336073208937,1283
2289.904033264608,1359
2291.774029953448,1289
2293.6435976678554,1324
2295.5127366883517,1273
2297.381447295534,1318
2299.2497297700825,1339
2301.1175843927526,1252
2302.9850114443825,1284
2304.852011205885,1312
2306.7185839582553,1290
2308.5847299825664,1319
2310.4504495599676,1257
2312.3157429716925,1278
2314.1806104990483,1311
2316.0450524234247,1342
2317.9090690262888,1321
2319.772660589186,1299
2321.635827393742,1336
2323.498569721661,1283
2325.3608878547248,1350
2327.2227820747967,1370
2329.0842526638157,1355
2330.945299903803,1308
2332.805924076857,1346
2334.6661254651535,1319
2336.525904350951,1327
2338.3852610165827,1324
2340.244195744464,1365
2342.102708817088,1366
2343.9608005170253,1304
2345.8184711269287,1350
2347.675720929526,1349
2349.532550207628,1306
2351.38895924412,1278
2353.24494832197,1366
2355.100517724223,1322
2356.955667734004,1318
2358.810398634514,1335
2360.664710709037,1356
2362.5186042409337,1367
2364.3720795136437,1398
2366.225136810686,1292
2368.0777764156583,1325
2369.929998612237,1341
2371.7818036841777,1353
2373.633191915315,1326
2375.484163589562,1361
2377.3347189909114,1339
2379.184858403434,1387
2381.03458211128,1428
2382.8838903986775,1323
2384.732783549936,1365
2386.5812618494406,1342
2388.4293255816588,1361
2390.2769750311327,1346
2392.1242104824883,1349
2393.971032220427,1306
2395.8174405297295,1401
2397.6634356952563,1357
2399.509018001947,1383
2401.3541877348193,1369
2403.1989451789705,1338
2405.043290619576,1378
2406.8872243418905,1373
2408.730746631247,1410
2410.5738577730594,1397
2412.4165580528183,1349
2414.258847756095,1371
2416.100727168537,1347
2417.9421965758734,1378
2419.783256263912,1374
2421.623906518538,1395
2423.4641476257157,1390
2425.303979871491,1406
2427.143403541984,1394
2428.9824189233977,1399
2430.821026302012,1395
2432.6592259641866,1432
2434.497018196361,1414
2436.33440328505,1422
2438.171381516851,1350
2440.00795317844,1366
2441.844118556569,1433
2443.6798779380724,1360
2445.5152316098606,1387
2447.3501798589255,1380
2449.1847229723357,1388
2451.0188612372403,1378
2452.8525949408663,1391
2454.6859243705203,1389
2456.518849813587,1425
2458.3513715575314,1358
2460.183489889895,1360
2462.015205098301,1371
2463.8465174704493,1348
2465.67742729412,1382
2467.5079348571717,1401
2469.338040447542,1377
2471.1677443532476,1394
2472.9970468623833,1411
2474.825948263123,1339
2476.6544488437207,1344
2478.482548892508,1403
2480.310248697896,1354
2482.137548548374,1392
2483.9644487325118,1460
2485.790949538956,1368
2487.617051256433,1378
2489.44275417375,1430
2491.26805857979,1520
2493.0929647635157,1394
2494.917473013971,1390
2496.741583620276,1424
2498.5652968716304,1381
2500.3886130573137,1442
2502.2115324666834,1455
2504.0340553891765,1423
2505.856182114308,1422
2507.6779129316733,1450
2509.499248130945,1439
2511.3201880018764,1446
2513.140732834298,1462
2514.9608829181198,1440
2516.780638543331,1415
2518.6,1456
2520.418967578273,1485
2522.237541568376,1479
2524.0557222606144,1454
2525.8735099453706,1396
2527.6909049131086,1493
2529.507907454368,1456
2531.32451785977,1486
2533.140736420014,1491
2534.9565634258774,1477
2536.771999168218,1531
2538.5870439379714,1494
2540.4016980261526,1479
2542.2159617238544,1547
2544.02983532225,1544
2545.8433191125914,1557
2547.656413386209,1489
2549.4691184345115,1489
2551.2814345489874,1531
2553.093362021204,1562
2554.904901142808,1531
2556.716052205523,1551
2558.526815501153,1549
2560.3371913215824,1585
2562.147179958771,1619
2563.956781704761,1615
2565.7659968516705,1601
2567.5748256916986,1642
2569.3832685171224,1610
2571.1913256202984,1653
2572.9989972936614,1660
2574.806283829725,1684
2576.613185521084,1676
2578.4197026604074,1627
2580.2258355404483,1656
2582.031584454035,1645
2583.836949694077,1713
2585.6419315535613,1698
2587.4465303255533,1679
2589.2507463032002,1712
2591.0545797797245,1759
2592.8580310484303,1757
2594.6611004026995,1695
2596.463788135992,1720
2598.266094541849,1729
2600.0680199138874,1689
2601.869564545807,1734
2603.670728731383,1729
2605.4715127644704,1761
2607.2719169390048,1701
2609.071941548998,1736
2610.8715868885433,1816
2612.670853251811,1773
2614.469740933052,1745
2616.268250226594,1798
2618.0663814268455,1828
2619.864134828292,1702
2621.6615107255006,1695
2623.458509413115,1722
2625.2551311858597,1767
2627.0513763385347,1688
2628.8472451660223,1720
2630.6427379632833,1674
2632.4378550253564,1686
2634.232596647359,1703
2636.026963124488,1639
2637.8209547520187,1644
2639.6145718253065,1652
2641.407814639785,1657
2643.200683490966,1603
2644.9931786744414,1669
2646.7853004858807,1664
2648.577049221034,1674
2650.3684251757277,1558
2652.1594286458712,1562
2653.9500599274484,1571
2655.740319316525,1572
2657.5302071092437,1575
2659.3197236018286,1547
2661.10886909058,1548
2662.8976438718782,1510
2664.686048242183,1562
2666.4740824980327,1491
2668.2617469360443,1533
2670.0490418529134,1463
2671.8359675454153,1521
2673.622524310403,1486
2675.408712444811,1431
2677.1945322456495,1551
2678.979984010009,1429
2680.76506803506,1484
2682.5497846180497,1440
2684.334134056306,1430
2686.1181166472343,1436
2687.9017326883213,1431
2689.6849824771293,1408
2691.4678663113013,1426
2693.2503844885596,1378
2695.032537306705,1347
2696.8143250636167,1439
2698.5957480572542,1361
2700.3768065856534,1419
2702.1575009469316,1408
2703.937831439283,1417
2705.717798360982,1392
2707.4974020103837,1369
2709.276642685917,1305
2711.055520686095,1378
2712.834036309506,1372
2714.612189854819,1377
2716.389981620782,1349
2718.1674119062204,1364
2719.944481010041,1415
2721.721189231226,1372
2723.4975368688415,1319
2725.273524222027,1322
2727.0491515900053,1383
2728.824419272075,1334
2730.5993275676146,1297
2732.3738767760838,1336
2734.148067197016,1361
2735.921899130031,1304
2737.6953728748194,1329
2739.468488731156,1343
2741.2412469988926,1362
2743.0136479779617,1365
2744.785691968372,1342
2746.5573792702116,1349
2748.3287101836504,1337
2750.099685008934,1381
2751.870304046388,1267
2753.640567596418,1296
2755.4104759595057,1316
2757.1800294362156,1338
2758.949228327187,1295
2760.7180729331412,1283
2762.486563554877,1312
2764.254700493272,1265
2766.022484049284,1276
2767.789914523947,1298
2769.5569922183786,1261
2771.3237174337705,1311
2773.090090471394,1311
2774.8561116326036,1258
2776.6217812188274,1300
2778.3870995315756,1358
2780.1520668724356,1329
2781.9166835430747,1269
2783.6809498452394,1320
2785.444866080754,1349
2787.2084325515225,1324
2788.971649559527,1269
2790.73451740683,1275
2792.4970363955713,1350
2794.2592068279705,1279
2796.0210290063264,1196
2797.7825032330147,1303
2799.543629810493,1324
2801.304409041296,1332
2803.0648412280366,1314
2804.8249266734088,1235
2806.5846656801846,1281
2808.344058551212,1340
2810.1031055894246,1313
2811.8618070978273,1293
2813.6201633795085,1323
2815.378174737636,1302
2817.1358414754536,1313
2818.893163896285,1287
2820.6501423035334,1373
2822.4067770006814,1313
2824.1630682912883,1354
2825.9190164789957,1327
2827.6746218675207,1285
2829.429884760661,1248
2831.184805462294,1272
2832.9393842763743,1275
2834.693621506936,1280
2836.4475174580916,1309
2838.201072434034,1309
2839.954286739034,1293
2841.707160677441,1257
2843.459694553685,1250
2845.2118886722724,1310
2846.96374333779,1335
2848.7152588549034,1340
2850.4664355283567,1235
2852.217273662973,1299
2853.9677735636546,1312
2855.7179355353833,1314
2857.4677598832186,1272
2859.217246912299,1301
2860.9663969278427,1272
2862.715210235146,1259
2864.4636871395846,1240
2866.211827946614,1345
2867.9596329617652,1261
2869.7071024906536,1324
2871.4542368389684,1296
2873.20103631248,1321
2874.947501217038,1304
2876.6936318585695,1270
2878.4394285430812,1290
2880.1848915766604,1327
2881.9300212654707,1285
2883.6748179157553,1287
2885.4192818338374,1271
2887.1634133261173,1329
2888.907212699077,1355
2890.6506802592744,1306
2892.393816313348,1217
2894.1366211680142,1221
2895.8790951300693,1287
2897.621238506388,1265
2899.363051603925,1327
2901.1045347297118,1315
2902.8456881908596,1287
2904.58651229456,1267
2906.327007348081,1306
2908.067173658772,1296
2909.8070115340597,1302
2911.5465212814497,1312
2913.285703208527,1270
2915.0245576229563,1279
2916.7630848324807,1266
2918.5012851449196,1293
2920.2391588681758,1293
2921.976706310227,1324
2923.7139277791334,1257
2925.4508235830313,1270
2927.187394030137,1253
2928.923639428745,1292
2930.6595600872306,1340
2932.395156314046,1323
2934.1304284177218,1293
2935.8653767068713,1287
2937.6000014901815,1272
2939.3343030764227,1328
2941.068281774442,1293
2942.8019378931644,1338
2944.5352717415976,1301
2946.2682836288236,1311
2948.0009738640065,1317
2949.7333427563885,1316
2951.465390615289,1301
2953.1971177501086,1256
2954.9285244703265,1263
2956.6596110855,1294
2958.3903779052657,1281
2960.1208252393385,1255
2961.8509533975125,1234
2963.5807626896617,1313
2965.3102534257378,1285
2967.0394259157715,1240
2968.768280469873,1212
2970.496817398232,1245
2972.2250370111146,1261
2973.952939618869,1304
2975.6805255319196,1368
2977.4077950607707,1342
2979.134748516006,1260
2980.861386208289,1336
2982.587708448359,1315
2984.313715547037,1275
2986.039407815222,1320
2987.764785563891,1275
2989.489849104102,1271
2991.2145987469908,1310
2992.9390348037705,1323
2994.6631575857346,1276
2996.3869674042576,1277
2998.1104645707887,1361
2999.83364939686,1350
3001.5565221940783,1312
3003.2790832741334,1290
3005.0013329487924,1264
3006.7232715298996,1259
3008.4448993293804,1292
3010.166216659239,1248
3011.887223831558,1226
3013.607921158498,1249
3015.3283089522993,1284
3017.0483875252826,1276
3018.7681571898443,1286
3020.4876182584626,1289
3022.2067710436927,1272
3023.9256158581707,1265
3025.644153014609,1270
3027.362382825801,1280
3029.0803056046193,1327
3030.797921664012,1268
3032.5152313170106,1294
3034.2322348767225,1290
3035.9489326563353,1294
3037.665324969115,1260
3039.3814121284063,1302
3041.097194447633,1318
3042.812672240299,1311
3044.5278458199855,1304
3046.2427155003525,1365
3047.9572815951406,1287
3049.671544418167,1248
3051.38550428333,1280
3053.0991615046073,1315
3054.812516396051,1247
3056.5255692717974,1337
3058.2383204460575,1329
3059.9507702331257,1346
3061.662918947372,1330
3063.3747669032446,1287
3065.0863144152736,1295
3066.7975617980674,1300
3068.508509366309,1312
3070.219157434767,1316
3071.9295063182844,1290
3073.639556331785,1304
3075.3493077902704,1326
3077.058761008821,1337
3078.7679163025964,1301
3080.476773986837,1320
3082.1853343768594,1291
3083.89359778806,1249
3085.6015645359153,1316
3087.3092349359786,1295
3089.016609303884,1282
3090.7236879553434,1254
3092.4304712061476,1340
3094.136959372166,1342
3095.843152769349,1273
3097.5490517137237,1217
3099.2546565213966,1281
3100.959967508554,1288
3102.66498499146,1327
3104.3697092864577,1299
3106.0741407099695,1283
3107.778279578498,1306
3109.482126208622,1236
3111.1856809170004,1293
3112.8889440203716,1276
3114.5919158355528,1321
3116.294596679439,1322
3117.996986869006,1308
3119.6990867213062,1304
3121.4008965534726,1296
3123.102416682717,1335
3124.803647426329,1288
3126.5045891016784,1295
3128.205242026213,1300
3129.90560651746,1294
3131.605682893025,1325
3133.3054714705922,1325
3135.0049725679282,1287
3136.7041865028714,1325
3138.4031135933465,1308
3140.101754157353,1340
3141.800108512971,1243
3143.498176978357,1287
3145.1959598717494,1298
3146.8934575114636,1264
3148.5906702158954,1277
3150.2875983035183,1272
3151.9842420928853,1311
3153.680601902627,1354
3155.376678051456,1264
3157.07247085816,1226
3158.767980641609,1294
3160.463207720748,1271
3162.158152414606,1311
3163.8528150422862,1322
3165.5471959229726,1289
3167.2412953759303,1272
3168.9351137204976,1262
3170.628651276098,1227
3172.3219083622307,1300
3174.014885298474,1296
3175.707582404485,1230
3177.4000000000005,1263
3179.092138404835,1254
3180.7839979388846,1321
3182.47557892212,1273
3184.166881674594,1278
3185.8579065164386,1279
3187.5486537678626,1234
3189.2391237491547,1283
3190.9293167806827,1287
3192.6192331828934,1270
3194.3088732763117,1299
3195.998237381542,1304
3197.687325819268,1288
3199.376138910251,1221
3201.064676975334,1317
3202.7529403354347,1261
3204.4409293115523,1257
3206.1286442247647,1284
3207.816085396229,1278
3209.5032531471825,1231
3211.190147798936,1278
3212.8767696728846,1266
3214.5631190905015,1239
3216.2491963733373,1284
3217.9350018430214,1228
3219.6205358212637,1221
3221.305798629851,1243
3222.990790590651,1279
3224.6755120256103,1238
3226.359963256751,1230
3228.0441446061795,1243
3229.7280563960758,1235
3231.411698948703,1281
3233.0950725863995,1198
3234.778177631587,1277
3236.461014406761,1234
3238.1435832345005,1284
3239.8258844374595,1254
3241.507918338374,1216
3243.1896852600576,1267
3244.8711855254023,1304
3246.552419457381,1290
3248.233387379042,1277
3249.914089613516,1269
3251.59452648401,1230
3253.274698313813,1212
3254.95460542629,1241
3256.6342481448855,1276
3258.313626793125,1248
3259.9927416946084,1249
3261.6715931730196,1312
3263.3501815521176,1209
3265.0285071557437,1237
3266.706570307815,1243
3268.3843713323286,1232
3270.0619105533615,1186
3271.739188295068,1199
3273.4162048816834,1285
3275.0929606375184,1272
3276.769455886966,1219
3278.445690954498,1246
3280.1216661646613,1254
3281.797381842087,1246
3283.4728383114807,1231
3285.1480358976296,1252
3286.8229749253996,1249
3288.4976557197333,1250
3290.172078605655,1197
3291.846243908266,1252
3293.5201519527463,1299
3295.193803064357,1276
3296.8671975684374,1287
3298.5403357904024,1266
3300.21321805575,1300
3301.8858446900567,1292
3303.558216018975,1236
3305.23033236824,1239
3306.9021940636603,1268
3308.57380143113,1265
3310.2451547966184,1243
3311.916254486174,1229
3313.5871008259246,1216
3315.2576941420766,1228
3316.9280347609147,1254
3318.5981230088046,1250
3320.2679592121895,1220
3321.9375436975924,1236
3323.606876791612,1223
3325.27595882093,1246
3326.944790112305,1278
3328.6133709925753,1240
3330.2817017886573,1210
3331.949782827547,1246
3333.617614436319,1250
3335.2851969421245,1240
3336.952530672199,1225
3338.619615953853,1287
3340.286453114475,1268
3341.9530424815357,1269
3343.619384382583,1270
3345.2854791452437,1262
3346.951327097224,1263
3348.6169285663073,1212
3350.2822838803577,1246
3351.947393367319,1263
3353.61225735521,1240
3355.2768761721345,1255
3356.9412501462693,1238
3358.605379605873,1293
3360.2692648792827,1248
3361.9329062949146,1233
3363.596304181263,1222
