CollectionTime,9/25/2024 11:20:48 AM
ExposureUsed,3
CalibratedSpectrum
-962.7078968117929,745
-959.9714848408522,822
-957.2358232597828,836
-954.5009119013725,850
-951.7667505983302,860
-949.0333391832855,826
-946.3006774887896,832
-943.5687653473143,804
-940.837602591253,836
-938.1071890529199,809
-935.3775245645503,798
-932.6486089583007,829
-929.9204420662485,794
-927.1930237203925,851
-924.4663537526524,823
-921.7404319948689,834
-919.0152582788041,800
-916.2908324361409,817
-913.5671542984834,851
-910.8442236973568,840
-908.1220404642074,787
-905.4006044304027,782
-902.679915427231,806
-899.959973285902,786
-897.2407778375464,843
-894.5223289132158,835
-891.8046263438832,836
-889.0876699604426,832
-886.3714595937089,804
-883.6559950744183,782
-880.9412762332282,771
-878.2273029007168,786
-875.5140749073835,772
-872.8015920836489,801
-870.0898542598545,816
-867.3788612662631,803
-864.6686129330585,799
-861.9591090903457,841
-859.2503495681506,832
-856.5423341964203,771
-853.8350628050229,769
-851.1285352237478,811
-848.4227512823054,785
-845.7177108103272,793
-843.0134136373656,777
-840.3098595928943,781
-837.6070485063082,800
-834.9049802069229,820
-832.2036545239757,808
-829.5030712866244,808
-826.8032303239481,833
-824.1041314649472,829
-821.4057745385428,817
-818.7081593735775,794
-816.0112857988148,790
-813.3151536429393,740
-810.6197627345566,791
-807.9251129021936,812
-805.2312039742981,783
-802.5380357792392,821
-799.8456081453069,806
-797.1539209007124,842
-794.462973873588,780
-791.772766891987,809
-789.083299783884,822
-786.3945723771743,802
-783.7065844996748,804
-781.0193359791231,773
-778.3328266431781,821
-775.6470563194197,804
-772.9620248353489,807
-770.2777320183878,784
-767.5941776958798,785
-764.9113616950891,817
-762.2292838432011,762
-759.5479439673222,792
-756.8673418944801,795
-754.1874774516235,838
-751.5083504656222,854
-748.8299607632671,798
-746.15230817127,823
-743.475392516264,830
-740.7992136248035,856
-738.1237713233636,861
-735.4490654383407,825
-732.7750957960521,829
-730.1018622227365,802
-727.4293645445534,804
-724.7576025875837,831
-722.0865761778291,836
-719.4162851412126,833
-716.7467293035781,780
-714.0779084906909,831
-711.409822528237,841
-708.7424712418238,819
-706.0758544569796,830
-703.4099719991541,836
-700.7448236937178,860
-698.0804093659622,833
-695.4167288411002,854
-692.7537819442656,838
-690.0915685005134,805
-687.4300883348199,840
-684.7693412720819,831
-682.1093271371178,815
-679.4500457546669,816
-676.7914969493897,854
-674.1336805458676,847
-671.4765963686034,807
-668.8202442420206,866
-666.1646239904642,857
-663.5097354382001,839
-660.8555784094151,842
-658.2021527282176,868
-655.5494582186366,876
-652.8974947046223,865
-650.2462620100463,886
-647.5957599587009,863
-644.9459883742998,867
-642.2969470804776,884
-639.6486359007902,877
-637.0010546587141,863
-634.3542031776476,893
-631.7080812809096,868
-629.0626887917401,849
-626.4180255333008,865
-623.7740913286734,851
-621.1308860008619,877
-618.4884093727904,864
-615.8466612673046,868
-613.2056415071715,878
-610.5653499150785,878
-607.9257863136347,910
-605.28695052537,891
-602.6488423727357,929
-600.0114616781036,874
-597.3748082637674,873
-594.7388819519412,888
-592.1036825647604,934
-589.4692099242818,943
-586.8354638524829,911
-584.2024441712624,931
-581.5701507024403,950
-578.9385832677575,925
-576.3077416888759,945
-573.6776257873787,920
-571.0482353847704,913
-568.4195703024757,894
-565.7916303618415,887
-563.164415384135,909
-560.5379251905453,927
-557.9121596021815,875
-555.2871184400748,922
-552.6628015251767,946
-550.0392086783606,952
-547.4163397204204,957
-544.794194472071,951
-542.1727727539491,946
-539.5520743866118,936
-536.9320991905377,988
-534.3128469861261,1000
-531.6943175936979,1010
-529.0765108334947,1010
-526.4594265256793,1044
-523.8430644903358,1200
-521.2274245474689,1288
-518.612506517005,1276
-515.9983102187913,1286
-513.3848354725959,1369
-510.77208209810846,1442
-508.16004991493924,1536
-505.5487387426199,1710
-502.9381484006032,1607
-500.3282787082628,1592
-497.71912948489364,1593
-495.1107005497117,1474
-492.5029917218539,1321
-489.8960028203786,1265
-487.28973366426493,1228
-484.68418407241325,1121
-482.07935386364494,1108
-479.47524285670266,1147
-476.87185087025,1100
-474.2691777228715,1122
-471.66722323307334,1185
-469.0659872192821,1098
-466.4654694998459,1146
-463.86566989303384,1091
-461.26658821703614,1139
-458.66822428996414,1095
-456.07057792985,1161
-453.4736489546475,1199
-450.877437182231,1157
-448.28194243039627,1073
-445.68716451686,1069
-443.09310325926003,1051
-440.49975847515555,1095
-437.9071299820263,1059
-435.31521759727354,1117
-432.72402113821954,1095
-430.13354042210767,1130
-427.5437752661022,1150
-424.95472548728867,1133
-422.36639090267386,1130
-419.7787713291855,1093
-417.1918665836721,1121
-414.60567648290385,1201
-412.0202008435715,1145
-409.4354394822874,1162
-406.8513922155845,1172
-404.26805885991723,1192
-401.685439231661,1269
-399.103533147112,1150
-396.522340422488,1117
-393.9418608739278,1181
-391.3620943174908,1190
-388.7830405691583,1074
-386.2046994448317,1085
-383.6270707603344,1089
-381.05015433141045,1017
-378.473949973725,937
-375.8984575028645,877
-373.32367673433623,800
-370.74960748356875,707
-368.1762495659117,731
-365.60360279663576,664
-363.03166699093265,610
-360.4604419639154,569
-357.8899275306178,539
-355.32012350599507,518
-352.7510297049233,511
-350.1826459421999,467
-347.61497203254316,484
-345.04800779059235,493
-342.4817530309082,494
-339.91620756797226,462
-337.35137121618743,476
-334.7872437898774,476
-332.22382510328725,496
-329.66111497058273,499
-327.09911320585127,543
-324.53781962310075,544
-321.9772340362607,496
-319.4173562591816,489
-316.8581861056348,478
-314.2997233893127,495
-311.7419679238294,535
-309.1849195227194,529
-306.62857799943856,524
-304.0729431673641,469
-301.51801483979375,492
-298.963792829947,556
-296.41027695096386,512
-293.85746701590574,564
-291.3053628377552,592
-288.7539642294155,567
-286.2032710037115,580
-283.65328297338897,588
-281.1039999511146,573
-278.5554217494762,601
-276.007548180983,623
-273.4603790580651,640
-270.9139141930734,674
-268.3681533982807,745
-265.8230964858798,729
-263.27874326798565,626
-260.7350935566336,597
-258.1921471637804,652
-255.6499039013039,743
-253.10836358100266,733
-250.56752601459698,636
-248.02739101372765,643
-245.48795838995704,670
-242.94922795476816,638
-240.41119951956557,646
-237.8738728956746,730
-235.33724789434166,753
-232.80132432673452,749
-230.2661020039418,712
-227.73158073697357,709
-225.19776033676033,773
-222.66464061415422,864
-220.1322213799284,843
-217.60050244477725,734
-215.06948361931552,753
-212.53916471408013,801
-210.00954553952818,886
-207.48062590603843,813
-204.9524056239104,762
-202.4248845033651,752
-199.8980623545441,899
-197.37193898751036,887
-194.84651421224817,915
-192.32178783866232,843
-189.79775967657952,862
-187.27442953574644,851
-184.7517972258321,915
-182.2298625564256,806
-179.7086253370378,720
-177.18808537710026,832
-174.66824248596583,1091
-172.14909647290835,1084
-169.6306471471229,1027
-167.11289431772548,888
-164.59583779375328,868
-162.07947738416453,1116
-159.5638128978386,1243
-157.04884414357605,1286
-154.53457093009854,1245
-152.02099306604828,1138
-149.50811035998936,996
-146.99592262040665,1075
-144.48442965570587,1183
-141.97363127421409,1182
-139.46352728417958,1337
-136.95411749377126,1367
-134.44540171107985,1198
-131.93737974411636,1239
-129.43005140081357,1183
-126.92341648902493,1512
-124.41747481652521,2046
-121.91222619101006,2355
-119.40767042009657,2635
-116.90380731132257,3104
-114.40063667214702,2934
-111.8981583099503,2604
-109.3963720320337,2483
-106.89527764561933,2927
-104.39487495785067,3390
-101.89516377579241,3923
-99.39614390642998,5098
-96.89781515667039,7052
-94.40017733334128,7210
-91.90323024319173,5371
-89.40697369289148,4452
-86.91140748903172,4168
-84.41653143812482,3715
-81.92234534660395,3875
-79.42884902082358,3940
-76.93604226705907,4134
-74.4439248915071,4815
-71.95249670028534,4873
-69.46175749943245,4968
-66.97170709490854,5338
-64.48234529259423,6673
-61.99367189829195,9260
-59.50568671772464,12409
-57.01838955653636,17138
-54.53178022029283,21651
-52.045858514480074,26194
-49.560624244506016,27820
-47.07607721569923,27564
-44.59221723330904,21958
-42.10904410250669,18371
-39.62655762838392,17571
-37.14475761595372,19106
-34.66364387015028,25546
-32.18321619582866,30894
-29.70347439776515,30668
-27.224418280657005,29117
-24.74604764912317,30905
-22.26836230770266,39553
-19.7913620608565,65040
-17.315046712966478,65040
-14.83941606833514,65040
-12.36446993118659,65040
-9.89020810566592,65040
-7.416630395839093,65040
-4.94373660569363,65040
-2.471526539137585,65040
-6.821210263296962E-13,65040
2.47084320796705,65040
4.941003281093458,65040
7.410480415786196,65040
9.879274808531363,65040
12.347386655893956,65040
14.814816154518212,65040
17.28156350112681,65040
19.74762889252179,65040
22.21301252558385,22390
24.67771459727237,4799
27.141735304626195,3643
29.605074844762612,3595
32.06773341487792,3042
34.52971121224755,2830
36.99100843422559,2921
39.45162527824516,2772
41.91156194181792,2709
44.370818622535126,2403
46.82939551806646,2428
49.287292826160524,2462
51.74451074464503,2470
54.201049471426245,2109
56.65690920448981,2267
59.112090141899785,2537
61.56659248179983,2718
64.02041642241159,2095
66.4735621620365,1720
68.92602989905402,1976
71.37781983192338,2132
73.82893215918205,1777
76.27936707944684,1678
78.72912479141326,1871
81.17820549385567,1918
83.62660938562783,1665
86.07433666566146,1343
88.5213875329681,1403
90.96776218663751,1596
93.41346082583925,1717
95.85848364982041,1601
98.30283085790859,1293
100.7465026495089,1134
103.18949922410604,1328
105.63182078126385,1408
108.07346752062438,1531
110.51443964190923,1514
112.95473734491827,1263
115.39436082953114,1134
117.83331029570547,1255
120.27158594347827,1330
122.7091879729652,1502
125.1461165843615,1596
127.58237197794062,1385
130.01795435405518,1233
132.4528639131364,983
134.88710085569494,1130
137.32066538231982,1252
139.75355769367923,1118
142.1857779905207,1093
144.61732647366978,1130
147.04820334403132,1113
149.47840880258934,1137
151.90794305040674,1267
154.33680628862487,1313
156.76499871846443,1352
159.19252054122433,1524
161.61937195828352,1640
164.04555317109896,1741
166.47106438120693,1844
168.89590579022217,2078
171.320077599839,2337
173.7435800118302,2361
176.16641322804742,2346
178.58857745042144,2462
181.01007288096173,2499
183.43089972175687,2496
185.85105817497413,2631
188.27054844285988,2597
190.6893707277394,2661
193.10752523201643,2733
195.5250121581745,2807
197.9418317087751,2754
200.3579840864594,2829
202.7734694939469,2880
205.18828813403627,3012
207.6024402096051,2927
210.01592592360964,2984
212.42874547908548,2974
214.84089907914665,2918
217.2523869269868,2928
219.66320922587727,2921
222.0733661791695,3009
224.48285799029293,3062
226.8916848627572,3048
229.29984700014882,3108
231.7073446061355,3155
234.11417788446204,3138
236.520347038953,3166
238.92585227351185,3037
241.33069379212054,3117
243.73487179884035,3132
246.1383864978112,3204
248.541238093252,3191
250.9434267894609,3156
253.34495279081432,3256
255.74581630176783,3204
258.1460175268563,3180
260.54555667069314,3229
262.9444339379703,3200
265.3426495334594,3273
267.7402036620107,3155
270.1370965285529,3197
272.53332833809407,3037
274.9288992957214,3014
277.32380960660055,2906
279.718059475976,3014
282.1116491091717,2913
284.5045787115897,2872
286.89684848871195,2952
289.2884586460981,3032
291.67940938938807,2933
294.0697009242996,2957
296.4593334566299,3035
298.84830719225477,3042
301.23662233712923,3011
303.6242790972866,2914
306.01127767884,2889
308.39761828798066,2915
310.78330113097934,2915
313.16832641418534,2867
315.5526943440269,2804
317.9364051270112,2857
320.3194589697242,2816
322.70185607883093,2824
325.0835966610754,2751
327.4646809232805,2730
329.8451090723478,2805
332.2248813152577,2685
334.6039978590701,2725
336.9824589109231,2787
339.36026467803447,2660
341.7374153677,2718
344.113911187295,2637
346.48975234427337,2713
348.8649390461686,2759
351.2394715005918,2766
353.61334991523415,2741
355.9865744978655,2713
358.35914545633375,2647
360.73106299856715,2681
363.10232733257146,2700
365.47293866643247,2731
367.84289720831396,2718
370.2122031664593,2697
372.5808567491905,2633
374.9488581649083,2690
377.31620762209275,2610
379.6829053293021,2678
382.0489514951745,2605
384.4143463284262,2658
386.7790900378528,2640
389.14318283232853,2575
391.50662492080653,2537
393.86941651231916,2610
396.23155781597745,2606
398.5930490409713,2655
400.9538903965696,2611
403.3140820921202,2607
405.6736243370498,2661
408.03251734086336,2640
410.3907613131465,2568
412.74835646356166,2591
415.10530300185144,2488
417.4616011378372,2530
419.81725108141893,2608
422.1722530425758,2542
424.5266072313656,2516
426.880313857925,2637
429.2333731324701,2574
431.58578526529516,2589
433.9375504667738,2602
436.2886689473588,2581
438.63914091758113,2572
440.9889665880513,2676
443.33814616945835,2491
445.68667987257015,2580
448.03456790823395,2521
450.3818104873759,2511
452.72840782100013,2507
455.07436012019105,2557
457.41966759611057,2605
459.7643304600007,2538
462.10834892318155,2497
464.4517231970525,2549
466.79445349309174,2417
469.1365400228566,2618
471.4779829979826,2534
473.81878263018564,2610
476.15893913125876,2552
478.4984527130747,2591
480.8373235875855,2659
483.17555196682144,2608
485.5131380628919,2646
487.8500820879857,2760
490.1863842543697,2723
492.52204477439034,2764
494.8570638604725,2898
497.1914417251204,3233
499.52517858091653,3464
501.85827464052306,3659
504.19073011668036,3989
506.5225452222086,4001
508.85372017000566,4027
511.18425517304956,4050
513.514150444396,4192
515.8434061971808,5143
518.1720226446176,5633
520.4999999999999,5917
522.8273384766991,5667
525.1540382881666,5329
527.480099647932,4772
529.8055227696037,3991
532.1303078668694,3309
534.454455153496,2927
536.777964843328,2732
539.1008371502907,2679
541.4230722883866,2620
543.744670471698,2628
546.0656319143858,2579
548.3859568306899,2546
550.7056454349294,2571
553.0246979415016,2549
555.3431145648834,2628
557.6608955196306,2591
559.978041020377,2578
562.2945512818363,2573
564.6104265188006,2611
566.9256669461412,2563
569.2402727788082,2564
571.5542442318302,2603
573.8675815203156,2630
576.1802848594508,2532
578.4923544645015,2624
580.8037905508126,2618
583.114593333807,2603
585.4247630289875,2569
587.7342998519354,2568
590.0432040183106,2587
592.3514757438526,2638
594.6591152443794,2675
596.9661227357875,2630
599.2724984340531,2643
601.578242555231,2588
603.8833553154542,2584
606.1878369309362,2592
608.4916876179676,2613
610.7949075929192,2617
613.0974970722403,2519
615.3994562724587,2530
617.7007854101818,2524
620.0014847020951,2570
622.3015543649641,2563
624.6009946156324,2616
626.8998056710224,2604
629.1979877481361,2572
631.4955410640538,2637
633.7924658359349,2601
636.0887622810175,2523
638.3844306166192,2587
640.6794710601358,2569
642.9738838290426,2646
645.2676691408932,2638
647.5608272133207,2585
649.853358264037,2495
652.1452625108324,2523
654.4365401715764,2593
656.7271914642178,2639
659.0172166067838,2606
661.3066158173809,2648
663.5953893141935,2634
665.8835373154867,2592
668.1710600396028,2547
670.4579577049639,2669
672.7442305300709,2671
675.0298787335033,2666
677.3149025339197,2595
679.599302150058,2678
681.8830778007342,2626
684.1662297048437,2661
686.4487580813608,2653
688.7306631493387,2610
691.0119451279091,2537
693.2926042362834,2468
695.5726406937516,2582
697.8520547196814,2569
700.1308465335215,2524
702.4090163547982,2560
704.6865644031171,2588
706.9634908981619,2554
709.2397960596965,2592
711.5154801075631,2565
713.7905432616823,2715
716.0649857420548,2625
718.3388077687592,2566
720.612009561953,2690
722.8845913418733,2576
725.1565533288352,2547
727.427895743234,2606
729.6986188055427,2714
731.9687227363137,2616
734.238207756178,2529
736.5070740858458,2535
738.7753219461066,2574
741.0429515578281,2521
743.3099631419569,2523
745.5763569195191,2554
747.8421331116193,2607
750.1072919394409,2614
752.3718336242467,2614
754.6357583873777,2564
756.8990664502545,2569
759.1617580343765,2464
761.423833361321,2591
763.6852926527457,2498
765.9461361303862,2561
768.206364016058,2492
770.4659765316536,2600
772.7249738991469,2606
774.9833563405886,2548
777.2411240781092,2667
779.4982773339183,2563
781.7548163303044,2528
784.010741289634,2558
786.2660524343538,2532
788.5207499869881,2593
790.7748341701416,2608
793.0283052064964,2568
795.2811633188143,2612
797.5334087299362,2579
799.7850416627813,2588
802.0360623403484,2552
804.2864709857143,2568
806.5362678220353,2565
808.7854530725468,2624
811.0340269605625,2536
813.2819897094754,2575
815.5293415427581,2585
817.77608268396,2618
820.0222133567116,2597
822.2677337847211,2562
824.5126441917765,2561
826.7569448017433,2568
829.0006358385675,2587
831.2437175262731,2465
833.4861900889629,2631
835.7280537508192,2584
837.9693087361026,2623
840.2099552691533,2582
842.4499935743896,2675
844.689423876309,2538
846.9282463994886,2597
849.1664613685833,2486
851.4040690083276,2501
853.6410695435349,2584
855.877463199097,2547
858.1132501999847,2634
860.3484307712487,2649
862.5830051380175,2553
864.8169735254988,2636
867.0503361589791,2509
869.2830932638243,2551
871.5152450654786,2551
873.7467917894654,2568
875.9777336613873,2655
878.2080709069252,2547
880.4378037518389,2549
882.666932421968,2581
884.8954571432301,2656
887.1233781416219,2601
889.3506956432192,2506
891.5774098741766,2595
893.803521060728,2582
896.0290294291852,2647
898.2539352059397,2505
900.4782386174619,2535
902.7019398903011,2548
904.925039251085,2582
907.147536926521,2568
909.3694331433943,2624
911.59072812857,2534
913.8114221089921,2631
916.0315153116827,2595
918.2510079637437,2536
920.4699002923547,2505
922.6881925247761,2576
924.905884888345,2500
927.1229776104793,2446
929.3394709186747,2427
931.555365040506,2452
933.7706602036275,2529
935.9853566357709,2557
938.1994545647489,2489
940.4129542184515,2487
942.6258558248488,2576
944.8381596119883,2499
947.0498658079974,2546
949.2609746410825,2579
951.4714863395287,2562
953.6814011316998,2521
955.8907192460387,2486
958.0994409110671,2524
960.3075663553858,2540
962.5150958076741,2502
964.7220294966913,2572
966.928367651274,2475
969.1341105003388,2549
971.3392582728806,2446
973.5438111979742,2504
975.747769504772,2417
977.9511334225061,2447
980.153903180487,2448
982.3560790081052,2449
984.5576611348289,2348
986.7586497902058,2378
988.9590452038618,2396
991.158847605503,2322
993.3580572249133,2300
995.5566742919558,2317
997.7546990365728,2239
999.952131688785,2221
1002.1489724786926,2303
1004.3452216364743,2247
1006.5408793923874,2234
1008.7359459767691,2250
1010.9304216200343,2235
1013.1243065526781,2292
1015.3176010052733,2201
1017.510305208472,2180
1019.7024193930064,2170
1021.8939437896848,2188
1024.0848786293977,2154
1026.2752241431122,2201
1028.4649805618747,2243
1030.6541481168115,2186
1032.842727039127,2071
1035.0307175601051,2151
1037.2181199111074,2099
1039.4049343235752,2147
1041.591161029029,2151
1043.7768002590683,2172
1045.9618522453698,2118
1048.1463172196918,2092
1050.3301954138697,2138
1052.513487059818,2162
1054.69619238953,2146
1056.8783116350783,2122
1059.0598450286152,2101
1061.2407928023704,2063
1063.4211551886528,2156
1065.6009324198508,2095
1067.780124728432,2168
1069.9587323469414,2137
1072.1367555080046,2124
1074.314194444325,2073
1076.4910493886855,2081
1078.667320573947,2108
1080.843008233051,2116
1083.0181125990161,2010
1085.1926339049414,2087
1087.3665723840027,2104
1089.5399282694575,2112
1091.7127017946405,2020
1093.8848931929647,2031
1096.0565026979243,2104
1098.2275305430899,2034
1100.3979769621128,1982
1102.567842188722,1976
1104.737126456726,2079
1106.9058300000124,2043
1109.0739530525475,2041
1111.2414958483764,1982
1113.4084586216231,2033
1115.5748416064907,2015
1117.7406450372605,2043
1119.9058691482942,1998
1122.0705141740304,2003
1124.2345803489884,2006
1126.3980679077658,1983
1128.5609770850388,2021
1130.7233081155623,2087
1132.8850612341707,2042
1135.0462366757774,2028
1137.2068346753745,2008
1139.3668554680326,1995
1141.526299288901,1992
1143.68516637321,1971
1145.8434569562655,1978
1148.001171273455,2003
1150.158309560244,1908
1152.3148720521767,1946
1154.470858984876,1969
1156.626270594044,2007
1158.7811071154629,2043
1160.9353687849912,1942
1163.089055838569,1937
1165.242168512213,2019
1167.3947070420209,1990
1169.5466716641677,2029
1171.6980626149075,1953
1173.8488801305748,2036
1175.9991244475814,1900
1178.1487958024186,1938
1180.2978944316555,1966
1182.4464205719428,1951
1184.5943744600072,2022
1186.7417563326567,1936
1188.8885664267755,1948
1191.0348049793297,1848
1193.1804722273619,1941
1195.325568407995,2000
1197.4700937584303,1947
1199.614048515948,1917
1201.7574329179074,1988
1203.900247201746,1986
1206.042491604982,1977
1208.1841663652099,1901
1210.3252717201053,1979
1212.465807907422,1907
1214.6057751649923,1889
1216.7451737307279,1935
1218.8840038426192,1986
1221.0222657387353,1988
1223.1599596572241,1952
1225.2970858363137,1892
1227.4336445143094,1939
1229.5696359295966,1969
1231.705060320639,2024
1233.8399179259786,2058
1235.9742089842384,2014
1238.107933734118,1997
1240.2410924143974,1987
1242.373685263935,2037
1244.5057125216676,1971
1246.6371744266116,1848
1248.7680712178621,1946
1250.898403134593,2109
1253.028170416058,1934
1255.1573733015875,1967
1257.2860120305932,1956
1259.4140868425648,1982
1261.54159797707,1999
1263.6685456737569,1984
1265.7949301723515,1918
1267.9207517126597,2014
1270.046010534565,2022
1272.1707068780306,1979
1274.2948409830983,1985
1276.4184130898889,2063
1278.541423438603,2056
1280.6638722695184,2044
1282.785759822993,2027
1284.9070863394636,2041
1287.0278520594447,2022
1289.1480572235314,2128
1291.2677020723963,2067
1293.3867868467923,2117
1295.5053117875495,2108
1297.623277135579,2005
1299.740683131868,2096
1301.8575300174857,2079
1303.973818033578,2176
1306.0895474213703,2175
1308.2047184221678,2105
1310.3193312773528,2077
1312.4333862283888,2081
1314.5468835168163,2155
1316.659823384255,2324
1318.7722060724045,2204
1320.8840318230418,2243
1322.9953008780249,2187
1325.1060134792888,2134
1327.2161698688478,2213
1329.3257702887959,2201
1331.4348149813054,2188
1333.5433041886276,2227
1335.6512381530933,2131
1337.7586171171101,2163
1339.8654413231675,2217
1341.9717110138317,2135
1344.0774264317488,2112
1346.1825878196432,2129
1348.2871954203192,2119
1350.3912494766587,2090
1352.4947502316231,2098
1354.5976979282532,2158
1356.7000928096686,2093
1358.8019351190665,2033
1360.9032250997243,2018
1363.0039629949988,2049
1365.1041490483235,1982
1367.2037835032133,1992
1369.3028666032606,2072
1371.401398592137,2076
1373.4993797135926,2019
1375.5968102114575,2012
1377.6936903296396,1983
1379.7900203121262,2073
1381.8858004029835,1947
1383.9810308463561,2056
1386.075711886469,2052
1388.1698437676241,2048
1390.2634267342032,2028
1392.356461030667,2037
1394.4489469015557,2018
1396.5408845914872,2001
1398.6322743451592,1940
1400.7231164073469,2011
1402.813411022907,2067
1404.903158436773,1982
1406.9923588939578,2020
1409.0810126395531,1993
1411.1691199187303,2013
1413.2566809767386,2004
1415.343696058907,2001
1417.4301654106425,2014
1419.5160892774315,2024
1421.6014679048399,2030
1423.6863015385125,2061
1425.7705904241707,1996
1427.8543348076178,2038
1429.9375349347342,1980
1432.0201910514802,2012
1434.102303403894,2050
1436.1838722380944,2009
1438.2648978002767,2018
1440.3453803367174,2090
1442.4253200937692,2122
1444.5047173178677,2045
1446.5835722555234,2091
1448.6618851533285,2032
1450.739656257952,2138
1452.8168858161434,2043
1454.8935740747306,2196
1456.96972128062,2132
1459.045327680797,2137
1461.120393522327,2188
1463.1949190523528,2207
1465.2689045180973,2240
1467.3423501668608,2275
1469.415256246024,2254
1471.4876230030463,2276
1473.559450685465,2311
1475.6307395408976,2261
1477.7014898170391,2279
1479.771701761665,2297
1481.8413756226287,2379
1483.9105116478618,2345
1485.9791100853772,2453
1488.0471711832643,2359
1490.1146951896926,2424
1492.1816823529098,2495
1494.2481329212433,2372
1496.3140471430984,2394
1498.3794252669609,2393
1500.4442675413939,2462
1502.5085742150404,2468
1504.572345536622,2428
1506.6355817549388,2552
1508.6982831188702,2482
1510.7604498773744,2428
1512.8220822794883,2469
1514.8831805743293,2472
1516.9437450110909,2518
1519.003775839048,2449
1521.0632733075522,2529
1523.1222376660367,2583
1525.1806691640113,2622
1527.2385680510652,2536
1529.2959345768668,2604
1531.3527689911643,2679
1533.4090715437833,2562
1535.4648424846291,2740
1537.5200820636855,2707
1539.5747905310159,2815
1541.6289681367616,2790
1543.6826151311434,2887
1545.7357317644614,2923
1547.7883182870937,2895
1549.8403749494987,3028
1551.8919020022113,3006
1553.9428996958477,2975
1555.9933682811015,3095
1558.0433080087469,3071
1560.0927191296346,3044
1562.1416018946961,3132
1564.1899565549415,3163
1566.2377833614592,3188
1568.2850825654164,3241
1570.3318544180606,3227
1572.3780991707158,3136
1574.423817074788,3080
1576.4690083817595,3138
1578.5136733431923,2932
1580.5578122107272,2977
1582.601425236085,2921
1584.6445126710646,2880
1586.6870747675434,2812
1588.7291117774776,2636
1590.7706239529034,2583
1592.8116115459347,2591
1594.8520748087658,2517
1596.8920139936686,2454
1598.9314293529933,2438
1600.9703211391711,2352
1603.008689604711,2292
1605.0465350022005,2290
1607.0838575843068,2212
1609.1206576037753,2120
1611.1569353134305,2208
1613.1926909661765,2207
1615.2279248149953,2130
1617.2626371129481,2087
1619.2968281131757,2074
1621.3304980688963,2147
1623.3636472334088,2079
1625.39627586009,1931
1627.428384202396,2003
1629.459972513861,2013
1631.4910410480993,2055
1633.5215900588028,1964
1635.551619799744,1978
1637.5811305247717,1976
1639.6101224878166,1955
1641.6385959428862,1974
1643.6665511440683,1932
1645.693988345528,1824
1647.7209078015112,1919
1649.7473097663405,1990
1651.7731944944203,1843
1653.7985622402307,1865
1655.823413258333,1838
1657.847747803366,1834
1659.8715661300494,1852
1661.8948684931793,1863
1663.9176551476316,1797
1665.9399263483624,1845
1667.9616823504057,1818
1669.982923408873,1805
1672.0036497789574,1816
1674.0238617159293,1775
1676.043559475138,1825
1678.0627433120121,1856
1680.081413482059,1847
1682.0995702408654,1825
1684.117213844096,1876
1686.134344547495,1792
1688.1509626068864,1777
1690.1670682781705,1756
1692.182661817329,1833
1694.1977434804217,1835
1696.2123135235875,1839
1698.226372203043,1815
1700.2399197750851,1822
1702.2529564960905,1809
1704.2654826225112,1846
1706.277498410882,1803
1708.2890041178139,1830
1710.2999999999988,1800
1712.3104863142066,1836
1714.3204633172854,1859
1716.329931266163,1865
1718.3388904178469,1802
1720.3473410294214,1863
1722.3552833580516,1787
1724.3627176609807,1787
1726.3696441955308,1795
1728.3760632191033,1819
1730.3819749891782,1849
1732.3873797633146,1743
1734.3922777991502,1818
1736.3966693544012,1830
1738.4005546868639,1821
1740.4039340544127,1846
1742.406807715001,1780
1744.4091759266616,1729
1746.4110389475054,1854
1748.4123970357223,1806
1750.413250449582,1779
1752.4135994474318,1792
1754.4134442876993,1792
1756.4127852288902,1821
1758.4116225295893,1820
1760.4099564484595,1794
1762.407787244244,1858
1764.405115175764,1793
1766.4019405019203,1821
1768.3982634816916,1740
1770.3940843741357,1824
1772.3894034383907,1779
1774.3842209336717,1820
1776.378537119274,1773
1778.372352254571,1785
1780.3656665990156,1841
1782.3584804121397,1774
1784.3507939535534,1794
1786.3426074829463,1849
1788.3339212600863,1812
1790.3247355448211,1813
1792.3150505970766,1829
1794.3048666768573,1777
1796.2941840442477,1802
1798.2830029594106,1863
1800.2713236825884,1798
1802.2591464741004,1796
1804.2464715943465,1816
1806.2332993038058,1873
1808.2196298630352,1854
1810.2054635326708,1850
1812.190800573428,1868
1814.175641246101,1833
1816.1599858115628,1825
1818.1438345307652,1800
1820.127187664738,1776
1822.1100454745924,1804
1824.092408221516,1817
1826.0742761667766,1761
1828.055649571721,1759
1830.0365286977735,1818
1832.0169138064398,1832
1833.9968051593014,1839
1835.9762030180214,1868
1837.9551076443408,1807
1839.9335193000788,1846
1841.9114382471344,1813
1843.888864747485,1854
1845.8657990631878,1851
1847.842241456378,1798
1849.8181921892697,1793
1851.7936515241558,1848
1853.7686197234098,1741
1855.7430970494815,1824
1857.7170837649014,1792
1859.6905801322787,1792
1861.6635864143004,1875
1863.6361028737338,1827
1865.608129773424,1792
1867.5796673762961,1806
1869.5507159453537,1871
1871.521275743678,1848
1873.4913470344313,1914
1875.4609300808534,1865
1877.4300251462632,1860
1879.3986324940588,1859
1881.366752387717,1848
1883.3343850907936,1868
1885.3015308669228,1833
1887.268189979819,1850
1889.2343626932739,1897
1891.2000492711595,1878
1893.1652499774254,1898
1895.1299650761011,1847
1897.0941948312952,1818
1899.0579395071945,1856
1901.0211993680641,1962
1902.98397467825,1883
1904.9462657021745,1875
1906.9080727043415,1849
1908.869395949332,1882
1910.8302357018065,1861
1912.790592226504,1903
1914.7504657882428,1948
1916.7098566519212,1903
1918.6687650825133,1870
1920.6271913450764,1853
1922.5851357047422,1826
1924.5425984267245,1900
1926.499579776314,1888
1928.4560800188833,1857
1930.4120994198802,1886
1932.367638244833,1900
1934.32269675935,1848
1936.2772752291175,1931
1938.231373919899,1892
1940.1849930975404,1899
1942.1381330279637,1853
1944.0907939771696,1924
1946.0429762112412,1888
1947.9946799963363,1929
1949.9459055986945,1901
1951.896653284633,1940
1953.8469233205478,1865
1955.7967159729142,1874
1957.7460315082863,1941
1959.6948701932974,1925
1961.6432322946594,1948
1963.5911180791632,1828
1965.5385278136787,1834
1967.4854617651545,1848
1969.4319202006182,1903
1971.377903387176,1906
1973.3234115920136,1813
1975.268445082395,1945
1977.2130041256642,1907
1979.1570889892423,1929
1981.1006999406304,1895
1983.04383724741,1886
1984.986501177238,1847
1986.928691997853,1879
1988.8704099770712,1881
1990.811655382789,1927
1992.7524284829801,1921
1994.692729545698,1820
1996.6325588390755,1909
1998.5719166313224,1911
2000.5108031907307,1898
2002.4492187856677,1896
2004.387163684583,1803
2006.3246381560011,1951
2008.2616424685298,1909
2010.1981768908527,1832
2012.1342416917332,1929
2014.069837140014,1920
2016.0049635046162,1896
2017.9396210545406,1900
2019.8738100588666,1881
2021.8075307867502,1885
2023.740783507431,1929
2025.6735684902228,1942
2027.6058860045214,1919
2029.5377363198004,1868
2031.4691197056118,1884
2033.4000364315875,1891
2035.3304867674374,1868
2037.260470982952,1923
2039.189989347998,1912
2041.1190421325232,1873
2043.047629606554,1894
2044.9757520401945,1961
2046.9034097036288,1963
2048.8306028671195,1960
2050.7573318010086,1937
2052.683596775716,1942
2054.609398061742,1884
2056.5347359296647,1887
2058.4596106501403,1919
2060.384022493906,1946
2062.3079717317764,1953
2064.231458634646,1937
2066.1544834734873,1929
2068.077046519352,1967
2069.99914804337,1906
2071.9207883167524,1973
2073.8419676107865,1903
2075.7626861968406,1932
2077.6829443463607,1908
2079.6027423308715,1938
2081.522080421977,1964
2083.440958891362,1945
2085.359378010786,1978
2087.2773380520907,1929
2089.194839287196,1980
2091.111881988101,1913
2093.0284664268825,1969
2094.9445928756973,1937
2096.86026160678,1950
2098.775472892446,1996
2100.690227005088,1948
2102.604524217178,1926
2104.5183648012676,1958
2106.431749029985,1997
2108.34467717604,2002
2110.2571495122206,1964
2112.169166311393,1985
2114.080727846503,1951
2115.9918343905747,1946
2117.902486216711,1928
2119.8126835980956,2038
2121.722426807987,2000
2123.6317161197285,1919
2125.5405518067364,1943
2127.448934142509,1994
2129.356863400624,1967
2131.264339854737,1929
2133.1713637785815,2051
2135.077935445972,2040
2136.9840551308002,1971
2138.889723107037,2004
2140.7949396487334,1995
2142.699705030018,2069
2144.6040195250994,2032
2146.507883408264,2081
2148.4112969538774,1946
2150.3142604363848,1975
2152.2167741303097,2009
2154.1188383102535,1966
2156.0204532508997,2041
2157.9216192270064,2109
2159.822336513414,2010
2161.7226053850413,1989
2163.622426116884,2054
2165.5217989840185,2040
2167.4207242616,2044
2169.319202224862,2013
2171.2172331491165,1960
2173.1148173097563,2020
2175.0119549822507,2004
2176.90864644215,2042
2178.8048919650823,2100
2180.7006918267534,2043
2182.596046302952,1986
2184.4909556695407,2017
2186.3854202024645,2075
2188.279440177746,2072
2190.173015871487,1988
2192.066147559868,2036
2193.958835519149,2046
2195.851080025667,2096
2197.7428813558417,1980
2199.6342397861667,2023
2201.5251555932186,2001
2203.415629053651,1991
2205.3056604441986,2070
2207.19525004167,2046
2209.084398122958,2081
2210.9731049650327,2033
2212.861370844941,2102
2214.749196039812,2061
2216.636580826851,2111
2218.523525483344,2032
2220.410030286655,2020
2222.296095514226,2079
2224.1817214435805,2044
2226.066908352319,2097
2227.951656518121,2073
2229.835966218746,2044
2231.71983773203,2020
2233.6032713358913,2049
2235.486267308324,2102
2237.3688259274036,2123
2239.2509474712824,2041
2241.132632218193,2040
2243.013880446447,2151
2244.8946924344323,2109
2246.7750684606203,2040
2248.6550088035574,2116
2250.534513741871,2090
2252.413583554265,2096
2254.292218519526,2013
2256.170418916517,2126
2258.0481850241786,2142
2259.925517121534,2033
2261.8024154876825,2106
2263.678880401803,2178
2265.5549121431536,2134
2267.430510991071,2061
2269.305677224971,2047
2271.180411124348,2037
2273.0547129687766,2032
2274.9285830379076,2068
2276.8020216114737,2056
2278.6750289692845,2055
2280.5476053912294,2089
2282.4197511572766,2067
2284.2914665474727,2060
2286.162751841943,2121
2288.0336073208937,2088
2289.904033264608,2066
2291.774029953448,2087
2293.6435976678554,2065
2295.5127366883517,2139
2297.381447295534,2035
2299.2497297700825,2120
2301.1175843927526,2047
2302.9850114443825,2058
2304.852011205885,2027
2306.7185839582553,2047
2308.5847299825664,1987
2310.4504495599676,2016
2312.3157429716925,2063
2314.1806104990483,1976
2316.0450524234247,2108
2317.9090690262888,2029
2319.772660589186,1989
2321.635827393742,2084
2323.498569721661,2052
2325.3608878547248,2038
2327.2227820747967,2056
2329.0842526638157,2025
2330.945299903803,2022
2332.805924076857,2044
2334.6661254651535,1981
2336.525904350951,2108
2338.3852610165827,1997
2340.244195744464,1977
2342.102708817088,1989
2343.9608005170253,2028
2345.8184711269287,2028
2347.675720929526,2030
2349.532550207628,2090
2351.38895924412,2092
2353.24494832197,2035
2355.100517724223,2039
2356.955667734004,2023
2358.810398634514,2010
2360.664710709037,2035
2362.5186042409337,2025
2364.3720795136437,2028
2366.225136810686,2002
2368.0777764156583,1985
2369.929998612237,2055
2371.7818036841777,1977
2373.633191915315,2052
2375.484163589562,2046
2377.3347189909114,2091
2379.184858403434,2081
2381.03458211128,2040
2382.8838903986775,2033
2384.732783549936,2060
2386.5812618494406,2018
2388.4293255816588,1985
2390.2769750311327,2047
2392.1242104824883,2056
2393.971032220427,2014
2395.8174405297295,2052
2397.6634356952563,2085
2399.509018001947,2043
2401.3541877348193,2088
2403.1989451789705,2126
2405.043290619576,2071
2406.8872243418905,2043
2408.730746631247,2113
2410.5738577730594,2072
2412.4165580528183,2039
2414.258847756095,2079
2416.100727168537,2037
2417.9421965758734,2047
2419.783256263912,2056
2421.623906518538,2089
2423.4641476257157,2078
2425.303979871491,2068
2427.143403541984,2097
2428.9824189233977,2069
2430.821026302012,2078
2432.6592259641866,2067
2434.497018196361,2138
2436.33440328505,2132
2438.171381516851,2013
2440.00795317844,2068
2441.844118556569,2069
2443.6798779380724,2062
2445.5152316098606,2089
2447.3501798589255,2087
2449.1847229723357,2047
2451.0188612372403,2115
2452.8525949408663,2055
2454.6859243705203,2117
2456.518849813587,2079
2458.3513715575314,2114
2460.183489889895,2087
2462.015205098301,2110
2463.8465174704493,2075
2465.67742729412,2106
2467.5079348571717,2058
2469.338040447542,2045
2471.1677443532476,2092
2472.9970468623833,2072
2474.825948263123,2062
2476.6544488437207,2128
2478.482548892508,2063
2480.310248697896,2089
2482.137548548374,2072
2483.9644487325118,2155
2485.790949538956,2131
2487.617051256433,2147
2489.44275417375,2131
2491.26805857979,1997
2493.0929647635157,2125
2494.917473013971,2045
2496.741583620276,2040
2498.5652968716304,2097
2500.3886130573137,2148
2502.2115324666834,2149
2504.0340553891765,2131
2505.856182114308,2160
2507.6779129316733,2182
2509.499248130945,2095
2511.3201880018764,2143
2513.140732834298,2171
2514.9608829181198,2101
2516.780638543331,2145
2518.6,2105
2520.418967578273,2113
2522.237541568376,2183
2524.0557222606144,2166
2525.8735099453706,2083
2527.6909049131086,2128
2529.507907454368,2116
2531.32451785977,2175
2533.140736420014,2091
2534.9565634258774,2141
2536.771999168218,2143
2538.5870439379714,2196
2540.4016980261526,2220
2542.2159617238544,2108
2544.02983532225,2147
2545.8433191125914,2139
2547.656413386209,2129
2549.4691184345115,2182
2551.2814345489874,2153
2553.093362021204,2209
2554.904901142808,2170
2556.716052205523,2197
2558.526815501153,2210
2560.3371913215824,2278
2562.147179958771,2289
2563.956781704761,2224
2565.7659968516705,2219
2567.5748256916986,2256
2569.3832685171224,2219
2571.1913256202984,2241
2572.9989972936614,2245
2574.806283829725,2296
2576.613185521084,2263
2578.4197026604074,2223
2580.2258355404483,2261
2582.031584454035,2249
2583.836949694077,2257
2585.6419315535613,2229
2587.4465303255533,2354
2589.2507463032002,2283
2591.0545797797245,2265
2592.8580310484303,2333
2594.6611004026995,2283
2596.463788135992,2277
2598.266094541849,2253
2600.0680199138874,2306
2601.869564545807,2286
2603.670728731383,2317
2605.4715127644704,2286
2607.2719169390048,2295
2609.071941548998,2291
2610.8715868885433,2368
2612.670853251811,2293
2614.469740933052,2254
2616.268250226594,2273
2618.0663814268455,2268
2619.864134828292,2250
2621.6615107255006,2293
2623.458509413115,2291
2625.2551311858597,2223
2627.0513763385347,2323
2628.8472451660223,2112
2630.6427379632833,2219
2632.4378550253564,2206
2634.232596647359,2312
2636.026963124488,2232
2637.8209547520187,2164
2639.6145718253065,2134
2641.407814639785,2217
2643.200683490966,2252
2644.9931786744414,2187
2646.7853004858807,2293
2648.577049221034,2257
2650.3684251757277,2181
2652.1594286458712,2195
2653.9500599274484,2163
2655.740319316525,2228
2657.5302071092437,2141
2659.3197236018286,2078
2661.10886909058,2179
2662.8976438718782,2167
2664.686048242183,2113
2666.4740824980327,2076
2668.2617469360443,2101
2670.0490418529134,2119
2671.8359675454153,2182
2673.622524310403,2078
2675.408712444811,2102
2677.1945322456495,2123
2678.979984010009,2152
2680.76506803506,2128
2682.5497846180497,2080
2684.334134056306,2138
2686.1181166472343,2143
2687.9017326883213,2092
2689.6849824771293,2071
2691.4678663113013,2103
2693.2503844885596,2003
2695.032537306705,2095
2696.8143250636167,2140
2698.5957480572542,2106
2700.3768065856534,2011
2702.1575009469316,2088
2703.937831439283,2088
2705.717798360982,1999
2707.4974020103837,2033
2709.276642685917,1989
2711.055520686095,2008
2712.834036309506,1974
2714.612189854819,2019
2716.389981620782,2059
2718.1674119062204,2086
2719.944481010041,2051
2721.721189231226,1994
2723.4975368688415,1957
2725.273524222027,2020
2727.0491515900053,2027
2728.824419272075,1954
2730.5993275676146,1960
2732.3738767760838,1972
2734.148067197016,2018
2735.921899130031,1994
2737.6953728748194,1952
2739.468488731156,1970
2741.2412469988926,1954
2743.0136479779617,2075
2744.785691968372,1966
2746.5573792702116,1971
2748.3287101836504,2034
2750.099685008934,1983
2751.870304046388,1938
2753.640567596418,1921
2755.4104759595057,1955
2757.1800294362156,2015
2758.949228327187,1960
2760.7180729331412,1998
2762.486563554877,1974
2764.254700493272,2010
2766.022484049284,1971
2767.789914523947,1986
2769.5569922183786,1964
2771.3237174337705,1931
2773.090090471394,1944
2774.8561116326036,1985
2776.6217812188274,1919
2778.3870995315756,1964
2780.1520668724356,1961
2781.9166835430747,1960
2783.6809498452394,1964
2785.444866080754,1935
2787.2084325515225,1989
2788.971649559527,1917
2790.73451740683,1932
2792.4970363955713,1930
2794.2592068279705,1960
2796.0210290063264,1953
2797.7825032330147,1943
2799.543629810493,1929
2801.304409041296,2044
2803.0648412280366,1921
2804.8249266734088,1999
2806.5846656801846,2034
2808.344058551212,1967
2810.1031055894246,1997
2811.8618070978273,1952
2813.6201633795085,1966
2815.378174737636,1991
2817.1358414754536,1957
2818.893163896285,1901
2820.6501423035334,1992
2822.4067770006814,2048
2824.1630682912883,1935
2825.9190164789957,1898
2827.6746218675207,1981
2829.429884760661,1865
2831.184805462294,1877
2832.9393842763743,1970
2834.693621506936,1985
2836.4475174580916,1980
2838.201072434034,1930
2839.954286739034,1939
2841.707160677441,1988
2843.459694553685,1890
2845.2118886722724,1912
2846.96374333779,1965
2848.7152588549034,1952
2850.4664355283567,1969
2852.217273662973,1988
2853.9677735636546,1939
2855.7179355353833,1983
2857.4677598832186,1926
2859.217246912299,1908
2860.9663969278427,1928
2862.715210235146,1965
2864.4636871395846,1966
2866.211827946614,1937
2867.9596329617652,1994
2869.7071024906536,1938
2871.4542368389684,1920
2873.20103631248,1873
2874.947501217038,1883
2876.6936318585695,1903
2878.4394285430812,1960
2880.1848915766604,1947
2881.9300212654707,1947
2883.6748179157553,1885
2885.4192818338374,1857
2887.1634133261173,1860
2888.907212699077,1817
2890.6506802592744,1815
2892.393816313348,1857
2894.1366211680142,1838
2895.8790951300693,1931
2897.621238506388,1825
2899.363051603925,1894
2901.1045347297118,1881
2902.8456881908596,1895
2904.58651229456,1900
2906.327007348081,1944
2908.067173658772,1873
2909.8070115340597,1875
2911.5465212814497,1932
2913.285703208527,1865
2915.0245576229563,1846
2916.7630848324807,1901
2918.5012851449196,1972
2920.2391588681758,1925
2921.976706310227,1899
2923.7139277791334,1869
2925.4508235830313,1832
2927.187394030137,1830
2928.923639428745,1848
2930.6595600872306,1897
2932.395156314046,1909
2934.1304284177218,1882
2935.8653767068713,1924
2937.6000014901815,1840
2939.3343030764227,1926
2941.068281774442,1876
2942.8019378931644,1880
2944.5352717415976,1843
2946.2682836288236,1941
2948.0009738640065,1835
2949.7333427563885,1873
2951.465390615289,1824
2953.1971177501086,1866
2954.9285244703265,1835
2956.6596110855,1791
2958.3903779052657,1816
2960.1208252393385,1913
2961.8509533975125,1806
2963.5807626896617,1846
2965.3102534257378,1829
2967.0394259157715,1749
2968.768280469873,1858
2970.496817398232,1877
2972.2250370111146,1852
2973.952939618869,1910
2975.6805255319196,1901
2977.4077950607707,1883
2979.134748516006,1856
2980.861386208289,1859
2982.587708448359,1890
2984.313715547037,1848
2986.039407815222,1850
2987.764785563891,1840
2989.489849104102,1816
2991.2145987469908,1810
2992.9390348037705,1743
2994.6631575857346,1839
2996.3869674042576,1820
2998.1104645707887,1831
2999.83364939686,1811
3001.5565221940783,1835
3003.2790832741334,1762
3005.0013329487924,1812
3006.7232715298996,1819
3008.4448993293804,1690
3010.166216659239,1790
3011.887223831558,1866
3013.607921158498,1845
3015.3283089522993,1811
3017.0483875252826,1761
3018.7681571898443,1847
3020.4876182584626,1731
3022.2067710436927,1733
3023.9256158581707,1769
3025.644153014609,1850
3027.362382825801,1838
3029.0803056046193,1747
3030.797921664012,1731
3032.5152313170106,1745
3034.2322348767225,1750
3035.9489326563353,1795
3037.665324969115,1714
3039.3814121284063,1832
3041.097194447633,1760
3042.812672240299,1784
3044.5278458199855,1771
3046.2427155003525,1745
3047.9572815951406,1791
3049.671544418167,1716
3051.38550428333,1819
3053.0991615046073,1762
3054.812516396051,1786
3056.5255692717974,1767
3058.2383204460575,1757
3059.9507702331257,1767
3061.662918947372,1828
3063.3747669032446,1774
3065.0863144152736,1772
3066.7975617980674,1712
3068.508509366309,1689
3070.219157434767,1788
3071.9295063182844,1770
3073.639556331785,1751
3075.3493077902704,1765
3077.058761008821,1770
3078.7679163025964,1685
3080.476773986837,1778
3082.1853343768594,1717
3083.89359778806,1725
3085.6015645359153,1793
3087.3092349359786,1773
3089.016609303884,1782
3090.7236879553434,1768
3092.4304712061476,1758
3094.136959372166,1709
3095.843152769349,1782
3097.5490517137237,1779
3099.2546565213966,1730
3100.959967508554,1717
3102.66498499146,1740
3104.3697092864577,1730
3106.0741407099695,1756
3107.778279578498,1724
3109.482126208622,1758
3111.1856809170004,1712
3112.8889440203716,1730
3114.5919158355528,1768
3116.294596679439,1766
3117.996986869006,1774
3119.6990867213062,1718
3121.4008965534726,1779
3123.102416682717,1811
3124.803647426329,1743
3126.5045891016784,1747
3128.205242026213,1707
3129.90560651746,1717
3131.605682893025,1779
3133.3054714705922,1716
3135.0049725679282,1733
3136.7041865028714,1730
3138.4031135933465,1764
3140.101754157353,1725
3141.800108512971,1693
3143.498176978357,1736
3145.1959598717494,1702
3146.8934575114636,1742
3148.5906702158954,1714
3150.2875983035183,1712
3151.9842420928853,1735
3153.680601902627,1710
3155.376678051456,1768
3157.07247085816,1678
3158.767980641609,1664
3160.463207720748,1691
3162.158152414606,1715
3163.8528150422862,1708
3165.5471959229726,1650
3167.2412953759303,1692
3168.9351137204976,1739
3170.628651276098,1654
3172.3219083622307,1686
3174.014885298474,1682
3175.707582404485,1748
3177.4000000000005,1705
3179.092138404835,1677
3180.7839979388846,1700
3182.47557892212,1729
3184.166881674594,1709
3185.8579065164386,1746
3187.5486537678626,1666
3189.2391237491547,1701
3190.9293167806827,1757
3192.6192331828934,1652
3194.3088732763117,1694
3195.998237381542,1652
3197.687325819268,1698
3199.376138910251,1728
3201.064676975334,1664
3202.7529403354347,1727
3204.4409293115523,1684
3206.1286442247647,1665
3207.816085396229,1702
3209.5032531471825,1630
3211.190147798936,1679
3212.8767696728846,1574
3214.5631190905015,1635
3216.2491963733373,1657
3217.9350018430214,1684
3219.6205358212637,1644
3221.305798629851,1714
3222.990790590651,1637
3224.6755120256103,1566
3226.359963256751,1681
3228.0441446061795,1649
3229.7280563960758,1622
3231.411698948703,1592
3233.0950725863995,1672
3234.778177631587,1593
3236.461014406761,1658
3238.1435832345005,1656
3239.8258844374595,1620
3241.507918338374,1640
3243.1896852600576,1681
3244.8711855254023,1687
3246.552419457381,1621
3248.233387379042,1679
3249.914089613516,1654
3251.59452648401,1661
3253.274698313813,1680
3254.95460542629,1635
3256.6342481448855,1639
3258.313626793125,1577
3259.9927416946084,1659
3261.6715931730196,1587
3263.3501815521176,1633
3265.0285071557437,1612
3266.706570307815,1557
3268.3843713323286,1566
3270.0619105533615,1640
3271.739188295068,1581
3273.4162048816834,1612
3275.0929606375184,1573
3276.769455886966,1648
3278.445690954498,1607
3280.1216661646613,1669
3281.797381842087,1655
3283.4728383114807,1625
3285.1480358976296,1613
3286.8229749253996,1608
3288.4976557197333,1612
3290.172078605655,1581
3291.846243908266,1628
3293.5201519527463,1578
3295.193803064357,1618
3296.8671975684374,1630
3298.5403357904024,1587
3300.21321805575,1627
3301.8858446900567,1552
3303.558216018975,1640
3305.23033236824,1577
3306.9021940636603,1639
3308.57380143113,1647
3310.2451547966184,1672
3311.916254486174,1626
3313.5871008259246,1664
3315.2576941420766,1616
3316.9280347609147,1622
3318.5981230088046,1637
3320.2679592121895,1613
3321.9375436975924,1598
3323.606876791612,1539
3325.27595882093,1515
3326.944790112305,1584
3328.6133709925753,1632
3330.2817017886573,1532
3331.949782827547,1565
3333.617614436319,1536
3335.2851969421245,1625
3336.952530672199,1539
3338.619615953853,1631
3340.286453114475,1606
3341.9530424815357,1585
3343.619384382583,1593
3345.2854791452437,1541
3346.951327097224,1554
3348.6169285663073,1637
3350.2822838803577,1620
3351.947393367319,1575
3353.61225735521,1649
3355.2768761721345,1610
3356.9412501462693,1511
3358.605379605873,1588
3360.2692648792827,1555
3361.9329062949146,1544
3363.596304181263,1574
