CollectionTime,9/25/2024 11:17:47 AM
ExposureUsed,3
CalibratedSpectrum
-962.7078968117929,499
-959.9714848408522,500
-957.2358232597828,550
-954.5009119013725,568
-951.7667505983302,552
-949.0333391832855,566
-946.3006774887896,530
-943.5687653473143,545
-940.837602591253,595
-938.1071890529199,564
-935.3775245645503,589
-932.6486089583007,566
-929.9204420662485,541
-927.1930237203925,581
-924.4663537526524,576
-921.7404319948689,586
-919.0152582788041,602
-916.2908324361409,620
-913.5671542984834,604
-910.8442236973568,578
-908.1220404642074,568
-905.4006044304027,571
-902.679915427231,560
-899.959973285902,544
-897.2407778375464,551
-894.5223289132158,583
-891.8046263438832,580
-889.0876699604426,533
-886.3714595937089,582
-883.6559950744183,578
-880.9412762332282,575
-878.2273029007168,525
-875.5140749073835,545
-872.8015920836489,529
-870.0898542598545,521
-867.3788612662631,517
-864.6686129330585,544
-861.9591090903457,544
-859.2503495681506,578
-856.5423341964203,508
-853.8350628050229,507
-851.1285352237478,524
-848.4227512823054,563
-845.7177108103272,551
-843.0134136373656,524
-840.3098595928943,542
-837.6070485063082,572
-834.9049802069229,554
-832.2036545239757,578
-829.5030712866244,521
-826.8032303239481,558
-824.1041314649472,551
-821.4057745385428,586
-818.7081593735775,566
-816.0112857988148,551
-813.3151536429393,551
-810.6197627345566,568
-807.9251129021936,532
-805.2312039742981,541
-802.5380357792392,549
-799.8456081453069,636
-797.1539209007124,578
-794.462973873588,558
-791.772766891987,556
-789.083299783884,609
-786.3945723771743,567
-783.7065844996748,554
-781.0193359791231,534
-778.3328266431781,561
-775.6470563194197,551
-772.9620248353489,525
-770.2777320183878,537
-767.5941776958798,568
-764.9113616950891,574
-762.2292838432011,546
-759.5479439673222,552
-756.8673418944801,532
-754.1874774516235,581
-751.5083504656222,577
-748.8299607632671,588
-746.15230817127,551
-743.475392516264,571
-740.7992136248035,635
-738.1237713233636,594
-735.4490654383407,575
-732.7750957960521,572
-730.1018622227365,551
-727.4293645445534,566
-724.7576025875837,578
-722.0865761778291,611
-719.4162851412126,588
-716.7467293035781,616
-714.0779084906909,607
-711.409822528237,616
-708.7424712418238,607
-706.0758544569796,573
-703.4099719991541,561
-700.7448236937178,602
-698.0804093659622,559
-695.4167288411002,601
-692.7537819442656,606
-690.0915685005134,581
-687.4300883348199,573
-684.7693412720819,625
-682.1093271371178,592
-679.4500457546669,568
-676.7914969493897,593
-674.1336805458676,611
-671.4765963686034,627
-668.8202442420206,631
-666.1646239904642,577
-663.5097354382001,557
-660.8555784094151,617
-658.2021527282176,587
-655.5494582186366,605
-652.8974947046223,631
-650.2462620100463,663
-647.5957599587009,639
-644.9459883742998,641
-642.2969470804776,675
-639.6486359007902,619
-637.0010546587141,654
-634.3542031776476,622
-631.7080812809096,603
-629.0626887917401,614
-626.4180255333008,664
-623.7740913286734,683
-621.1308860008619,739
-618.4884093727904,695
-615.8466612673046,670
-613.2056415071715,629
-610.5653499150785,649
-607.9257863136347,661
-605.28695052537,700
-602.6488423727357,659
-600.0114616781036,674
-597.3748082637674,667
-594.7388819519412,700
-592.1036825647604,709
-589.4692099242818,724
-586.8354638524829,739
-584.2024441712624,804
-581.5701507024403,767
-578.9385832677575,738
-576.3077416888759,715
-573.6776257873787,691
-571.0482353847704,731
-568.4195703024757,707
-565.7916303618415,729
-563.164415384135,712
-560.5379251905453,680
-557.9121596021815,711
-555.2871184400748,702
-552.6628015251767,697
-550.0392086783606,749
-547.4163397204204,736
-544.794194472071,758
-542.1727727539491,770
-539.5520743866118,776
-536.9320991905377,800
-534.3128469861261,818
-531.6943175936979,888
-529.0765108334947,897
-526.4594265256793,925
-523.8430644903358,1085
-521.2274245474689,1265
-518.612506517005,1318
-515.9983102187913,1349
-513.3848354725959,1473
-510.77208209810846,1854
-508.16004991493924,2057
-505.5487387426199,2258
-502.9381484006032,2347
-500.3282787082628,2304
-497.71912948489364,2181
-495.1107005497117,1886
-492.5029917218539,1539
-489.8960028203786,1332
-487.28973366426493,1111
-484.68418407241325,1038
-482.07935386364494,987
-479.47524285670266,939
-476.87185087025,923
-474.2691777228715,974
-471.66722323307334,971
-469.0659872192821,943
-466.4654694998459,905
-463.86566989303384,899
-461.26658821703614,915
-458.66822428996414,921
-456.07057792985,909
-453.4736489546475,997
-450.877437182231,922
-448.28194243039627,840
-445.68716451686,879
-443.09310325926003,884
-440.49975847515555,827
-437.9071299820263,854
-435.31521759727354,850
-432.72402113821954,893
-430.13354042210767,1012
-427.5437752661022,960
-424.95472548728867,941
-422.36639090267386,890
-419.7787713291855,956
-417.1918665836721,938
-414.60567648290385,952
-412.0202008435715,960
-409.4354394822874,892
-406.8513922155845,919
-404.26805885991723,982
-401.685439231661,990
-399.103533147112,887
-396.522340422488,938
-393.9418608739278,945
-391.3620943174908,907
-388.7830405691583,971
-386.2046994448317,999
-383.6270707603344,885
-381.05015433141045,901
-378.473949973725,844
-375.8984575028645,848
-373.32367673433623,775
-370.74960748356875,756
-368.1762495659117,733
-365.60360279663576,739
-363.03166699093265,712
-360.4604419639154,662
-357.8899275306178,587
-355.32012350599507,580
-352.7510297049233,578
-350.1826459421999,570
-347.61497203254316,559
-345.04800779059235,591
-342.4817530309082,588
-339.91620756797226,636
-337.35137121618743,623
-334.7872437898774,652
-332.22382510328725,665
-329.66111497058273,707
-327.09911320585127,755
-324.53781962310075,683
-321.9772340362607,566
-319.4173562591816,576
-316.8581861056348,589
-314.2997233893127,648
-311.7419679238294,688
-309.1849195227194,690
-306.62857799943856,648
-304.0729431673641,681
-301.51801483979375,667
-298.963792829947,650
-296.41027695096386,644
-293.85746701590574,782
-291.3053628377552,872
-288.7539642294155,836
-286.2032710037115,853
-283.65328297338897,855
-281.1039999511146,815
-278.5554217494762,937
-276.007548180983,913
-273.4603790580651,886
-270.9139141930734,936
-268.3681533982807,997
-265.8230964858798,964
-263.27874326798565,956
-260.7350935566336,836
-258.1921471637804,947
-255.6499039013039,1096
-253.10836358100266,1071
-250.56752601459698,951
-248.02739101372765,867
-245.48795838995704,1009
-242.94922795476816,1044
-240.41119951956557,984
-237.8738728956746,1003
-235.33724789434166,1001
-232.80132432673452,941
-230.2661020039418,937
-227.73158073697357,992
-225.19776033676033,1072
-222.66464061415422,1150
-220.1322213799284,1094
-217.60050244477725,1065
-215.06948361931552,1047
-212.53916471408013,1088
-210.00954553952818,1184
-207.48062590603843,1159
-204.9524056239104,1022
-202.4248845033651,1072
-199.8980623545441,1212
-197.37193898751036,1275
-194.84651421224817,1283
-192.32178783866232,1172
-189.79775967657952,1243
-187.27442953574644,1303
-184.7517972258321,1396
-182.2298625564256,1263
-179.7086253370378,1153
-177.18808537710026,1379
-174.66824248596583,1764
-172.14909647290835,1772
-169.6306471471229,1538
-167.11289431772548,1215
-164.59583779375328,1226
-162.07947738416453,1480
-159.5638128978386,1760
-157.04884414357605,1896
-154.53457093009854,2000
-152.02099306604828,1723
-149.50811035998936,1663
-146.99592262040665,1704
-144.48442965570587,1948
-141.97363127421409,2095
-139.46352728417958,2210
-136.95411749377126,2238
-134.44540171107985,1943
-131.93737974411636,1871
-129.43005140081357,1708
-126.92341648902493,2083
-124.41747481652521,2513
-121.91222619101006,3243
-119.40767042009657,4303
-116.90380731132257,5451
-114.40063667214702,5284
-111.8981583099503,4787
-109.3963720320337,5222
-106.89527764561933,5591
-104.39487495785067,5588
-101.89516377579241,5992
-99.39614390642998,8110
-96.89781515667039,13375
-94.40017733334128,15290
-91.90323024319173,12700
-89.40697369289148,9745
-86.91140748903172,8143
-84.41653143812482,6908
-81.92234534660395,8055
-79.42884902082358,10493
-76.93604226705907,13865
-74.4439248915071,14433
-71.95249670028534,15944
-69.46175749943245,20851
-66.97170709490854,27775
-64.48234529259423,35634
-61.99367189829195,41853
-59.50568671772464,46552
-57.01838955653636,49018
-54.53178022029283,51150
-52.045858514480074,52471
-49.560624244506016,52986
-47.07607721569923,50210
-44.59221723330904,41974
-42.10904410250669,36119
-39.62655762838392,35084
-37.14475761595372,36241
-34.66364387015028,41035
-32.18321619582866,47531
-29.70347439776515,49193
-27.224418280657005,45949
-24.74604764912317,47994
-22.26836230770266,65040
-19.7913620608565,65040
-17.315046712966478,65040
-14.83941606833514,65040
-12.36446993118659,65040
-9.89020810566592,65040
-7.416630395839093,65040
-4.94373660569363,65040
-2.471526539137585,65040
-6.821210263296962E-13,65040
2.47084320796705,65040
4.941003281093458,65040
7.410480415786196,65040
9.879274808531363,65040
12.347386655893956,65040
14.814816154518212,65040
17.28156350112681,65040
19.74762889252179,65040
22.21301252558385,65040
24.67771459727237,23593
27.141735304626195,7428
29.605074844762612,7112
32.06773341487792,6053
34.52971121224755,5123
36.99100843422559,6024
39.45162527824516,7381
41.91156194181792,7318
44.370818622535126,5056
46.82939551806646,4377
49.287292826160524,4237
51.74451074464503,4422
54.201049471426245,4452
56.65690920448981,4309
59.112090141899785,4459
61.56659248179983,5011
64.02041642241159,3456
66.4735621620365,2713
68.92602989905402,3244
71.37781983192338,3380
73.82893215918205,2888
76.27936707944684,2653
78.72912479141326,3321
81.17820549385567,2950
83.62660938562783,2810
86.07433666566146,2360
88.5213875329681,3024
90.96776218663751,3016
93.41346082583925,2860
95.85848364982041,2618
98.30283085790859,2476
100.7465026495089,2499
103.18949922410604,2345
105.63182078126385,2563
108.07346752062438,2513
110.51443964190923,2336
112.95473734491827,1774
115.39436082953114,1484
117.83331029570547,1950
120.27158594347827,2316
122.7091879729652,2520
125.1461165843615,2536
127.58237197794062,2162
130.01795435405518,1860
132.4528639131364,1550
134.88710085569494,1764
137.32066538231982,2254
139.75355769367923,1802
142.1857779905207,1614
144.61732647366978,1741
147.04820334403132,1790
149.47840880258934,1740
151.90794305040674,1494
154.33680628862487,1593
156.76499871846443,1755
159.19252054122433,1815
161.61937195828352,1923
164.04555317109896,1932
166.47106438120693,2082
168.89590579022217,2282
171.320077599839,2316
173.7435800118302,2395
176.16641322804742,2478
178.58857745042144,2485
181.01007288096173,2715
183.43089972175687,2856
185.85105817497413,2793
188.27054844285988,2577
190.6893707277394,2571
193.10752523201643,2552
195.5250121581745,2638
197.9418317087751,2687
200.3579840864594,2579
202.7734694939469,2598
205.18828813403627,2671
207.6024402096051,2775
210.01592592360964,2685
212.42874547908548,2814
214.84089907914665,2726
217.2523869269868,2504
219.66320922587727,2673
222.0733661791695,2688
224.48285799029293,2795
226.8916848627572,2729
229.29984700014882,2746
231.7073446061355,2821
234.11417788446204,2734
236.520347038953,2721
238.92585227351185,2549
241.33069379212054,2561
243.73487179884035,2541
246.1383864978112,2662
248.541238093252,2589
250.9434267894609,2737
253.34495279081432,2851
255.74581630176783,2622
258.1460175268563,2598
260.54555667069314,2541
262.9444339379703,2576
265.3426495334594,2670
267.7402036620107,2629
270.1370965285529,2813
272.53332833809407,2789
274.9288992957214,2645
277.32380960660055,2714
279.718059475976,2661
282.1116491091717,2609
284.5045787115897,2601
286.89684848871195,2620
289.2884586460981,2526
291.67940938938807,2533
294.0697009242996,2636
296.4593334566299,2686
298.84830719225477,2708
301.23662233712923,2778
303.6242790972866,2587
306.01127767884,2512
308.39761828798066,2460
310.78330113097934,2442
313.16832641418534,2404
315.5526943440269,2312
317.9364051270112,2427
320.3194589697242,2450
322.70185607883093,2381
325.0835966610754,2363
327.4646809232805,2341
329.8451090723478,2387
332.2248813152577,2340
334.6039978590701,2329
336.9824589109231,2302
339.36026467803447,2189
341.7374153677,2203
344.113911187295,2243
346.48975234427337,2176
348.8649390461686,2204
351.2394715005918,2121
353.61334991523415,2189
355.9865744978655,2220
358.35914545633375,2061
360.73106299856715,2185
363.10232733257146,2183
365.47293866643247,2205
367.84289720831396,2111
370.2122031664593,2106
372.5808567491905,2056
374.9488581649083,2101
377.31620762209275,2031
379.6829053293021,2039
382.0489514951745,1952
384.4143463284262,2061
386.7790900378528,2065
389.14318283232853,1993
391.50662492080653,2013
393.86941651231916,1947
396.23155781597745,2053
398.5930490409713,2137
400.9538903965696,2089
403.3140820921202,2109
405.6736243370498,2080
408.03251734086336,1977
410.3907613131465,2034
412.74835646356166,1864
415.10530300185144,1941
417.4616011378372,2036
419.81725108141893,1949
422.1722530425758,2029
424.5266072313656,2060
426.880313857925,2018
429.2333731324701,1928
431.58578526529516,1909
433.9375504667738,1982
436.2886689473588,1923
438.63914091758113,1823
440.9889665880513,1834
443.33814616945835,1829
445.68667987257015,1891
448.03456790823395,1845
450.3818104873759,1910
452.72840782100013,1881
455.07436012019105,1861
457.41966759611057,1751
459.7643304600007,1848
462.10834892318155,1837
464.4517231970525,1832
466.79445349309174,1864
469.1365400228566,1903
471.4779829979826,1937
473.81878263018564,1968
476.15893913125876,1905
478.4984527130747,1976
480.8373235875855,2021
483.17555196682144,2114
485.5131380628919,2160
487.8500820879857,2210
490.1863842543697,2443
492.52204477439034,2573
494.8570638604725,2882
497.1914417251204,3236
499.52517858091653,3944
501.85827464052306,4630
504.19073011668036,5188
506.5225452222086,5284
508.85372017000566,5304
511.18425517304956,5086
513.514150444396,5227
515.8434061971808,5891
518.1720226446176,6596
520.4999999999999,6559
522.8273384766991,6032
525.1540382881666,5757
527.480099647932,4949
529.8055227696037,4005
532.1303078668694,2913
534.454455153496,2389
536.777964843328,2078
539.1008371502907,2051
541.4230722883866,2021
543.744670471698,1920
546.0656319143858,1951
548.3859568306899,1888
550.7056454349294,1952
553.0246979415016,2008
555.3431145648834,1976
557.6608955196306,1976
559.978041020377,1892
562.2945512818363,1979
564.6104265188006,1894
566.9256669461412,1876
569.2402727788082,1864
571.5542442318302,1929
573.8675815203156,1892
576.1802848594508,1965
578.4923544645015,1890
580.8037905508126,1927
583.114593333807,1928
585.4247630289875,1951
587.7342998519354,1939
590.0432040183106,1887
592.3514757438526,1948
594.6591152443794,1987
596.9661227357875,1895
599.2724984340531,1909
601.578242555231,1889
603.8833553154542,1926
606.1878369309362,1837
608.4916876179676,1924
610.7949075929192,1904
613.0974970722403,1889
615.3994562724587,1923
617.7007854101818,1907
620.0014847020951,1831
622.3015543649641,1927
624.6009946156324,1879
626.8998056710224,1886
629.1979877481361,1933
631.4955410640538,1924
633.7924658359349,1850
636.0887622810175,1982
638.3844306166192,1905
640.6794710601358,1922
642.9738838290426,1978
645.2676691408932,1902
647.5608272133207,1972
649.853358264037,1880
652.1452625108324,1918
654.4365401715764,1972
656.7271914642178,1913
659.0172166067838,1954
661.3066158173809,2003
663.5953893141935,1917
665.8835373154867,1946
668.1710600396028,1959
670.4579577049639,1998
672.7442305300709,1974
675.0298787335033,1942
677.3149025339197,1873
679.599302150058,1918
681.8830778007342,1982
684.1662297048437,1884
686.4487580813608,1903
688.7306631493387,1933
691.0119451279091,1923
693.2926042362834,1885
695.5726406937516,1972
697.8520547196814,1899
700.1308465335215,1923
702.4090163547982,1904
704.6865644031171,1910
706.9634908981619,1887
709.2397960596965,1904
711.5154801075631,1844
713.7905432616823,1977
716.0649857420548,1971
718.3388077687592,1912
720.612009561953,1968
722.8845913418733,1880
725.1565533288352,1902
727.427895743234,1925
729.6986188055427,1913
731.9687227363137,1930
734.238207756178,1884
736.5070740858458,1887
738.7753219461066,2020
741.0429515578281,1946
743.3099631419569,1867
745.5763569195191,1912
747.8421331116193,2016
750.1072919394409,1940
752.3718336242467,1873
754.6357583873777,1954
756.8990664502545,1904
759.1617580343765,1983
761.423833361321,2026
763.6852926527457,1980
765.9461361303862,2072
768.206364016058,2039
770.4659765316536,1933
772.7249738991469,1994
774.9833563405886,2057
777.2411240781092,1988
779.4982773339183,2021
781.7548163303044,1927
784.010741289634,2042
786.2660524343538,1999
788.5207499869881,1985
790.7748341701416,1942
793.0283052064964,1991
795.2811633188143,1919
797.5334087299362,2039
799.7850416627813,2023
802.0360623403484,1986
804.2864709857143,1986
806.5362678220353,2038
808.7854530725468,2048
811.0340269605625,1994
813.2819897094754,2055
815.5293415427581,2073
817.77608268396,2045
820.0222133567116,1958
822.2677337847211,1955
824.5126441917765,2077
826.7569448017433,2054
829.0006358385675,1905
831.2437175262731,1960
833.4861900889629,1973
835.7280537508192,2043
837.9693087361026,1980
840.2099552691533,1950
842.4499935743896,2016
844.689423876309,1997
846.9282463994886,1925
849.1664613685833,1968
851.4040690083276,1985
853.6410695435349,1914
855.877463199097,1979
858.1132501999847,2033
860.3484307712487,2058
862.5830051380175,2030
864.8169735254988,2067
867.0503361589791,1962
869.2830932638243,1983
871.5152450654786,1944
873.7467917894654,1961
875.9777336613873,1983
878.2080709069252,1962
880.4378037518389,2001
882.666932421968,1961
884.8954571432301,2071
887.1233781416219,2094
889.3506956432192,2064
891.5774098741766,2047
893.803521060728,2151
896.0290294291852,2031
898.2539352059397,2035
900.4782386174619,2018
902.7019398903011,2056
904.925039251085,2083
907.147536926521,2051
909.3694331433943,2089
911.59072812857,2108
913.8114221089921,2087
916.0315153116827,2048
918.2510079637437,2043
920.4699002923547,2025
922.6881925247761,2024
924.905884888345,2012
927.1229776104793,2043
929.3394709186747,2010
931.555365040506,2013
933.7706602036275,2015
935.9853566357709,2044
938.1994545647489,2044
940.4129542184515,2022
942.6258558248488,2076
944.8381596119883,2021
947.0498658079974,2073
949.2609746410825,2044
951.4714863395287,2031
953.6814011316998,2086
955.8907192460387,2041
958.0994409110671,2017
960.3075663553858,2009
962.5150958076741,2034
964.7220294966913,1993
966.928367651274,2003
969.1341105003388,2022
971.3392582728806,1924
973.5438111979742,1960
975.747769504772,1927
977.9511334225061,1906
980.153903180487,1876
982.3560790081052,1868
984.5576611348289,1867
986.7586497902058,1808
988.9590452038618,1834
991.158847605503,1835
993.3580572249133,1794
995.5566742919558,1844
997.7546990365728,1787
999.952131688785,1783
1002.1489724786926,1655
1004.3452216364743,1697
1006.5408793923874,1717
1008.7359459767691,1657
1010.9304216200343,1669
1013.1243065526781,1662
1015.3176010052733,1628
1017.510305208472,1620
1019.7024193930064,1562
1021.8939437896848,1605
1024.0848786293977,1650
1026.2752241431122,1538
1028.4649805618747,1534
1030.6541481168115,1513
1032.842727039127,1575
1035.0307175601051,1575
1037.2181199111074,1530
1039.4049343235752,1601
1041.591161029029,1550
1043.7768002590683,1508
1045.9618522453698,1504
1048.1463172196918,1501
1050.3301954138697,1551
1052.513487059818,1500
1054.69619238953,1569
1056.8783116350783,1516
1059.0598450286152,1535
1061.2407928023704,1556
1063.4211551886528,1541
1065.6009324198508,1559
1067.780124728432,1487
1069.9587323469414,1534
1072.1367555080046,1498
1074.314194444325,1455
1076.4910493886855,1460
1078.667320573947,1430
1080.843008233051,1494
1083.0181125990161,1475
1085.1926339049414,1510
1087.3665723840027,1472
1089.5399282694575,1420
1091.7127017946405,1423
1093.8848931929647,1432
1096.0565026979243,1491
1098.2275305430899,1435
1100.3979769621128,1391
1102.567842188722,1464
1104.737126456726,1438
1106.9058300000124,1388
1109.0739530525475,1425
1111.2414958483764,1361
1113.4084586216231,1387
1115.5748416064907,1434
1117.7406450372605,1464
1119.9058691482942,1423
1122.0705141740304,1402
1124.2345803489884,1377
1126.3980679077658,1384
1128.5609770850388,1380
1130.7233081155623,1341
1132.8850612341707,1379
1135.0462366757774,1412
1137.2068346753745,1336
1139.3668554680326,1395
1141.526299288901,1391
1143.68516637321,1413
1145.8434569562655,1404
1148.001171273455,1327
1150.158309560244,1374
1152.3148720521767,1342
1154.470858984876,1299
1156.626270594044,1388
1158.7811071154629,1394
1160.9353687849912,1415
1163.089055838569,1333
1165.242168512213,1321
1167.3947070420209,1385
1169.5466716641677,1397
1171.6980626149075,1401
1173.8488801305748,1375
1175.9991244475814,1359
1178.1487958024186,1336
1180.2978944316555,1362
1182.4464205719428,1366
1184.5943744600072,1386
1186.7417563326567,1385
1188.8885664267755,1351
1191.0348049793297,1370
1193.1804722273619,1335
1195.325568407995,1356
1197.4700937584303,1388
1199.614048515948,1398
1201.7574329179074,1328
1203.900247201746,1380
1206.042491604982,1324
1208.1841663652099,1375
1210.3252717201053,1409
1212.465807907422,1398
1214.6057751649923,1391
1216.7451737307279,1363
1218.8840038426192,1347
1221.0222657387353,1456
1223.1599596572241,1394
1225.2970858363137,1398
1227.4336445143094,1395
1229.5696359295966,1377
1231.705060320639,1420
1233.8399179259786,1386
1235.9742089842384,1394
1238.107933734118,1440
1240.2410924143974,1435
1242.373685263935,1394
1244.5057125216676,1505
1246.6371744266116,1404
1248.7680712178621,1343
1250.898403134593,1426
1253.028170416058,1375
1255.1573733015875,1400
1257.2860120305932,1427
1259.4140868425648,1399
1261.54159797707,1430
1263.6685456737569,1382
1265.7949301723515,1394
1267.9207517126597,1379
1270.046010534565,1440
1272.1707068780306,1435
1274.2948409830983,1388
1276.4184130898889,1391
1278.541423438603,1433
1280.6638722695184,1436
1282.785759822993,1428
1284.9070863394636,1421
1287.0278520594447,1426
1289.1480572235314,1399
1291.2677020723963,1462
1293.3867868467923,1457
1295.5053117875495,1479
1297.623277135579,1428
1299.740683131868,1429
1301.8575300174857,1408
1303.973818033578,1504
1306.0895474213703,1432
1308.2047184221678,1479
1310.3193312773528,1447
1312.4333862283888,1457
1314.5468835168163,1496
1316.659823384255,1420
1318.7722060724045,1428
1320.8840318230418,1410
1322.9953008780249,1473
1325.1060134792888,1399
1327.2161698688478,1471
1329.3257702887959,1393
1331.4348149813054,1452
1333.5433041886276,1447
1335.6512381530933,1440
1337.7586171171101,1455
1339.8654413231675,1477
1341.9717110138317,1411
1344.0774264317488,1333
1346.1825878196432,1499
1348.2871954203192,1467
1350.3912494766587,1436
1352.4947502316231,1466
1354.5976979282532,1454
1356.7000928096686,1468
1358.8019351190665,1454
1360.9032250997243,1469
1363.0039629949988,1451
1365.1041490483235,1423
1367.2037835032133,1468
1369.3028666032606,1413
1371.401398592137,1397
1373.4993797135926,1420
1375.5968102114575,1496
1377.6936903296396,1427
1379.7900203121262,1417
1381.8858004029835,1409
1383.9810308463561,1465
1386.075711886469,1418
1388.1698437676241,1424
1390.2634267342032,1428
1392.356461030667,1531
1394.4489469015557,1503
1396.5408845914872,1487
1398.6322743451592,1513
1400.7231164073469,1456
1402.813411022907,1450
1404.903158436773,1543
1406.9923588939578,1445
1409.0810126395531,1452
1411.1691199187303,1443
1413.2566809767386,1465
1415.343696058907,1541
1417.4301654106425,1529
1419.5160892774315,1488
1421.6014679048399,1539
1423.6863015385125,1525
1425.7705904241707,1504
1427.8543348076178,1493
1429.9375349347342,1522
1432.0201910514802,1496
1434.102303403894,1503
1436.1838722380944,1462
1438.2648978002767,1480
1440.3453803367174,1445
1442.4253200937692,1532
1444.5047173178677,1453
1446.5835722555234,1467
1448.6618851533285,1435
1450.739656257952,1454
1452.8168858161434,1515
1454.8935740747306,1504
1456.96972128062,1502
1459.045327680797,1439
1461.120393522327,1470
1463.1949190523528,1525
1465.2689045180973,1512
1467.3423501668608,1486
1469.415256246024,1525
1471.4876230030463,1550
1473.559450685465,1568
1475.6307395408976,1537
1477.7014898170391,1501
1479.771701761665,1593
1481.8413756226287,1489
1483.9105116478618,1514
1485.9791100853772,1507
1488.0471711832643,1578
1490.1146951896926,1621
1492.1816823529098,1538
1494.2481329212433,1556
1496.3140471430984,1572
1498.3794252669609,1586
1500.4442675413939,1562
1502.5085742150404,1579
1504.572345536622,1588
1506.6355817549388,1579
1508.6982831188702,1618
1510.7604498773744,1581
1512.8220822794883,1660
1514.8831805743293,1559
1516.9437450110909,1603
1519.003775839048,1596
1521.0632733075522,1637
1523.1222376660367,1659
1525.1806691640113,1632
1527.2385680510652,1627
1529.2959345768668,1599
1531.3527689911643,1585
1533.4090715437833,1588
1535.4648424846291,1630
1537.5200820636855,1662
1539.5747905310159,1629
1541.6289681367616,1600
1543.6826151311434,1659
1545.7357317644614,1677
1547.7883182870937,1671
1549.8403749494987,1603
1551.8919020022113,1700
1553.9428996958477,1720
1555.9933682811015,1717
1558.0433080087469,1707
1560.0927191296346,1681
1562.1416018946961,1753
1564.1899565549415,1776
1566.2377833614592,1761
1568.2850825654164,1752
1570.3318544180606,1848
1572.3780991707158,1860
1574.423817074788,1742
1576.4690083817595,1772
1578.5136733431923,1794
1580.5578122107272,1706
1582.601425236085,1762
1584.6445126710646,1653
1586.6870747675434,1678
1588.7291117774776,1709
1590.7706239529034,1617
1592.8116115459347,1632
1594.8520748087658,1595
1596.8920139936686,1563
1598.9314293529933,1567
1600.9703211391711,1569
1603.008689604711,1510
1605.0465350022005,1483
1607.0838575843068,1489
1609.1206576037753,1489
1611.1569353134305,1493
1613.1926909661765,1552
1615.2279248149953,1470
1617.2626371129481,1522
1619.2968281131757,1499
1621.3304980688963,1494
1623.3636472334088,1471
1625.39627586009,1430
1627.428384202396,1439
1629.459972513861,1462
1631.4910410480993,1428
1633.5215900588028,1407
1635.551619799744,1429
1637.5811305247717,1475
1639.6101224878166,1403
1641.6385959428862,1453
1643.6665511440683,1423
1645.693988345528,1475
1647.7209078015112,1407
1649.7473097663405,1440
1651.7731944944203,1319
1653.7985622402307,1487
1655.823413258333,1397
1657.847747803366,1479
1659.8715661300494,1433
1661.8948684931793,1399
1663.9176551476316,1436
1665.9399263483624,1437
1667.9616823504057,1419
1669.982923408873,1412
1672.0036497789574,1421
1674.0238617159293,1397
1676.043559475138,1422
1678.0627433120121,1413
1680.081413482059,1400
1682.0995702408654,1416
1684.117213844096,1414
1686.134344547495,1383
1688.1509626068864,1407
1690.1670682781705,1395
1692.182661817329,1347
1694.1977434804217,1382
1696.2123135235875,1453
1698.226372203043,1431
1700.2399197750851,1471
1702.2529564960905,1475
1704.2654826225112,1419
1706.277498410882,1428
1708.2890041178139,1455
1710.2999999999988,1441
1712.3104863142066,1372
1714.3204633172854,1402
1716.329931266163,1403
1718.3388904178469,1409
1720.3473410294214,1408
1722.3552833580516,1446
1724.3627176609807,1462
1726.3696441955308,1431
1728.3760632191033,1471
1730.3819749891782,1355
1732.3873797633146,1422
1734.3922777991502,1413
1736.3966693544012,1465
1738.4005546868639,1400
1740.4039340544127,1467
1742.406807715001,1400
1744.4091759266616,1400
1746.4110389475054,1426
1748.4123970357223,1400
1750.413250449582,1402
1752.4135994474318,1400
1754.4134442876993,1444
1756.4127852288902,1453
1758.4116225295893,1422
1760.4099564484595,1410
1762.407787244244,1435
1764.405115175764,1403
1766.4019405019203,1374
1768.3982634816916,1379
1770.3940843741357,1395
1772.3894034383907,1458
1774.3842209336717,1379
1776.378537119274,1410
1778.372352254571,1421
1780.3656665990156,1381
1782.3584804121397,1422
1784.3507939535534,1383
1786.3426074829463,1377
1788.3339212600863,1421
1790.3247355448211,1415
1792.3150505970766,1368
1794.3048666768573,1374
1796.2941840442477,1404
1798.2830029594106,1378
1800.2713236825884,1411
1802.2591464741004,1403
1804.2464715943465,1407
1806.2332993038058,1412
1808.2196298630352,1438
1810.2054635326708,1442
1812.190800573428,1355
1814.175641246101,1387
1816.1599858115628,1387
1818.1438345307652,1455
1820.127187664738,1432
1822.1100454745924,1427
1824.092408221516,1383
1826.0742761667766,1421
1828.055649571721,1408
1830.0365286977735,1396
1832.0169138064398,1359
1833.9968051593014,1363
1835.9762030180214,1403
1837.9551076443408,1448
1839.9335193000788,1410
1841.9114382471344,1405
1843.888864747485,1425
1845.8657990631878,1449
1847.842241456378,1349
1849.8181921892697,1353
1851.7936515241558,1353
1853.7686197234098,1343
1855.7430970494815,1329
1857.7170837649014,1420
1859.6905801322787,1399
1861.6635864143004,1351
1863.6361028737338,1425
1865.608129773424,1369
1867.5796673762961,1410
1869.5507159453537,1394
1871.521275743678,1400
1873.4913470344313,1423
1875.4609300808534,1420
1877.4300251462632,1405
1879.3986324940588,1372
1881.366752387717,1351
1883.3343850907936,1367
1885.3015308669228,1395
1887.268189979819,1367
1889.2343626932739,1436
1891.2000492711595,1410
1893.1652499774254,1355
1895.1299650761011,1354
1897.0941948312952,1439
1899.0579395071945,1398
1901.0211993680641,1454
1902.98397467825,1413
1904.9462657021745,1393
1906.9080727043415,1428
1908.869395949332,1446
1910.8302357018065,1458
1912.790592226504,1438
1914.7504657882428,1451
1916.7098566519212,1416
1918.6687650825133,1460
1920.6271913450764,1379
1922.5851357047422,1433
1924.5425984267245,1401
1926.499579776314,1415
1928.4560800188833,1403
1930.4120994198802,1408
1932.367638244833,1413
1934.32269675935,1395
1936.2772752291175,1432
1938.231373919899,1369
1940.1849930975404,1410
1942.1381330279637,1430
1944.0907939771696,1454
1946.0429762112412,1401
1947.9946799963363,1370
1949.9459055986945,1407
1951.896653284633,1433
1953.8469233205478,1453
1955.7967159729142,1418
1957.7460315082863,1361
1959.6948701932974,1394
1961.6432322946594,1417
1963.5911180791632,1389
1965.5385278136787,1451
1967.4854617651545,1399
1969.4319202006182,1403
1971.377903387176,1375
1973.3234115920136,1400
1975.268445082395,1377
1977.2130041256642,1420
1979.1570889892423,1461
1981.1006999406304,1443
1983.04383724741,1342
1984.986501177238,1410
1986.928691997853,1430
1988.8704099770712,1453
1990.811655382789,1375
1992.7524284829801,1435
1994.692729545698,1409
1996.6325588390755,1390
1998.5719166313224,1359
2000.5108031907307,1390
2002.4492187856677,1413
2004.387163684583,1353
2006.3246381560011,1444
2008.2616424685298,1441
2010.1981768908527,1350
2012.1342416917332,1379
2014.069837140014,1499
2016.0049635046162,1440
2017.9396210545406,1402
2019.8738100588666,1400
2021.8075307867502,1338
2023.740783507431,1413
2025.6735684902228,1437
2027.6058860045214,1422
2029.5377363198004,1408
2031.4691197056118,1371
2033.4000364315875,1428
2035.3304867674374,1432
2037.260470982952,1414
2039.189989347998,1361
2041.1190421325232,1423
2043.047629606554,1428
2044.9757520401945,1453
2046.9034097036288,1354
2048.8306028671195,1347
2050.7573318010086,1417
2052.683596775716,1379
2054.609398061742,1373
2056.5347359296647,1367
2058.4596106501403,1410
2060.384022493906,1384
2062.3079717317764,1402
2064.231458634646,1396
2066.1544834734873,1397
2068.077046519352,1384
2069.99914804337,1332
2071.9207883167524,1343
2073.8419676107865,1349
2075.7626861968406,1355
2077.6829443463607,1423
2079.6027423308715,1440
2081.522080421977,1404
2083.440958891362,1369
2085.359378010786,1387
2087.2773380520907,1361
2089.194839287196,1378
2091.111881988101,1362
2093.0284664268825,1369
2094.9445928756973,1436
2096.86026160678,1365
2098.775472892446,1357
2100.690227005088,1443
2102.604524217178,1386
2104.5183648012676,1430
2106.431749029985,1495
2108.34467717604,1388
2110.2571495122206,1344
2112.169166311393,1305
2114.080727846503,1381
2115.9918343905747,1349
2117.902486216711,1351
2119.8126835980956,1427
2121.722426807987,1440
2123.6317161197285,1423
2125.5405518067364,1427
2127.448934142509,1419
2129.356863400624,1400
2131.264339854737,1456
2133.1713637785815,1393
2135.077935445972,1395
2136.9840551308002,1453
2138.889723107037,1428
2140.7949396487334,1411
2142.699705030018,1410
2144.6040195250994,1415
2146.507883408264,1455
2148.4112969538774,1472
2150.3142604363848,1400
2152.2167741303097,1441
2154.1188383102535,1404
2156.0204532508997,1371
2157.9216192270064,1405
2159.822336513414,1382
2161.7226053850413,1397
2163.622426116884,1427
2165.5217989840185,1506
2167.4207242616,1444
2169.319202224862,1391
2171.2172331491165,1419
2173.1148173097563,1446
2175.0119549822507,1452
2176.90864644215,1421
2178.8048919650823,1402
2180.7006918267534,1422
2182.596046302952,1471
2184.4909556695407,1449
2186.3854202024645,1417
2188.279440177746,1425
2190.173015871487,1422
2192.066147559868,1443
2193.958835519149,1424
2195.851080025667,1439
2197.7428813558417,1455
2199.6342397861667,1467
2201.5251555932186,1451
2203.415629053651,1464
2205.3056604441986,1491
2207.19525004167,1479
2209.084398122958,1444
2210.9731049650327,1473
2212.861370844941,1468
2214.749196039812,1436
2216.636580826851,1486
2218.523525483344,1462
2220.410030286655,1431
2222.296095514226,1449
2224.1817214435805,1483
2226.066908352319,1459
2227.951656518121,1440
2229.835966218746,1480
2231.71983773203,1484
2233.6032713358913,1468
2235.486267308324,1408
2237.3688259274036,1447
2239.2509474712824,1450
2241.132632218193,1454
2243.013880446447,1459
2244.8946924344323,1440
2246.7750684606203,1427
2248.6550088035574,1462
2250.534513741871,1499
2252.413583554265,1521
2254.292218519526,1445
2256.170418916517,1451
2258.0481850241786,1426
2259.925517121534,1502
2261.8024154876825,1523
2263.678880401803,1478
2265.5549121431536,1459
2267.430510991071,1474
2269.305677224971,1488
2271.180411124348,1516
2273.0547129687766,1449
2274.9285830379076,1506
2276.8020216114737,1456
2278.6750289692845,1470
2280.5476053912294,1490
2282.4197511572766,1490
2284.2914665474727,1523
2286.162751841943,1564
2288.0336073208937,1547
2289.904033264608,1565
2291.774029953448,1524
2293.6435976678554,1480
2295.5127366883517,1562
2297.381447295534,1421
2299.2497297700825,1455
2301.1175843927526,1425
2302.9850114443825,1358
2304.852011205885,1334
2306.7185839582553,1360
2308.5847299825664,1353
2310.4504495599676,1317
2312.3157429716925,1292
2314.1806104990483,1251
2316.0450524234247,1228
2317.9090690262888,1299
2319.772660589186,1217
2321.635827393742,1255
2323.498569721661,1308
2325.3608878547248,1238
2327.2227820747967,1239
2329.0842526638157,1259
2330.945299903803,1268
2332.805924076857,1214
2334.6661254651535,1198
2336.525904350951,1269
2338.3852610165827,1248
2340.244195744464,1275
2342.102708817088,1228
2343.9608005170253,1254
2345.8184711269287,1213
2347.675720929526,1261
2349.532550207628,1225
2351.38895924412,1256
2353.24494832197,1228
2355.100517724223,1263
2356.955667734004,1275
2358.810398634514,1233
2360.664710709037,1247
2362.5186042409337,1309
2364.3720795136437,1193
2366.225136810686,1193
2368.0777764156583,1261
2369.929998612237,1255
2371.7818036841777,1319
2373.633191915315,1275
2375.484163589562,1240
2377.3347189909114,1212
2379.184858403434,1272
2381.03458211128,1268
2382.8838903986775,1254
2384.732783549936,1239
2386.5812618494406,1241
2388.4293255816588,1248
2390.2769750311327,1240
2392.1242104824883,1275
2393.971032220427,1236
2395.8174405297295,1263
2397.6634356952563,1284
2399.509018001947,1279
2401.3541877348193,1230
2403.1989451789705,1281
2405.043290619576,1260
2406.8872243418905,1296
2408.730746631247,1294
2410.5738577730594,1298
2412.4165580528183,1250
2414.258847756095,1245
2416.100727168537,1266
2417.9421965758734,1259
2419.783256263912,1252
2421.623906518538,1321
2423.4641476257157,1264
2425.303979871491,1292
2427.143403541984,1288
2428.9824189233977,1243
2430.821026302012,1307
2432.6592259641866,1227
2434.497018196361,1258
2436.33440328505,1221
2438.171381516851,1260
2440.00795317844,1270
2441.844118556569,1186
2443.6798779380724,1212
2445.5152316098606,1264
2447.3501798589255,1251
2449.1847229723357,1237
2451.0188612372403,1219
2452.8525949408663,1256
2454.6859243705203,1245
2456.518849813587,1271
2458.3513715575314,1311
2460.183489889895,1243
2462.015205098301,1261
2463.8465174704493,1227
2465.67742729412,1253
2467.5079348571717,1275
2469.338040447542,1234
2471.1677443532476,1253
2472.9970468623833,1251
2474.825948263123,1237
2476.6544488437207,1271
2478.482548892508,1299
2480.310248697896,1256
2482.137548548374,1268
2483.9644487325118,1311
2485.790949538956,1231
2487.617051256433,1264
2489.44275417375,1230
2491.26805857979,1259
2493.0929647635157,1252
2494.917473013971,1269
2496.741583620276,1265
2498.5652968716304,1229
2500.3886130573137,1302
2502.2115324666834,1246
2504.0340553891765,1250
2505.856182114308,1289
2507.6779129316733,1284
2509.499248130945,1283
2511.3201880018764,1319
2513.140732834298,1197
2514.9608829181198,1275
2516.780638543331,1270
2518.6,1286
2520.418967578273,1244
2522.237541568376,1282
2524.0557222606144,1224
2525.8735099453706,1284
2527.6909049131086,1279
2529.507907454368,1277
2531.32451785977,1257
2533.140736420014,1267
2534.9565634258774,1271
2536.771999168218,1339
2538.5870439379714,1276
2540.4016980261526,1265
2542.2159617238544,1272
2544.02983532225,1286
2545.8433191125914,1235
2547.656413386209,1307
2549.4691184345115,1291
2551.2814345489874,1336
2553.093362021204,1285
2554.904901142808,1241
2556.716052205523,1308
2558.526815501153,1306
2560.3371913215824,1295
2562.147179958771,1364
2563.956781704761,1286
2565.7659968516705,1285
2567.5748256916986,1321
2569.3832685171224,1299
2571.1913256202984,1324
2572.9989972936614,1365
2574.806283829725,1331
2576.613185521084,1257
2578.4197026604074,1307
2580.2258355404483,1289
2582.031584454035,1306
2583.836949694077,1315
2585.6419315535613,1356
2587.4465303255533,1352
2589.2507463032002,1443
2591.0545797797245,1375
2592.8580310484303,1311
2594.6611004026995,1345
2596.463788135992,1313
2598.266094541849,1364
2600.0680199138874,1335
2601.869564545807,1358
2603.670728731383,1365
2605.4715127644704,1329
2607.2719169390048,1311
2609.071941548998,1343
2610.8715868885433,1389
2612.670853251811,1353
2614.469740933052,1290
2616.268250226594,1368
2618.0663814268455,1309
2619.864134828292,1324
2621.6615107255006,1292
2623.458509413115,1331
2625.2551311858597,1340
2627.0513763385347,1355
2628.8472451660223,1268
2630.6427379632833,1287
2632.4378550253564,1324
2634.232596647359,1284
2636.026963124488,1313
2637.8209547520187,1310
2639.6145718253065,1281
2641.407814639785,1270
2643.200683490966,1326
2644.9931786744414,1309
2646.7853004858807,1276
2648.577049221034,1316
2650.3684251757277,1288
2652.1594286458712,1318
2653.9500599274484,1292
2655.740319316525,1243
2657.5302071092437,1255
2659.3197236018286,1286
2661.10886909058,1260
2662.8976438718782,1289
2664.686048242183,1280
2666.4740824980327,1275
2668.2617469360443,1298
2670.0490418529134,1280
2671.8359675454153,1306
2673.622524310403,1293
2675.408712444811,1275
2677.1945322456495,1250
2678.979984010009,1248
2680.76506803506,1358
2682.5497846180497,1299
2684.334134056306,1297
2686.1181166472343,1240
2687.9017326883213,1228
2689.6849824771293,1296
2691.4678663113013,1285
2693.2503844885596,1265
2695.032537306705,1280
2696.8143250636167,1279
2698.5957480572542,1308
2700.3768065856534,1256
2702.1575009469316,1268
2703.937831439283,1261
2705.717798360982,1273
2707.4974020103837,1251
2709.276642685917,1235
2711.055520686095,1233
2712.834036309506,1217
2714.612189854819,1216
2716.389981620782,1256
2718.1674119062204,1240
2719.944481010041,1232
2721.721189231226,1267
2723.4975368688415,1223
2725.273524222027,1260
2727.0491515900053,1271
2728.824419272075,1256
2730.5993275676146,1237
2732.3738767760838,1273
2734.148067197016,1252
2735.921899130031,1224
2737.6953728748194,1222
2739.468488731156,1203
2741.2412469988926,1235
2743.0136479779617,1240
2744.785691968372,1254
2746.5573792702116,1260
2748.3287101836504,1243
2750.099685008934,1224
2751.870304046388,1251
2753.640567596418,1296
2755.4104759595057,1262
2757.1800294362156,1217
2758.949228327187,1233
2760.7180729331412,1220
2762.486563554877,1219
2764.254700493272,1191
2766.022484049284,1224
2767.789914523947,1184
2769.5569922183786,1182
2771.3237174337705,1277
2773.090090471394,1261
2774.8561116326036,1288
2776.6217812188274,1268
2778.3870995315756,1208
2780.1520668724356,1271
2781.9166835430747,1271
2783.6809498452394,1191
2785.444866080754,1238
2787.2084325515225,1273
2788.971649559527,1254
2790.73451740683,1196
2792.4970363955713,1225
2794.2592068279705,1247
2796.0210290063264,1215
2797.7825032330147,1185
2799.543629810493,1266
2801.304409041296,1272
2803.0648412280366,1266
2804.8249266734088,1248
2806.5846656801846,1252
2808.344058551212,1277
2810.1031055894246,1312
2811.8618070978273,1200
2813.6201633795085,1240
2815.378174737636,1299
2817.1358414754536,1296
2818.893163896285,1214
2820.6501423035334,1221
2822.4067770006814,1309
2824.1630682912883,1254
2825.9190164789957,1210
2827.6746218675207,1229
2829.429884760661,1237
2831.184805462294,1263
2832.9393842763743,1272
2834.693621506936,1267
2836.4475174580916,1251
2838.201072434034,1253
2839.954286739034,1250
2841.707160677441,1246
2843.459694553685,1295
2845.2118886722724,1250
2846.96374333779,1216
2848.7152588549034,1309
2850.4664355283567,1270
2852.217273662973,1238
2853.9677735636546,1268
2855.7179355353833,1258
2857.4677598832186,1235
2859.217246912299,1264
2860.9663969278427,1228
2862.715210235146,1186
2864.4636871395846,1230
2866.211827946614,1276
2867.9596329617652,1244
2869.7071024906536,1260
2871.4542368389684,1199
2873.20103631248,1235
2874.947501217038,1214
2876.6936318585695,1185
2878.4394285430812,1217
2880.1848915766604,1268
2881.9300212654707,1275
2883.6748179157553,1247
2885.4192818338374,1229
2887.1634133261173,1240
2888.907212699077,1309
2890.6506802592744,1338
2892.393816313348,1249
2894.1366211680142,1240
2895.8790951300693,1257
2897.621238506388,1241
2899.363051603925,1275
2901.1045347297118,1268
2902.8456881908596,1278
2904.58651229456,1291
2906.327007348081,1243
2908.067173658772,1256
2909.8070115340597,1245
2911.5465212814497,1300
2913.285703208527,1222
2915.0245576229563,1281
2916.7630848324807,1248
2918.5012851449196,1201
2920.2391588681758,1237
2921.976706310227,1208
2923.7139277791334,1230
2925.4508235830313,1265
2927.187394030137,1226
2928.923639428745,1240
2930.6595600872306,1286
2932.395156314046,1337
2934.1304284177218,1273
2935.8653767068713,1260
2937.6000014901815,1238
2939.3343030764227,1313
2941.068281774442,1276
2942.8019378931644,1272
2944.5352717415976,1276
2946.2682836288236,1312
2948.0009738640065,1320
2949.7333427563885,1249
2951.465390615289,1265
2953.1971177501086,1258
2954.9285244703265,1328
2956.6596110855,1259
2958.3903779052657,1260
2960.1208252393385,1252
2961.8509533975125,1296
2963.5807626896617,1206
2965.3102534257378,1240
2967.0394259157715,1174
2968.768280469873,1233
2970.496817398232,1255
2972.2250370111146,1262
2973.952939618869,1268
2975.6805255319196,1277
2977.4077950607707,1269
2979.134748516006,1214
2980.861386208289,1249
2982.587708448359,1272
2984.313715547037,1259
2986.039407815222,1265
2987.764785563891,1211
2989.489849104102,1213
2991.2145987469908,1291
2992.9390348037705,1213
2994.6631575857346,1245
2996.3869674042576,1289
2998.1104645707887,1240
2999.83364939686,1228
3001.5565221940783,1223
3003.2790832741334,1172
3005.0013329487924,1253
3006.7232715298996,1240
3008.4448993293804,1188
3010.166216659239,1255
3011.887223831558,1272
3013.607921158498,1212
3015.3283089522993,1235
3017.0483875252826,1283
3018.7681571898443,1229
3020.4876182584626,1236
3022.2067710436927,1254
3023.9256158581707,1252
3025.644153014609,1250
3027.362382825801,1260
3029.0803056046193,1216
3030.797921664012,1258
3032.5152313170106,1248
3034.2322348767225,1193
3035.9489326563353,1243
3037.665324969115,1268
3039.3814121284063,1261
3041.097194447633,1302
3042.812672240299,1233
3044.5278458199855,1241
3046.2427155003525,1282
3047.9572815951406,1219
3049.671544418167,1248
3051.38550428333,1199
3053.0991615046073,1227
3054.812516396051,1286
3056.5255692717974,1177
3058.2383204460575,1304
3059.9507702331257,1189
3061.662918947372,1288
3063.3747669032446,1276
3065.0863144152736,1256
3066.7975617980674,1193
3068.508509366309,1225
3070.219157434767,1229
3071.9295063182844,1234
3073.639556331785,1255
3075.3493077902704,1238
3077.058761008821,1196
3078.7679163025964,1207
3080.476773986837,1248
3082.1853343768594,1240
3083.89359778806,1246
3085.6015645359153,1249
3087.3092349359786,1217
3089.016609303884,1252
3090.7236879553434,1255
3092.4304712061476,1206
3094.136959372166,1248
3095.843152769349,1276
3097.5490517137237,1193
3099.2546565213966,1205
3100.959967508554,1223
3102.66498499146,1196
3104.3697092864577,1251
3106.0741407099695,1236
3107.778279578498,1208
3109.482126208622,1249
3111.1856809170004,1244
3112.8889440203716,1249
3114.5919158355528,1244
3116.294596679439,1309
3117.996986869006,1289
3119.6990867213062,1286
3121.4008965534726,1276
3123.102416682717,1224
3124.803647426329,1288
3126.5045891016784,1196
3128.205242026213,1254
3129.90560651746,1233
3131.605682893025,1206
3133.3054714705922,1249
3135.0049725679282,1223
3136.7041865028714,1182
3138.4031135933465,1253
3140.101754157353,1207
3141.800108512971,1229
3143.498176978357,1216
3145.1959598717494,1202
3146.8934575114636,1209
3148.5906702158954,1277
3150.2875983035183,1223
3151.9842420928853,1221
3153.680601902627,1284
3155.376678051456,1188
3157.07247085816,1238
3158.767980641609,1220
3160.463207720748,1217
3162.158152414606,1216
3163.8528150422862,1258
3165.5471959229726,1253
3167.2412953759303,1237
3168.9351137204976,1245
3170.628651276098,1275
3172.3219083622307,1237
3174.014885298474,1245
3175.707582404485,1222
3177.4000000000005,1215
3179.092138404835,1199
3180.7839979388846,1253
3182.47557892212,1238
3184.166881674594,1207
3185.8579065164386,1205
3187.5486537678626,1213
3189.2391237491547,1234
3190.9293167806827,1237
3192.6192331828934,1200
3194.3088732763117,1265
3195.998237381542,1176
3197.687325819268,1224
3199.376138910251,1193
3201.064676975334,1256
3202.7529403354347,1229
3204.4409293115523,1217
3206.1286442247647,1188
3207.816085396229,1217
3209.5032531471825,1216
3211.190147798936,1218
3212.8767696728846,1224
3214.5631190905015,1204
3216.2491963733373,1215
3217.9350018430214,1235
3219.6205358212637,1225
3221.305798629851,1189
3222.990790590651,1164
3224.6755120256103,1149
3226.359963256751,1190
3228.0441446061795,1139
3229.7280563960758,1196
3231.411698948703,1212
3233.0950725863995,1191
3234.778177631587,1233
3236.461014406761,1203
3238.1435832345005,1236
3239.8258844374595,1194
3241.507918338374,1246
3243.1896852600576,1261
3244.8711855254023,1229
3246.552419457381,1241
3248.233387379042,1221
3249.914089613516,1280
3251.59452648401,1223
3253.274698313813,1232
3254.95460542629,1240
3256.6342481448855,1224
3258.313626793125,1210
3259.9927416946084,1183
3261.6715931730196,1222
3263.3501815521176,1227
3265.0285071557437,1266
3266.706570307815,1264
3268.3843713323286,1223
3270.0619105533615,1239
3271.739188295068,1219
3273.4162048816834,1213
3275.0929606375184,1185
3276.769455886966,1243
3278.445690954498,1233
3280.1216661646613,1227
3281.797381842087,1203
3283.4728383114807,1178
3285.1480358976296,1287
3286.8229749253996,1225
3288.4976557197333,1216
3290.172078605655,1280
3291.846243908266,1202
3293.5201519527463,1221
3295.193803064357,1180
3296.8671975684374,1222
3298.5403357904024,1211
3300.21321805575,1161
3301.8858446900567,1182
3303.558216018975,1248
3305.23033236824,1235
3306.9021940636603,1234
3308.57380143113,1202
3310.2451547966184,1325
3311.916254486174,1275
3313.5871008259246,1282
3315.2576941420766,1307
3316.9280347609147,1231
3318.5981230088046,1214
3320.2679592121895,1164
3321.9375436975924,1240
3323.606876791612,1216
3325.27595882093,1177
3326.944790112305,1228
3328.6133709925753,1230
3330.2817017886573,1212
3331.949782827547,1235
3333.617614436319,1196
3335.2851969421245,1258
3336.952530672199,1269
3338.619615953853,1235
3340.286453114475,1279
3341.9530424815357,1234
3343.619384382583,1221
3345.2854791452437,1197
3346.951327097224,1177
3348.6169285663073,1198
3350.2822838803577,1277
3351.947393367319,1200
3353.61225735521,1235
3355.2768761721345,1265
3356.9412501462693,1215
3358.605379605873,1206
3360.2692648792827,1175
3361.9329062949146,1255
3363.596304181263,1148
