CollectionTime,9/25/2024 11:22:30 AM
ExposureUsed,3
CalibratedSpectrum
-962.7078968117929,3196
-959.9714848408522,3444
-957.2358232597828,3420
-954.5009119013725,3386
-951.7667505983302,3488
-949.0333391832855,3466
-946.3006774887896,3474
-943.5687653473143,3524
-940.837602591253,3536
-938.1071890529199,3389
-935.3775245645503,3540
-932.6486089583007,3535
-929.9204420662485,3509
-927.1930237203925,3544
-924.4663537526524,3537
-921.7404319948689,3466
-919.0152582788041,3578
-916.2908324361409,3604
-913.5671542984834,3592
-910.8442236973568,3508
-908.1220404642074,3535
-905.4006044304027,3615
-902.679915427231,3590
-899.959973285902,3510
-897.2407778375464,3634
-894.5223289132158,3586
-891.8046263438832,3620
-889.0876699604426,3671
-886.3714595937089,3658
-883.6559950744183,3582
-880.9412762332282,3641
-878.2273029007168,3567
-875.5140749073835,3617
-872.8015920836489,3513
-870.0898542598545,3629
-867.3788612662631,3553
-864.6686129330585,3597
-861.9591090903457,3657
-859.2503495681506,3541
-856.5423341964203,3528
-853.8350628050229,3572
-851.1285352237478,3556
-848.4227512823054,3725
-845.7177108103272,3656
-843.0134136373656,3680
-840.3098595928943,3629
-837.6070485063082,3581
-834.9049802069229,3689
-832.2036545239757,3666
-829.5030712866244,3683
-826.8032303239481,3689
-824.1041314649472,3671
-821.4057745385428,3668
-818.7081593735775,3757
-816.0112857988148,3705
-813.3151536429393,3758
-810.6197627345566,3693
-807.9251129021936,3702
-805.2312039742981,3739
-802.5380357792392,3751
-799.8456081453069,3709
-797.1539209007124,3709
-794.462973873588,3735
-791.772766891987,3689
-789.083299783884,3753
-786.3945723771743,3746
-783.7065844996748,3847
-781.0193359791231,3669
-778.3328266431781,3900
-775.6470563194197,3804
-772.9620248353489,3814
-770.2777320183878,3690
-767.5941776958798,3718
-764.9113616950891,3712
-762.2292838432011,3780
-759.5479439673222,3735
-756.8673418944801,3745
-754.1874774516235,3805
-751.5083504656222,3892
-748.8299607632671,3777
-746.15230817127,3839
-743.475392516264,3835
-740.7992136248035,3914
-738.1237713233636,3762
-735.4490654383407,3828
-732.7750957960521,3928
-730.1018622227365,3792
-727.4293645445534,3831
-724.7576025875837,3881
-722.0865761778291,3992
-719.4162851412126,3860
-716.7467293035781,3947
-714.0779084906909,3952
-711.409822528237,3971
-708.7424712418238,3905
-706.0758544569796,3885
-703.4099719991541,3963
-700.7448236937178,3892
-698.0804093659622,3978
-695.4167288411002,4057
-692.7537819442656,3925
-690.0915685005134,3853
-687.4300883348199,3932
-684.7693412720819,3945
-682.1093271371178,3971
-679.4500457546669,4002
-676.7914969493897,3958
-674.1336805458676,3876
-671.4765963686034,3933
-668.8202442420206,3991
-666.1646239904642,3924
-663.5097354382001,3912
-660.8555784094151,4005
-658.2021527282176,3885
-655.5494582186366,4119
-652.8974947046223,4103
-650.2462620100463,4130
-647.5957599587009,3997
-644.9459883742998,4090
-642.2969470804776,4134
-639.6486359007902,4057
-637.0010546587141,4077
-634.3542031776476,4059
-631.7080812809096,4117
-629.0626887917401,4125
-626.4180255333008,4076
-623.7740913286734,4198
-621.1308860008619,4104
-618.4884093727904,4075
-615.8466612673046,4131
-613.2056415071715,4178
-610.5653499150785,4124
-607.9257863136347,4079
-605.28695052537,4182
-602.6488423727357,4246
-600.0114616781036,4146
-597.3748082637674,4246
-594.7388819519412,4190
-592.1036825647604,4260
-589.4692099242818,4272
-586.8354638524829,4230
-584.2024441712624,4311
-581.5701507024403,4213
-578.9385832677575,4246
-576.3077416888759,4251
-573.6776257873787,4317
-571.0482353847704,4382
-568.4195703024757,4346
-565.7916303618415,4372
-563.164415384135,4311
-560.5379251905453,4271
-557.9121596021815,4269
-555.2871184400748,4361
-552.6628015251767,4266
-550.0392086783606,4401
-547.4163397204204,4337
-544.794194472071,4322
-542.1727727539491,4364
-539.5520743866118,4328
-536.9320991905377,4340
-534.3128469861261,4425
-531.6943175936979,4435
-529.0765108334947,4437
-526.4594265256793,4472
-523.8430644903358,4595
-521.2274245474689,4650
-518.612506517005,4756
-515.9983102187913,4739
-513.3848354725959,4905
-510.77208209810846,4850
-508.16004991493924,5032
-505.5487387426199,5103
-502.9381484006032,5171
-500.3282787082628,5139
-497.71912948489364,5076
-495.1107005497117,4892
-492.5029917218539,4689
-489.8960028203786,4693
-487.28973366426493,4689
-484.68418407241325,4664
-482.07935386364494,4520
-479.47524285670266,4752
-476.87185087025,4728
-474.2691777228715,4609
-471.66722323307334,4637
-469.0659872192821,4645
-466.4654694998459,4709
-463.86566989303384,4767
-461.26658821703614,4658
-458.66822428996414,4588
-456.07057792985,4621
-453.4736489546475,4800
-450.877437182231,4620
-448.28194243039627,4588
-445.68716451686,4665
-443.09310325926003,4594
-440.49975847515555,4517
-437.9071299820263,4585
-435.31521759727354,4538
-432.72402113821954,4646
-430.13354042210767,4584
-427.5437752661022,4505
-424.95472548728867,4583
-422.36639090267386,4590
-419.7787713291855,4649
-417.1918665836721,4673
-414.60567648290385,4715
-412.0202008435715,4669
-409.4354394822874,4600
-406.8513922155845,4614
-404.26805885991723,4788
-401.685439231661,4820
-399.103533147112,4829
-396.522340422488,4869
-393.9418608739278,4517
-391.3620943174908,4576
-388.7830405691583,4377
-386.2046994448317,4170
-383.6270707603344,3919
-381.05015433141045,3672
-378.473949973725,3349
-375.8984575028645,2974
-373.32367673433623,2612
-370.74960748356875,2350
-368.1762495659117,1924
-365.60360279663576,1735
-363.03166699093265,1433
-360.4604419639154,1195
-357.8899275306178,953
-355.32012350599507,799
-352.7510297049233,655
-350.1826459421999,609
-347.61497203254316,533
-345.04800779059235,525
-342.4817530309082,504
-339.91620756797226,501
-337.35137121618743,519
-334.7872437898774,574
-332.22382510328725,555
-329.66111497058273,561
-327.09911320585127,597
-324.53781962310075,527
-321.9772340362607,489
-319.4173562591816,470
-316.8581861056348,492
-314.2997233893127,478
-311.7419679238294,537
-309.1849195227194,556
-306.62857799943856,557
-304.0729431673641,506
-301.51801483979375,545
-298.963792829947,608
-296.41027695096386,553
-293.85746701590574,538
-291.3053628377552,556
-288.7539642294155,583
-286.2032710037115,607
-283.65328297338897,621
-281.1039999511146,575
-278.5554217494762,615
-276.007548180983,594
-273.4603790580651,604
-270.9139141930734,611
-268.3681533982807,686
-265.8230964858798,659
-263.27874326798565,637
-260.7350935566336,582
-258.1921471637804,672
-255.6499039013039,747
-253.10836358100266,800
-250.56752601459698,671
-248.02739101372765,659
-245.48795838995704,730
-242.94922795476816,710
-240.41119951956557,692
-237.8738728956746,779
-235.33724789434166,776
-232.80132432673452,767
-230.2661020039418,718
-227.73158073697357,731
-225.19776033676033,743
-222.66464061415422,818
-220.1322213799284,802
-217.60050244477725,740
-215.06948361931552,759
-212.53916471408013,801
-210.00954553952818,962
-207.48062590603843,815
-204.9524056239104,707
-202.4248845033651,798
-199.8980623545441,912
-197.37193898751036,960
-194.84651421224817,874
-192.32178783866232,861
-189.79775967657952,909
-187.27442953574644,952
-184.7517972258321,916
-182.2298625564256,829
-179.7086253370378,815
-177.18808537710026,858
-174.66824248596583,1062
-172.14909647290835,990
-169.6306471471229,994
-167.11289431772548,917
-164.59583779375328,839
-162.07947738416453,1018
-159.5638128978386,1149
-157.04884414357605,1349
-154.53457093009854,1261
-152.02099306604828,1137
-149.50811035998936,948
-146.99592262040665,994
-144.48442965570587,1152
-141.97363127421409,1208
-139.46352728417958,1366
-136.95411749377126,1340
-134.44540171107985,1161
-131.93737974411636,1160
-129.43005140081357,1247
-126.92341648902493,1717
-124.41747481652521,2236
-121.91222619101006,2602
-119.40767042009657,2650
-116.90380731132257,2749
-114.40063667214702,2466
-111.8981583099503,2101
-109.3963720320337,1954
-106.89527764561933,2958
-104.39487495785067,4682
-101.89516377579241,6279
-99.39614390642998,7840
-96.89781515667039,9331
-94.40017733334128,9402
-91.90323024319173,7750
-89.40697369289148,6356
-86.91140748903172,5566
-84.41653143812482,4844
-81.92234534660395,4975
-79.42884902082358,5405
-76.93604226705907,6553
-74.4439248915071,7540
-71.95249670028534,8450
-69.46175749943245,9668
-66.97170709490854,9498
-64.48234529259423,8270
-61.99367189829195,9168
-59.50568671772464,10473
-57.01838955653636,11889
-54.53178022029283,14333
-52.045858514480074,16970
-49.560624244506016,16848
-47.07607721569923,15676
-44.59221723330904,11379
-42.10904410250669,10601
-39.62655762838392,10402
-37.14475761595372,12188
-34.66364387015028,18746
-32.18321619582866,23310
-29.70347439776515,25597
-27.224418280657005,26338
-24.74604764912317,30151
-22.26836230770266,42298
-19.7913620608565,65041
-17.315046712966478,65041
-14.83941606833514,65041
-12.36446993118659,65041
-9.89020810566592,65041
-7.416630395839093,65041
-4.94373660569363,65041
-2.471526539137585,65041
-6.821210263296962E-13,65041
2.47084320796705,65041
4.941003281093458,65041
7.410480415786196,65041
9.879274808531363,65041
12.347386655893956,65041
14.814816154518212,65041
17.28156350112681,65041
19.74762889252179,65041
22.21301252558385,22858
24.67771459727237,5429
27.141735304626195,3996
29.605074844762612,4180
32.06773341487792,3896
34.52971121224755,3799
36.99100843422559,3206
39.45162527824516,3514
41.91156194181792,3060
44.370818622535126,2686
46.82939551806646,2420
49.287292826160524,2790
51.74451074464503,2850
54.201049471426245,2563
56.65690920448981,2546
59.112090141899785,2816
61.56659248179983,2910
64.02041642241159,2477
66.4735621620365,2064
68.92602989905402,2147
71.37781983192338,2555
73.82893215918205,2326
76.27936707944684,2033
78.72912479141326,1827
81.17820549385567,1947
83.62660938562783,1579
86.07433666566146,1289
88.5213875329681,1450
90.96776218663751,1495
93.41346082583925,1593
95.85848364982041,1571
98.30283085790859,1464
100.7465026495089,1296
103.18949922410604,1309
105.63182078126385,1370
108.07346752062438,1596
110.51443964190923,1801
112.95473734491827,1425
115.39436082953114,1337
117.83331029570547,1224
120.27158594347827,1204
122.7091879729652,1401
125.1461165843615,1505
127.58237197794062,1373
130.01795435405518,1237
132.4528639131364,1097
134.88710085569494,1153
137.32066538231982,1400
139.75355769367923,1224
142.1857779905207,1141
144.61732647366978,1188
147.04820334403132,1290
149.47840880258934,1288
151.90794305040674,1490
154.33680628862487,1740
156.76499871846443,1996
159.19252054122433,2169
161.61937195828352,2543
164.04555317109896,2892
166.47106438120693,3317
168.89590579022217,3658
171.320077599839,4038
173.7435800118302,4314
176.16641322804742,4671
178.58857745042144,4847
181.01007288096173,5018
183.43089972175687,5161
185.85105817497413,5514
188.27054844285988,5625
190.6893707277394,5985
193.10752523201643,6253
195.5250121581745,6283
197.9418317087751,6608
200.3579840864594,6659
202.7734694939469,6735
205.18828813403627,6754
207.6024402096051,6872
210.01592592360964,6839
212.42874547908548,6925
214.84089907914665,7064
217.2523869269868,6870
219.66320922587727,7006
222.0733661791695,6987
224.48285799029293,7015
226.8916848627572,7055
229.29984700014882,7249
231.7073446061355,7317
234.11417788446204,7159
236.520347038953,7286
238.92585227351185,7334
241.33069379212054,7278
243.73487179884035,7337
246.1383864978112,7297
248.541238093252,7188
250.9434267894609,7245
253.34495279081432,7343
255.74581630176783,7233
258.1460175268563,7256
260.54555667069314,7183
262.9444339379703,7264
265.3426495334594,7267
267.7402036620107,7046
270.1370965285529,7166
272.53332833809407,6924
274.9288992957214,7036
277.32380960660055,7022
279.718059475976,7146
282.1116491091717,7039
284.5045787115897,6984
286.89684848871195,7003
289.2884586460981,7122
291.67940938938807,6958
294.0697009242996,7231
296.4593334566299,7234
298.84830719225477,7092
301.23662233712923,7168
303.6242790972866,7017
306.01127767884,7061
308.39761828798066,7060
310.78330113097934,7185
313.16832641418534,7038
315.5526943440269,6965
317.9364051270112,6995
320.3194589697242,7107
322.70185607883093,7273
325.0835966610754,7056
327.4646809232805,7035
329.8451090723478,7152
332.2248813152577,6886
334.6039978590701,6844
336.9824589109231,7003
339.36026467803447,6946
341.7374153677,6832
344.113911187295,6943
346.48975234427337,6879
348.8649390461686,7088
351.2394715005918,7022
353.61334991523415,6920
355.9865744978655,7088
358.35914545633375,6945
360.73106299856715,6969
363.10232733257146,7023
365.47293866643247,6992
367.84289720831396,7004
370.2122031664593,6888
372.5808567491905,6974
374.9488581649083,7068
377.31620762209275,6902
379.6829053293021,6906
382.0489514951745,6891
384.4143463284262,6891
386.7790900378528,6999
389.14318283232853,7055
391.50662492080653,6963
393.86941651231916,6886
396.23155781597745,7074
398.5930490409713,7043
400.9538903965696,6986
403.3140820921202,6982
405.6736243370498,6976
408.03251734086336,6881
410.3907613131465,6800
412.74835646356166,6791
415.10530300185144,6910
417.4616011378372,6830
419.81725108141893,6948
422.1722530425758,6892
424.5266072313656,6976
426.880313857925,6925
429.2333731324701,7016
431.58578526529516,6932
433.9375504667738,6908
436.2886689473588,6894
438.63914091758113,6930
440.9889665880513,6961
443.33814616945835,7012
445.68667987257015,6940
448.03456790823395,7019
450.3818104873759,6916
452.72840782100013,6882
455.07436012019105,6807
457.41966759611057,6748
459.7643304600007,6619
462.10834892318155,6882
464.4517231970525,6998
466.79445349309174,6845
469.1365400228566,6976
471.4779829979826,7056
473.81878263018564,7086
476.15893913125876,7063
478.4984527130747,7100
480.8373235875855,7052
483.17555196682144,6936
485.5131380628919,7063
487.8500820879857,7031
490.1863842543697,7178
492.52204477439034,7286
494.8570638604725,7295
497.1914417251204,7526
499.52517858091653,7794
501.85827464052306,7982
504.19073011668036,8048
506.5225452222086,8209
508.85372017000566,8372
511.18425517304956,8366
513.514150444396,8675
515.8434061971808,9436
518.1720226446176,9978
520.4999999999999,10226
522.8273384766991,10090
525.1540382881666,9555
527.480099647932,9068
529.8055227696037,8392
532.1303078668694,7939
534.454455153496,7213
536.777964843328,7226
539.1008371502907,7155
541.4230722883866,7124
543.744670471698,7112
546.0656319143858,7171
548.3859568306899,7041
550.7056454349294,7256
553.0246979415016,6959
555.3431145648834,7142
557.6608955196306,7076
559.978041020377,7057
562.2945512818363,7040
564.6104265188006,7103
566.9256669461412,7036
569.2402727788082,7222
571.5542442318302,7110
573.8675815203156,7122
576.1802848594508,7311
578.4923544645015,7089
580.8037905508126,7064
583.114593333807,7168
585.4247630289875,7276
587.7342998519354,7191
590.0432040183106,7118
592.3514757438526,7281
594.6591152443794,7285
596.9661227357875,7247
599.2724984340531,7296
601.578242555231,7272
603.8833553154542,7165
606.1878369309362,7109
608.4916876179676,7287
610.7949075929192,7162
613.0974970722403,7314
615.3994562724587,7179
617.7007854101818,7230
620.0014847020951,7237
622.3015543649641,7163
624.6009946156324,7208
626.8998056710224,7234
629.1979877481361,7176
631.4955410640538,7147
633.7924658359349,7223
636.0887622810175,7166
638.3844306166192,7139
640.6794710601358,7246
642.9738838290426,7236
645.2676691408932,7284
647.5608272133207,7320
649.853358264037,7256
652.1452625108324,7275
654.4365401715764,7420
656.7271914642178,7478
659.0172166067838,7335
661.3066158173809,7344
663.5953893141935,7393
665.8835373154867,7259
668.1710600396028,7431
670.4579577049639,7386
672.7442305300709,7551
675.0298787335033,7497
677.3149025339197,7338
679.599302150058,7336
681.8830778007342,7445
684.1662297048437,7339
686.4487580813608,7390
688.7306631493387,7434
691.0119451279091,7444
693.2926042362834,7435
695.5726406937516,7429
697.8520547196814,7330
700.1308465335215,7503
702.4090163547982,7465
704.6865644031171,7448
706.9634908981619,7394
709.2397960596965,7354
711.5154801075631,7567
713.7905432616823,7355
716.0649857420548,7464
718.3388077687592,7441
720.612009561953,7474
722.8845913418733,7578
725.1565533288352,7633
727.427895743234,7455
729.6986188055427,7517
731.9687227363137,7519
734.238207756178,7531
736.5070740858458,7674
738.7753219461066,7495
741.0429515578281,7542
743.3099631419569,7645
745.5763569195191,7628
747.8421331116193,7446
750.1072919394409,7573
752.3718336242467,7534
754.6357583873777,7544
756.8990664502545,7663
759.1617580343765,7471
761.423833361321,7490
763.6852926527457,7533
765.9461361303862,7636
768.206364016058,7521
770.4659765316536,7466
772.7249738991469,7373
774.9833563405886,7476
777.2411240781092,7653
779.4982773339183,7562
781.7548163303044,7515
784.010741289634,7669
786.2660524343538,7585
788.5207499869881,7517
790.7748341701416,7610
793.0283052064964,7730
795.2811633188143,7749
797.5334087299362,7572
799.7850416627813,7669
802.0360623403484,7620
804.2864709857143,7734
806.5362678220353,7814
808.7854530725468,7718
811.0340269605625,7651
813.2819897094754,7761
815.5293415427581,7789
817.77608268396,7857
820.0222133567116,7814
822.2677337847211,7828
824.5126441917765,7718
826.7569448017433,7775
829.0006358385675,7881
831.2437175262731,7855
833.4861900889629,7790
835.7280537508192,7646
837.9693087361026,7659
840.2099552691533,7661
842.4499935743896,7743
844.689423876309,7798
846.9282463994886,7691
849.1664613685833,7712
851.4040690083276,7730
853.6410695435349,7695
855.877463199097,7667
858.1132501999847,7786
860.3484307712487,7718
862.5830051380175,7888
864.8169735254988,7848
867.0503361589791,7850
869.2830932638243,7903
871.5152450654786,7858
873.7467917894654,7847
875.9777336613873,7897
878.2080709069252,7938
880.4378037518389,7961
882.666932421968,7813
884.8954571432301,7929
887.1233781416219,7937
889.3506956432192,7778
891.5774098741766,7884
893.803521060728,7922
896.0290294291852,7934
898.2539352059397,7925
900.4782386174619,8084
902.7019398903011,7818
904.925039251085,8011
907.147536926521,7976
909.3694331433943,7895
911.59072812857,7953
913.8114221089921,7841
916.0315153116827,7749
918.2510079637437,7807
920.4699002923547,8046
922.6881925247761,7945
924.905884888345,7852
927.1229776104793,7863
929.3394709186747,7908
931.555365040506,7759
933.7706602036275,7844
935.9853566357709,7875
938.1994545647489,7865
940.4129542184515,7895
942.6258558248488,7843
944.8381596119883,7908
947.0498658079974,7901
949.2609746410825,8092
951.4714863395287,7953
953.6814011316998,8087
955.8907192460387,7938
958.0994409110671,7943
960.3075663553858,8071
962.5150958076741,7899
964.7220294966913,7987
966.928367651274,7981
969.1341105003388,7996
971.3392582728806,8022
973.5438111979742,8128
975.747769504772,7932
977.9511334225061,8103
980.153903180487,7990
982.3560790081052,7890
984.5576611348289,7997
986.7586497902058,8059
988.9590452038618,7990
991.158847605503,7938
993.3580572249133,8031
995.5566742919558,7882
997.7546990365728,7901
999.952131688785,7813
1002.1489724786926,7860
1004.3452216364743,7898
1006.5408793923874,7873
1008.7359459767691,7888
1010.9304216200343,7968
1013.1243065526781,7915
1015.3176010052733,7934
1017.510305208472,7939
1019.7024193930064,7884
1021.8939437896848,7892
1024.0848786293977,7728
1026.2752241431122,7879
1028.4649805618747,7806
1030.6541481168115,7836
1032.842727039127,7960
1035.0307175601051,7876
1037.2181199111074,7823
1039.4049343235752,7900
1041.591161029029,7794
1043.7768002590683,8043
1045.9618522453698,7978
1048.1463172196918,7903
1050.3301954138697,7948
1052.513487059818,7936
1054.69619238953,7968
1056.8783116350783,8021
1059.0598450286152,7946
1061.2407928023704,8086
1063.4211551886528,7984
1065.6009324198508,8133
1067.780124728432,7949
1069.9587323469414,8021
1072.1367555080046,8033
1074.314194444325,8089
1076.4910493886855,7810
1078.667320573947,8002
1080.843008233051,8125
1083.0181125990161,8099
1085.1926339049414,7922
1087.3665723840027,7965
1089.5399282694575,7968
1091.7127017946405,7938
1093.8848931929647,7917
1096.0565026979243,8056
1098.2275305430899,7909
1100.3979769621128,7936
1102.567842188722,8013
1104.737126456726,7968
1106.9058300000124,7958
1109.0739530525475,8070
1111.2414958483764,8125
1113.4084586216231,8022
1115.5748416064907,8085
1117.7406450372605,7940
1119.9058691482942,7963
1122.0705141740304,8193
1124.2345803489884,8197
1126.3980679077658,8020
1128.5609770850388,8250
1130.7233081155623,8199
1132.8850612341707,8054
1135.0462366757774,8184
1137.2068346753745,8104
1139.3668554680326,8170
1141.526299288901,8195
1143.68516637321,8235
1145.8434569562655,8386
1148.001171273455,8092
1150.158309560244,8168
1152.3148720521767,8304
1154.470858984876,8242
1156.626270594044,8178
1158.7811071154629,8239
1160.9353687849912,8192
1163.089055838569,8232
1165.242168512213,8033
1167.3947070420209,8011
1169.5466716641677,8230
1171.6980626149075,8118
1173.8488801305748,8114
1175.9991244475814,8112
1178.1487958024186,8076
1180.2978944316555,8200
1182.4464205719428,8129
1184.5943744600072,8052
1186.7417563326567,8137
1188.8885664267755,8050
1191.0348049793297,8020
1193.1804722273619,8264
1195.325568407995,8247
1197.4700937584303,8193
1199.614048515948,8122
1201.7574329179074,8210
1203.900247201746,8187
1206.042491604982,8238
1208.1841663652099,8341
1210.3252717201053,8334
1212.465807907422,8344
1214.6057751649923,8245
1216.7451737307279,8319
1218.8840038426192,8549
1221.0222657387353,8280
1223.1599596572241,8430
1225.2970858363137,8431
1227.4336445143094,8288
1229.5696359295966,8375
1231.705060320639,8529
1233.8399179259786,8270
1235.9742089842384,8351
1238.107933734118,8540
1240.2410924143974,8339
1242.373685263935,8487
1244.5057125216676,8425
1246.6371744266116,8510
1248.7680712178621,8396
1250.898403134593,8454
1253.028170416058,8324
1255.1573733015875,8421
1257.2860120305932,8465
1259.4140868425648,8485
1261.54159797707,8515
1263.6685456737569,8314
1265.7949301723515,8387
1267.9207517126597,8403
1270.046010534565,8397
1272.1707068780306,8564
1274.2948409830983,8609
1276.4184130898889,8602
1278.541423438603,8490
1280.6638722695184,8503
1282.785759822993,8617
1284.9070863394636,8686
1287.0278520594447,8717
1289.1480572235314,8652
1291.2677020723963,8750
1293.3867868467923,8770
1295.5053117875495,8799
1297.623277135579,8963
1299.740683131868,8808
1301.8575300174857,8862
1303.973818033578,8906
1306.0895474213703,9045
1308.2047184221678,8885
1310.3193312773528,8840
1312.4333862283888,8912
1314.5468835168163,9097
1316.659823384255,8955
1318.7722060724045,8888
1320.8840318230418,8912
1322.9953008780249,8942
1325.1060134792888,9119
1327.2161698688478,8897
1329.3257702887959,9076
1331.4348149813054,8955
1333.5433041886276,8894
1335.6512381530933,9081
1337.7586171171101,8956
1339.8654413231675,8814
1341.9717110138317,8910
1344.0774264317488,8839
1346.1825878196432,8896
1348.2871954203192,8778
1350.3912494766587,8956
1352.4947502316231,8929
1354.5976979282532,8995
1356.7000928096686,8886
1358.8019351190665,8892
1360.9032250997243,8792
1363.0039629949988,9009
1365.1041490483235,8833
1367.2037835032133,8856
1369.3028666032606,8914
1371.401398592137,8976
1373.4993797135926,8996
1375.5968102114575,8964
1377.6936903296396,8834
1379.7900203121262,8980
1381.8858004029835,8873
1383.9810308463561,8999
1386.075711886469,8961
1388.1698437676241,8836
1390.2634267342032,8885
1392.356461030667,8988
1394.4489469015557,9017
1396.5408845914872,9002
1398.6322743451592,9087
1400.7231164073469,8946
1402.813411022907,8896
1404.903158436773,8876
1406.9923588939578,8966
1409.0810126395531,9038
1411.1691199187303,8924
1413.2566809767386,8892
1415.343696058907,8915
1417.4301654106425,9029
1419.5160892774315,9144
1421.6014679048399,9012
1423.6863015385125,9069
1425.7705904241707,8882
1427.8543348076178,8991
1429.9375349347342,8878
1432.0201910514802,8924
1434.102303403894,8956
1436.1838722380944,8840
1438.2648978002767,8926
1440.3453803367174,9006
1442.4253200937692,9148
1444.5047173178677,9044
1446.5835722555234,9136
1448.6618851533285,9181
1450.739656257952,9044
1452.8168858161434,9171
1454.8935740747306,9224
1456.96972128062,8978
1459.045327680797,9304
1461.120393522327,9215
1463.1949190523528,9444
1465.2689045180973,9276
1467.3423501668608,9389
1469.415256246024,9331
1471.4876230030463,9493
1473.559450685465,9416
1475.6307395408976,9442
1477.7014898170391,9589
1479.771701761665,9283
1481.8413756226287,9563
1483.9105116478618,9471
1485.9791100853772,9641
1488.0471711832643,9504
1490.1146951896926,9504
1492.1816823529098,9568
1494.2481329212433,9537
1496.3140471430984,9548
1498.3794252669609,9542
1500.4442675413939,9698
1502.5085742150404,9822
1504.572345536622,9689
1506.6355817549388,9766
1508.6982831188702,9638
1510.7604498773744,9704
1512.8220822794883,9741
1514.8831805743293,9666
1516.9437450110909,9645
1519.003775839048,9582
1521.0632733075522,9750
1523.1222376660367,9680
1525.1806691640113,9701
1527.2385680510652,9970
1529.2959345768668,9887
1531.3527689911643,9813
1533.4090715437833,10117
1535.4648424846291,10153
1537.5200820636855,10047
1539.5747905310159,9968
1541.6289681367616,10017
1543.6826151311434,10115
1545.7357317644614,10283
1547.7883182870937,10124
1549.8403749494987,10069
1551.8919020022113,10274
1553.9428996958477,10417
1555.9933682811015,10529
1558.0433080087469,10462
1560.0927191296346,10404
1562.1416018946961,10541
1564.1899565549415,10560
1566.2377833614592,10586
1568.2850825654164,10418
1570.3318544180606,10520
1572.3780991707158,10541
1574.423817074788,10505
1576.4690083817595,10249
1578.5136733431923,10345
1580.5578122107272,10351
1582.601425236085,10154
1584.6445126710646,10104
1586.6870747675434,10109
1588.7291117774776,9875
1590.7706239529034,9884
1592.8116115459347,9925
1594.8520748087658,9805
1596.8920139936686,9812
1598.9314293529933,9724
1600.9703211391711,9681
1603.008689604711,9554
1605.0465350022005,9640
1607.0838575843068,9601
1609.1206576037753,9549
1611.1569353134305,9430
1613.1926909661765,9572
1615.2279248149953,9642
1617.2626371129481,9539
1619.2968281131757,9432
1621.3304980688963,9423
1623.3636472334088,9464
1625.39627586009,9608
1627.428384202396,9415
1629.459972513861,9589
1631.4910410480993,9421
1633.5215900588028,9392
1635.551619799744,9391
1637.5811305247717,9435
1639.6101224878166,9557
1641.6385959428862,9583
1643.6665511440683,9415
1645.693988345528,9439
1647.7209078015112,9478
1649.7473097663405,9484
1651.7731944944203,9263
1653.7985622402307,9459
1655.823413258333,9409
1657.847747803366,9450
1659.8715661300494,9354
1661.8948684931793,9450
1663.9176551476316,9228
1665.9399263483624,9224
1667.9616823504057,9312
1669.982923408873,9516
1672.0036497789574,9313
1674.0238617159293,9257
1676.043559475138,9251
1678.0627433120121,9346
1680.081413482059,9388
1682.0995702408654,9315
1684.117213844096,9371
1686.134344547495,9179
1688.1509626068864,9294
1690.1670682781705,9340
1692.182661817329,9382
1694.1977434804217,9309
1696.2123135235875,9415
1698.226372203043,9508
1700.2399197750851,9486
1702.2529564960905,9400
1704.2654826225112,9407
1706.277498410882,9422
1708.2890041178139,9367
1710.2999999999988,9461
1712.3104863142066,9311
1714.3204633172854,9453
1716.329931266163,9397
1718.3388904178469,9552
1720.3473410294214,9324
1722.3552833580516,9446
1724.3627176609807,9513
1726.3696441955308,9506
1728.3760632191033,9295
1730.3819749891782,9432
1732.3873797633146,9383
1734.3922777991502,9437
1736.3966693544012,9503
1738.4005546868639,9401
1740.4039340544127,9224
1742.406807715001,9369
1744.4091759266616,9356
1746.4110389475054,9334
1748.4123970357223,9486
1750.413250449582,9496
1752.4135994474318,9296
1754.4134442876993,9490
1756.4127852288902,9487
1758.4116225295893,9428
1760.4099564484595,9554
1762.407787244244,9463
1764.405115175764,9441
1766.4019405019203,9299
1768.3982634816916,9429
1770.3940843741357,9388
1772.3894034383907,9404
1774.3842209336717,9339
1776.378537119274,9519
1778.372352254571,9434
1780.3656665990156,9326
1782.3584804121397,9276
1784.3507939535534,9517
1786.3426074829463,9341
1788.3339212600863,9377
1790.3247355448211,9477
1792.3150505970766,9473
1794.3048666768573,9354
1796.2941840442477,9509
1798.2830029594106,9410
1800.2713236825884,9401
1802.2591464741004,9333
1804.2464715943465,9541
1806.2332993038058,9523
1808.2196298630352,9453
1810.2054635326708,9508
1812.190800573428,9448
1814.175641246101,9324
1816.1599858115628,9592
1818.1438345307652,9386
1820.127187664738,9636
1822.1100454745924,9562
1824.092408221516,9524
1826.0742761667766,9365
1828.055649571721,9507
1830.0365286977735,9517
1832.0169138064398,9345
1833.9968051593014,9603
1835.9762030180214,9538
1837.9551076443408,9578
1839.9335193000788,9423
1841.9114382471344,9542
1843.888864747485,9430
1845.8657990631878,9446
1847.842241456378,9515
1849.8181921892697,9390
1851.7936515241558,9418
1853.7686197234098,9450
1855.7430970494815,9322
1857.7170837649014,9472
1859.6905801322787,9597
1861.6635864143004,9603
1863.6361028737338,9379
1865.608129773424,9365
1867.5796673762961,9662
1869.5507159453537,9632
1871.521275743678,9701
1873.4913470344313,9564
1875.4609300808534,9473
1877.4300251462632,9654
1879.3986324940588,9706
1881.366752387717,9522
1883.3343850907936,9652
1885.3015308669228,9547
1887.268189979819,9479
1889.2343626932739,9572
1891.2000492711595,9621
1893.1652499774254,9506
1895.1299650761011,9733
1897.0941948312952,9693
1899.0579395071945,9612
1901.0211993680641,9671
1902.98397467825,9724
1904.9462657021745,9547
1906.9080727043415,9735
1908.869395949332,9648
1910.8302357018065,9631
1912.790592226504,9679
1914.7504657882428,9696
1916.7098566519212,9611
1918.6687650825133,9650
1920.6271913450764,9621
1922.5851357047422,9586
1924.5425984267245,9606
1926.499579776314,9444
1928.4560800188833,9623
1930.4120994198802,9682
1932.367638244833,9511
1934.32269675935,9572
1936.2772752291175,9570
1938.231373919899,9519
1940.1849930975404,9494
1942.1381330279637,9735
1944.0907939771696,9522
1946.0429762112412,9743
1947.9946799963363,9447
1949.9459055986945,9536
1951.896653284633,9660
1953.8469233205478,9469
1955.7967159729142,9671
1957.7460315082863,9643
1959.6948701932974,9564
1961.6432322946594,9400
1963.5911180791632,9768
1965.5385278136787,9754
1967.4854617651545,9947
1969.4319202006182,9645
1971.377903387176,9580
1973.3234115920136,9717
1975.268445082395,9678
1977.2130041256642,9746
1979.1570889892423,9669
1981.1006999406304,9536
1983.04383724741,9544
1984.986501177238,9411
1986.928691997853,9766
1988.8704099770712,9548
1990.811655382789,9467
1992.7524284829801,9696
1994.692729545698,9692
1996.6325588390755,9659
1998.5719166313224,9601
2000.5108031907307,9654
2002.4492187856677,9720
2004.387163684583,9573
2006.3246381560011,9558
2008.2616424685298,9557
2010.1981768908527,9610
2012.1342416917332,9691
2014.069837140014,9530
2016.0049635046162,9652
2017.9396210545406,9535
2019.8738100588666,9518
2021.8075307867502,9628
2023.740783507431,9365
2025.6735684902228,9577
2027.6058860045214,9391
2029.5377363198004,9614
2031.4691197056118,9718
2033.4000364315875,9770
2035.3304867674374,9700
2037.260470982952,9541
2039.189989347998,9605
2041.1190421325232,9614
2043.047629606554,9546
2044.9757520401945,9491
2046.9034097036288,9673
2048.8306028671195,9495
2050.7573318010086,9536
2052.683596775716,9531
2054.609398061742,9586
2056.5347359296647,9748
2058.4596106501403,9761
2060.384022493906,9736
2062.3079717317764,9796
2064.231458634646,9651
2066.1544834734873,9750
2068.077046519352,9624
2069.99914804337,9749
2071.9207883167524,9733
2073.8419676107865,9737
2075.7626861968406,9722
2077.6829443463607,9656
2079.6027423308715,9785
2081.522080421977,9800
2083.440958891362,9762
2085.359378010786,9783
2087.2773380520907,9739
2089.194839287196,9693
2091.111881988101,9693
2093.0284664268825,9720
2094.9445928756973,9717
2096.86026160678,9740
2098.775472892446,9806
2100.690227005088,9814
2102.604524217178,9596
2104.5183648012676,9666
2106.431749029985,9946
2108.34467717604,9628
2110.2571495122206,9783
2112.169166311393,9743
2114.080727846503,9690
2115.9918343905747,9935
2117.902486216711,9535
2119.8126835980956,9875
2121.722426807987,9707
2123.6317161197285,9706
2125.5405518067364,9845
2127.448934142509,9739
2129.356863400624,9707
2131.264339854737,9794
2133.1713637785815,9721
2135.077935445972,9548
2136.9840551308002,9564
2138.889723107037,9812
2140.7949396487334,9877
2142.699705030018,9796
2144.6040195250994,9786
2146.507883408264,9682
2148.4112969538774,9847
2150.3142604363848,9786
2152.2167741303097,9697
2154.1188383102535,9968
2156.0204532508997,9850
2157.9216192270064,9983
2159.822336513414,9764
2161.7226053850413,10002
2163.622426116884,9718
2165.5217989840185,9806
2167.4207242616,9770
2169.319202224862,9781
2171.2172331491165,9925
2173.1148173097563,9692
2175.0119549822507,9961
2176.90864644215,9783
2178.8048919650823,9833
2180.7006918267534,9986
2182.596046302952,9692
2184.4909556695407,10075
2186.3854202024645,9804
2188.279440177746,9628
2190.173015871487,9824
2192.066147559868,9905
2193.958835519149,9772
2195.851080025667,9730
2197.7428813558417,9863
2199.6342397861667,9837
2201.5251555932186,9804
2203.415629053651,9824
2205.3056604441986,9997
2207.19525004167,9785
2209.084398122958,9780
2210.9731049650327,9866
2212.861370844941,9971
2214.749196039812,9911
2216.636580826851,9844
2218.523525483344,9959
2220.410030286655,9874
2222.296095514226,9753
2224.1817214435805,9966
2226.066908352319,9846
2227.951656518121,9884
2229.835966218746,10037
2231.71983773203,9955
2233.6032713358913,9853
2235.486267308324,9850
2237.3688259274036,9974
2239.2509474712824,9823
2241.132632218193,9871
2243.013880446447,9885
2244.8946924344323,9781
2246.7750684606203,9884
2248.6550088035574,9716
2250.534513741871,9932
2252.413583554265,9882
2254.292218519526,9684
2256.170418916517,9776
2258.0481850241786,9759
2259.925517121534,9762
2261.8024154876825,9817
2263.678880401803,9873
2265.5549121431536,9847
2267.430510991071,9800
2269.305677224971,9824
2271.180411124348,9888
2273.0547129687766,9609
2274.9285830379076,9919
2276.8020216114737,9846
2278.6750289692845,9735
2280.5476053912294,9818
2282.4197511572766,9717
2284.2914665474727,9755
2286.162751841943,9707
2288.0336073208937,9731
2289.904033264608,9877
2291.774029953448,9862
2293.6435976678554,9838
2295.5127366883517,9884
2297.381447295534,9821
2299.2497297700825,9726
2301.1175843927526,9805
2302.9850114443825,9657
2304.852011205885,9938
2306.7185839582553,9682
2308.5847299825664,9786
2310.4504495599676,9701
2312.3157429716925,9715
2314.1806104990483,9638
2316.0450524234247,9768
2317.9090690262888,9753
2319.772660589186,9893
2321.635827393742,9766
2323.498569721661,9684
2325.3608878547248,9734
2327.2227820747967,9668
2329.0842526638157,9750
2330.945299903803,9778
2332.805924076857,9729
2334.6661254651535,9543
2336.525904350951,9714
2338.3852610165827,9678
2340.244195744464,9783
2342.102708817088,9686
2343.9608005170253,9707
2345.8184711269287,9753
2347.675720929526,9836
2349.532550207628,9638
2351.38895924412,9775
2353.24494832197,9597
2355.100517724223,9773
2356.955667734004,9640
2358.810398634514,9490
2360.664710709037,9531
2362.5186042409337,9586
2364.3720795136437,9658
2366.225136810686,9728
2368.0777764156583,9708
2369.929998612237,9584
2371.7818036841777,9789
2373.633191915315,9820
2375.484163589562,9628
2377.3347189909114,9625
2379.184858403434,9669
2381.03458211128,9614
2382.8838903986775,9736
2384.732783549936,9692
2386.5812618494406,9599
2388.4293255816588,9533
2390.2769750311327,9650
2392.1242104824883,9731
2393.971032220427,9724
2395.8174405297295,9611
2397.6634356952563,9631
2399.509018001947,9572
2401.3541877348193,9542
2403.1989451789705,9721
2405.043290619576,9583
2406.8872243418905,9536
2408.730746631247,9566
2410.5738577730594,9606
2412.4165580528183,9634
2414.258847756095,9584
2416.100727168537,9519
2417.9421965758734,9520
2419.783256263912,9528
2421.623906518538,9569
2423.4641476257157,9798
2425.303979871491,9718
2427.143403541984,9655
2428.9824189233977,9382
2430.821026302012,9341
2432.6592259641866,9507
2434.497018196361,9585
2436.33440328505,9546
2438.171381516851,9637
2440.00795317844,9569
2441.844118556569,9514
2443.6798779380724,9563
2445.5152316098606,9522
2447.3501798589255,9513
2449.1847229723357,9383
2451.0188612372403,9541
2452.8525949408663,9662
2454.6859243705203,9540
2456.518849813587,9702
2458.3513715575314,9552
2460.183489889895,9594
2462.015205098301,9621
2463.8465174704493,9565
2465.67742729412,9639
2467.5079348571717,9602
2469.338040447542,9442
2471.1677443532476,9514
2472.9970468623833,9568
2474.825948263123,9546
2476.6544488437207,9594
2478.482548892508,9717
2480.310248697896,9658
2482.137548548374,9510
2483.9644487325118,9730
2485.790949538956,9589
2487.617051256433,9673
2489.44275417375,9726
2491.26805857979,9590
2493.0929647635157,9646
2494.917473013971,9592
2496.741583620276,9582
2498.5652968716304,9639
2500.3886130573137,9570
2502.2115324666834,9588
2504.0340553891765,9524
2505.856182114308,9712
2507.6779129316733,9637
2509.499248130945,9497
2511.3201880018764,9491
2513.140732834298,9517
2514.9608829181198,9526
2516.780638543331,9505
2518.6,9526
2520.418967578273,9410
2522.237541568376,9308
2524.0557222606144,9610
2525.8735099453706,9605
2527.6909049131086,9642
2529.507907454368,9334
2531.32451785977,9734
2533.140736420014,9589
2534.9565634258774,9482
2536.771999168218,9532
2538.5870439379714,9680
2540.4016980261526,9621
2542.2159617238544,9613
2544.02983532225,9496
2545.8433191125914,9472
2547.656413386209,9657
2549.4691184345115,9635
2551.2814345489874,9482
2553.093362021204,9611
2554.904901142808,9578
2556.716052205523,9569
2558.526815501153,9655
2560.3371913215824,9554
2562.147179958771,9581
2563.956781704761,9495
2565.7659968516705,9546
2567.5748256916986,9632
2569.3832685171224,9578
2571.1913256202984,9551
2572.9989972936614,9651
2574.806283829725,9438
2576.613185521084,9555
2578.4197026604074,9599
2580.2258355404483,9479
2582.031584454035,9800
2583.836949694077,9762
2585.6419315535613,9615
2587.4465303255533,9664
2589.2507463032002,9606
2591.0545797797245,9522
2592.8580310484303,9632
2594.6611004026995,9576
2596.463788135992,9549
2598.266094541849,9661
2600.0680199138874,9602
2601.869564545807,9532
2603.670728731383,9523
2605.4715127644704,9573
2607.2719169390048,9724
2609.071941548998,9668
2610.8715868885433,9737
2612.670853251811,9690
2614.469740933052,9495
2616.268250226594,9601
2618.0663814268455,9522
2619.864134828292,9523
2621.6615107255006,9550
2623.458509413115,9517
2625.2551311858597,9618
2627.0513763385347,9567
2628.8472451660223,9502
2630.6427379632833,9620
2632.4378550253564,9598
2634.232596647359,9501
2636.026963124488,9345
2637.8209547520187,9449
2639.6145718253065,9573
2641.407814639785,9516
2643.200683490966,9472
2644.9931786744414,9435
2646.7853004858807,9655
2648.577049221034,9535
2650.3684251757277,9464
2652.1594286458712,9433
2653.9500599274484,9717
2655.740319316525,9455
2657.5302071092437,9441
2659.3197236018286,9432
2661.10886909058,9466
2662.8976438718782,9489
2664.686048242183,9462
2666.4740824980327,9531
2668.2617469360443,9492
2670.0490418529134,9320
2671.8359675454153,9554
2673.622524310403,9393
2675.408712444811,9295
2677.1945322456495,9335
2678.979984010009,9348
2680.76506803506,9455
2682.5497846180497,9376
2684.334134056306,9105
2686.1181166472343,9316
2687.9017326883213,9424
2689.6849824771293,9304
2691.4678663113013,9141
2693.2503844885596,9346
2695.032537306705,9223
2696.8143250636167,9180
2698.5957480572542,9265
2700.3768065856534,9429
2702.1575009469316,9327
2703.937831439283,9396
2705.717798360982,9299
2707.4974020103837,9316
2709.276642685917,9249
2711.055520686095,9279
2712.834036309506,9291
2714.612189854819,9447
2716.389981620782,9290
2718.1674119062204,9346
2719.944481010041,9172
2721.721189231226,9197
2723.4975368688415,9125
2725.273524222027,9124
2727.0491515900053,9133
2728.824419272075,9173
2730.5993275676146,9102
2732.3738767760838,9185
2734.148067197016,9316
2735.921899130031,9138
2737.6953728748194,9075
2739.468488731156,9138
2741.2412469988926,9108
2743.0136479779617,9022
2744.785691968372,9072
2746.5573792702116,9123
2748.3287101836504,9145
2750.099685008934,9158
2751.870304046388,9079
2753.640567596418,8978
2755.4104759595057,9109
2757.1800294362156,9024
2758.949228327187,9021
2760.7180729331412,8937
2762.486563554877,9073
2764.254700493272,9170
2766.022484049284,9227
2767.789914523947,8983
2769.5569922183786,9191
2771.3237174337705,9056
2773.090090471394,9067
2774.8561116326036,9082
2776.6217812188274,9079
2778.3870995315756,8982
2780.1520668724356,9166
2781.9166835430747,9007
2783.6809498452394,8998
2785.444866080754,9205
2787.2084325515225,9034
2788.971649559527,8936
2790.73451740683,9075
2792.4970363955713,9137
2794.2592068279705,9189
2796.0210290063264,9098
2797.7825032330147,8834
2799.543629810493,8879
2801.304409041296,9168
2803.0648412280366,8913
2804.8249266734088,9020
2806.5846656801846,8997
2808.344058551212,9090
2810.1031055894246,9063
2811.8618070978273,9159
2813.6201633795085,9151
2815.378174737636,9008
2817.1358414754536,9042
2818.893163896285,9028
2820.6501423035334,9106
2822.4067770006814,9027
2824.1630682912883,9055
2825.9190164789957,9035
2827.6746218675207,9085
2829.429884760661,8973
2831.184805462294,9061
2832.9393842763743,9072
2834.693621506936,8963
2836.4475174580916,8943
2838.201072434034,9077
2839.954286739034,8986
2841.707160677441,9182
2843.459694553685,8885
2845.2118886722724,8953
2846.96374333779,9173
2848.7152588549034,9038
2850.4664355283567,8999
2852.217273662973,9208
2853.9677735636546,8934
2855.7179355353833,8903
2857.4677598832186,8991
2859.217246912299,8920
2860.9663969278427,9117
2862.715210235146,9047
2864.4636871395846,9082
2866.211827946614,8938
2867.9596329617652,9022
2869.7071024906536,8958
2871.4542368389684,8899
2873.20103631248,9043
2874.947501217038,8832
2876.6936318585695,8807
2878.4394285430812,8949
2880.1848915766604,8945
2881.9300212654707,9026
2883.6748179157553,9021
2885.4192818338374,8966
2887.1634133261173,8917
2888.907212699077,8794
2890.6506802592744,8848
2892.393816313348,8959
2894.1366211680142,9004
2895.8790951300693,8859
2897.621238506388,8968
2899.363051603925,8775
2901.1045347297118,8824
2902.8456881908596,8872
2904.58651229456,8859
2906.327007348081,8921
2908.067173658772,8846
2909.8070115340597,8934
2911.5465212814497,8834
2913.285703208527,8773
2915.0245576229563,8697
2916.7630848324807,8846
2918.5012851449196,8713
2920.2391588681758,8681
2921.976706310227,8645
2923.7139277791334,8729
2925.4508235830313,8924
2927.187394030137,8884
2928.923639428745,8946
2930.6595600872306,8965
2932.395156314046,9010
2934.1304284177218,8780
2935.8653767068713,9051
2937.6000014901815,8912
2939.3343030764227,8984
2941.068281774442,8948
2942.8019378931644,8855
2944.5352717415976,9036
2946.2682836288236,9030
2948.0009738640065,8755
2949.7333427563885,8948
2951.465390615289,8953
2953.1971177501086,8856
2954.9285244703265,8938
2956.6596110855,8773
2958.3903779052657,8836
2960.1208252393385,8725
2961.8509533975125,8737
2963.5807626896617,8668
2965.3102534257378,8767
2967.0394259157715,8929
2968.768280469873,8788
2970.496817398232,8648
2972.2250370111146,8839
2973.952939618869,8784
2975.6805255319196,8850
2977.4077950607707,8857
2979.134748516006,8936
2980.861386208289,8952
2982.587708448359,8832
2984.313715547037,8910
2986.039407815222,8800
2987.764785563891,8659
2989.489849104102,9064
2991.2145987469908,8898
2992.9390348037705,8860
2994.6631575857346,8805
2996.3869674042576,8848
2998.1104645707887,8856
2999.83364939686,8962
3001.5565221940783,8853
3003.2790832741334,8858
3005.0013329487924,8702
3006.7232715298996,8739
3008.4448993293804,8797
3010.166216659239,8806
3011.887223831558,8742
3013.607921158498,8710
3015.3283089522993,8777
3017.0483875252826,8675
3018.7681571898443,8740
3020.4876182584626,8669
3022.2067710436927,8655
3023.9256158581707,8680
3025.644153014609,8772
3027.362382825801,8769
3029.0803056046193,8819
3030.797921664012,8670
3032.5152313170106,8596
3034.2322348767225,8654
3035.9489326563353,8725
3037.665324969115,8762
3039.3814121284063,8764
3041.097194447633,8827
3042.812672240299,8735
3044.5278458199855,8683
3046.2427155003525,8688
3047.9572815951406,8727
3049.671544418167,8750
3051.38550428333,8802
3053.0991615046073,8837
3054.812516396051,8806
3056.5255692717974,8717
3058.2383204460575,8585
3059.9507702331257,8579
3061.662918947372,8684
3063.3747669032446,8699
3065.0863144152736,8677
3066.7975617980674,8735
3068.508509366309,8407
3070.219157434767,8637
3071.9295063182844,8865
3073.639556331785,8734
3075.3493077902704,8857
3077.058761008821,8693
3078.7679163025964,8818
3080.476773986837,8769
3082.1853343768594,8740
3083.89359778806,8811
3085.6015645359153,8528
3087.3092349359786,8653
3089.016609303884,8722
3090.7236879553434,8770
3092.4304712061476,8599
3094.136959372166,8570
3095.843152769349,8773
3097.5490517137237,8629
3099.2546565213966,8861
3100.959967508554,8682
3102.66498499146,8656
3104.3697092864577,8744
3106.0741407099695,8819
3107.778279578498,8509
3109.482126208622,8629
3111.1856809170004,8722
3112.8889440203716,8701
3114.5919158355528,8666
3116.294596679439,8722
3117.996986869006,8643
3119.6990867213062,8777
3121.4008965534726,8615
3123.102416682717,8643
3124.803647426329,8749
3126.5045891016784,8721
3128.205242026213,8735
3129.90560651746,8792
3131.605682893025,8693
3133.3054714705922,8603
3135.0049725679282,8708
3136.7041865028714,8836
3138.4031135933465,8727
3140.101754157353,8682
3141.800108512971,8781
3143.498176978357,8525
3145.1959598717494,8586
3146.8934575114636,8586
3148.5906702158954,8637
3150.2875983035183,8495
3151.9842420928853,8731
3153.680601902627,8486
3155.376678051456,8517
3157.07247085816,8568
3158.767980641609,8636
3160.463207720748,8549
3162.158152414606,8476
3163.8528150422862,8524
3165.5471959229726,8627
3167.2412953759303,8634
3168.9351137204976,8761
3170.628651276098,8747
3172.3219083622307,8727
3174.014885298474,8800
3175.707582404485,8732
3177.4000000000005,8560
3179.092138404835,8750
3180.7839979388846,8635
3182.47557892212,8716
3184.166881674594,8669
3185.8579065164386,8703
3187.5486537678626,8597
3189.2391237491547,8722
3190.9293167806827,8730
3192.6192331828934,8618
3194.3088732763117,8496
3195.998237381542,8624
3197.687325819268,8649
3199.376138910251,8457
3201.064676975334,8522
3202.7529403354347,8570
3204.4409293115523,8589
3206.1286442247647,8370
3207.816085396229,8541
3209.5032531471825,8429
3211.190147798936,8559
3212.8767696728846,8506
3214.5631190905015,8437
3216.2491963733373,8434
3217.9350018430214,8455
3219.6205358212637,8422
3221.305798629851,8371
3222.990790590651,8130
3224.6755120256103,8428
3226.359963256751,8457
3228.0441446061795,8552
3229.7280563960758,8590
3231.411698948703,8390
3233.0950725863995,8525
3234.778177631587,8384
3236.461014406761,8493
3238.1435832345005,8717
3239.8258844374595,8533
3241.507918338374,8543
3243.1896852600576,8554
3244.8711855254023,8478
3246.552419457381,8502
3248.233387379042,8618
3249.914089613516,8547
3251.59452648401,8643
3253.274698313813,8478
3254.95460542629,8451
3256.6342481448855,8231
3258.313626793125,8439
3259.9927416946084,8558
3261.6715931730196,8534
3263.3501815521176,8443
3265.0285071557437,8406
3266.706570307815,8386
3268.3843713323286,8368
3270.0619105533615,8170
3271.739188295068,8272
3273.4162048816834,8429
3275.0929606375184,8393
3276.769455886966,8508
3278.445690954498,8553
3280.1216661646613,8565
3281.797381842087,8396
3283.4728383114807,8553
3285.1480358976296,8508
3286.8229749253996,8527
3288.4976557197333,8431
3290.172078605655,8421
3291.846243908266,8412
3293.5201519527463,8165
3295.193803064357,8349
3296.8671975684374,8131
3298.5403357904024,8210
3300.21321805575,8285
3301.8858446900567,8227
3303.558216018975,8361
3305.23033236824,8382
3306.9021940636603,8360
3308.57380143113,8579
3310.2451547966184,8483
3311.916254486174,8310
3313.5871008259246,8362
3315.2576941420766,8446
3316.9280347609147,8424
3318.5981230088046,8319
3320.2679592121895,8313
3321.9375436975924,8127
3323.606876791612,8289
3325.27595882093,8143
3326.944790112305,8174
3328.6133709925753,8208
3330.2817017886573,8232
3331.949782827547,8434
3333.617614436319,8386
3335.2851969421245,8253
3336.952530672199,8446
3338.619615953853,8564
3340.286453114475,8467
3341.9530424815357,8406
3343.619384382583,8514
3345.2854791452437,8320
3346.951327097224,8476
3348.6169285663073,8579
3350.2822838803577,8486
3351.947393367319,8398
3353.61225735521,8384
3355.2768761721345,8483
3356.9412501462693,8523
3358.605379605873,8604
3360.2692648792827,8415
3361.9329062949146,8441
3363.596304181263,8416
