CollectionTime,9/25/2024 11:19:19 AM
ExposureUsed,3
CalibratedSpectrum
-962.7078968117929,475
-959.9714848408522,485
-957.2358232597828,492
-954.5009119013725,517
-951.7667505983302,508
-949.0333391832855,518
-946.3006774887896,488
-943.5687653473143,525
-940.837602591253,526
-938.1071890529199,510
-935.3775245645503,494
-932.6486089583007,531
-929.9204420662485,480
-927.1930237203925,525
-924.4663537526524,551
-921.7404319948689,544
-919.0152582788041,510
-916.2908324361409,547
-913.5671542984834,530
-910.8442236973568,545
-908.1220404642074,546
-905.4006044304027,557
-902.679915427231,513
-899.959973285902,524
-897.2407778375464,533
-894.5223289132158,519
-891.8046263438832,527
-889.0876699604426,492
-886.3714595937089,505
-883.6559950744183,495
-880.9412762332282,534
-878.2273029007168,540
-875.5140749073835,499
-872.8015920836489,521
-870.0898542598545,531
-867.3788612662631,524
-864.6686129330585,484
-861.9591090903457,514
-859.2503495681506,534
-856.5423341964203,490
-853.8350628050229,489
-851.1285352237478,519
-848.4227512823054,508
-845.7177108103272,543
-843.0134136373656,509
-840.3098595928943,533
-837.6070485063082,535
-834.9049802069229,543
-832.2036545239757,535
-829.5030712866244,513
-826.8032303239481,540
-824.1041314649472,514
-821.4057745385428,511
-818.7081593735775,517
-816.0112857988148,536
-813.3151536429393,519
-810.6197627345566,514
-807.9251129021936,507
-805.2312039742981,504
-802.5380357792392,522
-799.8456081453069,542
-797.1539209007124,519
-794.462973873588,542
-791.772766891987,553
-789.083299783884,553
-786.3945723771743,564
-783.7065844996748,580
-781.0193359791231,538
-778.3328266431781,536
-775.6470563194197,486
-772.9620248353489,503
-770.2777320183878,505
-767.5941776958798,543
-764.9113616950891,524
-762.2292838432011,544
-759.5479439673222,525
-756.8673418944801,503
-754.1874774516235,557
-751.5083504656222,581
-748.8299607632671,544
-746.15230817127,560
-743.475392516264,555
-740.7992136248035,563
-738.1237713233636,527
-735.4490654383407,546
-732.7750957960521,545
-730.1018622227365,538
-727.4293645445534,544
-724.7576025875837,540
-722.0865761778291,523
-719.4162851412126,543
-716.7467293035781,577
-714.0779084906909,583
-711.409822528237,572
-708.7424712418238,568
-706.0758544569796,577
-703.4099719991541,556
-700.7448236937178,551
-698.0804093659622,556
-695.4167288411002,542
-692.7537819442656,562
-690.0915685005134,564
-687.4300883348199,580
-684.7693412720819,556
-682.1093271371178,546
-679.4500457546669,581
-676.7914969493897,587
-674.1336805458676,587
-671.4765963686034,563
-668.8202442420206,567
-666.1646239904642,566
-663.5097354382001,590
-660.8555784094151,557
-658.2021527282176,589
-655.5494582186366,573
-652.8974947046223,569
-650.2462620100463,582
-647.5957599587009,573
-644.9459883742998,632
-642.2969470804776,608
-639.6486359007902,613
-637.0010546587141,595
-634.3542031776476,591
-631.7080812809096,592
-629.0626887917401,573
-626.4180255333008,590
-623.7740913286734,630
-621.1308860008619,625
-618.4884093727904,647
-615.8466612673046,610
-613.2056415071715,579
-610.5653499150785,598
-607.9257863136347,592
-605.28695052537,619
-602.6488423727357,618
-600.0114616781036,610
-597.3748082637674,633
-594.7388819519412,642
-592.1036825647604,671
-589.4692099242818,623
-586.8354638524829,637
-584.2024441712624,640
-581.5701507024403,623
-578.9385832677575,650
-576.3077416888759,662
-573.6776257873787,635
-571.0482353847704,643
-568.4195703024757,637
-565.7916303618415,654
-563.164415384135,611
-560.5379251905453,642
-557.9121596021815,652
-555.2871184400748,642
-552.6628015251767,660
-550.0392086783606,677
-547.4163397204204,651
-544.794194472071,666
-542.1727727539491,650
-539.5520743866118,696
-536.9320991905377,711
-534.3128469861261,734
-531.6943175936979,735
-529.0765108334947,732
-526.4594265256793,798
-523.8430644903358,951
-521.2274245474689,1063
-518.612506517005,1107
-515.9983102187913,1140
-513.3848354725959,1199
-510.77208209810846,1366
-508.16004991493924,1522
-505.5487387426199,1620
-502.9381484006032,1562
-500.3282787082628,1597
-497.71912948489364,1397
-495.1107005497117,1245
-492.5029917218539,1037
-489.8960028203786,960
-487.28973366426493,874
-484.68418407241325,827
-482.07935386364494,791
-479.47524285670266,795
-476.87185087025,795
-474.2691777228715,811
-471.66722323307334,855
-469.0659872192821,856
-466.4654694998459,777
-463.86566989303384,815
-461.26658821703614,795
-458.66822428996414,799
-456.07057792985,815
-453.4736489546475,845
-450.877437182231,823
-448.28194243039627,750
-445.68716451686,797
-443.09310325926003,792
-440.49975847515555,776
-437.9071299820263,762
-435.31521759727354,777
-432.72402113821954,789
-430.13354042210767,798
-427.5437752661022,767
-424.95472548728867,793
-422.36639090267386,812
-419.7787713291855,811
-417.1918665836721,819
-414.60567648290385,831
-412.0202008435715,863
-409.4354394822874,868
-406.8513922155845,845
-404.26805885991723,893
-401.685439231661,901
-399.103533147112,834
-396.522340422488,859
-393.9418608739278,851
-391.3620943174908,802
-388.7830405691583,774
-386.2046994448317,843
-383.6270707603344,790
-381.05015433141045,781
-378.473949973725,687
-375.8984575028645,642
-373.32367673433623,644
-370.74960748356875,645
-368.1762495659117,652
-365.60360279663576,578
-363.03166699093265,574
-360.4604419639154,525
-357.8899275306178,545
-355.32012350599507,480
-352.7510297049233,494
-350.1826459421999,473
-347.61497203254316,473
-345.04800779059235,441
-342.4817530309082,457
-339.91620756797226,451
-337.35137121618743,509
-334.7872437898774,553
-332.22382510328725,517
-329.66111497058273,572
-327.09911320585127,601
-324.53781962310075,566
-321.9772340362607,481
-319.4173562591816,498
-316.8581861056348,492
-314.2997233893127,500
-311.7419679238294,541
-309.1849195227194,577
-306.62857799943856,534
-304.0729431673641,506
-301.51801483979375,517
-298.963792829947,527
-296.41027695096386,538
-293.85746701590574,548
-291.3053628377552,547
-288.7539642294155,530
-286.2032710037115,598
-283.65328297338897,630
-281.1039999511146,587
-278.5554217494762,630
-276.007548180983,599
-273.4603790580651,637
-270.9139141930734,637
-268.3681533982807,646
-265.8230964858798,602
-263.27874326798565,566
-260.7350935566336,565
-258.1921471637804,637
-255.6499039013039,760
-253.10836358100266,774
-250.56752601459698,659
-248.02739101372765,625
-245.48795838995704,668
-242.94922795476816,678
-240.41119951956557,720
-237.8738728956746,743
-235.33724789434166,745
-232.80132432673452,719
-230.2661020039418,676
-227.73158073697357,692
-225.19776033676033,736
-222.66464061415422,779
-220.1322213799284,805
-217.60050244477725,743
-215.06948361931552,709
-212.53916471408013,746
-210.00954553952818,833
-207.48062590603843,723
-204.9524056239104,636
-202.4248845033651,755
-199.8980623545441,819
-197.37193898751036,895
-194.84651421224817,871
-192.32178783866232,767
-189.79775967657952,836
-187.27442953574644,896
-184.7517972258321,880
-182.2298625564256,792
-179.7086253370378,769
-177.18808537710026,932
-174.66824248596583,1081
-172.14909647290835,1093
-169.6306471471229,964
-167.11289431772548,939
-164.59583779375328,866
-162.07947738416453,954
-159.5638128978386,1075
-157.04884414357605,1190
-154.53457093009854,1158
-152.02099306604828,1013
-149.50811035998936,891
-146.99592262040665,937
-144.48442965570587,1052
-141.97363127421409,1120
-139.46352728417958,1273
-136.95411749377126,1323
-134.44540171107985,1187
-131.93737974411636,1207
-129.43005140081357,1194
-126.92341648902493,1515
-124.41747481652521,1809
-121.91222619101006,2116
-119.40767042009657,2575
-116.90380731132257,3156
-114.40063667214702,2979
-111.8981583099503,2758
-109.3963720320337,2773
-106.89527764561933,3150
-104.39487495785067,3182
-101.89516377579241,3336
-99.39614390642998,4601
-96.89781515667039,7501
-94.40017733334128,8230
-91.90323024319173,7107
-89.40697369289148,5979
-86.91140748903172,5030
-84.41653143812482,3897
-81.92234534660395,3971
-79.42884902082358,4587
-76.93604226705907,5566
-74.4439248915071,5713
-71.95249670028534,6394
-69.46175749943245,7804
-66.97170709490854,9573
-64.48234529259423,11304
-61.99367189829195,13763
-59.50568671772464,15742
-57.01838955653636,17248
-54.53178022029283,18713
-52.045858514480074,20888
-49.560624244506016,21022
-47.07607721569923,18227
-44.59221723330904,12306
-42.10904410250669,10926
-39.62655762838392,11513
-37.14475761595372,14361
-34.66364387015028,19752
-32.18321619582866,24037
-29.70347439776515,25280
-27.224418280657005,23884
-24.74604764912317,26146
-22.26836230770266,37554
-19.7913620608565,64125
-17.315046712966478,65041
-14.83941606833514,65041
-12.36446993118659,65041
-9.89020810566592,65041
-7.416630395839093,65041
-4.94373660569363,65041
-2.471526539137585,65041
-6.821210263296962E-13,65041
2.47084320796705,65041
4.941003281093458,65041
7.410480415786196,65041
9.879274808531363,65041
12.347386655893956,65041
14.814816154518212,65041
17.28156350112681,65041
19.74762889252179,65041
22.21301252558385,22471
24.67771459727237,5458
27.141735304626195,3873
29.605074844762612,3786
32.06773341487792,3351
34.52971121224755,3140
36.99100843422559,2917
39.45162527824516,3707
41.91156194181792,3237
44.370818622535126,2406
46.82939551806646,2300
49.287292826160524,2712
51.74451074464503,2715
54.201049471426245,2420
56.65690920448981,2487
59.112090141899785,2827
61.56659248179983,3053
64.02041642241159,2401
66.4735621620365,1925
68.92602989905402,2038
71.37781983192338,2272
73.82893215918205,1761
76.27936707944684,1508
78.72912479141326,1770
81.17820549385567,1853
83.62660938562783,1631
86.07433666566146,1359
88.5213875329681,1544
90.96776218663751,1541
93.41346082583925,1472
95.85848364982041,1466
98.30283085790859,1401
100.7465026495089,1303
103.18949922410604,1268
105.63182078126385,1350
108.07346752062438,1520
110.51443964190923,1537
112.95473734491827,1434
115.39436082953114,1193
117.83331029570547,1227
120.27158594347827,1240
122.7091879729652,1413
125.1461165843615,1482
127.58237197794062,1309
130.01795435405518,1119
132.4528639131364,1008
134.88710085569494,1125
137.32066538231982,1305
139.75355769367923,1052
142.1857779905207,1034
144.61732647366978,1071
147.04820334403132,1074
149.47840880258934,1069
151.90794305040674,1177
154.33680628862487,1104
156.76499871846443,1230
159.19252054122433,1277
161.61937195828352,1353
164.04555317109896,1498
166.47106438120693,1528
168.89590579022217,1665
171.320077599839,1715
173.7435800118302,1858
176.16641322804742,1885
178.58857745042144,2108
181.01007288096173,2014
183.43089972175687,1960
185.85105817497413,2036
188.27054844285988,1989
190.6893707277394,1997
193.10752523201643,2065
195.5250121581745,2040
197.9418317087751,2083
200.3579840864594,2114
202.7734694939469,2185
205.18828813403627,2342
207.6024402096051,2275
210.01592592360964,2104
212.42874547908548,2224
214.84089907914665,2231
217.2523869269868,2064
219.66320922587727,2023
222.0733661791695,2189
224.48285799029293,2236
226.8916848627572,2217
229.29984700014882,2309
231.7073446061355,2294
234.11417788446204,2342
236.520347038953,2287
238.92585227351185,2237
241.33069379212054,2265
243.73487179884035,2281
246.1383864978112,2336
248.541238093252,2321
250.9434267894609,2339
253.34495279081432,2421
255.74581630176783,2328
258.1460175268563,2329
260.54555667069314,2396
262.9444339379703,2459
265.3426495334594,2397
267.7402036620107,2401
270.1370965285529,2270
272.53332833809407,2318
274.9288992957214,2220
277.32380960660055,2248
279.718059475976,2134
282.1116491091717,2147
284.5045787115897,2088
286.89684848871195,2079
289.2884586460981,2150
291.67940938938807,2118
294.0697009242996,2097
296.4593334566299,2113
298.84830719225477,2138
301.23662233712923,2129
303.6242790972866,2069
306.01127767884,2089
308.39761828798066,2098
310.78330113097934,2048
313.16832641418534,1936
315.5526943440269,1920
317.9364051270112,1910
320.3194589697242,2041
322.70185607883093,2044
325.0835966610754,1871
327.4646809232805,1981
329.8451090723478,1901
332.2248813152577,1885
334.6039978590701,1837
336.9824589109231,1835
339.36026467803447,1794
341.7374153677,1778
344.113911187295,1783
346.48975234427337,1790
348.8649390461686,1777
351.2394715005918,1734
353.61334991523415,1796
355.9865744978655,1760
358.35914545633375,1744
360.73106299856715,1787
363.10232733257146,1756
365.47293866643247,1721
367.84289720831396,1653
370.2122031664593,1782
372.5808567491905,1708
374.9488581649083,1725
377.31620762209275,1690
379.6829053293021,1697
382.0489514951745,1673
384.4143463284262,1743
386.7790900378528,1733
389.14318283232853,1692
391.50662492080653,1673
393.86941651231916,1693
396.23155781597745,1684
398.5930490409713,1676
400.9538903965696,1691
403.3140820921202,1638
405.6736243370498,1705
408.03251734086336,1644
410.3907613131465,1663
412.74835646356166,1672
415.10530300185144,1628
417.4616011378372,1627
419.81725108141893,1674
422.1722530425758,1638
424.5266072313656,1574
426.880313857925,1605
429.2333731324701,1646
431.58578526529516,1686
433.9375504667738,1684
436.2886689473588,1616
438.63914091758113,1651
440.9889665880513,1579
443.33814616945835,1537
445.68667987257015,1558
448.03456790823395,1595
450.3818104873759,1583
452.72840782100013,1519
455.07436012019105,1575
457.41966759611057,1629
459.7643304600007,1538
462.10834892318155,1579
464.4517231970525,1591
466.79445349309174,1551
469.1365400228566,1581
471.4779829979826,1610
473.81878263018564,1645
476.15893913125876,1622
478.4984527130747,1577
480.8373235875855,1678
483.17555196682144,1703
485.5131380628919,1756
487.8500820879857,1717
490.1863842543697,1835
492.52204477439034,1938
494.8570638604725,2014
497.1914417251204,2269
499.52517858091653,2494
501.85827464052306,2957
504.19073011668036,3274
506.5225452222086,3514
508.85372017000566,3528
511.18425517304956,3436
513.514150444396,3715
515.8434061971808,4343
518.1720226446176,5150
520.4999999999999,5029
522.8273384766991,4846
525.1540382881666,4445
527.480099647932,3885
529.8055227696037,3065
532.1303078668694,2301
534.454455153496,1982
536.777964843328,1799
539.1008371502907,1659
541.4230722883866,1652
543.744670471698,1598
546.0656319143858,1605
548.3859568306899,1580
550.7056454349294,1580
553.0246979415016,1556
555.3431145648834,1591
557.6608955196306,1554
559.978041020377,1532
562.2945512818363,1650
564.6104265188006,1667
566.9256669461412,1589
569.2402727788082,1576
571.5542442318302,1608
573.8675815203156,1648
576.1802848594508,1652
578.4923544645015,1659
580.8037905508126,1653
583.114593333807,1590
585.4247630289875,1675
587.7342998519354,1542
590.0432040183106,1557
592.3514757438526,1609
594.6591152443794,1604
596.9661227357875,1620
599.2724984340531,1559
601.578242555231,1598
603.8833553154542,1589
606.1878369309362,1619
608.4916876179676,1589
610.7949075929192,1582
613.0974970722403,1587
615.3994562724587,1601
617.7007854101818,1568
620.0014847020951,1571
622.3015543649641,1681
624.6009946156324,1597
626.8998056710224,1589
629.1979877481361,1590
631.4955410640538,1621
633.7924658359349,1572
636.0887622810175,1568
638.3844306166192,1616
640.6794710601358,1578
642.9738838290426,1616
645.2676691408932,1584
647.5608272133207,1604
649.853358264037,1634
652.1452625108324,1584
654.4365401715764,1618
656.7271914642178,1665
659.0172166067838,1639
661.3066158173809,1651
663.5953893141935,1595
665.8835373154867,1650
668.1710600396028,1633
670.4579577049639,1717
672.7442305300709,1676
675.0298787335033,1675
677.3149025339197,1633
679.599302150058,1604
681.8830778007342,1592
684.1662297048437,1652
686.4487580813608,1616
688.7306631493387,1652
691.0119451279091,1686
693.2926042362834,1643
695.5726406937516,1614
697.8520547196814,1653
700.1308465335215,1608
702.4090163547982,1617
704.6865644031171,1648
706.9634908981619,1597
709.2397960596965,1616
711.5154801075631,1628
713.7905432616823,1636
716.0649857420548,1685
718.3388077687592,1571
720.612009561953,1698
722.8845913418733,1664
725.1565533288352,1591
727.427895743234,1552
729.6986188055427,1589
731.9687227363137,1631
734.238207756178,1598
736.5070740858458,1580
738.7753219461066,1611
741.0429515578281,1662
743.3099631419569,1644
745.5763569195191,1597
747.8421331116193,1646
750.1072919394409,1630
752.3718336242467,1652
754.6357583873777,1626
756.8990664502545,1636
759.1617580343765,1647
761.423833361321,1568
763.6852926527457,1654
765.9461361303862,1651
768.206364016058,1629
770.4659765316536,1680
772.7249738991469,1641
774.9833563405886,1731
777.2411240781092,1725
779.4982773339183,1650
781.7548163303044,1692
784.010741289634,1657
786.2660524343538,1730
788.5207499869881,1627
790.7748341701416,1661
793.0283052064964,1642
795.2811633188143,1686
797.5334087299362,1674
799.7850416627813,1609
802.0360623403484,1696
804.2864709857143,1609
806.5362678220353,1686
808.7854530725468,1656
811.0340269605625,1735
813.2819897094754,1707
815.5293415427581,1693
817.77608268396,1745
820.0222133567116,1720
822.2677337847211,1685
824.5126441917765,1682
826.7569448017433,1641
829.0006358385675,1660
831.2437175262731,1651
833.4861900889629,1675
835.7280537508192,1660
837.9693087361026,1658
840.2099552691533,1681
842.4499935743896,1642
844.689423876309,1654
846.9282463994886,1699
849.1664613685833,1688
851.4040690083276,1662
853.6410695435349,1631
855.877463199097,1651
858.1132501999847,1686
860.3484307712487,1742
862.5830051380175,1634
864.8169735254988,1683
867.0503361589791,1665
869.2830932638243,1658
871.5152450654786,1655
873.7467917894654,1683
875.9777336613873,1721
878.2080709069252,1669
880.4378037518389,1672
882.666932421968,1639
884.8954571432301,1612
887.1233781416219,1727
889.3506956432192,1677
891.5774098741766,1713
893.803521060728,1725
896.0290294291852,1685
898.2539352059397,1752
900.4782386174619,1674
902.7019398903011,1720
904.925039251085,1775
907.147536926521,1671
909.3694331433943,1682
911.59072812857,1648
913.8114221089921,1659
916.0315153116827,1794
918.2510079637437,1742
920.4699002923547,1670
922.6881925247761,1732
924.905884888345,1723
927.1229776104793,1667
929.3394709186747,1708
931.555365040506,1718
933.7706602036275,1698
935.9853566357709,1724
938.1994545647489,1687
940.4129542184515,1685
942.6258558248488,1698
944.8381596119883,1717
947.0498658079974,1737
949.2609746410825,1757
951.4714863395287,1720
953.6814011316998,1735
955.8907192460387,1702
958.0994409110671,1702
960.3075663553858,1643
962.5150958076741,1652
964.7220294966913,1685
966.928367651274,1673
969.1341105003388,1701
971.3392582728806,1641
973.5438111979742,1601
975.747769504772,1637
977.9511334225061,1637
980.153903180487,1562
982.3560790081052,1677
984.5576611348289,1607
986.7586497902058,1548
988.9590452038618,1497
991.158847605503,1578
993.3580572249133,1535
995.5566742919558,1551
997.7546990365728,1465
999.952131688785,1426
1002.1489724786926,1515
1004.3452216364743,1473
1006.5408793923874,1446
1008.7359459767691,1466
1010.9304216200343,1379
1013.1243065526781,1361
1015.3176010052733,1416
1017.510305208472,1400
1019.7024193930064,1383
1021.8939437896848,1395
1024.0848786293977,1387
1026.2752241431122,1408
1028.4649805618747,1396
1030.6541481168115,1407
1032.842727039127,1404
1035.0307175601051,1363
1037.2181199111074,1343
1039.4049343235752,1389
1041.591161029029,1328
1043.7768002590683,1349
1045.9618522453698,1351
1048.1463172196918,1376
1050.3301954138697,1350
1052.513487059818,1369
1054.69619238953,1327
1056.8783116350783,1364
1059.0598450286152,1249
1061.2407928023704,1317
1063.4211551886528,1344
1065.6009324198508,1381
1067.780124728432,1316
1069.9587323469414,1387
1072.1367555080046,1338
1074.314194444325,1336
1076.4910493886855,1303
1078.667320573947,1305
1080.843008233051,1328
1083.0181125990161,1312
1085.1926339049414,1302
1087.3665723840027,1283
1089.5399282694575,1304
1091.7127017946405,1311
1093.8848931929647,1320
1096.0565026979243,1302
1098.2275305430899,1357
1100.3979769621128,1263
1102.567842188722,1284
1104.737126456726,1294
1106.9058300000124,1302
1109.0739530525475,1281
1111.2414958483764,1245
1113.4084586216231,1293
1115.5748416064907,1254
1117.7406450372605,1277
1119.9058691482942,1260
1122.0705141740304,1245
1124.2345803489884,1315
1126.3980679077658,1302
1128.5609770850388,1254
1130.7233081155623,1281
1132.8850612341707,1265
1135.0462366757774,1238
1137.2068346753745,1317
1139.3668554680326,1216
1141.526299288901,1297
1143.68516637321,1225
1145.8434569562655,1229
1148.001171273455,1249
1150.158309560244,1257
1152.3148720521767,1222
1154.470858984876,1253
1156.626270594044,1269
1158.7811071154629,1254
1160.9353687849912,1216
1163.089055838569,1242
1165.242168512213,1246
1167.3947070420209,1263
1169.5466716641677,1247
1171.6980626149075,1308
1173.8488801305748,1198
1175.9991244475814,1247
1178.1487958024186,1227
1180.2978944316555,1241
1182.4464205719428,1269
1184.5943744600072,1313
1186.7417563326567,1243
1188.8885664267755,1282
1191.0348049793297,1219
1193.1804722273619,1255
1195.325568407995,1265
1197.4700937584303,1269
1199.614048515948,1254
1201.7574329179074,1322
1203.900247201746,1235
1206.042491604982,1283
1208.1841663652099,1251
1210.3252717201053,1304
1212.465807907422,1281
1214.6057751649923,1323
1216.7451737307279,1314
1218.8840038426192,1325
1221.0222657387353,1215
1223.1599596572241,1306
1225.2970858363137,1241
1227.4336445143094,1299
1229.5696359295966,1306
1231.705060320639,1354
1233.8399179259786,1334
1235.9742089842384,1349
1238.107933734118,1307
1240.2410924143974,1290
1242.373685263935,1320
1244.5057125216676,1296
1246.6371744266116,1326
1248.7680712178621,1309
1250.898403134593,1371
1253.028170416058,1354
1255.1573733015875,1333
1257.2860120305932,1325
1259.4140868425648,1336
1261.54159797707,1362
1263.6685456737569,1397
1265.7949301723515,1307
1267.9207517126597,1330
1270.046010534565,1380
1272.1707068780306,1405
1274.2948409830983,1363
1276.4184130898889,1376
1278.541423438603,1347
1280.6638722695184,1362
1282.785759822993,1412
1284.9070863394636,1392
1287.0278520594447,1386
1289.1480572235314,1439
1291.2677020723963,1376
1293.3867868467923,1416
1295.5053117875495,1478
1297.623277135579,1386
1299.740683131868,1429
1301.8575300174857,1461
1303.973818033578,1512
1306.0895474213703,1436
1308.2047184221678,1425
1310.3193312773528,1483
1312.4333862283888,1500
1314.5468835168163,1520
1316.659823384255,1513
1318.7722060724045,1472
1320.8840318230418,1537
1322.9953008780249,1504
1325.1060134792888,1556
1327.2161698688478,1469
1329.3257702887959,1557
1331.4348149813054,1504
1333.5433041886276,1553
1335.6512381530933,1586
1337.7586171171101,1545
1339.8654413231675,1542
1341.9717110138317,1535
1344.0774264317488,1510
1346.1825878196432,1532
1348.2871954203192,1529
1350.3912494766587,1479
1352.4947502316231,1500
1354.5976979282532,1448
1356.7000928096686,1469
1358.8019351190665,1465
1360.9032250997243,1463
1363.0039629949988,1449
1365.1041490483235,1487
1367.2037835032133,1429
1369.3028666032606,1442
1371.401398592137,1463
1373.4993797135926,1428
1375.5968102114575,1532
1377.6936903296396,1447
1379.7900203121262,1437
1381.8858004029835,1491
1383.9810308463561,1461
1386.075711886469,1441
1388.1698437676241,1479
1390.2634267342032,1488
1392.356461030667,1426
1394.4489469015557,1451
1396.5408845914872,1461
1398.6322743451592,1459
1400.7231164073469,1455
1402.813411022907,1419
1404.903158436773,1493
1406.9923588939578,1409
1409.0810126395531,1434
1411.1691199187303,1465
1413.2566809767386,1469
1415.343696058907,1484
1417.4301654106425,1463
1419.5160892774315,1462
1421.6014679048399,1480
1423.6863015385125,1480
1425.7705904241707,1525
1427.8543348076178,1453
1429.9375349347342,1494
1432.0201910514802,1488
1434.102303403894,1533
1436.1838722380944,1484
1438.2648978002767,1518
1440.3453803367174,1504
1442.4253200937692,1482
1444.5047173178677,1493
1446.5835722555234,1551
1448.6618851533285,1606
1450.739656257952,1582
1452.8168858161434,1519
1454.8935740747306,1622
1456.96972128062,1679
1459.045327680797,1642
1461.120393522327,1626
1463.1949190523528,1702
1465.2689045180973,1651
1467.3423501668608,1661
1469.415256246024,1687
1471.4876230030463,1713
1473.559450685465,1755
1475.6307395408976,1633
1477.7014898170391,1671
1479.771701761665,1668
1481.8413756226287,1779
1483.9105116478618,1793
1485.9791100853772,1786
1488.0471711832643,1798
1490.1146951896926,1802
1492.1816823529098,1816
1494.2481329212433,1810
1496.3140471430984,1847
1498.3794252669609,1880
1500.4442675413939,1818
1502.5085742150404,1908
1504.572345536622,1902
1506.6355817549388,1988
1508.6982831188702,1975
1510.7604498773744,1981
1512.8220822794883,1995
1514.8831805743293,1963
1516.9437450110909,2007
1519.003775839048,2067
1521.0632733075522,2005
1523.1222376660367,1962
1525.1806691640113,2002
1527.2385680510652,2024
1529.2959345768668,2024
1531.3527689911643,1989
1533.4090715437833,2101
1535.4648424846291,2096
1537.5200820636855,2108
1539.5747905310159,2152
1541.6289681367616,2103
1543.6826151311434,2108
1545.7357317644614,2169
1547.7883182870937,2242
1549.8403749494987,2207
1551.8919020022113,2260
1553.9428996958477,2309
1555.9933682811015,2418
1558.0433080087469,2389
1560.0927191296346,2384
1562.1416018946961,2478
1564.1899565549415,2533
1566.2377833614592,2604
1568.2850825654164,2537
1570.3318544180606,2597
1572.3780991707158,2547
1574.423817074788,2528
1576.4690083817595,2521
1578.5136733431923,2390
1580.5578122107272,2381
1582.601425236085,2334
1584.6445126710646,2208
1586.6870747675434,2171
1588.7291117774776,2134
1590.7706239529034,2055
1592.8116115459347,2030
1594.8520748087658,1985
1596.8920139936686,1948
1598.9314293529933,1852
1600.9703211391711,1844
1603.008689604711,1797
1605.0465350022005,1716
1607.0838575843068,1770
1609.1206576037753,1715
1611.1569353134305,1655
1613.1926909661765,1619
1615.2279248149953,1571
1617.2626371129481,1576
1619.2968281131757,1569
1621.3304980688963,1514
1623.3636472334088,1527
1625.39627586009,1509
1627.428384202396,1461
1629.459972513861,1425
1631.4910410480993,1431
1633.5215900588028,1407
1635.551619799744,1490
1637.5811305247717,1402
1639.6101224878166,1445
1641.6385959428862,1345
1643.6665511440683,1406
1645.693988345528,1347
1647.7209078015112,1411
1649.7473097663405,1362
1651.7731944944203,1366
1653.7985622402307,1316
1655.823413258333,1390
1657.847747803366,1293
1659.8715661300494,1377
1661.8948684931793,1352
1663.9176551476316,1289
1665.9399263483624,1318
1667.9616823504057,1303
1669.982923408873,1347
1672.0036497789574,1276
1674.0238617159293,1304
1676.043559475138,1336
1678.0627433120121,1328
1680.081413482059,1281
1682.0995702408654,1339
1684.117213844096,1319
1686.134344547495,1306
1688.1509626068864,1320
1690.1670682781705,1334
1692.182661817329,1290
1694.1977434804217,1284
1696.2123135235875,1262
1698.226372203043,1267
1700.2399197750851,1316
1702.2529564960905,1331
1704.2654826225112,1291
1706.277498410882,1249
1708.2890041178139,1312
1710.2999999999988,1335
1712.3104863142066,1267
1714.3204633172854,1291
1716.329931266163,1242
1718.3388904178469,1300
1720.3473410294214,1295
1722.3552833580516,1314
1724.3627176609807,1272
1726.3696441955308,1313
1728.3760632191033,1245
1730.3819749891782,1291
1732.3873797633146,1307
1734.3922777991502,1279
1736.3966693544012,1253
1738.4005546868639,1222
1740.4039340544127,1245
1742.406807715001,1235
1744.4091759266616,1217
1746.4110389475054,1282
1748.4123970357223,1277
1750.413250449582,1222
1752.4135994474318,1253
1754.4134442876993,1252
1756.4127852288902,1281
1758.4116225295893,1277
1760.4099564484595,1282
1762.407787244244,1208
1764.405115175764,1245
1766.4019405019203,1205
1768.3982634816916,1225
1770.3940843741357,1276
1772.3894034383907,1204
1774.3842209336717,1234
1776.378537119274,1271
1778.372352254571,1263
1780.3656665990156,1226
1782.3584804121397,1237
1784.3507939535534,1216
1786.3426074829463,1213
1788.3339212600863,1244
1790.3247355448211,1275
1792.3150505970766,1267
1794.3048666768573,1202
1796.2941840442477,1213
1798.2830029594106,1279
1800.2713236825884,1271
1802.2591464741004,1205
1804.2464715943465,1205
1806.2332993038058,1193
1808.2196298630352,1225
1810.2054635326708,1189
1812.190800573428,1239
1814.175641246101,1228
1816.1599858115628,1192
1818.1438345307652,1270
1820.127187664738,1241
1822.1100454745924,1169
1824.092408221516,1168
1826.0742761667766,1268
1828.055649571721,1220
1830.0365286977735,1165
1832.0169138064398,1229
1833.9968051593014,1279
1835.9762030180214,1239
1837.9551076443408,1224
1839.9335193000788,1223
1841.9114382471344,1252
1843.888864747485,1255
1845.8657990631878,1269
1847.842241456378,1186
1849.8181921892697,1196
1851.7936515241558,1190
1853.7686197234098,1227
1855.7430970494815,1175
1857.7170837649014,1171
1859.6905801322787,1132
1861.6635864143004,1163
1863.6361028737338,1243
1865.608129773424,1238
1867.5796673762961,1175
1869.5507159453537,1210
1871.521275743678,1236
1873.4913470344313,1245
1875.4609300808534,1235
1877.4300251462632,1244
1879.3986324940588,1175
1881.366752387717,1230
1883.3343850907936,1177
1885.3015308669228,1235
1887.268189979819,1257
1889.2343626932739,1224
1891.2000492711595,1291
1893.1652499774254,1257
1895.1299650761011,1239
1897.0941948312952,1239
1899.0579395071945,1235
1901.0211993680641,1276
1902.98397467825,1230
1904.9462657021745,1261
1906.9080727043415,1269
1908.869395949332,1248
1910.8302357018065,1220
1912.790592226504,1227
1914.7504657882428,1267
1916.7098566519212,1241
1918.6687650825133,1295
1920.6271913450764,1248
1922.5851357047422,1302
1924.5425984267245,1214
1926.499579776314,1272
1928.4560800188833,1255
1930.4120994198802,1233
1932.367638244833,1209
1934.32269675935,1253
1936.2772752291175,1225
1938.231373919899,1218
1940.1849930975404,1229
1942.1381330279637,1176
1944.0907939771696,1216
1946.0429762112412,1232
1947.9946799963363,1197
1949.9459055986945,1222
1951.896653284633,1208
1953.8469233205478,1189
1955.7967159729142,1186
1957.7460315082863,1202
1959.6948701932974,1200
1961.6432322946594,1154
1963.5911180791632,1245
1965.5385278136787,1216
1967.4854617651545,1159
1969.4319202006182,1203
1971.377903387176,1215
1973.3234115920136,1159
1975.268445082395,1208
1977.2130041256642,1189
1979.1570889892423,1151
1981.1006999406304,1280
1983.04383724741,1209
1984.986501177238,1226
1986.928691997853,1214
1988.8704099770712,1223
1990.811655382789,1225
1992.7524284829801,1207
1994.692729545698,1216
1996.6325588390755,1182
1998.5719166313224,1208
2000.5108031907307,1193
2002.4492187856677,1164
2004.387163684583,1178
2006.3246381560011,1180
2008.2616424685298,1228
2010.1981768908527,1199
2012.1342416917332,1184
2014.069837140014,1193
2016.0049635046162,1218
2017.9396210545406,1142
2019.8738100588666,1122
2021.8075307867502,1166
2023.740783507431,1172
2025.6735684902228,1218
2027.6058860045214,1188
2029.5377363198004,1166
2031.4691197056118,1154
2033.4000364315875,1210
2035.3304867674374,1186
2037.260470982952,1129
2039.189989347998,1172
2041.1190421325232,1166
2043.047629606554,1253
2044.9757520401945,1186
2046.9034097036288,1158
2048.8306028671195,1238
2050.7573318010086,1216
2052.683596775716,1138
2054.609398061742,1160
2056.5347359296647,1162
2058.4596106501403,1207
2060.384022493906,1183
2062.3079717317764,1146
2064.231458634646,1170
2066.1544834734873,1169
2068.077046519352,1157
2069.99914804337,1227
2071.9207883167524,1170
2073.8419676107865,1105
2075.7626861968406,1194
2077.6829443463607,1163
2079.6027423308715,1190
2081.522080421977,1174
2083.440958891362,1191
2085.359378010786,1174
2087.2773380520907,1189
2089.194839287196,1239
2091.111881988101,1150
2093.0284664268825,1138
2094.9445928756973,1131
2096.86026160678,1156
2098.775472892446,1195
2100.690227005088,1160
2102.604524217178,1177
2104.5183648012676,1165
2106.431749029985,1185
2108.34467717604,1164
2110.2571495122206,1232
2112.169166311393,1202
2114.080727846503,1188
2115.9918343905747,1180
2117.902486216711,1191
2119.8126835980956,1166
2121.722426807987,1165
2123.6317161197285,1197
2125.5405518067364,1206
2127.448934142509,1182
2129.356863400624,1180
2131.264339854737,1193
2133.1713637785815,1202
2135.077935445972,1194
2136.9840551308002,1198
2138.889723107037,1217
2140.7949396487334,1214
2142.699705030018,1178
2144.6040195250994,1187
2146.507883408264,1219
2148.4112969538774,1186
2150.3142604363848,1208
2152.2167741303097,1198
2154.1188383102535,1215
2156.0204532508997,1155
2157.9216192270064,1182
2159.822336513414,1253
2161.7226053850413,1170
2163.622426116884,1143
2165.5217989840185,1239
2167.4207242616,1227
2169.319202224862,1207
2171.2172331491165,1217
2173.1148173097563,1207
2175.0119549822507,1213
2176.90864644215,1229
2178.8048919650823,1205
2180.7006918267534,1201
2182.596046302952,1173
2184.4909556695407,1179
2186.3854202024645,1194
2188.279440177746,1165
2190.173015871487,1160
2192.066147559868,1193
2193.958835519149,1186
2195.851080025667,1197
2197.7428813558417,1174
2199.6342397861667,1220
2201.5251555932186,1188
2203.415629053651,1210
2205.3056604441986,1243
2207.19525004167,1202
2209.084398122958,1197
2210.9731049650327,1168
2212.861370844941,1168
2214.749196039812,1197
2216.636580826851,1241
2218.523525483344,1235
2220.410030286655,1160
2222.296095514226,1240
2224.1817214435805,1180
2226.066908352319,1196
2227.951656518121,1205
2229.835966218746,1235
2231.71983773203,1266
2233.6032713358913,1256
2235.486267308324,1194
2237.3688259274036,1200
2239.2509474712824,1156
2241.132632218193,1226
2243.013880446447,1231
2244.8946924344323,1220
2246.7750684606203,1160
2248.6550088035574,1276
2250.534513741871,1252
2252.413583554265,1256
2254.292218519526,1261
2256.170418916517,1205
2258.0481850241786,1202
2259.925517121534,1254
2261.8024154876825,1192
2263.678880401803,1204
2265.5549121431536,1184
2267.430510991071,1234
2269.305677224971,1180
2271.180411124348,1237
2273.0547129687766,1124
2274.9285830379076,1192
2276.8020216114737,1197
2278.6750289692845,1218
2280.5476053912294,1227
2282.4197511572766,1237
2284.2914665474727,1211
2286.162751841943,1195
2288.0336073208937,1203
2289.904033264608,1200
2291.774029953448,1253
2293.6435976678554,1270
2295.5127366883517,1212
2297.381447295534,1176
2299.2497297700825,1208
2301.1175843927526,1179
2302.9850114443825,1108
2304.852011205885,1175
2306.7185839582553,1159
2308.5847299825664,1084
2310.4504495599676,1153
2312.3157429716925,1136
2314.1806104990483,1128
2316.0450524234247,1175
2317.9090690262888,1054
2319.772660589186,1138
2321.635827393742,1179
2323.498569721661,1150
2325.3608878547248,1107
2327.2227820747967,1087
2329.0842526638157,1084
2330.945299903803,1129
2332.805924076857,1090
2334.6661254651535,1113
2336.525904350951,1113
2338.3852610165827,1107
2340.244195744464,1097
2342.102708817088,1077
2343.9608005170253,1069
2345.8184711269287,1089
2347.675720929526,1134
2349.532550207628,1124
2351.38895924412,1118
2353.24494832197,1067
2355.100517724223,1089
2356.955667734004,1133
2358.810398634514,1107
2360.664710709037,1098
2362.5186042409337,1100
2364.3720795136437,1111
2366.225136810686,1064
2368.0777764156583,1123
2369.929998612237,1130
2371.7818036841777,1110
2373.633191915315,1087
2375.484163589562,1093
2377.3347189909114,1107
2379.184858403434,1169
2381.03458211128,1144
2382.8838903986775,1116
2384.732783549936,1101
2386.5812618494406,1138
2388.4293255816588,1173
2390.2769750311327,1133
2392.1242104824883,1119
2393.971032220427,1123
2395.8174405297295,1102
2397.6634356952563,1111
2399.509018001947,1130
2401.3541877348193,1087
2403.1989451789705,1103
2405.043290619576,1120
2406.8872243418905,1170
2408.730746631247,1159
2410.5738577730594,1140
2412.4165580528183,1132
2414.258847756095,1093
2416.100727168537,1158
2417.9421965758734,1135
2419.783256263912,1176
2421.623906518538,1137
2423.4641476257157,1189
2425.303979871491,1198
2427.143403541984,1122
2428.9824189233977,1163
2430.821026302012,1172
2432.6592259641866,1167
2434.497018196361,1105
2436.33440328505,1078
2438.171381516851,1136
2440.00795317844,1168
2441.844118556569,1169
2443.6798779380724,1146
2445.5152316098606,1183
2447.3501798589255,1158
2449.1847229723357,1151
2451.0188612372403,1203
2452.8525949408663,1154
2454.6859243705203,1193
2456.518849813587,1128
2458.3513715575314,1127
2460.183489889895,1175
2462.015205098301,1155
2463.8465174704493,1105
2465.67742729412,1157
2467.5079348571717,1187
2469.338040447542,1177
2471.1677443532476,1178
2472.9970468623833,1128
2474.825948263123,1155
2476.6544488437207,1175
2478.482548892508,1137
2480.310248697896,1143
2482.137548548374,1178
2483.9644487325118,1132
2485.790949538956,1140
2487.617051256433,1151
2489.44275417375,1185
2491.26805857979,1149
2493.0929647635157,1120
2494.917473013971,1159
2496.741583620276,1166
2498.5652968716304,1151
2500.3886130573137,1168
2502.2115324666834,1207
2504.0340553891765,1236
2505.856182114308,1221
2507.6779129316733,1162
2509.499248130945,1122
2511.3201880018764,1173
2513.140732834298,1198
2514.9608829181198,1157
2516.780638543331,1204
2518.6,1148
2520.418967578273,1195
2522.237541568376,1208
2524.0557222606144,1162
2525.8735099453706,1200
2527.6909049131086,1233
2529.507907454368,1225
2531.32451785977,1184
2533.140736420014,1194
2534.9565634258774,1214
2536.771999168218,1242
2538.5870439379714,1202
2540.4016980261526,1208
2542.2159617238544,1218
2544.02983532225,1226
2545.8433191125914,1286
2547.656413386209,1236
2549.4691184345115,1280
2551.2814345489874,1256
2553.093362021204,1274
2554.904901142808,1310
2556.716052205523,1258
2558.526815501153,1292
2560.3371913215824,1294
2562.147179958771,1249
2563.956781704761,1378
2565.7659968516705,1346
2567.5748256916986,1333
2569.3832685171224,1335
2571.1913256202984,1351
2572.9989972936614,1370
2574.806283829725,1318
2576.613185521084,1338
2578.4197026604074,1380
2580.2258355404483,1329
2582.031584454035,1357
2583.836949694077,1369
2585.6419315535613,1363
2587.4465303255533,1370
2589.2507463032002,1338
2591.0545797797245,1360
2592.8580310484303,1386
2594.6611004026995,1351
2596.463788135992,1398
2598.266094541849,1356
2600.0680199138874,1351
2601.869564545807,1405
2603.670728731383,1363
2605.4715127644704,1331
2607.2719169390048,1362
2609.071941548998,1364
2610.8715868885433,1349
2612.670853251811,1370
2614.469740933052,1400
2616.268250226594,1385
2618.0663814268455,1341
2619.864134828292,1324
2621.6615107255006,1334
2623.458509413115,1347
2625.2551311858597,1377
2627.0513763385347,1325
2628.8472451660223,1374
2630.6427379632833,1333
2632.4378550253564,1281
2634.232596647359,1272
2636.026963124488,1293
2637.8209547520187,1316
2639.6145718253065,1300
2641.407814639785,1313
2643.200683490966,1353
2644.9931786744414,1291
2646.7853004858807,1317
2648.577049221034,1273
2650.3684251757277,1302
2652.1594286458712,1250
2653.9500599274484,1260
2655.740319316525,1270
2657.5302071092437,1209
2659.3197236018286,1225
2661.10886909058,1269
2662.8976438718782,1244
2664.686048242183,1195
2666.4740824980327,1237
2668.2617469360443,1224
2670.0490418529134,1230
2671.8359675454153,1190
2673.622524310403,1252
2675.408712444811,1224
2677.1945322456495,1141
2678.979984010009,1159
2680.76506803506,1244
2682.5497846180497,1217
2684.334134056306,1144
2686.1181166472343,1173
2687.9017326883213,1215
2689.6849824771293,1209
2691.4678663113013,1148
2693.2503844885596,1183
2695.032537306705,1166
2696.8143250636167,1152
2698.5957480572542,1153
2700.3768065856534,1242
2702.1575009469316,1133
2703.937831439283,1176
2705.717798360982,1118
2707.4974020103837,1120
2709.276642685917,1067
2711.055520686095,1111
2712.834036309506,1114
2714.612189854819,1072
2716.389981620782,1129
2718.1674119062204,1144
2719.944481010041,1128
2721.721189231226,1166
2723.4975368688415,1126
2725.273524222027,1150
2727.0491515900053,1106
2728.824419272075,1100
2730.5993275676146,1155
2732.3738767760838,1123
2734.148067197016,1089
2735.921899130031,1103
2737.6953728748194,1171
2739.468488731156,1094
2741.2412469988926,1086
2743.0136479779617,1112
2744.785691968372,1116
2746.5573792702116,1118
2748.3287101836504,1096
2750.099685008934,1047
2751.870304046388,1087
2753.640567596418,1101
2755.4104759595057,1136
2757.1800294362156,1086
2758.949228327187,1069
2760.7180729331412,1119
2762.486563554877,1088
2764.254700493272,1067
2766.022484049284,1111
2767.789914523947,1169
2769.5569922183786,1089
2771.3237174337705,1135
2773.090090471394,1076
2774.8561116326036,1065
2776.6217812188274,1034
2778.3870995315756,1103
2780.1520668724356,1128
2781.9166835430747,1077
2783.6809498452394,1137
2785.444866080754,1134
2787.2084325515225,1086
2788.971649559527,1090
2790.73451740683,1127
2792.4970363955713,1115
2794.2592068279705,1089
2796.0210290063264,1101
2797.7825032330147,1075
2799.543629810493,1072
2801.304409041296,1101
2803.0648412280366,1071
2804.8249266734088,1058
2806.5846656801846,1101
2808.344058551212,1115
2810.1031055894246,1136
2811.8618070978273,1124
2813.6201633795085,1114
2815.378174737636,1075
2817.1358414754536,1086
2818.893163896285,1094
2820.6501423035334,1101
2822.4067770006814,1057
2824.1630682912883,1044
2825.9190164789957,1104
2827.6746218675207,1055
2829.429884760661,1052
2831.184805462294,1047
2832.9393842763743,1084
2834.693621506936,1074
2836.4475174580916,1085
2838.201072434034,1070
2839.954286739034,1114
2841.707160677441,1096
2843.459694553685,1091
2845.2118886722724,1081
2846.96374333779,1082
2848.7152588549034,1086
2850.4664355283567,1102
2852.217273662973,1076
2853.9677735636546,1106
2855.7179355353833,1088
2857.4677598832186,1087
2859.217246912299,1082
2860.9663969278427,1061
2862.715210235146,1028
2864.4636871395846,1066
2866.211827946614,1078
2867.9596329617652,1091
2869.7071024906536,1134
2871.4542368389684,1085
2873.20103631248,1093
2874.947501217038,1067
2876.6936318585695,1074
2878.4394285430812,1101
2880.1848915766604,1066
2881.9300212654707,1080
2883.6748179157553,1050
2885.4192818338374,1075
2887.1634133261173,1124
2888.907212699077,1085
2890.6506802592744,1123
2892.393816313348,1149
2894.1366211680142,1102
2895.8790951300693,1102
2897.621238506388,1079
2899.363051603925,1114
2901.1045347297118,1127
2902.8456881908596,1074
2904.58651229456,1126
2906.327007348081,1103
2908.067173658772,1092
2909.8070115340597,1110
2911.5465212814497,1086
2913.285703208527,1061
2915.0245576229563,1097
2916.7630848324807,1021
2918.5012851449196,1074
2920.2391588681758,1078
2921.976706310227,1060
2923.7139277791334,1030
2925.4508235830313,1066
2927.187394030137,1137
2928.923639428745,1134
2930.6595600872306,1099
2932.395156314046,1165
2934.1304284177218,1134
2935.8653767068713,1137
2937.6000014901815,1094
2939.3343030764227,1125
2941.068281774442,1114
2942.8019378931644,1089
2944.5352717415976,1121
2946.2682836288236,1125
2948.0009738640065,1109
2949.7333427563885,1111
2951.465390615289,1085
2953.1971177501086,1044
2954.9285244703265,1127
2956.6596110855,1083
2958.3903779052657,1095
2960.1208252393385,1073
2961.8509533975125,1029
2963.5807626896617,1121
2965.3102534257378,1067
2967.0394259157715,1062
2968.768280469873,1062
2970.496817398232,1100
2972.2250370111146,1156
2973.952939618869,1095
2975.6805255319196,1075
2977.4077950607707,1124
2979.134748516006,1098
2980.861386208289,1101
2982.587708448359,1118
2984.313715547037,1084
2986.039407815222,1095
2987.764785563891,1050
2989.489849104102,1023
2991.2145987469908,1077
2992.9390348037705,1097
2994.6631575857346,1072
2996.3869674042576,1065
2998.1104645707887,1080
2999.83364939686,1040
3001.5565221940783,1033
3003.2790832741334,1070
3005.0013329487924,1077
3006.7232715298996,1016
3008.4448993293804,1029
3010.166216659239,1082
3011.887223831558,1074
3013.607921158498,1083
3015.3283089522993,1091
3017.0483875252826,1067
3018.7681571898443,1082
3020.4876182584626,1045
3022.2067710436927,1042
3023.9256158581707,1051
3025.644153014609,1030
3027.362382825801,1068
3029.0803056046193,1041
3030.797921664012,1063
3032.5152313170106,1101
3034.2322348767225,1071
3035.9489326563353,1084
3037.665324969115,1062
3039.3814121284063,1053
3041.097194447633,1078
3042.812672240299,1071
3044.5278458199855,1084
3046.2427155003525,1080
3047.9572815951406,1049
3049.671544418167,1082
3051.38550428333,1113
3053.0991615046073,1056
3054.812516396051,1065
3056.5255692717974,1070
3058.2383204460575,1123
3059.9507702331257,1070
3061.662918947372,1107
3063.3747669032446,1050
3065.0863144152736,1067
3066.7975617980674,1032
3068.508509366309,994
3070.219157434767,1066
3071.9295063182844,1076
3073.639556331785,1064
3075.3493077902704,1090
3077.058761008821,1073
3078.7679163025964,1032
3080.476773986837,1064
3082.1853343768594,1064
3083.89359778806,1061
3085.6015645359153,1094
3087.3092349359786,1100
3089.016609303884,1095
3090.7236879553434,1067
3092.4304712061476,1068
3094.136959372166,1061
3095.843152769349,1102
3097.5490517137237,1045
3099.2546565213966,1042
3100.959967508554,1048
3102.66498499146,1082
3104.3697092864577,1056
3106.0741407099695,1058
3107.778279578498,1053
3109.482126208622,1090
3111.1856809170004,1107
3112.8889440203716,1082
3114.5919158355528,1091
3116.294596679439,1063
3117.996986869006,1103
3119.6990867213062,1045
3121.4008965534726,1101
3123.102416682717,1116
3124.803647426329,1077
3126.5045891016784,1051
3128.205242026213,1069
3129.90560651746,1134
3131.605682893025,1108
3133.3054714705922,1118
3135.0049725679282,1124
3136.7041865028714,1109
3138.4031135933465,1037
3140.101754157353,1066
3141.800108512971,1052
3143.498176978357,1074
3145.1959598717494,1051
3146.8934575114636,1066
3148.5906702158954,1074
3150.2875983035183,994
3151.9842420928853,1071
3153.680601902627,1048
3155.376678051456,1035
3157.07247085816,1081
3158.767980641609,1052
3160.463207720748,1078
3162.158152414606,1119
3163.8528150422862,1066
3165.5471959229726,1017
3167.2412953759303,1076
3168.9351137204976,1018
3170.628651276098,1088
3172.3219083622307,1032
3174.014885298474,1062
3175.707582404485,1019
3177.4000000000005,1086
3179.092138404835,1045
3180.7839979388846,1103
3182.47557892212,1051
3184.166881674594,1055
3185.8579065164386,1067
3187.5486537678626,1080
3189.2391237491547,1076
3190.9293167806827,1010
3192.6192331828934,1028
3194.3088732763117,1006
3195.998237381542,1038
3197.687325819268,1077
3199.376138910251,1064
3201.064676975334,1036
3202.7529403354347,1024
3204.4409293115523,1029
3206.1286442247647,1045
3207.816085396229,1072
3209.5032531471825,1016
3211.190147798936,1037
3212.8767696728846,1039
3214.5631190905015,1072
3216.2491963733373,1095
3217.9350018430214,1021
3219.6205358212637,1097
3221.305798629851,1062
3222.990790590651,1008
3224.6755120256103,1041
3226.359963256751,1049
3228.0441446061795,1005
3229.7280563960758,1093
3231.411698948703,1033
3233.0950725863995,1093
3234.778177631587,1051
3236.461014406761,1027
3238.1435832345005,1068
3239.8258844374595,1007
3241.507918338374,1079
3243.1896852600576,1099
3244.8711855254023,1082
3246.552419457381,1043
3248.233387379042,1083
3249.914089613516,1089
3251.59452648401,1070
3253.274698313813,1062
3254.95460542629,1034
3256.6342481448855,1066
3258.313626793125,1058
3259.9927416946084,1014
3261.6715931730196,1030
3263.3501815521176,1046
3265.0285071557437,1030
3266.706570307815,1022
3268.3843713323286,1022
3270.0619105533615,1094
3271.739188295068,1027
3273.4162048816834,1049
3275.0929606375184,1049
3276.769455886966,1026
3278.445690954498,1067
3280.1216661646613,1080
3281.797381842087,1054
3283.4728383114807,1059
3285.1480358976296,1037
3286.8229749253996,1070
3288.4976557197333,1045
3290.172078605655,1043
3291.846243908266,1080
3293.5201519527463,1049
3295.193803064357,1068
3296.8671975684374,1007
3298.5403357904024,1048
3300.21321805575,1056
3301.8858446900567,1026
3303.558216018975,1012
3305.23033236824,1063
3306.9021940636603,1024
3308.57380143113,1050
3310.2451547966184,1054
3311.916254486174,1036
3313.5871008259246,1056
3315.2576941420766,1075
3316.9280347609147,1064
3318.5981230088046,1019
3320.2679592121895,1014
3321.9375436975924,1021
3323.606876791612,1016
3325.27595882093,997
3326.944790112305,1029
3328.6133709925753,1029
3330.2817017886573,1087
3331.949782827547,1006
3333.617614436319,1033
3335.2851969421245,1067
3336.952530672199,1048
3338.619615953853,1075
3340.286453114475,1074
3341.9530424815357,1064
3343.619384382583,1008
3345.2854791452437,1007
3346.951327097224,1079
3348.6169285663073,1002
3350.2822838803577,1026
3351.947393367319,1042
3353.61225735521,1043
3355.2768761721345,1038
3356.9412501462693,1109
3358.605379605873,984
3360.2692648792827,1047
3361.9329062949146,1048
3363.596304181263,1038
