CollectionTime,9/25/2024 11:18:00 AM
ExposureUsed,3
CalibratedSpectrum
-962.7078968117929,511
-959.9714848408522,528
-957.2358232597828,551
-954.5009119013725,603
-951.7667505983302,616
-949.0333391832855,604
-946.3006774887896,564
-943.5687653473143,568
-940.837602591253,536
-938.1071890529199,557
-935.3775245645503,561
-932.6486089583007,539
-929.9204420662485,559
-927.1930237203925,572
-924.4663537526524,596
-921.7404319948689,592
-919.0152582788041,583
-916.2908324361409,602
-913.5671542984834,617
-910.8442236973568,587
-908.1220404642074,604
-905.4006044304027,572
-902.679915427231,570
-899.959973285902,532
-897.2407778375464,562
-894.5223289132158,572
-891.8046263438832,552
-889.0876699604426,547
-886.3714595937089,521
-883.6559950744183,527
-880.9412762332282,555
-878.2273029007168,557
-875.5140749073835,525
-872.8015920836489,533
-870.0898542598545,546
-867.3788612662631,529
-864.6686129330585,548
-861.9591090903457,539
-859.2503495681506,542
-856.5423341964203,480
-853.8350628050229,495
-851.1285352237478,519
-848.4227512823054,524
-845.7177108103272,529
-843.0134136373656,496
-840.3098595928943,509
-837.6070485063082,547
-834.9049802069229,591
-832.2036545239757,577
-829.5030712866244,520
-826.8032303239481,572
-824.1041314649472,516
-821.4057745385428,571
-818.7081593735775,578
-816.0112857988148,540
-813.3151536429393,552
-810.6197627345566,544
-807.9251129021936,524
-805.2312039742981,500
-802.5380357792392,544
-799.8456081453069,577
-797.1539209007124,563
-794.462973873588,537
-791.772766891987,539
-789.083299783884,564
-786.3945723771743,595
-783.7065844996748,620
-781.0193359791231,567
-778.3328266431781,528
-775.6470563194197,530
-772.9620248353489,546
-770.2777320183878,524
-767.5941776958798,530
-764.9113616950891,549
-762.2292838432011,553
-759.5479439673222,558
-756.8673418944801,545
-754.1874774516235,578
-751.5083504656222,590
-748.8299607632671,520
-746.15230817127,568
-743.475392516264,604
-740.7992136248035,590
-738.1237713233636,594
-735.4490654383407,616
-732.7750957960521,584
-730.1018622227365,540
-727.4293645445534,550
-724.7576025875837,593
-722.0865761778291,540
-719.4162851412126,597
-716.7467293035781,634
-714.0779084906909,592
-711.409822528237,602
-708.7424712418238,575
-706.0758544569796,617
-703.4099719991541,581
-700.7448236937178,576
-698.0804093659622,579
-695.4167288411002,609
-692.7537819442656,576
-690.0915685005134,573
-687.4300883348199,576
-684.7693412720819,618
-682.1093271371178,638
-679.4500457546669,627
-676.7914969493897,592
-674.1336805458676,597
-671.4765963686034,626
-668.8202442420206,594
-666.1646239904642,585
-663.5097354382001,603
-660.8555784094151,572
-658.2021527282176,605
-655.5494582186366,582
-652.8974947046223,616
-650.2462620100463,619
-647.5957599587009,617
-644.9459883742998,649
-642.2969470804776,645
-639.6486359007902,630
-637.0010546587141,618
-634.3542031776476,627
-631.7080812809096,634
-629.0626887917401,649
-626.4180255333008,624
-623.7740913286734,678
-621.1308860008619,735
-618.4884093727904,710
-615.8466612673046,674
-613.2056415071715,634
-610.5653499150785,633
-607.9257863136347,664
-605.28695052537,659
-602.6488423727357,684
-600.0114616781036,652
-597.3748082637674,747
-594.7388819519412,745
-592.1036825647604,754
-589.4692099242818,744
-586.8354638524829,728
-584.2024441712624,710
-581.5701507024403,730
-578.9385832677575,771
-576.3077416888759,703
-573.6776257873787,691
-571.0482353847704,709
-568.4195703024757,740
-565.7916303618415,746
-563.164415384135,717
-560.5379251905453,689
-557.9121596021815,689
-555.2871184400748,686
-552.6628015251767,703
-550.0392086783606,752
-547.4163397204204,751
-544.794194472071,744
-542.1727727539491,723
-539.5520743866118,749
-536.9320991905377,800
-534.3128469861261,815
-531.6943175936979,848
-529.0765108334947,887
-526.4594265256793,928
-523.8430644903358,1079
-521.2274245474689,1221
-518.612506517005,1363
-515.9983102187913,1329
-513.3848354725959,1457
-510.77208209810846,1736
-508.16004991493924,2037
-505.5487387426199,2235
-502.9381484006032,2193
-500.3282787082628,2186
-497.71912948489364,1998
-495.1107005497117,1836
-492.5029917218539,1536
-489.8960028203786,1303
-487.28973366426493,1139
-484.68418407241325,1021
-482.07935386364494,961
-479.47524285670266,916
-476.87185087025,902
-474.2691777228715,977
-471.66722323307334,996
-469.0659872192821,976
-466.4654694998459,891
-463.86566989303384,949
-461.26658821703614,885
-458.66822428996414,896
-456.07057792985,903
-453.4736489546475,963
-450.877437182231,905
-448.28194243039627,874
-445.68716451686,887
-443.09310325926003,838
-440.49975847515555,846
-437.9071299820263,837
-435.31521759727354,830
-432.72402113821954,844
-430.13354042210767,948
-427.5437752661022,960
-424.95472548728867,933
-422.36639090267386,909
-419.7787713291855,963
-417.1918665836721,1019
-414.60567648290385,1008
-412.0202008435715,1006
-409.4354394822874,930
-406.8513922155845,926
-404.26805885991723,1069
-401.685439231661,989
-399.103533147112,954
-396.522340422488,993
-393.9418608739278,958
-391.3620943174908,892
-388.7830405691583,964
-386.2046994448317,921
-383.6270707603344,916
-381.05015433141045,887
-378.473949973725,796
-375.8984575028645,789
-373.32367673433623,786
-370.74960748356875,761
-368.1762495659117,746
-365.60360279663576,676
-363.03166699093265,648
-360.4604419639154,639
-357.8899275306178,614
-355.32012350599507,586
-352.7510297049233,581
-350.1826459421999,567
-347.61497203254316,550
-345.04800779059235,557
-342.4817530309082,563
-339.91620756797226,582
-337.35137121618743,623
-334.7872437898774,720
-332.22382510328725,686
-329.66111497058273,754
-327.09911320585127,788
-324.53781962310075,636
-321.9772340362607,604
-319.4173562591816,581
-316.8581861056348,632
-314.2997233893127,597
-311.7419679238294,672
-309.1849195227194,704
-306.62857799943856,680
-304.0729431673641,620
-301.51801483979375,649
-298.963792829947,676
-296.41027695096386,608
-293.85746701590574,699
-291.3053628377552,800
-288.7539642294155,753
-286.2032710037115,819
-283.65328297338897,817
-281.1039999511146,756
-278.5554217494762,855
-276.007548180983,874
-273.4603790580651,832
-270.9139141930734,798
-268.3681533982807,912
-265.8230964858798,835
-263.27874326798565,768
-260.7350935566336,743
-258.1921471637804,831
-255.6499039013039,970
-253.10836358100266,1061
-250.56752601459698,900
-248.02739101372765,900
-245.48795838995704,950
-242.94922795476816,940
-240.41119951956557,946
-237.8738728956746,977
-235.33724789434166,923
-232.80132432673452,955
-230.2661020039418,865
-227.73158073697357,855
-225.19776033676033,955
-222.66464061415422,1093
-220.1322213799284,1037
-217.60050244477725,922
-215.06948361931552,930
-212.53916471408013,1104
-210.00954553952818,1147
-207.48062590603843,1024
-204.9524056239104,852
-202.4248845033651,906
-199.8980623545441,1086
-197.37193898751036,1214
-194.84651421224817,1185
-192.32178783866232,1027
-189.79775967657952,1128
-187.27442953574644,1259
-184.7517972258321,1262
-182.2298625564256,1119
-179.7086253370378,1000
-177.18808537710026,1305
-174.66824248596583,1711
-172.14909647290835,1656
-169.6306471471229,1458
-167.11289431772548,1171
-164.59583779375328,1114
-162.07947738416453,1306
-159.5638128978386,1505
-157.04884414357605,1723
-154.53457093009854,1763
-152.02099306604828,1523
-149.50811035998936,1375
-146.99592262040665,1360
-144.48442965570587,1510
-141.97363127421409,1760
-139.46352728417958,1953
-136.95411749377126,2058
-134.44540171107985,1832
-131.93737974411636,1785
-129.43005140081357,1633
-126.92341648902493,2139
-124.41747481652521,2633
-121.91222619101006,3147
-119.40767042009657,3934
-116.90380731132257,4922
-114.40063667214702,4810
-111.8981583099503,4399
-109.3963720320337,4716
-106.89527764561933,5363
-104.39487495785067,5331
-101.89516377579241,5635
-99.39614390642998,8024
-96.89781515667039,13241
-94.40017733334128,15493
-91.90323024319173,12660
-89.40697369289148,9713
-86.91140748903172,7684
-84.41653143812482,6700
-81.92234534660395,7932
-79.42884902082358,9877
-76.93604226705907,12661
-74.4439248915071,13314
-71.95249670028534,15219
-69.46175749943245,20910
-66.97170709490854,27985
-64.48234529259423,33645
-61.99367189829195,38483
-59.50568671772464,41321
-57.01838955653636,40353
-54.53178022029283,38835
-52.045858514480074,38385
-49.560624244506016,36519
-47.07607721569923,31581
-44.59221723330904,21762
-42.10904410250669,18310
-39.62655762838392,18685
-37.14475761595372,22955
-34.66364387015028,29970
-32.18321619582866,36035
-29.70347439776515,38752
-27.224418280657005,36720
-24.74604764912317,39393
-22.26836230770266,60844
-19.7913620608565,65040
-17.315046712966478,65040
-14.83941606833514,65040
-12.36446993118659,65040
-9.89020810566592,65040
-7.416630395839093,65040
-4.94373660569363,65040
-2.471526539137585,65040
-6.821210263296962E-13,65040
2.47084320796705,65040
4.941003281093458,65040
7.410480415786196,65040
9.879274808531363,65040
12.347386655893956,65040
14.814816154518212,65040
17.28156350112681,65040
19.74762889252179,65040
22.21301252558385,65040
24.67771459727237,23970
27.141735304626195,6664
29.605074844762612,5974
32.06773341487792,5201
34.52971121224755,4952
36.99100843422559,5053
39.45162527824516,7006
41.91156194181792,6488
44.370818622535126,4379
46.82939551806646,3680
49.287292826160524,4035
51.74451074464503,4300
54.201049471426245,4061
56.65690920448981,3986
59.112090141899785,4528
61.56659248179983,5209
64.02041642241159,3830
66.4735621620365,2790
68.92602989905402,3018
71.37781983192338,3340
73.82893215918205,2545
76.27936707944684,2496
78.72912479141326,2799
81.17820549385567,2681
83.62660938562783,2537
86.07433666566146,2219
88.5213875329681,2632
90.96776218663751,2620
93.41346082583925,2438
95.85848364982041,2367
98.30283085790859,2267
100.7465026495089,2214
103.18949922410604,2069
105.63182078126385,2233
108.07346752062438,2366
110.51443964190923,2220
112.95473734491827,1995
115.39436082953114,1638
117.83331029570547,1794
120.27158594347827,1866
122.7091879729652,2040
125.1461165843615,2116
127.58237197794062,1862
130.01795435405518,1651
132.4528639131364,1391
134.88710085569494,1692
137.32066538231982,2033
139.75355769367923,1549
142.1857779905207,1454
144.61732647366978,1453
147.04820334403132,1636
149.47840880258934,1547
151.90794305040674,1603
154.33680628862487,1440
156.76499871846443,1553
159.19252054122433,1574
161.61937195828352,1793
164.04555317109896,1780
166.47106438120693,1939
168.89590579022217,2056
171.320077599839,2165
173.7435800118302,2199
176.16641322804742,2280
178.58857745042144,2615
181.01007288096173,2466
183.43089972175687,2652
185.85105817497413,2690
188.27054844285988,2529
190.6893707277394,2488
193.10752523201643,2542
195.5250121581745,2442
197.9418317087751,2428
200.3579840864594,2436
202.7734694939469,2491
205.18828813403627,2637
207.6024402096051,2780
210.01592592360964,2535
212.42874547908548,2750
214.84089907914665,2677
217.2523869269868,2457
219.66320922587727,2587
222.0733661791695,2653
224.48285799029293,2743
226.8916848627572,2584
229.29984700014882,2658
231.7073446061355,2736
234.11417788446204,2744
236.520347038953,2651
238.92585227351185,2473
241.33069379212054,2432
243.73487179884035,2511
246.1383864978112,2669
248.541238093252,2444
250.9434267894609,2469
253.34495279081432,2620
255.74581630176783,2521
258.1460175268563,2485
260.54555667069314,2526
262.9444339379703,2570
265.3426495334594,2623
267.7402036620107,2684
270.1370965285529,2651
272.53332833809407,2707
274.9288992957214,2643
277.32380960660055,2661
279.718059475976,2624
282.1116491091717,2548
284.5045787115897,2543
286.89684848871195,2635
289.2884586460981,2637
291.67940938938807,2606
294.0697009242996,2551
296.4593334566299,2585
298.84830719225477,2672
301.23662233712923,2593
303.6242790972866,2580
306.01127767884,2583
308.39761828798066,2394
310.78330113097934,2404
313.16832641418534,2352
315.5526943440269,2399
317.9364051270112,2448
320.3194589697242,2299
322.70185607883093,2369
325.0835966610754,2342
327.4646809232805,2355
329.8451090723478,2385
332.2248813152577,2299
334.6039978590701,2261
336.9824589109231,2304
339.36026467803447,2229
341.7374153677,2129
344.113911187295,2081
346.48975234427337,2126
348.8649390461686,2190
351.2394715005918,2156
353.61334991523415,2164
355.9865744978655,2153
358.35914545633375,2061
360.73106299856715,2115
363.10232733257146,2144
365.47293866643247,2122
367.84289720831396,2023
370.2122031664593,1967
372.5808567491905,2020
374.9488581649083,1977
377.31620762209275,2016
379.6829053293021,1998
382.0489514951745,2112
384.4143463284262,2100
386.7790900378528,2062
389.14318283232853,1994
391.50662492080653,2057
393.86941651231916,1970
396.23155781597745,2066
398.5930490409713,2023
400.9538903965696,2013
403.3140820921202,2031
405.6736243370498,2061
408.03251734086336,1975
410.3907613131465,1956
412.74835646356166,2010
415.10530300185144,1956
417.4616011378372,1976
419.81725108141893,1951
422.1722530425758,1989
424.5266072313656,1912
426.880313857925,1922
429.2333731324701,1913
431.58578526529516,1868
433.9375504667738,1812
436.2886689473588,1909
438.63914091758113,1856
440.9889665880513,1888
443.33814616945835,1880
445.68667987257015,1813
448.03456790823395,1879
450.3818104873759,1911
452.72840782100013,1881
455.07436012019105,1924
457.41966759611057,1821
459.7643304600007,1827
462.10834892318155,1880
464.4517231970525,1871
466.79445349309174,1825
469.1365400228566,1908
471.4779829979826,1991
473.81878263018564,1934
476.15893913125876,1891
478.4984527130747,1960
480.8373235875855,2012
483.17555196682144,2144
485.5131380628919,2166
487.8500820879857,2286
490.1863842543697,2310
492.52204477439034,2381
494.8570638604725,2697
497.1914417251204,3153
499.52517858091653,3680
501.85827464052306,4320
504.19073011668036,4877
506.5225452222086,5073
508.85372017000566,4995
511.18425517304956,4807
513.514150444396,4947
515.8434061971808,5601
518.1720226446176,6298
520.4999999999999,6293
522.8273384766991,6106
525.1540382881666,5483
527.480099647932,4681
529.8055227696037,3708
532.1303078668694,2869
534.454455153496,2414
536.777964843328,2183
539.1008371502907,2022
541.4230722883866,1970
543.744670471698,1886
546.0656319143858,1881
548.3859568306899,1851
550.7056454349294,1924
553.0246979415016,1993
555.3431145648834,1923
557.6608955196306,1855
559.978041020377,1864
562.2945512818363,1967
564.6104265188006,1901
566.9256669461412,1850
569.2402727788082,1905
571.5542442318302,1832
573.8675815203156,1855
576.1802848594508,1957
578.4923544645015,1925
580.8037905508126,1897
583.114593333807,1847
585.4247630289875,1859
587.7342998519354,1888
590.0432040183106,1818
592.3514757438526,1965
594.6591152443794,1942
596.9661227357875,1868
599.2724984340531,1892
601.578242555231,1873
603.8833553154542,1925
606.1878369309362,1858
608.4916876179676,1837
610.7949075929192,1853
613.0974970722403,1840
615.3994562724587,1858
617.7007854101818,1843
620.0014847020951,1837
622.3015543649641,1820
624.6009946156324,1821
626.8998056710224,1900
629.1979877481361,1856
631.4955410640538,1916
633.7924658359349,1875
636.0887622810175,1846
638.3844306166192,1838
640.6794710601358,1929
642.9738838290426,1866
645.2676691408932,1816
647.5608272133207,1839
649.853358264037,1911
652.1452625108324,1920
654.4365401715764,1942
656.7271914642178,1900
659.0172166067838,1911
661.3066158173809,1908
663.5953893141935,1824
665.8835373154867,1884
668.1710600396028,1957
670.4579577049639,1915
672.7442305300709,1921
675.0298787335033,1949
677.3149025339197,1895
679.599302150058,1880
681.8830778007342,1903
684.1662297048437,1915
686.4487580813608,1928
688.7306631493387,1868
691.0119451279091,1973
693.2926042362834,1876
695.5726406937516,1844
697.8520547196814,1888
700.1308465335215,1874
702.4090163547982,1906
704.6865644031171,1961
706.9634908981619,1835
709.2397960596965,1830
711.5154801075631,1899
713.7905432616823,1912
716.0649857420548,1904
718.3388077687592,1942
720.612009561953,1849
722.8845913418733,1901
725.1565533288352,1864
727.427895743234,1811
729.6986188055427,1933
731.9687227363137,1828
734.238207756178,1814
736.5070740858458,1906
738.7753219461066,1825
741.0429515578281,1877
743.3099631419569,1908
745.5763569195191,1892
747.8421331116193,1889
750.1072919394409,1902
752.3718336242467,1872
754.6357583873777,1846
756.8990664502545,1882
759.1617580343765,1949
761.423833361321,1895
763.6852926527457,1876
765.9461361303862,1908
768.206364016058,2042
770.4659765316536,1905
772.7249738991469,1877
774.9833563405886,1987
777.2411240781092,1980
779.4982773339183,1985
781.7548163303044,1972
784.010741289634,1997
786.2660524343538,1956
788.5207499869881,1948
790.7748341701416,2026
793.0283052064964,2021
795.2811633188143,1940
797.5334087299362,2036
799.7850416627813,1933
802.0360623403484,2026
804.2864709857143,1968
806.5362678220353,2023
808.7854530725468,1979
811.0340269605625,1928
813.2819897094754,1950
815.5293415427581,2031
817.77608268396,1989
820.0222133567116,1968
822.2677337847211,1987
824.5126441917765,1999
826.7569448017433,2016
829.0006358385675,1985
831.2437175262731,1967
833.4861900889629,2032
835.7280537508192,1865
837.9693087361026,2071
840.2099552691533,1944
842.4499935743896,1914
844.689423876309,1940
846.9282463994886,1924
849.1664613685833,1892
851.4040690083276,2001
853.6410695435349,1962
855.877463199097,2004
858.1132501999847,1933
860.3484307712487,1959
862.5830051380175,2002
864.8169735254988,1957
867.0503361589791,2008
869.2830932638243,1959
871.5152450654786,1965
873.7467917894654,2014
875.9777336613873,2002
878.2080709069252,1944
880.4378037518389,1956
882.666932421968,1954
884.8954571432301,1979
887.1233781416219,2007
889.3506956432192,1987
891.5774098741766,2023
893.803521060728,1980
896.0290294291852,2083
898.2539352059397,2070
900.4782386174619,1951
902.7019398903011,1998
904.925039251085,2030
907.147536926521,2039
909.3694331433943,2060
911.59072812857,2077
913.8114221089921,2097
916.0315153116827,2004
918.2510079637437,2006
920.4699002923547,2017
922.6881925247761,2016
924.905884888345,1990
927.1229776104793,1980
929.3394709186747,2047
931.555365040506,1946
933.7706602036275,1984
935.9853566357709,2030
938.1994545647489,1982
940.4129542184515,1998
942.6258558248488,2035
944.8381596119883,2125
947.0498658079974,2034
949.2609746410825,2055
951.4714863395287,2061
953.6814011316998,2071
955.8907192460387,2047
958.0994409110671,2034
960.3075663553858,2010
962.5150958076741,1983
964.7220294966913,1983
966.928367651274,2020
969.1341105003388,1858
971.3392582728806,1921
973.5438111979742,1957
975.747769504772,1881
977.9511334225061,1971
980.153903180487,1952
982.3560790081052,1923
984.5576611348289,1893
986.7586497902058,1837
988.9590452038618,1783
991.158847605503,1768
993.3580572249133,1774
995.5566742919558,1767
997.7546990365728,1740
999.952131688785,1713
1002.1489724786926,1745
1004.3452216364743,1635
1006.5408793923874,1633
1008.7359459767691,1702
1010.9304216200343,1677
1013.1243065526781,1718
1015.3176010052733,1577
1017.510305208472,1602
1019.7024193930064,1560
1021.8939437896848,1562
1024.0848786293977,1564
1026.2752241431122,1555
1028.4649805618747,1592
1030.6541481168115,1590
1032.842727039127,1613
1035.0307175601051,1498
1037.2181199111074,1522
1039.4049343235752,1545
1041.591161029029,1597
1043.7768002590683,1541
1045.9618522453698,1538
1048.1463172196918,1535
1050.3301954138697,1500
1052.513487059818,1472
1054.69619238953,1542
1056.8783116350783,1545
1059.0598450286152,1538
1061.2407928023704,1534
1063.4211551886528,1507
1065.6009324198508,1466
1067.780124728432,1554
1069.9587323469414,1500
1072.1367555080046,1546
1074.314194444325,1546
1076.4910493886855,1494
1078.667320573947,1503
1080.843008233051,1514
1083.0181125990161,1482
1085.1926339049414,1424
1087.3665723840027,1520
1089.5399282694575,1425
1091.7127017946405,1505
1093.8848931929647,1494
1096.0565026979243,1477
1098.2275305430899,1482
1100.3979769621128,1544
1102.567842188722,1396
1104.737126456726,1410
1106.9058300000124,1363
1109.0739530525475,1372
1111.2414958483764,1408
1113.4084586216231,1455
1115.5748416064907,1417
1117.7406450372605,1453
1119.9058691482942,1475
1122.0705141740304,1435
1124.2345803489884,1428
1126.3980679077658,1441
1128.5609770850388,1443
1130.7233081155623,1416
1132.8850612341707,1396
1135.0462366757774,1414
1137.2068346753745,1422
1139.3668554680326,1463
1141.526299288901,1408
1143.68516637321,1355
1145.8434569562655,1358
1148.001171273455,1370
1150.158309560244,1359
1152.3148720521767,1343
1154.470858984876,1376
1156.626270594044,1451
1158.7811071154629,1390
1160.9353687849912,1330
1163.089055838569,1373
1165.242168512213,1345
1167.3947070420209,1411
1169.5466716641677,1422
1171.6980626149075,1396
1173.8488801305748,1385
1175.9991244475814,1367
1178.1487958024186,1386
1180.2978944316555,1362
1182.4464205719428,1348
1184.5943744600072,1388
1186.7417563326567,1364
1188.8885664267755,1423
1191.0348049793297,1424
1193.1804722273619,1348
1195.325568407995,1413
1197.4700937584303,1453
1199.614048515948,1377
1201.7574329179074,1353
1203.900247201746,1357
1206.042491604982,1382
1208.1841663652099,1293
1210.3252717201053,1427
1212.465807907422,1349
1214.6057751649923,1405
1216.7451737307279,1384
1218.8840038426192,1350
1221.0222657387353,1401
1223.1599596572241,1412
1225.2970858363137,1442
1227.4336445143094,1417
1229.5696359295966,1400
1231.705060320639,1363
1233.8399179259786,1454
1235.9742089842384,1459
1238.107933734118,1429
1240.2410924143974,1435
1242.373685263935,1330
1244.5057125216676,1404
1246.6371744266116,1402
1248.7680712178621,1402
1250.898403134593,1455
1253.028170416058,1367
1255.1573733015875,1417
1257.2860120305932,1465
1259.4140868425648,1381
1261.54159797707,1395
1263.6685456737569,1394
1265.7949301723515,1457
1267.9207517126597,1433
1270.046010534565,1425
1272.1707068780306,1512
1274.2948409830983,1446
1276.4184130898889,1370
1278.541423438603,1417
1280.6638722695184,1477
1282.785759822993,1433
1284.9070863394636,1442
1287.0278520594447,1462
1289.1480572235314,1449
1291.2677020723963,1460
1293.3867868467923,1460
1295.5053117875495,1463
1297.623277135579,1442
1299.740683131868,1405
1301.8575300174857,1450
1303.973818033578,1462
1306.0895474213703,1488
1308.2047184221678,1512
1310.3193312773528,1495
1312.4333862283888,1546
1314.5468835168163,1541
1316.659823384255,1454
1318.7722060724045,1460
1320.8840318230418,1511
1322.9953008780249,1522
1325.1060134792888,1479
1327.2161698688478,1487
1329.3257702887959,1489
1331.4348149813054,1468
1333.5433041886276,1562
1335.6512381530933,1464
1337.7586171171101,1507
1339.8654413231675,1449
1341.9717110138317,1536
1344.0774264317488,1454
1346.1825878196432,1494
1348.2871954203192,1508
1350.3912494766587,1487
1352.4947502316231,1468
1354.5976979282532,1542
1356.7000928096686,1467
1358.8019351190665,1503
1360.9032250997243,1476
1363.0039629949988,1428
1365.1041490483235,1478
1367.2037835032133,1424
1369.3028666032606,1451
1371.401398592137,1415
1373.4993797135926,1435
1375.5968102114575,1477
1377.6936903296396,1467
1379.7900203121262,1403
1381.8858004029835,1391
1383.9810308463561,1429
1386.075711886469,1491
1388.1698437676241,1489
1390.2634267342032,1467
1392.356461030667,1525
1394.4489469015557,1475
1396.5408845914872,1500
1398.6322743451592,1479
1400.7231164073469,1506
1402.813411022907,1462
1404.903158436773,1503
1406.9923588939578,1458
1409.0810126395531,1494
1411.1691199187303,1487
1413.2566809767386,1432
1415.343696058907,1522
1417.4301654106425,1496
1419.5160892774315,1529
1421.6014679048399,1548
1423.6863015385125,1542
1425.7705904241707,1544
1427.8543348076178,1486
1429.9375349347342,1513
1432.0201910514802,1478
1434.102303403894,1511
1436.1838722380944,1483
1438.2648978002767,1500
1440.3453803367174,1512
1442.4253200937692,1467
1444.5047173178677,1530
1446.5835722555234,1483
1448.6618851533285,1522
1450.739656257952,1519
1452.8168858161434,1495
1454.8935740747306,1481
1456.96972128062,1454
1459.045327680797,1532
1461.120393522327,1569
1463.1949190523528,1571
1465.2689045180973,1537
1467.3423501668608,1560
1469.415256246024,1532
1471.4876230030463,1493
1473.559450685465,1526
1475.6307395408976,1552
1477.7014898170391,1595
1479.771701761665,1584
1481.8413756226287,1566
1483.9105116478618,1611
1485.9791100853772,1600
1488.0471711832643,1530
1490.1146951896926,1538
1492.1816823529098,1558
1494.2481329212433,1638
1496.3140471430984,1560
1498.3794252669609,1647
1500.4442675413939,1701
1502.5085742150404,1653
1504.572345536622,1583
1506.6355817549388,1665
1508.6982831188702,1657
1510.7604498773744,1581
1512.8220822794883,1626
1514.8831805743293,1672
1516.9437450110909,1650
1519.003775839048,1666
1521.0632733075522,1660
1523.1222376660367,1677
1525.1806691640113,1687
1527.2385680510652,1628
1529.2959345768668,1590
1531.3527689911643,1635
1533.4090715437833,1685
1535.4648424846291,1644
1537.5200820636855,1686
1539.5747905310159,1658
1541.6289681367616,1666
1543.6826151311434,1688
1545.7357317644614,1677
1547.7883182870937,1695
1549.8403749494987,1728
1551.8919020022113,1718
1553.9428996958477,1713
1555.9933682811015,1735
1558.0433080087469,1735
1560.0927191296346,1816
1562.1416018946961,1808
1564.1899565549415,1785
1566.2377833614592,1811
1568.2850825654164,1855
1570.3318544180606,1799
1572.3780991707158,1849
1574.423817074788,1832
1576.4690083817595,1822
1578.5136733431923,1859
1580.5578122107272,1798
1582.601425236085,1747
1584.6445126710646,1765
1586.6870747675434,1727
1588.7291117774776,1717
1590.7706239529034,1713
1592.8116115459347,1627
1594.8520748087658,1666
1596.8920139936686,1614
1598.9314293529933,1619
1600.9703211391711,1612
1603.008689604711,1584
1605.0465350022005,1571
1607.0838575843068,1587
1609.1206576037753,1508
1611.1569353134305,1482
1613.1926909661765,1568
1615.2279248149953,1523
1617.2626371129481,1534
1619.2968281131757,1529
1621.3304980688963,1519
1623.3636472334088,1480
1625.39627586009,1520
1627.428384202396,1502
1629.459972513861,1483
1631.4910410480993,1497
1633.5215900588028,1513
1635.551619799744,1502
1637.5811305247717,1455
1639.6101224878166,1512
1641.6385959428862,1474
1643.6665511440683,1489
1645.693988345528,1453
1647.7209078015112,1487
1649.7473097663405,1505
1651.7731944944203,1476
1653.7985622402307,1491
1655.823413258333,1464
1657.847747803366,1396
1659.8715661300494,1456
1661.8948684931793,1474
1663.9176551476316,1440
1665.9399263483624,1445
1667.9616823504057,1499
1669.982923408873,1481
1672.0036497789574,1448
1674.0238617159293,1431
1676.043559475138,1428
1678.0627433120121,1390
1680.081413482059,1461
1682.0995702408654,1433
1684.117213844096,1490
1686.134344547495,1432
1688.1509626068864,1484
1690.1670682781705,1451
1692.182661817329,1424
1694.1977434804217,1477
1696.2123135235875,1462
1698.226372203043,1423
1700.2399197750851,1460
1702.2529564960905,1485
1704.2654826225112,1500
1706.277498410882,1475
1708.2890041178139,1464
1710.2999999999988,1429
1712.3104863142066,1413
1714.3204633172854,1402
1716.329931266163,1424
1718.3388904178469,1435
1720.3473410294214,1446
1722.3552833580516,1432
1724.3627176609807,1459
1726.3696441955308,1399
1728.3760632191033,1453
1730.3819749891782,1415
1732.3873797633146,1461
1734.3922777991502,1448
1736.3966693544012,1427
1738.4005546868639,1427
1740.4039340544127,1387
1742.406807715001,1427
1744.4091759266616,1428
1746.4110389475054,1394
1748.4123970357223,1447
1750.413250449582,1453
1752.4135994474318,1464
1754.4134442876993,1430
1756.4127852288902,1411
1758.4116225295893,1401
1760.4099564484595,1450
1762.407787244244,1431
1764.405115175764,1467
1766.4019405019203,1458
1768.3982634816916,1460
1770.3940843741357,1442
1772.3894034383907,1479
1774.3842209336717,1417
1776.378537119274,1436
1778.372352254571,1411
1780.3656665990156,1475
1782.3584804121397,1415
1784.3507939535534,1455
1786.3426074829463,1422
1788.3339212600863,1490
1790.3247355448211,1452
1792.3150505970766,1405
1794.3048666768573,1424
1796.2941840442477,1398
1798.2830029594106,1464
1800.2713236825884,1420
1802.2591464741004,1485
1804.2464715943465,1415
1806.2332993038058,1473
1808.2196298630352,1453
1810.2054635326708,1399
1812.190800573428,1431
1814.175641246101,1444
1816.1599858115628,1439
1818.1438345307652,1436
1820.127187664738,1446
1822.1100454745924,1427
1824.092408221516,1469
1826.0742761667766,1367
1828.055649571721,1399
1830.0365286977735,1384
1832.0169138064398,1403
1833.9968051593014,1431
1835.9762030180214,1385
1837.9551076443408,1444
1839.9335193000788,1465
1841.9114382471344,1424
1843.888864747485,1441
1845.8657990631878,1421
1847.842241456378,1417
1849.8181921892697,1367
1851.7936515241558,1429
1853.7686197234098,1433
1855.7430970494815,1404
1857.7170837649014,1396
1859.6905801322787,1432
1861.6635864143004,1427
1863.6361028737338,1395
1865.608129773424,1435
1867.5796673762961,1412
1869.5507159453537,1421
1871.521275743678,1460
1873.4913470344313,1439
1875.4609300808534,1442
1877.4300251462632,1492
1879.3986324940588,1443
1881.366752387717,1457
1883.3343850907936,1416
1885.3015308669228,1445
1887.268189979819,1407
1889.2343626932739,1430
1891.2000492711595,1479
1893.1652499774254,1387
1895.1299650761011,1396
1897.0941948312952,1468
1899.0579395071945,1460
1901.0211993680641,1460
1902.98397467825,1403
1904.9462657021745,1428
1906.9080727043415,1428
1908.869395949332,1445
1910.8302357018065,1398
1912.790592226504,1501
1914.7504657882428,1444
1916.7098566519212,1498
1918.6687650825133,1380
1920.6271913450764,1367
1922.5851357047422,1427
1924.5425984267245,1445
1926.499579776314,1443
1928.4560800188833,1439
1930.4120994198802,1467
1932.367638244833,1427
1934.32269675935,1410
1936.2772752291175,1420
1938.231373919899,1434
1940.1849930975404,1365
1942.1381330279637,1457
1944.0907939771696,1385
1946.0429762112412,1380
1947.9946799963363,1382
1949.9459055986945,1433
1951.896653284633,1407
1953.8469233205478,1427
1955.7967159729142,1465
1957.7460315082863,1338
1959.6948701932974,1382
1961.6432322946594,1387
1963.5911180791632,1408
1965.5385278136787,1443
1967.4854617651545,1411
1969.4319202006182,1404
1971.377903387176,1411
1973.3234115920136,1380
1975.268445082395,1438
1977.2130041256642,1388
1979.1570889892423,1399
1981.1006999406304,1400
1983.04383724741,1361
1984.986501177238,1373
1986.928691997853,1388
1988.8704099770712,1385
1990.811655382789,1375
1992.7524284829801,1409
1994.692729545698,1413
1996.6325588390755,1299
1998.5719166313224,1368
2000.5108031907307,1398
2002.4492187856677,1380
2004.387163684583,1418
2006.3246381560011,1356
2008.2616424685298,1386
2010.1981768908527,1380
2012.1342416917332,1354
2014.069837140014,1433
2016.0049635046162,1372
2017.9396210545406,1385
2019.8738100588666,1362
2021.8075307867502,1371
2023.740783507431,1404
2025.6735684902228,1315
2027.6058860045214,1373
2029.5377363198004,1371
2031.4691197056118,1429
2033.4000364315875,1402
2035.3304867674374,1387
2037.260470982952,1358
2039.189989347998,1347
2041.1190421325232,1372
2043.047629606554,1404
2044.9757520401945,1395
2046.9034097036288,1383
2048.8306028671195,1441
2050.7573318010086,1385
2052.683596775716,1359
2054.609398061742,1390
2056.5347359296647,1377
2058.4596106501403,1380
2060.384022493906,1400
2062.3079717317764,1434
2064.231458634646,1401
2066.1544834734873,1377
2068.077046519352,1396
2069.99914804337,1374
2071.9207883167524,1383
2073.8419676107865,1394
2075.7626861968406,1329
2077.6829443463607,1372
2079.6027423308715,1329
2081.522080421977,1373
2083.440958891362,1406
2085.359378010786,1396
2087.2773380520907,1427
2089.194839287196,1420
2091.111881988101,1452
2093.0284664268825,1390
2094.9445928756973,1369
2096.86026160678,1304
2098.775472892446,1393
2100.690227005088,1364
2102.604524217178,1426
2104.5183648012676,1392
2106.431749029985,1382
2108.34467717604,1415
2110.2571495122206,1385
2112.169166311393,1313
2114.080727846503,1432
2115.9918343905747,1389
2117.902486216711,1370
2119.8126835980956,1454
2121.722426807987,1354
2123.6317161197285,1409
2125.5405518067364,1367
2127.448934142509,1371
2129.356863400624,1396
2131.264339854737,1421
2133.1713637785815,1440
2135.077935445972,1426
2136.9840551308002,1388
2138.889723107037,1382
2140.7949396487334,1437
2142.699705030018,1448
2144.6040195250994,1432
2146.507883408264,1434
2148.4112969538774,1414
2150.3142604363848,1450
2152.2167741303097,1366
2154.1188383102535,1492
2156.0204532508997,1431
2157.9216192270064,1418
2159.822336513414,1440
2161.7226053850413,1449
2163.622426116884,1374
2165.5217989840185,1525
2167.4207242616,1506
2169.319202224862,1512
2171.2172331491165,1469
2173.1148173097563,1465
2175.0119549822507,1426
2176.90864644215,1414
2178.8048919650823,1440
2180.7006918267534,1457
2182.596046302952,1506
2184.4909556695407,1443
2186.3854202024645,1518
2188.279440177746,1463
2190.173015871487,1456
2192.066147559868,1450
2193.958835519149,1433
2195.851080025667,1471
2197.7428813558417,1472
2199.6342397861667,1441
2201.5251555932186,1402
2203.415629053651,1375
2205.3056604441986,1470
2207.19525004167,1438
2209.084398122958,1464
2210.9731049650327,1496
2212.861370844941,1489
2214.749196039812,1461
2216.636580826851,1456
2218.523525483344,1452
2220.410030286655,1459
2222.296095514226,1487
2224.1817214435805,1457
2226.066908352319,1507
2227.951656518121,1435
2229.835966218746,1484
2231.71983773203,1467
2233.6032713358913,1492
2235.486267308324,1490
2237.3688259274036,1489
2239.2509474712824,1487
2241.132632218193,1459
2243.013880446447,1518
2244.8946924344323,1484
2246.7750684606203,1477
2248.6550088035574,1464
2250.534513741871,1450
2252.413583554265,1452
2254.292218519526,1466
2256.170418916517,1447
2258.0481850241786,1489
2259.925517121534,1431
2261.8024154876825,1425
2263.678880401803,1440
2265.5549121431536,1502
2267.430510991071,1517
2269.305677224971,1500
2271.180411124348,1486
2273.0547129687766,1454
2274.9285830379076,1368
2276.8020216114737,1425
2278.6750289692845,1419
2280.5476053912294,1495
2282.4197511572766,1484
2284.2914665474727,1560
2286.162751841943,1472
2288.0336073208937,1496
2289.904033264608,1569
2291.774029953448,1532
2293.6435976678554,1517
2295.5127366883517,1529
2297.381447295534,1466
2299.2497297700825,1401
2301.1175843927526,1389
2302.9850114443825,1386
2304.852011205885,1337
2306.7185839582553,1268
2308.5847299825664,1266
2310.4504495599676,1336
2312.3157429716925,1277
2314.1806104990483,1261
2316.0450524234247,1282
2317.9090690262888,1265
2319.772660589186,1290
2321.635827393742,1268
2323.498569721661,1270
2325.3608878547248,1233
2327.2227820747967,1248
2329.0842526638157,1248
2330.945299903803,1256
2332.805924076857,1187
2334.6661254651535,1219
2336.525904350951,1274
2338.3852610165827,1228
2340.244195744464,1253
2342.102708817088,1248
2343.9608005170253,1240
2345.8184711269287,1246
2347.675720929526,1238
2349.532550207628,1229
2351.38895924412,1238
2353.24494832197,1212
2355.100517724223,1193
2356.955667734004,1289
2358.810398634514,1286
2360.664710709037,1264
2362.5186042409337,1224
2364.3720795136437,1275
2366.225136810686,1239
2368.0777764156583,1244
2369.929998612237,1277
2371.7818036841777,1312
2373.633191915315,1257
2375.484163589562,1257
2377.3347189909114,1326
2379.184858403434,1263
2381.03458211128,1218
2382.8838903986775,1242
2384.732783549936,1201
2386.5812618494406,1269
2388.4293255816588,1222
2390.2769750311327,1270
2392.1242104824883,1252
2393.971032220427,1271
2395.8174405297295,1247
2397.6634356952563,1209
2399.509018001947,1228
2401.3541877348193,1233
2403.1989451789705,1261
2405.043290619576,1252
2406.8872243418905,1242
2408.730746631247,1239
2410.5738577730594,1257
2412.4165580528183,1217
2414.258847756095,1240
2416.100727168537,1277
2417.9421965758734,1252
2419.783256263912,1251
2421.623906518538,1263
2423.4641476257157,1259
2425.303979871491,1245
2427.143403541984,1308
2428.9824189233977,1305
2430.821026302012,1303
2432.6592259641866,1270
2434.497018196361,1265
2436.33440328505,1327
2438.171381516851,1303
2440.00795317844,1254
2441.844118556569,1279
2443.6798779380724,1257
2445.5152316098606,1308
2447.3501798589255,1228
2449.1847229723357,1286
2451.0188612372403,1277
2452.8525949408663,1238
2454.6859243705203,1212
2456.518849813587,1274
2458.3513715575314,1216
2460.183489889895,1210
2462.015205098301,1235
2463.8465174704493,1245
2465.67742729412,1238
2467.5079348571717,1255
2469.338040447542,1211
2471.1677443532476,1212
2472.9970468623833,1257
2474.825948263123,1237
2476.6544488437207,1252
2478.482548892508,1227
2480.310248697896,1250
2482.137548548374,1258
2483.9644487325118,1287
2485.790949538956,1255
2487.617051256433,1261
2489.44275417375,1289
2491.26805857979,1335
2493.0929647635157,1309
2494.917473013971,1277
2496.741583620276,1302
2498.5652968716304,1281
2500.3886130573137,1300
2502.2115324666834,1246
2504.0340553891765,1236
2505.856182114308,1246
2507.6779129316733,1314
2509.499248130945,1265
2511.3201880018764,1292
2513.140732834298,1265
2514.9608829181198,1290
2516.780638543331,1275
2518.6,1248
2520.418967578273,1243
2522.237541568376,1237
2524.0557222606144,1268
2525.8735099453706,1193
2527.6909049131086,1248
2529.507907454368,1243
2531.32451785977,1298
2533.140736420014,1301
2534.9565634258774,1311
2536.771999168218,1279
2538.5870439379714,1332
2540.4016980261526,1311
2542.2159617238544,1308
2544.02983532225,1287
2545.8433191125914,1298
2547.656413386209,1251
2549.4691184345115,1321
2551.2814345489874,1309
2553.093362021204,1330
2554.904901142808,1314
2556.716052205523,1272
2558.526815501153,1316
2560.3371913215824,1308
2562.147179958771,1309
2563.956781704761,1275
2565.7659968516705,1304
2567.5748256916986,1342
2569.3832685171224,1329
2571.1913256202984,1279
2572.9989972936614,1320
2574.806283829725,1298
2576.613185521084,1371
2578.4197026604074,1390
2580.2258355404483,1361
2582.031584454035,1384
2583.836949694077,1415
2585.6419315535613,1381
2587.4465303255533,1421
2589.2507463032002,1323
2591.0545797797245,1372
2592.8580310484303,1388
2594.6611004026995,1329
2596.463788135992,1317
2598.266094541849,1393
2600.0680199138874,1328
2601.869564545807,1349
2603.670728731383,1331
2605.4715127644704,1343
2607.2719169390048,1361
2609.071941548998,1373
2610.8715868885433,1341
2612.670853251811,1362
2614.469740933052,1366
2616.268250226594,1297
2618.0663814268455,1311
2619.864134828292,1350
2621.6615107255006,1343
2623.458509413115,1291
2625.2551311858597,1335
2627.0513763385347,1338
2628.8472451660223,1391
2630.6427379632833,1265
2632.4378550253564,1325
2634.232596647359,1302
2636.026963124488,1314
2637.8209547520187,1383
2639.6145718253065,1347
2641.407814639785,1308
2643.200683490966,1303
2644.9931786744414,1296
2646.7853004858807,1307
2648.577049221034,1270
2650.3684251757277,1334
2652.1594286458712,1331
2653.9500599274484,1254
2655.740319316525,1296
2657.5302071092437,1312
2659.3197236018286,1271
2661.10886909058,1262
2662.8976438718782,1291
2664.686048242183,1290
2666.4740824980327,1319
2668.2617469360443,1248
2670.0490418529134,1260
2671.8359675454153,1255
2673.622524310403,1312
2675.408712444811,1341
2677.1945322456495,1263
2678.979984010009,1243
2680.76506803506,1270
2682.5497846180497,1254
2684.334134056306,1253
2686.1181166472343,1304
2687.9017326883213,1241
2689.6849824771293,1261
2691.4678663113013,1265
2693.2503844885596,1292
2695.032537306705,1263
2696.8143250636167,1281
2698.5957480572542,1229
2700.3768065856534,1261
2702.1575009469316,1212
2703.937831439283,1201
2705.717798360982,1258
2707.4974020103837,1267
2709.276642685917,1205
2711.055520686095,1224
2712.834036309506,1260
2714.612189854819,1241
2716.389981620782,1209
2718.1674119062204,1242
2719.944481010041,1255
2721.721189231226,1194
2723.4975368688415,1228
2725.273524222027,1307
2727.0491515900053,1220
2728.824419272075,1193
2730.5993275676146,1215
2732.3738767760838,1239
2734.148067197016,1236
2735.921899130031,1267
2737.6953728748194,1235
2739.468488731156,1294
2741.2412469988926,1217
2743.0136479779617,1240
2744.785691968372,1296
2746.5573792702116,1284
2748.3287101836504,1241
2750.099685008934,1235
2751.870304046388,1240
2753.640567596418,1193
2755.4104759595057,1235
2757.1800294362156,1279
2758.949228327187,1204
2760.7180729331412,1196
2762.486563554877,1196
2764.254700493272,1239
2766.022484049284,1273
2767.789914523947,1213
2769.5569922183786,1193
2771.3237174337705,1310
2773.090090471394,1242
2774.8561116326036,1155
2776.6217812188274,1259
2778.3870995315756,1265
2780.1520668724356,1172
2781.9166835430747,1283
2783.6809498452394,1230
2785.444866080754,1240
2787.2084325515225,1224
2788.971649559527,1208
2790.73451740683,1240
2792.4970363955713,1276
2794.2592068279705,1271
2796.0210290063264,1258
2797.7825032330147,1234
2799.543629810493,1275
2801.304409041296,1278
2803.0648412280366,1231
2804.8249266734088,1252
2806.5846656801846,1244
2808.344058551212,1254
2810.1031055894246,1250
2811.8618070978273,1250
2813.6201633795085,1263
2815.378174737636,1274
2817.1358414754536,1321
2818.893163896285,1289
2820.6501423035334,1270
2822.4067770006814,1240
2824.1630682912883,1271
2825.9190164789957,1268
2827.6746218675207,1247
2829.429884760661,1308
2831.184805462294,1209
2832.9393842763743,1244
2834.693621506936,1238
2836.4475174580916,1260
2838.201072434034,1229
2839.954286739034,1223
2841.707160677441,1260
2843.459694553685,1259
2845.2118886722724,1202
2846.96374333779,1260
2848.7152588549034,1229
2850.4664355283567,1185
2852.217273662973,1257
2853.9677735636546,1246
2855.7179355353833,1208
2857.4677598832186,1233
2859.217246912299,1259
2860.9663969278427,1226
2862.715210235146,1241
2864.4636871395846,1287
2866.211827946614,1229
2867.9596329617652,1266
2869.7071024906536,1233
2871.4542368389684,1211
2873.20103631248,1195
2874.947501217038,1258
2876.6936318585695,1240
2878.4394285430812,1261
2880.1848915766604,1258
2881.9300212654707,1225
2883.6748179157553,1259
2885.4192818338374,1233
2887.1634133261173,1297
2888.907212699077,1208
2890.6506802592744,1270
2892.393816313348,1280
2894.1366211680142,1258
2895.8790951300693,1278
2897.621238506388,1246
2899.363051603925,1225
2901.1045347297118,1333
2902.8456881908596,1296
2904.58651229456,1244
2906.327007348081,1272
2908.067173658772,1187
2909.8070115340597,1288
2911.5465212814497,1263
2913.285703208527,1214
2915.0245576229563,1239
2916.7630848324807,1259
2918.5012851449196,1299
2920.2391588681758,1259
2921.976706310227,1243
2923.7139277791334,1236
2925.4508235830313,1244
2927.187394030137,1256
2928.923639428745,1285
2930.6595600872306,1276
2932.395156314046,1258
2934.1304284177218,1251
2935.8653767068713,1227
2937.6000014901815,1222
2939.3343030764227,1314
2941.068281774442,1242
2942.8019378931644,1259
2944.5352717415976,1211
2946.2682836288236,1267
2948.0009738640065,1319
2949.7333427563885,1313
2951.465390615289,1285
2953.1971177501086,1244
2954.9285244703265,1321
2956.6596110855,1335
2958.3903779052657,1263
2960.1208252393385,1234
2961.8509533975125,1252
2963.5807626896617,1242
2965.3102534257378,1248
2967.0394259157715,1231
2968.768280469873,1252
2970.496817398232,1244
2972.2250370111146,1252
2973.952939618869,1276
2975.6805255319196,1309
2977.4077950607707,1253
2979.134748516006,1248
2980.861386208289,1285
2982.587708448359,1275
2984.313715547037,1265
2986.039407815222,1293
2987.764785563891,1213
2989.489849104102,1256
2991.2145987469908,1203
2992.9390348037705,1201
2994.6631575857346,1238
2996.3869674042576,1175
2998.1104645707887,1272
2999.83364939686,1205
3001.5565221940783,1228
3003.2790832741334,1287
3005.0013329487924,1249
3006.7232715298996,1257
3008.4448993293804,1194
3010.166216659239,1218
3011.887223831558,1258
3013.607921158498,1250
3015.3283089522993,1219
3017.0483875252826,1264
3018.7681571898443,1248
3020.4876182584626,1195
3022.2067710436927,1243
3023.9256158581707,1243
3025.644153014609,1250
3027.362382825801,1196
3029.0803056046193,1223
3030.797921664012,1240
3032.5152313170106,1278
3034.2322348767225,1229
3035.9489326563353,1218
3037.665324969115,1199
3039.3814121284063,1272
3041.097194447633,1214
3042.812672240299,1254
3044.5278458199855,1223
3046.2427155003525,1248
3047.9572815951406,1217
3049.671544418167,1240
3051.38550428333,1247
3053.0991615046073,1256
3054.812516396051,1187
3056.5255692717974,1233
3058.2383204460575,1277
3059.9507702331257,1212
3061.662918947372,1300
3063.3747669032446,1245
3065.0863144152736,1197
3066.7975617980674,1275
3068.508509366309,1289
3070.219157434767,1202
3071.9295063182844,1254
3073.639556331785,1267
3075.3493077902704,1231
3077.058761008821,1162
3078.7679163025964,1232
3080.476773986837,1189
3082.1853343768594,1242
3083.89359778806,1190
3085.6015645359153,1250
3087.3092349359786,1243
3089.016609303884,1205
3090.7236879553434,1236
3092.4304712061476,1221
3094.136959372166,1209
3095.843152769349,1239
3097.5490517137237,1225
3099.2546565213966,1238
3100.959967508554,1259
3102.66498499146,1260
3104.3697092864577,1178
3106.0741407099695,1219
3107.778279578498,1183
3109.482126208622,1249
3111.1856809170004,1226
3112.8889440203716,1211
3114.5919158355528,1286
3116.294596679439,1256
3117.996986869006,1254
3119.6990867213062,1277
3121.4008965534726,1273
3123.102416682717,1234
3124.803647426329,1216
3126.5045891016784,1278
3128.205242026213,1245
3129.90560651746,1218
3131.605682893025,1229
3133.3054714705922,1194
3135.0049725679282,1257
3136.7041865028714,1191
3138.4031135933465,1254
3140.101754157353,1259
3141.800108512971,1245
3143.498176978357,1222
3145.1959598717494,1233
3146.8934575114636,1227
3148.5906702158954,1179
3150.2875983035183,1206
3151.9842420928853,1253
3153.680601902627,1250
3155.376678051456,1230
3157.07247085816,1234
3158.767980641609,1201
3160.463207720748,1261
3162.158152414606,1295
3163.8528150422862,1177
3165.5471959229726,1270
3167.2412953759303,1256
3168.9351137204976,1254
3170.628651276098,1223
3172.3219083622307,1252
3174.014885298474,1200
3175.707582404485,1217
3177.4000000000005,1206
3179.092138404835,1216
3180.7839979388846,1196
3182.47557892212,1193
3184.166881674594,1193
3185.8579065164386,1262
3187.5486537678626,1227
3189.2391237491547,1259
3190.9293167806827,1193
3192.6192331828934,1238
3194.3088732763117,1230
3195.998237381542,1274
3197.687325819268,1228
3199.376138910251,1212
3201.064676975334,1196
3202.7529403354347,1193
3204.4409293115523,1214
3206.1286442247647,1197
3207.816085396229,1263
3209.5032531471825,1243
3211.190147798936,1211
3212.8767696728846,1216
3214.5631190905015,1180
3216.2491963733373,1201
3217.9350018430214,1195
3219.6205358212637,1173
3221.305798629851,1210
3222.990790590651,1167
3224.6755120256103,1162
3226.359963256751,1233
3228.0441446061795,1202
3229.7280563960758,1188
3231.411698948703,1217
3233.0950725863995,1222
3234.778177631587,1244
3236.461014406761,1262
3238.1435832345005,1213
3239.8258844374595,1209
3241.507918338374,1227
3243.1896852600576,1186
3244.8711855254023,1217
3246.552419457381,1189
3248.233387379042,1242
3249.914089613516,1216
3251.59452648401,1307
3253.274698313813,1291
3254.95460542629,1239
3256.6342481448855,1193
3258.313626793125,1212
3259.9927416946084,1208
3261.6715931730196,1182
3263.3501815521176,1150
3265.0285071557437,1177
3266.706570307815,1135
3268.3843713323286,1183
3270.0619105533615,1196
3271.739188295068,1242
3273.4162048816834,1213
3275.0929606375184,1220
3276.769455886966,1187
3278.445690954498,1233
3280.1216661646613,1302
3281.797381842087,1240
3283.4728383114807,1222
3285.1480358976296,1223
3286.8229749253996,1256
3288.4976557197333,1217
3290.172078605655,1228
3291.846243908266,1242
3293.5201519527463,1221
3295.193803064357,1174
3296.8671975684374,1185
3298.5403357904024,1208
3300.21321805575,1220
3301.8858446900567,1230
3303.558216018975,1227
3305.23033236824,1207
3306.9021940636603,1232
3308.57380143113,1245
3310.2451547966184,1264
3311.916254486174,1272
3313.5871008259246,1250
3315.2576941420766,1309
3316.9280347609147,1259
3318.5981230088046,1229
3320.2679592121895,1174
3321.9375436975924,1187
3323.606876791612,1185
3325.27595882093,1240
3326.944790112305,1256
3328.6133709925753,1205
3330.2817017886573,1152
3331.949782827547,1188
3333.617614436319,1192
3335.2851969421245,1244
3336.952530672199,1257
3338.619615953853,1241
3340.286453114475,1191
3341.9530424815357,1238
3343.619384382583,1203
3345.2854791452437,1189
3346.951327097224,1168
3348.6169285663073,1209
3350.2822838803577,1222
3351.947393367319,1235
3353.61225735521,1192
3355.2768761721345,1211
3356.9412501462693,1207
3358.605379605873,1220
3360.2692648792827,1217
3361.9329062949146,1150
3363.596304181263,1145
