CollectionTime,9/25/2024 11:18:36 AM
ExposureUsed,3
CalibratedSpectrum
-962.7078968117929,521
-959.9714848408522,503
-957.2358232597828,544
-954.5009119013725,572
-951.7667505983302,586
-949.0333391832855,579
-946.3006774887896,548
-943.5687653473143,554
-940.837602591253,566
-938.1071890529199,548
-935.3775245645503,539
-932.6486089583007,547
-929.9204420662485,564
-927.1930237203925,570
-924.4663537526524,586
-921.7404319948689,604
-919.0152582788041,589
-916.2908324361409,592
-913.5671542984834,614
-910.8442236973568,608
-908.1220404642074,571
-905.4006044304027,583
-902.679915427231,576
-899.959973285902,580
-897.2407778375464,578
-894.5223289132158,577
-891.8046263438832,552
-889.0876699604426,578
-886.3714595937089,565
-883.6559950744183,589
-880.9412762332282,558
-878.2273029007168,529
-875.5140749073835,573
-872.8015920836489,556
-870.0898542598545,544
-867.3788612662631,541
-864.6686129330585,566
-861.9591090903457,563
-859.2503495681506,556
-856.5423341964203,529
-853.8350628050229,520
-851.1285352237478,542
-848.4227512823054,546
-845.7177108103272,555
-843.0134136373656,550
-840.3098595928943,536
-837.6070485063082,589
-834.9049802069229,632
-832.2036545239757,595
-829.5030712866244,561
-826.8032303239481,575
-824.1041314649472,537
-821.4057745385428,555
-818.7081593735775,583
-816.0112857988148,545
-813.3151536429393,548
-810.6197627345566,555
-807.9251129021936,540
-805.2312039742981,539
-802.5380357792392,540
-799.8456081453069,580
-797.1539209007124,573
-794.462973873588,574
-791.772766891987,548
-789.083299783884,601
-786.3945723771743,591
-783.7065844996748,612
-781.0193359791231,539
-778.3328266431781,563
-775.6470563194197,574
-772.9620248353489,556
-770.2777320183878,544
-767.5941776958798,568
-764.9113616950891,561
-762.2292838432011,545
-759.5479439673222,566
-756.8673418944801,562
-754.1874774516235,603
-751.5083504656222,618
-748.8299607632671,568
-746.15230817127,597
-743.475392516264,613
-740.7992136248035,631
-738.1237713233636,602
-735.4490654383407,608
-732.7750957960521,587
-730.1018622227365,562
-727.4293645445534,579
-724.7576025875837,594
-722.0865761778291,583
-719.4162851412126,575
-716.7467293035781,603
-714.0779084906909,611
-711.409822528237,618
-708.7424712418238,593
-706.0758544569796,597
-703.4099719991541,622
-700.7448236937178,609
-698.0804093659622,590
-695.4167288411002,628
-692.7537819442656,643
-690.0915685005134,631
-687.4300883348199,610
-684.7693412720819,614
-682.1093271371178,607
-679.4500457546669,625
-676.7914969493897,598
-674.1336805458676,601
-671.4765963686034,633
-668.8202442420206,629
-666.1646239904642,610
-663.5097354382001,619
-660.8555784094151,624
-658.2021527282176,610
-655.5494582186366,606
-652.8974947046223,626
-650.2462620100463,647
-647.5957599587009,663
-644.9459883742998,662
-642.2969470804776,658
-639.6486359007902,633
-637.0010546587141,651
-634.3542031776476,648
-631.7080812809096,649
-629.0626887917401,700
-626.4180255333008,644
-623.7740913286734,652
-621.1308860008619,714
-618.4884093727904,676
-615.8466612673046,656
-613.2056415071715,623
-610.5653499150785,641
-607.9257863136347,702
-605.28695052537,702
-602.6488423727357,695
-600.0114616781036,703
-597.3748082637674,686
-594.7388819519412,719
-592.1036825647604,768
-589.4692099242818,734
-586.8354638524829,726
-584.2024441712624,730
-581.5701507024403,727
-578.9385832677575,780
-576.3077416888759,749
-573.6776257873787,726
-571.0482353847704,708
-568.4195703024757,732
-565.7916303618415,710
-563.164415384135,744
-560.5379251905453,661
-557.9121596021815,718
-555.2871184400748,678
-552.6628015251767,687
-550.0392086783606,723
-547.4163397204204,701
-544.794194472071,737
-542.1727727539491,774
-539.5520743866118,767
-536.9320991905377,784
-534.3128469861261,779
-531.6943175936979,787
-529.0765108334947,851
-526.4594265256793,906
-523.8430644903358,1002
-521.2274245474689,1228
-518.612506517005,1267
-515.9983102187913,1166
-513.3848354725959,1332
-510.77208209810846,1468
-508.16004991493924,1696
-505.5487387426199,1857
-502.9381484006032,1893
-500.3282787082628,1827
-497.71912948489364,1759
-495.1107005497117,1604
-492.5029917218539,1299
-489.8960028203786,1206
-487.28973366426493,1110
-484.68418407241325,979
-482.07935386364494,926
-479.47524285670266,906
-476.87185087025,899
-474.2691777228715,920
-471.66722323307334,988
-469.0659872192821,920
-466.4654694998459,912
-463.86566989303384,963
-461.26658821703614,945
-458.66822428996414,873
-456.07057792985,880
-453.4736489546475,928
-450.877437182231,932
-448.28194243039627,856
-445.68716451686,861
-443.09310325926003,841
-440.49975847515555,838
-437.9071299820263,797
-435.31521759727354,863
-432.72402113821954,891
-430.13354042210767,910
-427.5437752661022,936
-424.95472548728867,881
-422.36639090267386,944
-419.7787713291855,931
-417.1918665836721,972
-414.60567648290385,973
-412.0202008435715,964
-409.4354394822874,954
-406.8513922155845,957
-404.26805885991723,1001
-401.685439231661,962
-399.103533147112,947
-396.522340422488,929
-393.9418608739278,932
-391.3620943174908,938
-388.7830405691583,908
-386.2046994448317,901
-383.6270707603344,882
-381.05015433141045,855
-378.473949973725,785
-375.8984575028645,780
-373.32367673433623,728
-370.74960748356875,746
-368.1762495659117,667
-365.60360279663576,608
-363.03166699093265,596
-360.4604419639154,609
-357.8899275306178,568
-355.32012350599507,524
-352.7510297049233,546
-350.1826459421999,516
-347.61497203254316,494
-345.04800779059235,540
-342.4817530309082,490
-339.91620756797226,511
-337.35137121618743,583
-334.7872437898774,616
-332.22382510328725,604
-329.66111497058273,658
-327.09911320585127,695
-324.53781962310075,589
-321.9772340362607,557
-319.4173562591816,545
-316.8581861056348,568
-314.2997233893127,559
-311.7419679238294,589
-309.1849195227194,586
-306.62857799943856,573
-304.0729431673641,570
-301.51801483979375,591
-298.963792829947,595
-296.41027695096386,572
-293.85746701590574,636
-291.3053628377552,687
-288.7539642294155,661
-286.2032710037115,648
-283.65328297338897,716
-281.1039999511146,665
-278.5554217494762,768
-276.007548180983,756
-273.4603790580651,711
-270.9139141930734,677
-268.3681533982807,741
-265.8230964858798,689
-263.27874326798565,725
-260.7350935566336,632
-258.1921471637804,707
-255.6499039013039,827
-253.10836358100266,838
-250.56752601459698,785
-248.02739101372765,736
-245.48795838995704,788
-242.94922795476816,812
-240.41119951956557,796
-237.8738728956746,838
-235.33724789434166,822
-232.80132432673452,795
-230.2661020039418,790
-227.73158073697357,814
-225.19776033676033,831
-222.66464061415422,899
-220.1322213799284,947
-217.60050244477725,810
-215.06948361931552,774
-212.53916471408013,890
-210.00954553952818,1006
-207.48062590603843,878
-204.9524056239104,777
-202.4248845033651,859
-199.8980623545441,924
-197.37193898751036,943
-194.84651421224817,956
-192.32178783866232,925
-189.79775967657952,959
-187.27442953574644,1008
-184.7517972258321,1035
-182.2298625564256,899
-179.7086253370378,899
-177.18808537710026,1082
-174.66824248596583,1343
-172.14909647290835,1335
-169.6306471471229,1211
-167.11289431772548,1016
-164.59583779375328,1017
-162.07947738416453,1155
-159.5638128978386,1251
-157.04884414357605,1322
-154.53457093009854,1374
-152.02099306604828,1136
-149.50811035998936,993
-146.99592262040665,1122
-144.48442965570587,1269
-141.97363127421409,1315
-139.46352728417958,1476
-136.95411749377126,1594
-134.44540171107985,1384
-131.93737974411636,1437
-129.43005140081357,1301
-126.92341648902493,1631
-124.41747481652521,2044
-121.91222619101006,2548
-119.40767042009657,3215
-116.90380731132257,3948
-114.40063667214702,3754
-111.8981583099503,3469
-109.3963720320337,3888
-106.89527764561933,4256
-104.39487495785067,4086
-101.89516377579241,4374
-99.39614390642998,6166
-96.89781515667039,10028
-94.40017733334128,11763
-91.90323024319173,10268
-89.40697369289148,8234
-86.91140748903172,6575
-84.41653143812482,5285
-81.92234534660395,6004
-79.42884902082358,7985
-76.93604226705907,10703
-74.4439248915071,11724
-71.95249670028534,13864
-69.46175749943245,17972
-66.97170709490854,22520
-64.48234529259423,24749
-61.99367189829195,27054
-59.50568671772464,29090
-57.01838955653636,29082
-54.53178022029283,28897
-52.045858514480074,29069
-49.560624244506016,27706
-47.07607721569923,24833
-44.59221723330904,17295
-42.10904410250669,14844
-39.62655762838392,15008
-37.14475761595372,18689
-34.66364387015028,25628
-32.18321619582866,30209
-29.70347439776515,31279
-27.224418280657005,29133
-24.74604764912317,31168
-22.26836230770266,46573
-19.7913620608565,65040
-17.315046712966478,65040
-14.83941606833514,65040
-12.36446993118659,65040
-9.89020810566592,65040
-7.416630395839093,65040
-4.94373660569363,65040
-2.471526539137585,65040
-6.821210263296962E-13,65040
2.47084320796705,65040
4.941003281093458,65040
7.410480415786196,65040
9.879274808531363,65040
12.347386655893956,65040
14.814816154518212,65040
17.28156350112681,65040
19.74762889252179,65040
22.21301252558385,65040
24.67771459727237,21762
27.141735304626195,5543
29.605074844762612,5032
32.06773341487792,4717
34.52971121224755,4544
36.99100843422559,4102
39.45162527824516,5512
41.91156194181792,4814
44.370818622535126,3360
46.82939551806646,2993
49.287292826160524,3320
51.74451074464503,3474
54.201049471426245,3286
56.65690920448981,3271
59.112090141899785,3809
61.56659248179983,3896
64.02041642241159,2918
66.4735621620365,2483
68.92602989905402,2711
71.37781983192338,2799
73.82893215918205,2226
76.27936707944684,1984
78.72912479141326,2272
81.17820549385567,2146
83.62660938562783,2109
86.07433666566146,1833
88.5213875329681,2082
90.96776218663751,2045
93.41346082583925,1974
95.85848364982041,1966
98.30283085790859,1876
100.7465026495089,1804
103.18949922410604,1562
105.63182078126385,1733
108.07346752062438,1859
110.51443964190923,1910
112.95473734491827,1731
115.39436082953114,1427
117.83331029570547,1488
120.27158594347827,1510
122.7091879729652,1647
125.1461165843615,1837
127.58237197794062,1673
130.01795435405518,1469
132.4528639131364,1172
134.88710085569494,1397
137.32066538231982,1642
139.75355769367923,1345
142.1857779905207,1304
144.61732647366978,1300
147.04820334403132,1405
149.47840880258934,1296
151.90794305040674,1373
154.33680628862487,1323
156.76499871846443,1385
159.19252054122433,1536
161.61937195828352,1619
164.04555317109896,1724
166.47106438120693,1859
168.89590579022217,2025
171.320077599839,2152
173.7435800118302,2111
176.16641322804742,2222
178.58857745042144,2471
181.01007288096173,2444
183.43089972175687,2444
185.85105817497413,2400
188.27054844285988,2392
190.6893707277394,2394
193.10752523201643,2333
195.5250121581745,2439
197.9418317087751,2380
200.3579840864594,2249
202.7734694939469,2379
205.18828813403627,2637
207.6024402096051,2576
210.01592592360964,2512
212.42874547908548,2532
214.84089907914665,2462
217.2523869269868,2357
219.66320922587727,2522
222.0733661791695,2497
224.48285799029293,2572
226.8916848627572,2567
229.29984700014882,2562
231.7073446061355,2649
234.11417788446204,2675
236.520347038953,2569
238.92585227351185,2531
241.33069379212054,2516
243.73487179884035,2591
246.1383864978112,2619
248.541238093252,2551
250.9434267894609,2652
253.34495279081432,2773
255.74581630176783,2698
258.1460175268563,2623
260.54555667069314,2707
262.9444339379703,2727
265.3426495334594,2777
267.7402036620107,2769
270.1370965285529,2676
272.53332833809407,2615
274.9288992957214,2622
277.32380960660055,2570
279.718059475976,2438
282.1116491091717,2524
284.5045787115897,2507
286.89684848871195,2435
289.2884586460981,2424
291.67940938938807,2468
294.0697009242996,2460
296.4593334566299,2421
298.84830719225477,2522
301.23662233712923,2513
303.6242790972866,2355
306.01127767884,2333
308.39761828798066,2358
310.78330113097934,2297
313.16832641418534,2222
315.5526943440269,2192
317.9364051270112,2140
320.3194589697242,2181
322.70185607883093,2167
325.0835966610754,2171
327.4646809232805,2197
329.8451090723478,2146
332.2248813152577,2133
334.6039978590701,2112
336.9824589109231,2073
339.36026467803447,2103
341.7374153677,2031
344.113911187295,2031
346.48975234427337,2074
348.8649390461686,2015
351.2394715005918,2004
353.61334991523415,2036
355.9865744978655,1979
358.35914545633375,2082
360.73106299856715,2022
363.10232733257146,2027
365.47293866643247,1960
367.84289720831396,1943
370.2122031664593,1986
372.5808567491905,1913
374.9488581649083,1942
377.31620762209275,1855
379.6829053293021,1973
382.0489514951745,1926
384.4143463284262,1905
386.7790900378528,1994
389.14318283232853,2018
391.50662492080653,1960
393.86941651231916,1840
396.23155781597745,1856
398.5930490409713,1989
400.9538903965696,1971
403.3140820921202,1980
405.6736243370498,1962
408.03251734086336,1811
410.3907613131465,1878
412.74835646356166,1796
415.10530300185144,1765
417.4616011378372,1859
419.81725108141893,1858
422.1722530425758,1855
424.5266072313656,1804
426.880313857925,1867
429.2333731324701,1779
431.58578526529516,1858
433.9375504667738,1787
436.2886689473588,1785
438.63914091758113,1843
440.9889665880513,1817
443.33814616945835,1709
445.68667987257015,1774
448.03456790823395,1792
450.3818104873759,1762
452.72840782100013,1727
455.07436012019105,1745
457.41966759611057,1779
459.7643304600007,1800
462.10834892318155,1761
464.4517231970525,1759
466.79445349309174,1738
469.1365400228566,1851
471.4779829979826,1919
473.81878263018564,1820
476.15893913125876,1816
478.4984527130747,1833
480.8373235875855,1829
483.17555196682144,2003
485.5131380628919,1991
487.8500820879857,1985
490.1863842543697,2146
492.52204477439034,2359
494.8570638604725,2489
497.1914417251204,2812
499.52517858091653,3215
501.85827464052306,3727
504.19073011668036,4026
506.5225452222086,4170
508.85372017000566,4059
511.18425517304956,4021
513.514150444396,4148
515.8434061971808,4975
518.1720226446176,5790
520.4999999999999,5803
522.8273384766991,5483
525.1540382881666,4993
527.480099647932,4354
529.8055227696037,3530
532.1303078668694,2625
534.454455153496,2174
536.777964843328,2017
539.1008371502907,2010
541.4230722883866,1806
543.744670471698,1867
546.0656319143858,1826
548.3859568306899,1816
550.7056454349294,1769
553.0246979415016,1742
555.3431145648834,1805
557.6608955196306,1768
559.978041020377,1772
562.2945512818363,1843
564.6104265188006,1786
566.9256669461412,1765
569.2402727788082,1805
571.5542442318302,1785
573.8675815203156,1760
576.1802848594508,1884
578.4923544645015,1763
580.8037905508126,1771
583.114593333807,1770
585.4247630289875,1767
587.7342998519354,1761
590.0432040183106,1809
592.3514757438526,1861
594.6591152443794,1794
596.9661227357875,1856
599.2724984340531,1792
601.578242555231,1845
603.8833553154542,1782
606.1878369309362,1753
608.4916876179676,1771
610.7949075929192,1786
613.0974970722403,1760
615.3994562724587,1763
617.7007854101818,1788
620.0014847020951,1765
622.3015543649641,1759
624.6009946156324,1843
626.8998056710224,1795
629.1979877481361,1700
631.4955410640538,1842
633.7924658359349,1741
636.0887622810175,1787
638.3844306166192,1827
640.6794710601358,1772
642.9738838290426,1817
645.2676691408932,1819
647.5608272133207,1787
649.853358264037,1845
652.1452625108324,1830
654.4365401715764,1819
656.7271914642178,1782
659.0172166067838,1875
661.3066158173809,1832
663.5953893141935,1817
665.8835373154867,1834
668.1710600396028,1852
670.4579577049639,1922
672.7442305300709,1866
675.0298787335033,1808
677.3149025339197,1824
679.599302150058,1803
681.8830778007342,1831
684.1662297048437,1873
686.4487580813608,1829
688.7306631493387,1806
691.0119451279091,1878
693.2926042362834,1847
695.5726406937516,1782
697.8520547196814,1746
700.1308465335215,1796
702.4090163547982,1748
704.6865644031171,1768
706.9634908981619,1729
709.2397960596965,1838
711.5154801075631,1814
713.7905432616823,1830
716.0649857420548,1801
718.3388077687592,1782
720.612009561953,1812
722.8845913418733,1862
725.1565533288352,1785
727.427895743234,1780
729.6986188055427,1810
731.9687227363137,1777
734.238207756178,1835
736.5070740858458,1712
738.7753219461066,1745
741.0429515578281,1799
743.3099631419569,1781
745.5763569195191,1819
747.8421331116193,1846
750.1072919394409,1768
752.3718336242467,1803
754.6357583873777,1778
756.8990664502545,1789
759.1617580343765,1840
761.423833361321,1847
763.6852926527457,1830
765.9461361303862,1870
768.206364016058,1909
770.4659765316536,1730
772.7249738991469,1778
774.9833563405886,1838
777.2411240781092,1878
779.4982773339183,1838
781.7548163303044,1814
784.010741289634,1859
786.2660524343538,1835
788.5207499869881,1858
790.7748341701416,1851
793.0283052064964,1772
795.2811633188143,1817
797.5334087299362,1877
799.7850416627813,1877
802.0360623403484,1895
804.2864709857143,1823
806.5362678220353,1871
808.7854530725468,1811
811.0340269605625,1844
813.2819897094754,1850
815.5293415427581,1889
817.77608268396,1911
820.0222133567116,1824
822.2677337847211,1836
824.5126441917765,1923
826.7569448017433,1908
829.0006358385675,1895
831.2437175262731,1821
833.4861900889629,1845
835.7280537508192,1855
837.9693087361026,1907
840.2099552691533,1924
842.4499935743896,1814
844.689423876309,1895
846.9282463994886,1876
849.1664613685833,1886
851.4040690083276,1830
853.6410695435349,1878
855.877463199097,1890
858.1132501999847,1808
860.3484307712487,1911
862.5830051380175,1953
864.8169735254988,1886
867.0503361589791,1908
869.2830932638243,1829
871.5152450654786,1842
873.7467917894654,1905
875.9777336613873,1886
878.2080709069252,1828
880.4378037518389,1861
882.666932421968,1880
884.8954571432301,1888
887.1233781416219,1951
889.3506956432192,1940
891.5774098741766,1901
893.803521060728,1897
896.0290294291852,1851
898.2539352059397,1894
900.4782386174619,1847
902.7019398903011,1922
904.925039251085,1912
907.147536926521,1910
909.3694331433943,1864
911.59072812857,1882
913.8114221089921,1955
916.0315153116827,1894
918.2510079637437,1936
920.4699002923547,1914
922.6881925247761,1945
924.905884888345,1892
927.1229776104793,1893
929.3394709186747,1954
931.555365040506,1900
933.7706602036275,1862
935.9853566357709,1939
938.1994545647489,1881
940.4129542184515,1953
942.6258558248488,1931
944.8381596119883,1885
947.0498658079974,1974
949.2609746410825,2037
951.4714863395287,1915
953.6814011316998,1901
955.8907192460387,1859
958.0994409110671,1930
960.3075663553858,1880
962.5150958076741,1890
964.7220294966913,1887
966.928367651274,1950
969.1341105003388,1884
971.3392582728806,1832
973.5438111979742,1847
975.747769504772,1866
977.9511334225061,1733
980.153903180487,1781
982.3560790081052,1779
984.5576611348289,1805
986.7586497902058,1734
988.9590452038618,1754
991.158847605503,1719
993.3580572249133,1758
995.5566742919558,1714
997.7546990365728,1671
999.952131688785,1623
1002.1489724786926,1684
1004.3452216364743,1635
1006.5408793923874,1613
1008.7359459767691,1631
1010.9304216200343,1614
1013.1243065526781,1609
1015.3176010052733,1572
1017.510305208472,1575
1019.7024193930064,1557
1021.8939437896848,1598
1024.0848786293977,1473
1026.2752241431122,1519
1028.4649805618747,1534
1030.6541481168115,1504
1032.842727039127,1477
1035.0307175601051,1508
1037.2181199111074,1476
1039.4049343235752,1500
1041.591161029029,1495
1043.7768002590683,1516
1045.9618522453698,1461
1048.1463172196918,1447
1050.3301954138697,1492
1052.513487059818,1464
1054.69619238953,1472
1056.8783116350783,1472
1059.0598450286152,1466
1061.2407928023704,1453
1063.4211551886528,1465
1065.6009324198508,1453
1067.780124728432,1446
1069.9587323469414,1434
1072.1367555080046,1456
1074.314194444325,1434
1076.4910493886855,1493
1078.667320573947,1483
1080.843008233051,1468
1083.0181125990161,1435
1085.1926339049414,1367
1087.3665723840027,1412
1089.5399282694575,1415
1091.7127017946405,1437
1093.8848931929647,1448
1096.0565026979243,1383
1098.2275305430899,1415
1100.3979769621128,1373
1102.567842188722,1339
1104.737126456726,1415
1106.9058300000124,1396
1109.0739530525475,1352
1111.2414958483764,1386
1113.4084586216231,1412
1115.5748416064907,1373
1117.7406450372605,1437
1119.9058691482942,1337
1122.0705141740304,1420
1124.2345803489884,1335
1126.3980679077658,1392
1128.5609770850388,1421
1130.7233081155623,1369
1132.8850612341707,1370
1135.0462366757774,1396
1137.2068346753745,1361
1139.3668554680326,1344
1141.526299288901,1384
1143.68516637321,1391
1145.8434569562655,1324
1148.001171273455,1412
1150.158309560244,1347
1152.3148720521767,1355
1154.470858984876,1426
1156.626270594044,1363
1158.7811071154629,1394
1160.9353687849912,1309
1163.089055838569,1344
1165.242168512213,1319
1167.3947070420209,1385
1169.5466716641677,1407
1171.6980626149075,1398
1173.8488801305748,1364
1175.9991244475814,1366
1178.1487958024186,1397
1180.2978944316555,1391
1182.4464205719428,1397
1184.5943744600072,1420
1186.7417563326567,1384
1188.8885664267755,1363
1191.0348049793297,1348
1193.1804722273619,1410
1195.325568407995,1369
1197.4700937584303,1355
1199.614048515948,1383
1201.7574329179074,1371
1203.900247201746,1370
1206.042491604982,1385
1208.1841663652099,1403
1210.3252717201053,1463
1212.465807907422,1385
1214.6057751649923,1382
1216.7451737307279,1350
1218.8840038426192,1392
1221.0222657387353,1413
1223.1599596572241,1400
1225.2970858363137,1350
1227.4336445143094,1371
1229.5696359295966,1421
1231.705060320639,1402
1233.8399179259786,1391
1235.9742089842384,1383
1238.107933734118,1380
1240.2410924143974,1407
1242.373685263935,1455
1244.5057125216676,1426
1246.6371744266116,1403
1248.7680712178621,1414
1250.898403134593,1455
1253.028170416058,1455
1255.1573733015875,1409
1257.2860120305932,1350
1259.4140868425648,1447
1261.54159797707,1420
1263.6685456737569,1428
1265.7949301723515,1456
1267.9207517126597,1505
1270.046010534565,1419
1272.1707068780306,1454
1274.2948409830983,1481
1276.4184130898889,1498
1278.541423438603,1428
1280.6638722695184,1470
1282.785759822993,1460
1284.9070863394636,1528
1287.0278520594447,1572
1289.1480572235314,1529
1291.2677020723963,1491
1293.3867868467923,1507
1295.5053117875495,1536
1297.623277135579,1522
1299.740683131868,1482
1301.8575300174857,1560
1303.973818033578,1593
1306.0895474213703,1569
1308.2047184221678,1582
1310.3193312773528,1565
1312.4333862283888,1549
1314.5468835168163,1572
1316.659823384255,1629
1318.7722060724045,1604
1320.8840318230418,1641
1322.9953008780249,1612
1325.1060134792888,1654
1327.2161698688478,1609
1329.3257702887959,1564
1331.4348149813054,1535
1333.5433041886276,1654
1335.6512381530933,1567
1337.7586171171101,1545
1339.8654413231675,1588
1341.9717110138317,1617
1344.0774264317488,1552
1346.1825878196432,1586
1348.2871954203192,1569
1350.3912494766587,1566
1352.4947502316231,1559
1354.5976979282532,1578
1356.7000928096686,1570
1358.8019351190665,1539
1360.9032250997243,1549
1363.0039629949988,1546
1365.1041490483235,1575
1367.2037835032133,1585
1369.3028666032606,1498
1371.401398592137,1572
1373.4993797135926,1537
1375.5968102114575,1578
1377.6936903296396,1474
1379.7900203121262,1524
1381.8858004029835,1504
1383.9810308463561,1514
1386.075711886469,1538
1388.1698437676241,1605
1390.2634267342032,1579
1392.356461030667,1577
1394.4489469015557,1484
1396.5408845914872,1543
1398.6322743451592,1573
1400.7231164073469,1567
1402.813411022907,1547
1404.903158436773,1571
1406.9923588939578,1527
1409.0810126395531,1550
1411.1691199187303,1561
1413.2566809767386,1532
1415.343696058907,1518
1417.4301654106425,1513
1419.5160892774315,1573
1421.6014679048399,1575
1423.6863015385125,1649
1425.7705904241707,1564
1427.8543348076178,1547
1429.9375349347342,1612
1432.0201910514802,1573
1434.102303403894,1536
1436.1838722380944,1596
1438.2648978002767,1585
1440.3453803367174,1573
1442.4253200937692,1625
1444.5047173178677,1624
1446.5835722555234,1651
1448.6618851533285,1663
1450.739656257952,1706
1452.8168858161434,1734
1454.8935740747306,1692
1456.96972128062,1647
1459.045327680797,1738
1461.120393522327,1763
1463.1949190523528,1692
1465.2689045180973,1714
1467.3423501668608,1726
1469.415256246024,1737
1471.4876230030463,1832
1473.559450685465,1788
1475.6307395408976,1846
1477.7014898170391,1757
1479.771701761665,1834
1481.8413756226287,1819
1483.9105116478618,1847
1485.9791100853772,1850
1488.0471711832643,1945
1490.1146951896926,1882
1492.1816823529098,1933
1494.2481329212433,1836
1496.3140471430984,1939
1498.3794252669609,1995
1500.4442675413939,1902
1502.5085742150404,2027
1504.572345536622,1961
1506.6355817549388,2037
1508.6982831188702,2006
1510.7604498773744,2023
1512.8220822794883,2011
1514.8831805743293,1997
1516.9437450110909,2044
1519.003775839048,2017
1521.0632733075522,2015
1523.1222376660367,2007
1525.1806691640113,1965
1527.2385680510652,2058
1529.2959345768668,2013
1531.3527689911643,2100
1533.4090715437833,2116
1535.4648424846291,2136
1537.5200820636855,2107
1539.5747905310159,2167
1541.6289681367616,2133
1543.6826151311434,2153
1545.7357317644614,2159
1547.7883182870937,2195
1549.8403749494987,2256
1551.8919020022113,2354
1553.9428996958477,2311
1555.9933682811015,2381
1558.0433080087469,2393
1560.0927191296346,2419
1562.1416018946961,2380
1564.1899565549415,2469
1566.2377833614592,2516
1568.2850825654164,2472
1570.3318544180606,2498
1572.3780991707158,2485
1574.423817074788,2427
1576.4690083817595,2413
1578.5136733431923,2268
1580.5578122107272,2276
1582.601425236085,2163
1584.6445126710646,2194
1586.6870747675434,2067
1588.7291117774776,2056
1590.7706239529034,2003
1592.8116115459347,1916
1594.8520748087658,1926
1596.8920139936686,1874
1598.9314293529933,1799
1600.9703211391711,1764
1603.008689604711,1802
1605.0465350022005,1720
1607.0838575843068,1655
1609.1206576037753,1638
1611.1569353134305,1638
1613.1926909661765,1680
1615.2279248149953,1609
1617.2626371129481,1558
1619.2968281131757,1523
1621.3304980688963,1636
1623.3636472334088,1549
1625.39627586009,1565
1627.428384202396,1510
1629.459972513861,1512
1631.4910410480993,1498
1633.5215900588028,1528
1635.551619799744,1481
1637.5811305247717,1467
1639.6101224878166,1450
1641.6385959428862,1443
1643.6665511440683,1457
1645.693988345528,1430
1647.7209078015112,1397
1649.7473097663405,1417
1651.7731944944203,1390
1653.7985622402307,1465
1655.823413258333,1476
1657.847747803366,1446
1659.8715661300494,1427
1661.8948684931793,1385
1663.9176551476316,1421
1665.9399263483624,1420
1667.9616823504057,1416
1669.982923408873,1420
1672.0036497789574,1402
1674.0238617159293,1397
1676.043559475138,1440
1678.0627433120121,1398
1680.081413482059,1440
1682.0995702408654,1435
1684.117213844096,1414
1686.134344547495,1396
1688.1509626068864,1403
1690.1670682781705,1377
1692.182661817329,1297
1694.1977434804217,1355
1696.2123135235875,1361
1698.226372203043,1408
1700.2399197750851,1419
1702.2529564960905,1435
1704.2654826225112,1432
1706.277498410882,1410
1708.2890041178139,1364
1710.2999999999988,1395
1712.3104863142066,1470
1714.3204633172854,1410
1716.329931266163,1416
1718.3388904178469,1362
1720.3473410294214,1411
1722.3552833580516,1372
1724.3627176609807,1372
1726.3696441955308,1367
1728.3760632191033,1390
1730.3819749891782,1337
1732.3873797633146,1390
1734.3922777991502,1371
1736.3966693544012,1354
1738.4005546868639,1370
1740.4039340544127,1359
1742.406807715001,1394
1744.4091759266616,1437
1746.4110389475054,1376
1748.4123970357223,1415
1750.413250449582,1373
1752.4135994474318,1332
1754.4134442876993,1407
1756.4127852288902,1312
1758.4116225295893,1367
1760.4099564484595,1324
1762.407787244244,1316
1764.405115175764,1385
1766.4019405019203,1349
1768.3982634816916,1340
1770.3940843741357,1332
1772.3894034383907,1379
1774.3842209336717,1378
1776.378537119274,1317
1778.372352254571,1354
1780.3656665990156,1306
1782.3584804121397,1332
1784.3507939535534,1308
1786.3426074829463,1304
1788.3339212600863,1333
1790.3247355448211,1291
1792.3150505970766,1363
1794.3048666768573,1376
1796.2941840442477,1359
1798.2830029594106,1356
1800.2713236825884,1356
1802.2591464741004,1311
1804.2464715943465,1294
1806.2332993038058,1353
1808.2196298630352,1383
1810.2054635326708,1333
1812.190800573428,1357
1814.175641246101,1326
1816.1599858115628,1346
1818.1438345307652,1316
1820.127187664738,1340
1822.1100454745924,1285
1824.092408221516,1285
1826.0742761667766,1364
1828.055649571721,1400
1830.0365286977735,1345
1832.0169138064398,1343
1833.9968051593014,1328
1835.9762030180214,1336
1837.9551076443408,1339
1839.9335193000788,1319
1841.9114382471344,1333
1843.888864747485,1283
1845.8657990631878,1383
1847.842241456378,1292
1849.8181921892697,1335
1851.7936515241558,1299
1853.7686197234098,1296
1855.7430970494815,1337
1857.7170837649014,1332
1859.6905801322787,1340
1861.6635864143004,1335
1863.6361028737338,1366
1865.608129773424,1366
1867.5796673762961,1350
1869.5507159453537,1343
1871.521275743678,1376
1873.4913470344313,1363
1875.4609300808534,1372
1877.4300251462632,1340
1879.3986324940588,1321
1881.366752387717,1312
1883.3343850907936,1299
1885.3015308669228,1393
1887.268189979819,1364
1889.2343626932739,1341
1891.2000492711595,1395
1893.1652499774254,1370
1895.1299650761011,1352
1897.0941948312952,1410
1899.0579395071945,1361
1901.0211993680641,1385
1902.98397467825,1356
1904.9462657021745,1342
1906.9080727043415,1378
1908.869395949332,1366
1910.8302357018065,1354
1912.790592226504,1355
1914.7504657882428,1341
1916.7098566519212,1344
1918.6687650825133,1295
1920.6271913450764,1353
1922.5851357047422,1332
1924.5425984267245,1340
1926.499579776314,1322
1928.4560800188833,1348
1930.4120994198802,1333
1932.367638244833,1333
1934.32269675935,1343
1936.2772752291175,1370
1938.231373919899,1350
1940.1849930975404,1320
1942.1381330279637,1342
1944.0907939771696,1310
1946.0429762112412,1378
1947.9946799963363,1320
1949.9459055986945,1308
1951.896653284633,1348
1953.8469233205478,1273
1955.7967159729142,1313
1957.7460315082863,1294
1959.6948701932974,1336
1961.6432322946594,1350
1963.5911180791632,1330
1965.5385278136787,1317
1967.4854617651545,1366
1969.4319202006182,1269
1971.377903387176,1395
1973.3234115920136,1294
1975.268445082395,1292
1977.2130041256642,1356
1979.1570889892423,1300
1981.1006999406304,1312
1983.04383724741,1292
1984.986501177238,1297
1986.928691997853,1293
1988.8704099770712,1308
1990.811655382789,1283
1992.7524284829801,1281
1994.692729545698,1351
1996.6325588390755,1366
1998.5719166313224,1272
2000.5108031907307,1296
2002.4492187856677,1274
2004.387163684583,1304
2006.3246381560011,1252
2008.2616424685298,1315
2010.1981768908527,1300
2012.1342416917332,1324
2014.069837140014,1361
2016.0049635046162,1247
2017.9396210545406,1282
2019.8738100588666,1331
2021.8075307867502,1345
2023.740783507431,1304
2025.6735684902228,1337
2027.6058860045214,1289
2029.5377363198004,1293
2031.4691197056118,1245
2033.4000364315875,1304
2035.3304867674374,1241
2037.260470982952,1284
2039.189989347998,1310
2041.1190421325232,1307
2043.047629606554,1281
2044.9757520401945,1284
2046.9034097036288,1284
2048.8306028671195,1281
2050.7573318010086,1296
2052.683596775716,1303
2054.609398061742,1280
2056.5347359296647,1300
2058.4596106501403,1288
2060.384022493906,1313
2062.3079717317764,1280
2064.231458634646,1294
2066.1544834734873,1337
2068.077046519352,1320
2069.99914804337,1281
2071.9207883167524,1299
2073.8419676107865,1235
2075.7626861968406,1301
2077.6829443463607,1312
2079.6027423308715,1319
2081.522080421977,1311
2083.440958891362,1330
2085.359378010786,1302
2087.2773380520907,1369
2089.194839287196,1297
2091.111881988101,1252
2093.0284664268825,1252
2094.9445928756973,1321
2096.86026160678,1333
2098.775472892446,1356
2100.690227005088,1306
2102.604524217178,1305
2104.5183648012676,1316
2106.431749029985,1297
2108.34467717604,1313
2110.2571495122206,1336
2112.169166311393,1316
2114.080727846503,1311
2115.9918343905747,1322
2117.902486216711,1340
2119.8126835980956,1278
2121.722426807987,1276
2123.6317161197285,1240
2125.5405518067364,1271
2127.448934142509,1306
2129.356863400624,1334
2131.264339854737,1284
2133.1713637785815,1342
2135.077935445972,1356
2136.9840551308002,1328
2138.889723107037,1289
2140.7949396487334,1277
2142.699705030018,1303
2144.6040195250994,1289
2146.507883408264,1269
2148.4112969538774,1331
2150.3142604363848,1319
2152.2167741303097,1350
2154.1188383102535,1313
2156.0204532508997,1292
2157.9216192270064,1338
2159.822336513414,1320
2161.7226053850413,1304
2163.622426116884,1252
2165.5217989840185,1330
2167.4207242616,1337
2169.319202224862,1359
2171.2172331491165,1322
2173.1148173097563,1338
2175.0119549822507,1340
2176.90864644215,1348
2178.8048919650823,1342
2180.7006918267534,1329
2182.596046302952,1346
2184.4909556695407,1311
2186.3854202024645,1333
2188.279440177746,1314
2190.173015871487,1280
2192.066147559868,1307
2193.958835519149,1287
2195.851080025667,1356
2197.7428813558417,1344
2199.6342397861667,1285
2201.5251555932186,1392
2203.415629053651,1372
2205.3056604441986,1335
2207.19525004167,1346
2209.084398122958,1294
2210.9731049650327,1335
2212.861370844941,1356
2214.749196039812,1347
2216.636580826851,1333
2218.523525483344,1342
2220.410030286655,1316
2222.296095514226,1348
2224.1817214435805,1362
2226.066908352319,1296
2227.951656518121,1344
2229.835966218746,1319
2231.71983773203,1324
2233.6032713358913,1347
2235.486267308324,1368
2237.3688259274036,1363
2239.2509474712824,1327
2241.132632218193,1389
2243.013880446447,1316
2244.8946924344323,1371
2246.7750684606203,1363
2248.6550088035574,1352
2250.534513741871,1336
2252.413583554265,1329
2254.292218519526,1352
2256.170418916517,1351
2258.0481850241786,1386
2259.925517121534,1310
2261.8024154876825,1344
2263.678880401803,1356
2265.5549121431536,1412
2267.430510991071,1427
2269.305677224971,1363
2271.180411124348,1311
2273.0547129687766,1345
2274.9285830379076,1336
2276.8020216114737,1332
2278.6750289692845,1353
2280.5476053912294,1367
2282.4197511572766,1369
2284.2914665474727,1324
2286.162751841943,1449
2288.0336073208937,1424
2289.904033264608,1426
2291.774029953448,1355
2293.6435976678554,1412
2295.5127366883517,1419
2297.381447295534,1342
2299.2497297700825,1306
2301.1175843927526,1310
2302.9850114443825,1254
2304.852011205885,1260
2306.7185839582553,1258
2308.5847299825664,1309
2310.4504495599676,1164
2312.3157429716925,1181
2314.1806104990483,1169
2316.0450524234247,1212
2317.9090690262888,1158
2319.772660589186,1232
2321.635827393742,1205
2323.498569721661,1213
2325.3608878547248,1222
2327.2227820747967,1188
2329.0842526638157,1192
2330.945299903803,1237
2332.805924076857,1176
2334.6661254651535,1160
2336.525904350951,1245
2338.3852610165827,1225
2340.244195744464,1184
2342.102708817088,1203
2343.9608005170253,1204
2345.8184711269287,1214
2347.675720929526,1185
2349.532550207628,1224
2351.38895924412,1190
2353.24494832197,1222
2355.100517724223,1204
2356.955667734004,1225
2358.810398634514,1209
2360.664710709037,1255
2362.5186042409337,1236
2364.3720795136437,1201
2366.225136810686,1216
2368.0777764156583,1244
2369.929998612237,1227
2371.7818036841777,1189
2373.633191915315,1185
2375.484163589562,1204
2377.3347189909114,1208
2379.184858403434,1204
2381.03458211128,1246
2382.8838903986775,1250
2384.732783549936,1231
2386.5812618494406,1183
2388.4293255816588,1220
2390.2769750311327,1182
2392.1242104824883,1209
2393.971032220427,1195
2395.8174405297295,1198
2397.6634356952563,1202
2399.509018001947,1191
2401.3541877348193,1179
2403.1989451789705,1184
2405.043290619576,1194
2406.8872243418905,1196
2408.730746631247,1224
2410.5738577730594,1224
2412.4165580528183,1197
2414.258847756095,1244
2416.100727168537,1229
2417.9421965758734,1260
2419.783256263912,1227
2421.623906518538,1223
2423.4641476257157,1251
2425.303979871491,1280
2427.143403541984,1262
2428.9824189233977,1226
2430.821026302012,1269
2432.6592259641866,1230
2434.497018196361,1247
2436.33440328505,1273
2438.171381516851,1231
2440.00795317844,1222
2441.844118556569,1239
2443.6798779380724,1244
2445.5152316098606,1256
2447.3501798589255,1230
2449.1847229723357,1224
2451.0188612372403,1240
2452.8525949408663,1243
2454.6859243705203,1215
2456.518849813587,1256
2458.3513715575314,1230
2460.183489889895,1234
2462.015205098301,1218
2463.8465174704493,1202
2465.67742729412,1198
2467.5079348571717,1254
2469.338040447542,1181
2471.1677443532476,1287
2472.9970468623833,1275
2474.825948263123,1208
2476.6544488437207,1237
2478.482548892508,1265
2480.310248697896,1235
2482.137548548374,1295
2483.9644487325118,1213
2485.790949538956,1232
2487.617051256433,1228
2489.44275417375,1220
2491.26805857979,1201
2493.0929647635157,1260
2494.917473013971,1178
2496.741583620276,1265
2498.5652968716304,1194
2500.3886130573137,1230
2502.2115324666834,1299
2504.0340553891765,1245
2505.856182114308,1301
2507.6779129316733,1254
2509.499248130945,1328
2511.3201880018764,1263
2513.140732834298,1265
2514.9608829181198,1261
2516.780638543331,1268
2518.6,1270
2520.418967578273,1276
2522.237541568376,1240
2524.0557222606144,1250
2525.8735099453706,1286
2527.6909049131086,1269
2529.507907454368,1313
2531.32451785977,1300
2533.140736420014,1288
2534.9565634258774,1260
2536.771999168218,1346
2538.5870439379714,1289
2540.4016980261526,1301
2542.2159617238544,1304
2544.02983532225,1316
2545.8433191125914,1341
2547.656413386209,1293
2549.4691184345115,1337
2551.2814345489874,1397
2553.093362021204,1355
2554.904901142808,1378
2556.716052205523,1348
2558.526815501153,1423
2560.3371913215824,1367
2562.147179958771,1410
2563.956781704761,1361
2565.7659968516705,1382
2567.5748256916986,1413
2569.3832685171224,1363
2571.1913256202984,1406
2572.9989972936614,1384
2574.806283829725,1372
2576.613185521084,1428
2578.4197026604074,1383
2580.2258355404483,1404
2582.031584454035,1463
2583.836949694077,1472
2585.6419315535613,1438
2587.4465303255533,1414
2589.2507463032002,1395
2591.0545797797245,1456
2592.8580310484303,1424
2594.6611004026995,1401
2596.463788135992,1437
2598.266094541849,1363
2600.0680199138874,1433
2601.869564545807,1378
2603.670728731383,1387
2605.4715127644704,1447
2607.2719169390048,1427
2609.071941548998,1440
2610.8715868885433,1422
2612.670853251811,1420
2614.469740933052,1385
2616.268250226594,1493
2618.0663814268455,1392
2619.864134828292,1404
2621.6615107255006,1341
2623.458509413115,1411
2625.2551311858597,1478
2627.0513763385347,1394
2628.8472451660223,1369
2630.6427379632833,1357
2632.4378550253564,1360
2634.232596647359,1299
2636.026963124488,1375
2637.8209547520187,1363
2639.6145718253065,1370
2641.407814639785,1345
2643.200683490966,1252
2644.9931786744414,1356
2646.7853004858807,1368
2648.577049221034,1320
2650.3684251757277,1371
2652.1594286458712,1323
2653.9500599274484,1311
2655.740319316525,1329
2657.5302071092437,1281
2659.3197236018286,1314
2661.10886909058,1285
2662.8976438718782,1273
2664.686048242183,1318
2666.4740824980327,1285
2668.2617469360443,1303
2670.0490418529134,1292
2671.8359675454153,1282
2673.622524310403,1244
2675.408712444811,1312
2677.1945322456495,1337
2678.979984010009,1265
2680.76506803506,1300
2682.5497846180497,1285
2684.334134056306,1265
2686.1181166472343,1199
2687.9017326883213,1311
2689.6849824771293,1275
2691.4678663113013,1195
2693.2503844885596,1262
2695.032537306705,1212
2696.8143250636167,1254
2698.5957480572542,1184
2700.3768065856534,1220
2702.1575009469316,1274
2703.937831439283,1260
2705.717798360982,1240
2707.4974020103837,1266
2709.276642685917,1254
2711.055520686095,1199
2712.834036309506,1169
2714.612189854819,1200
2716.389981620782,1213
2718.1674119062204,1174
2719.944481010041,1175
2721.721189231226,1220
2723.4975368688415,1178
2725.273524222027,1141
2727.0491515900053,1238
2728.824419272075,1238
2730.5993275676146,1137
2732.3738767760838,1226
2734.148067197016,1181
2735.921899130031,1209
2737.6953728748194,1181
2739.468488731156,1240
2741.2412469988926,1190
2743.0136479779617,1148
2744.785691968372,1203
2746.5573792702116,1215
2748.3287101836504,1180
2750.099685008934,1188
2751.870304046388,1206
2753.640567596418,1201
2755.4104759595057,1248
2757.1800294362156,1165
2758.949228327187,1176
2760.7180729331412,1241
2762.486563554877,1137
2764.254700493272,1187
2766.022484049284,1149
2767.789914523947,1203
2769.5569922183786,1198
2771.3237174337705,1193
2773.090090471394,1170
2774.8561116326036,1188
2776.6217812188274,1166
2778.3870995315756,1231
2780.1520668724356,1169
2781.9166835430747,1139
2783.6809498452394,1145
2785.444866080754,1183
2787.2084325515225,1192
2788.971649559527,1184
2790.73451740683,1203
2792.4970363955713,1199
2794.2592068279705,1177
2796.0210290063264,1176
2797.7825032330147,1185
2799.543629810493,1171
2801.304409041296,1205
2803.0648412280366,1154
2804.8249266734088,1167
2806.5846656801846,1142
2808.344058551212,1134
2810.1031055894246,1128
2811.8618070978273,1118
2813.6201633795085,1166
2815.378174737636,1168
2817.1358414754536,1186
2818.893163896285,1180
2820.6501423035334,1166
2822.4067770006814,1200
2824.1630682912883,1228
2825.9190164789957,1181
2827.6746218675207,1206
2829.429884760661,1173
2831.184805462294,1160
2832.9393842763743,1201
2834.693621506936,1221
2836.4475174580916,1194
2838.201072434034,1138
2839.954286739034,1172
2841.707160677441,1208
2843.459694553685,1205
2845.2118886722724,1194
2846.96374333779,1216
2848.7152588549034,1243
2850.4664355283567,1202
2852.217273662973,1188
2853.9677735636546,1158
2855.7179355353833,1098
2857.4677598832186,1178
2859.217246912299,1153
2860.9663969278427,1200
2862.715210235146,1180
2864.4636871395846,1205
2866.211827946614,1180
2867.9596329617652,1188
2869.7071024906536,1183
2871.4542368389684,1194
2873.20103631248,1191
2874.947501217038,1213
2876.6936318585695,1178
2878.4394285430812,1174
2880.1848915766604,1159
2881.9300212654707,1202
2883.6748179157553,1201
2885.4192818338374,1180
2887.1634133261173,1200
2888.907212699077,1175
2890.6506802592744,1174
2892.393816313348,1233
2894.1366211680142,1219
2895.8790951300693,1168
2897.621238506388,1164
2899.363051603925,1192
2901.1045347297118,1186
2902.8456881908596,1204
2904.58651229456,1194
2906.327007348081,1213
2908.067173658772,1170
2909.8070115340597,1197
2911.5465212814497,1195
2913.285703208527,1220
2915.0245576229563,1137
2916.7630848324807,1150
2918.5012851449196,1203
2920.2391588681758,1216
2921.976706310227,1155
2923.7139277791334,1211
2925.4508235830313,1138
2927.187394030137,1144
2928.923639428745,1216
2930.6595600872306,1155
2932.395156314046,1158
2934.1304284177218,1211
2935.8653767068713,1204
2937.6000014901815,1213
2939.3343030764227,1191
2941.068281774442,1177
2942.8019378931644,1181
2944.5352717415976,1198
2946.2682836288236,1204
2948.0009738640065,1214
2949.7333427563885,1210
2951.465390615289,1176
2953.1971177501086,1185
2954.9285244703265,1233
2956.6596110855,1215
2958.3903779052657,1166
2960.1208252393385,1201
2961.8509533975125,1153
2963.5807626896617,1196
2965.3102534257378,1188
2967.0394259157715,1142
2968.768280469873,1172
2970.496817398232,1165
2972.2250370111146,1180
2973.952939618869,1158
2975.6805255319196,1175
2977.4077950607707,1180
2979.134748516006,1196
2980.861386208289,1194
2982.587708448359,1219
2984.313715547037,1194
2986.039407815222,1177
2987.764785563891,1162
2989.489849104102,1199
2991.2145987469908,1167
2992.9390348037705,1161
2994.6631575857346,1094
2996.3869674042576,1156
2998.1104645707887,1144
2999.83364939686,1181
3001.5565221940783,1199
3003.2790832741334,1155
3005.0013329487924,1183
3006.7232715298996,1168
3008.4448993293804,1169
3010.166216659239,1112
3011.887223831558,1187
3013.607921158498,1155
3015.3283089522993,1193
3017.0483875252826,1153
3018.7681571898443,1164
3020.4876182584626,1135
3022.2067710436927,1185
3023.9256158581707,1147
3025.644153014609,1159
3027.362382825801,1148
3029.0803056046193,1171
3030.797921664012,1141
3032.5152313170106,1154
3034.2322348767225,1164
3035.9489326563353,1162
3037.665324969115,1141
3039.3814121284063,1170
3041.097194447633,1185
3042.812672240299,1187
3044.5278458199855,1208
3046.2427155003525,1216
3047.9572815951406,1211
3049.671544418167,1156
3051.38550428333,1158
3053.0991615046073,1174
3054.812516396051,1209
3056.5255692717974,1164
3058.2383204460575,1155
3059.9507702331257,1169
3061.662918947372,1201
3063.3747669032446,1145
3065.0863144152736,1161
3066.7975617980674,1131
3068.508509366309,1145
3070.219157434767,1174
3071.9295063182844,1161
3073.639556331785,1158
3075.3493077902704,1151
3077.058761008821,1098
3078.7679163025964,1114
3080.476773986837,1145
3082.1853343768594,1185
3083.89359778806,1166
3085.6015645359153,1161
3087.3092349359786,1152
3089.016609303884,1154
3090.7236879553434,1199
3092.4304712061476,1115
3094.136959372166,1129
3095.843152769349,1131
3097.5490517137237,1151
3099.2546565213966,1104
3100.959967508554,1115
3102.66498499146,1132
3104.3697092864577,1166
3106.0741407099695,1176
3107.778279578498,1134
3109.482126208622,1135
3111.1856809170004,1198
3112.8889440203716,1173
3114.5919158355528,1140
3116.294596679439,1188
3117.996986869006,1162
3119.6990867213062,1107
3121.4008965534726,1169
3123.102416682717,1177
3124.803647426329,1167
3126.5045891016784,1203
3128.205242026213,1156
3129.90560651746,1191
3131.605682893025,1207
3133.3054714705922,1192
3135.0049725679282,1221
3136.7041865028714,1198
3138.4031135933465,1188
3140.101754157353,1181
3141.800108512971,1189
3143.498176978357,1128
3145.1959598717494,1179
3146.8934575114636,1187
3148.5906702158954,1169
3150.2875983035183,1168
3151.9842420928853,1109
3153.680601902627,1166
3155.376678051456,1169
3157.07247085816,1145
3158.767980641609,1140
3160.463207720748,1130
3162.158152414606,1161
3163.8528150422862,1130
3165.5471959229726,1232
3167.2412953759303,1181
3168.9351137204976,1144
3170.628651276098,1171
3172.3219083622307,1166
3174.014885298474,1144
3175.707582404485,1164
3177.4000000000005,1114
3179.092138404835,1183
3180.7839979388846,1141
3182.47557892212,1177
3184.166881674594,1184
3185.8579065164386,1166
3187.5486537678626,1162
3189.2391237491547,1171
3190.9293167806827,1137
3192.6192331828934,1137
3194.3088732763117,1120
3195.998237381542,1138
3197.687325819268,1157
3199.376138910251,1169
3201.064676975334,1173
3202.7529403354347,1111
3204.4409293115523,1178
3206.1286442247647,1107
3207.816085396229,1179
3209.5032531471825,1158
3211.190147798936,1108
3212.8767696728846,1150
3214.5631190905015,1156
3216.2491963733373,1073
3217.9350018430214,1117
3219.6205358212637,1170
3221.305798629851,1123
3222.990790590651,1141
3224.6755120256103,1144
3226.359963256751,1135
3228.0441446061795,1132
3229.7280563960758,1131
3231.411698948703,1144
3233.0950725863995,1157
3234.778177631587,1156
3236.461014406761,1143
3238.1435832345005,1168
3239.8258844374595,1149
3241.507918338374,1126
3243.1896852600576,1185
3244.8711855254023,1132
3246.552419457381,1151
3248.233387379042,1210
3249.914089613516,1209
3251.59452648401,1133
3253.274698313813,1196
3254.95460542629,1157
3256.6342481448855,1124
3258.313626793125,1151
3259.9927416946084,1095
3261.6715931730196,1072
3263.3501815521176,1124
3265.0285071557437,1105
3266.706570307815,1114
3268.3843713323286,1142
3270.0619105533615,1080
3271.739188295068,1079
3273.4162048816834,1211
3275.0929606375184,1154
3276.769455886966,1130
3278.445690954498,1139
3280.1216661646613,1153
3281.797381842087,1148
3283.4728383114807,1148
3285.1480358976296,1114
3286.8229749253996,1132
3288.4976557197333,1163
3290.172078605655,1128
3291.846243908266,1175
3293.5201519527463,1152
3295.193803064357,1115
3296.8671975684374,1142
3298.5403357904024,1100
3300.21321805575,1150
3301.8858446900567,1123
3303.558216018975,1105
3305.23033236824,1160
3306.9021940636603,1089
3308.57380143113,1166
3310.2451547966184,1160
3311.916254486174,1177
3313.5871008259246,1176
3315.2576941420766,1199
3316.9280347609147,1125
3318.5981230088046,1133
3320.2679592121895,1153
3321.9375436975924,1158
3323.606876791612,1081
3325.27595882093,1108
3326.944790112305,1135
3328.6133709925753,1074
3330.2817017886573,1162
3331.949782827547,1172
3333.617614436319,1143
3335.2851969421245,1152
3336.952530672199,1123
3338.619615953853,1135
3340.286453114475,1212
3341.9530424815357,1133
3343.619384382583,1120
3345.2854791452437,1153
3346.951327097224,1156
3348.6169285663073,1074
3350.2822838803577,1167
3351.947393367319,1176
3353.61225735521,1152
3355.2768761721345,1186
3356.9412501462693,1151
3358.605379605873,1097
3360.2692648792827,1059
3361.9329062949146,1149
3363.596304181263,1121
