CollectionTime,9/25/2024 11:20:02 AM
ExposureUsed,3
CalibratedSpectrum
-962.7078968117929,740
-959.9714848408522,753
-957.2358232597828,755
-954.5009119013725,830
-951.7667505983302,815
-949.0333391832855,760
-946.3006774887896,762
-943.5687653473143,790
-940.837602591253,784
-938.1071890529199,839
-935.3775245645503,779
-932.6486089583007,777
-929.9204420662485,774
-927.1930237203925,815
-924.4663537526524,765
-921.7404319948689,800
-919.0152582788041,780
-916.2908324361409,789
-913.5671542984834,784
-910.8442236973568,807
-908.1220404642074,795
-905.4006044304027,782
-902.679915427231,778
-899.959973285902,797
-897.2407778375464,804
-894.5223289132158,793
-891.8046263438832,761
-889.0876699604426,773
-886.3714595937089,764
-883.6559950744183,772
-880.9412762332282,762
-878.2273029007168,767
-875.5140749073835,718
-872.8015920836489,744
-870.0898542598545,759
-867.3788612662631,755
-864.6686129330585,739
-861.9591090903457,744
-859.2503495681506,773
-856.5423341964203,749
-853.8350628050229,717
-851.1285352237478,743
-848.4227512823054,808
-845.7177108103272,811
-843.0134136373656,749
-840.3098595928943,742
-837.6070485063082,785
-834.9049802069229,785
-832.2036545239757,788
-829.5030712866244,770
-826.8032303239481,767
-824.1041314649472,765
-821.4057745385428,771
-818.7081593735775,740
-816.0112857988148,734
-813.3151536429393,765
-810.6197627345566,782
-807.9251129021936,757
-805.2312039742981,757
-802.5380357792392,789
-799.8456081453069,786
-797.1539209007124,749
-794.462973873588,746
-791.772766891987,779
-789.083299783884,818
-786.3945723771743,818
-783.7065844996748,788
-781.0193359791231,731
-778.3328266431781,793
-775.6470563194197,765
-772.9620248353489,717
-770.2777320183878,744
-767.5941776958798,750
-764.9113616950891,780
-762.2292838432011,742
-759.5479439673222,745
-756.8673418944801,751
-754.1874774516235,731
-751.5083504656222,776
-748.8299607632671,771
-746.15230817127,799
-743.475392516264,798
-740.7992136248035,773
-738.1237713233636,820
-735.4490654383407,787
-732.7750957960521,775
-730.1018622227365,802
-727.4293645445534,792
-724.7576025875837,808
-722.0865761778291,787
-719.4162851412126,782
-716.7467293035781,807
-714.0779084906909,818
-711.409822528237,836
-708.7424712418238,823
-706.0758544569796,792
-703.4099719991541,785
-700.7448236937178,792
-698.0804093659622,823
-695.4167288411002,811
-692.7537819442656,828
-690.0915685005134,792
-687.4300883348199,853
-684.7693412720819,806
-682.1093271371178,835
-679.4500457546669,842
-676.7914969493897,836
-674.1336805458676,826
-671.4765963686034,853
-668.8202442420206,827
-666.1646239904642,819
-663.5097354382001,837
-660.8555784094151,837
-658.2021527282176,837
-655.5494582186366,811
-652.8974947046223,813
-650.2462620100463,830
-647.5957599587009,816
-644.9459883742998,866
-642.2969470804776,868
-639.6486359007902,918
-637.0010546587141,881
-634.3542031776476,839
-631.7080812809096,832
-629.0626887917401,877
-626.4180255333008,846
-623.7740913286734,839
-621.1308860008619,883
-618.4884093727904,934
-615.8466612673046,853
-613.2056415071715,874
-610.5653499150785,915
-607.9257863136347,887
-605.28695052537,821
-602.6488423727357,882
-600.0114616781036,843
-597.3748082637674,921
-594.7388819519412,935
-592.1036825647604,904
-589.4692099242818,920
-586.8354638524829,905
-584.2024441712624,896
-581.5701507024403,920
-578.9385832677575,895
-576.3077416888759,926
-573.6776257873787,926
-571.0482353847704,861
-568.4195703024757,868
-565.7916303618415,910
-563.164415384135,929
-560.5379251905453,888
-557.9121596021815,891
-555.2871184400748,878
-552.6628015251767,918
-550.0392086783606,932
-547.4163397204204,946
-544.794194472071,994
-542.1727727539491,949
-539.5520743866118,940
-536.9320991905377,933
-534.3128469861261,1001
-531.6943175936979,1012
-529.0765108334947,1036
-526.4594265256793,1039
-523.8430644903358,1212
-521.2274245474689,1312
-518.612506517005,1381
-515.9983102187913,1345
-513.3848354725959,1454
-510.77208209810846,1511
-508.16004991493924,1632
-505.5487387426199,1731
-502.9381484006032,1753
-500.3282787082628,1718
-497.71912948489364,1725
-495.1107005497117,1575
-492.5029917218539,1427
-489.8960028203786,1333
-487.28973366426493,1185
-484.68418407241325,1150
-482.07935386364494,1079
-479.47524285670266,1081
-476.87185087025,1110
-474.2691777228715,1179
-471.66722323307334,1108
-469.0659872192821,1132
-466.4654694998459,1118
-463.86566989303384,1129
-461.26658821703614,1054
-458.66822428996414,1073
-456.07057792985,1076
-453.4736489546475,1109
-450.877437182231,1132
-448.28194243039627,1068
-445.68716451686,1050
-443.09310325926003,1042
-440.49975847515555,1063
-437.9071299820263,1074
-435.31521759727354,1066
-432.72402113821954,1104
-430.13354042210767,1135
-427.5437752661022,1124
-424.95472548728867,1126
-422.36639090267386,1120
-419.7787713291855,1142
-417.1918665836721,1140
-414.60567648290385,1128
-412.0202008435715,1167
-409.4354394822874,1149
-406.8513922155845,1169
-404.26805885991723,1237
-401.685439231661,1177
-399.103533147112,1160
-396.522340422488,1144
-393.9418608739278,1116
-391.3620943174908,1116
-388.7830405691583,1097
-386.2046994448317,1077
-383.6270707603344,1043
-381.05015433141045,1001
-378.473949973725,958
-375.8984575028645,845
-373.32367673433623,735
-370.74960748356875,719
-368.1762495659117,725
-365.60360279663576,630
-363.03166699093265,634
-360.4604419639154,597
-357.8899275306178,528
-355.32012350599507,511
-352.7510297049233,502
-350.1826459421999,503
-347.61497203254316,476
-345.04800779059235,458
-342.4817530309082,470
-339.91620756797226,470
-337.35137121618743,452
-334.7872437898774,495
-332.22382510328725,496
-329.66111497058273,551
-327.09911320585127,584
-324.53781962310075,556
-321.9772340362607,492
-319.4173562591816,481
-316.8581861056348,508
-314.2997233893127,527
-311.7419679238294,582
-309.1849195227194,546
-306.62857799943856,523
-304.0729431673641,504
-301.51801483979375,530
-298.963792829947,529
-296.41027695096386,522
-293.85746701590574,554
-291.3053628377552,585
-288.7539642294155,537
-286.2032710037115,550
-283.65328297338897,605
-281.1039999511146,571
-278.5554217494762,599
-276.007548180983,629
-273.4603790580651,641
-270.9139141930734,644
-268.3681533982807,679
-265.8230964858798,622
-263.27874326798565,604
-260.7350935566336,584
-258.1921471637804,651
-255.6499039013039,741
-253.10836358100266,777
-250.56752601459698,675
-248.02739101372765,648
-245.48795838995704,705
-242.94922795476816,768
-240.41119951956557,697
-237.8738728956746,753
-235.33724789434166,779
-232.80132432673452,726
-230.2661020039418,694
-227.73158073697357,720
-225.19776033676033,737
-222.66464061415422,747
-220.1322213799284,790
-217.60050244477725,785
-215.06948361931552,751
-212.53916471408013,796
-210.00954553952818,834
-207.48062590603843,763
-204.9524056239104,697
-202.4248845033651,780
-199.8980623545441,894
-197.37193898751036,832
-194.84651421224817,828
-192.32178783866232,860
-189.79775967657952,913
-187.27442953574644,915
-184.7517972258321,899
-182.2298625564256,804
-179.7086253370378,808
-177.18808537710026,915
-174.66824248596583,1121
-172.14909647290835,1126
-169.6306471471229,970
-167.11289431772548,805
-164.59583779375328,785
-162.07947738416453,908
-159.5638128978386,1079
-157.04884414357605,1204
-154.53457093009854,1288
-152.02099306604828,1158
-149.50811035998936,1004
-146.99592262040665,965
-144.48442965570587,1110
-141.97363127421409,1236
-139.46352728417958,1418
-136.95411749377126,1432
-134.44540171107985,1235
-131.93737974411636,1255
-129.43005140081357,1214
-126.92341648902493,1529
-124.41747481652521,1923
-121.91222619101006,2266
-119.40767042009657,2799
-116.90380731132257,3274
-114.40063667214702,3185
-111.8981583099503,2735
-109.3963720320337,2682
-106.89527764561933,3035
-104.39487495785067,3424
-101.89516377579241,3692
-99.39614390642998,4954
-96.89781515667039,7665
-94.40017733334128,7916
-91.90323024319173,6237
-89.40697369289148,5306
-86.91140748903172,4580
-84.41653143812482,4020
-81.92234534660395,3887
-79.42884902082358,4219
-76.93604226705907,4666
-74.4439248915071,4761
-71.95249670028534,5021
-69.46175749943245,5521
-66.97170709490854,6998
-64.48234529259423,9112
-61.99367189829195,12015
-59.50568671772464,14555
-57.01838955653636,17560
-54.53178022029283,19539
-52.045858514480074,22725
-49.560624244506016,24173
-47.07607721569923,21046
-44.59221723330904,13966
-42.10904410250669,12251
-39.62655762838392,14224
-37.14475761595372,16956
-34.66364387015028,22577
-32.18321619582866,29104
-29.70347439776515,31747
-27.224418280657005,30909
-24.74604764912317,33911
-22.26836230770266,46742
-19.7913620608565,65040
-17.315046712966478,65040
-14.83941606833514,65040
-12.36446993118659,65040
-9.89020810566592,65040
-7.416630395839093,65040
-4.94373660569363,65040
-2.471526539137585,65040
-6.821210263296962E-13,65040
2.47084320796705,65040
4.941003281093458,65040
7.410480415786196,65040
9.879274808531363,65040
12.347386655893956,65040
14.814816154518212,65040
17.28156350112681,65040
19.74762889252179,65040
22.21301252558385,21942
24.67771459727237,5417
27.141735304626195,4064
29.605074844762612,3847
32.06773341487792,3169
34.52971121224755,2897
36.99100843422559,3071
39.45162527824516,3558
41.91156194181792,3502
44.370818622535126,2627
46.82939551806646,2347
49.287292826160524,2424
51.74451074464503,2451
54.201049471426245,2508
56.65690920448981,2442
59.112090141899785,2631
61.56659248179983,3020
64.02041642241159,2316
66.4735621620365,1908
68.92602989905402,2074
71.37781983192338,2189
73.82893215918205,1815
76.27936707944684,1703
78.72912479141326,1889
81.17820549385567,1873
83.62660938562783,1524
86.07433666566146,1341
88.5213875329681,1568
90.96776218663751,1548
93.41346082583925,1465
95.85848364982041,1402
98.30283085790859,1361
100.7465026495089,1399
103.18949922410604,1426
105.63182078126385,1365
108.07346752062438,1475
110.51443964190923,1482
112.95473734491827,1333
115.39436082953114,1164
117.83331029570547,1330
120.27158594347827,1471
122.7091879729652,1476
125.1461165843615,1547
127.58237197794062,1195
130.01795435405518,1079
132.4528639131364,952
134.88710085569494,1079
137.32066538231982,1294
139.75355769367923,1079
142.1857779905207,1020
144.61732647366978,1117
147.04820334403132,1237
149.47840880258934,1223
151.90794305040674,1145
154.33680628862487,1273
156.76499871846443,1284
159.19252054122433,1504
161.61937195828352,1639
164.04555317109896,1713
166.47106438120693,1824
168.89590579022217,2044
171.320077599839,2252
173.7435800118302,2274
176.16641322804742,2268
178.58857745042144,2431
181.01007288096173,2532
183.43089972175687,2548
185.85105817497413,2553
188.27054844285988,2643
190.6893707277394,2606
193.10752523201643,2644
195.5250121581745,2734
197.9418317087751,2626
200.3579840864594,2717
202.7734694939469,2818
205.18828813403627,2878
207.6024402096051,2870
210.01592592360964,2799
212.42874547908548,2981
214.84089907914665,2800
217.2523869269868,2762
219.66320922587727,2915
222.0733661791695,2831
224.48285799029293,2874
226.8916848627572,2908
229.29984700014882,2950
231.7073446061355,2815
234.11417788446204,2941
236.520347038953,2972
238.92585227351185,2918
241.33069379212054,2983
243.73487179884035,2950
246.1383864978112,2993
248.541238093252,2963
250.9434267894609,2996
253.34495279081432,3072
255.74581630176783,3062
258.1460175268563,3013
260.54555667069314,3117
262.9444339379703,3073
265.3426495334594,3037
267.7402036620107,3069
270.1370965285529,2976
272.53332833809407,2940
274.9288992957214,2913
277.32380960660055,2864
279.718059475976,2858
282.1116491091717,2819
284.5045787115897,2837
286.89684848871195,2766
289.2884586460981,2867
291.67940938938807,2732
294.0697009242996,2807
296.4593334566299,2914
298.84830719225477,2839
301.23662233712923,2910
303.6242790972866,2744
306.01127767884,2852
308.39761828798066,2847
310.78330113097934,2783
313.16832641418534,2677
315.5526943440269,2681
317.9364051270112,2678
320.3194589697242,2693
322.70185607883093,2630
325.0835966610754,2514
327.4646809232805,2661
329.8451090723478,2660
332.2248813152577,2563
334.6039978590701,2602
336.9824589109231,2639
339.36026467803447,2496
341.7374153677,2516
344.113911187295,2511
346.48975234427337,2613
348.8649390461686,2660
351.2394715005918,2534
353.61334991523415,2528
355.9865744978655,2460
358.35914545633375,2403
360.73106299856715,2480
363.10232733257146,2511
365.47293866643247,2463
367.84289720831396,2404
370.2122031664593,2450
372.5808567491905,2458
374.9488581649083,2419
377.31620762209275,2454
379.6829053293021,2393
382.0489514951745,2435
384.4143463284262,2445
386.7790900378528,2419
389.14318283232853,2513
391.50662492080653,2498
393.86941651231916,2524
396.23155781597745,2447
398.5930490409713,2499
400.9538903965696,2465
403.3140820921202,2414
405.6736243370498,2443
408.03251734086336,2419
410.3907613131465,2374
412.74835646356166,2341
415.10530300185144,2401
417.4616011378372,2373
419.81725108141893,2447
422.1722530425758,2422
424.5266072313656,2465
426.880313857925,2420
429.2333731324701,2366
431.58578526529516,2407
433.9375504667738,2394
436.2886689473588,2355
438.63914091758113,2318
440.9889665880513,2387
443.33814616945835,2348
445.68667987257015,2249
448.03456790823395,2297
450.3818104873759,2325
452.72840782100013,2342
455.07436012019105,2260
457.41966759611057,2396
459.7643304600007,2347
462.10834892318155,2313
464.4517231970525,2371
466.79445349309174,2356
469.1365400228566,2291
471.4779829979826,2328
473.81878263018564,2337
476.15893913125876,2363
478.4984527130747,2416
480.8373235875855,2447
483.17555196682144,2565
485.5131380628919,2512
487.8500820879857,2546
490.1863842543697,2567
492.52204477439034,2769
494.8570638604725,2901
497.1914417251204,3079
499.52517858091653,3356
501.85827464052306,3672
504.19073011668036,3913
506.5225452222086,4010
508.85372017000566,3961
511.18425517304956,3962
513.514150444396,4231
515.8434061971808,4957
518.1720226446176,5734
520.4999999999999,5881
522.8273384766991,5561
525.1540382881666,5167
527.480099647932,4685
529.8055227696037,3940
532.1303078668694,3062
534.454455153496,2671
536.777964843328,2524
539.1008371502907,2409
541.4230722883866,2465
543.744670471698,2408
546.0656319143858,2377
548.3859568306899,2321
550.7056454349294,2334
553.0246979415016,2304
555.3431145648834,2313
557.6608955196306,2311
559.978041020377,2297
562.2945512818363,2404
564.6104265188006,2362
566.9256669461412,2314
569.2402727788082,2329
571.5542442318302,2322
573.8675815203156,2383
576.1802848594508,2388
578.4923544645015,2373
580.8037905508126,2391
583.114593333807,2425
585.4247630289875,2330
587.7342998519354,2388
590.0432040183106,2334
592.3514757438526,2420
594.6591152443794,2389
596.9661227357875,2376
599.2724984340531,2360
601.578242555231,2289
603.8833553154542,2310
606.1878369309362,2324
608.4916876179676,2390
610.7949075929192,2346
613.0974970722403,2382
615.3994562724587,2300
617.7007854101818,2358
620.0014847020951,2243
622.3015543649641,2352
624.6009946156324,2326
626.8998056710224,2286
629.1979877481361,2293
631.4955410640538,2302
633.7924658359349,2289
636.0887622810175,2382
638.3844306166192,2310
640.6794710601358,2369
642.9738838290426,2295
645.2676691408932,2348
647.5608272133207,2336
649.853358264037,2419
652.1452625108324,2338
654.4365401715764,2347
656.7271914642178,2462
659.0172166067838,2409
661.3066158173809,2446
663.5953893141935,2380
665.8835373154867,2451
668.1710600396028,2448
670.4579577049639,2433
672.7442305300709,2451
675.0298787335033,2463
677.3149025339197,2418
679.599302150058,2373
681.8830778007342,2420
684.1662297048437,2399
686.4487580813608,2449
688.7306631493387,2392
691.0119451279091,2482
693.2926042362834,2435
695.5726406937516,2458
697.8520547196814,2417
700.1308465335215,2388
702.4090163547982,2345
704.6865644031171,2403
706.9634908981619,2331
709.2397960596965,2383
711.5154801075631,2359
713.7905432616823,2336
716.0649857420548,2427
718.3388077687592,2424
720.612009561953,2418
722.8845913418733,2368
725.1565533288352,2366
727.427895743234,2416
729.6986188055427,2439
731.9687227363137,2344
734.238207756178,2338
736.5070740858458,2357
738.7753219461066,2327
741.0429515578281,2386
743.3099631419569,2320
745.5763569195191,2367
747.8421331116193,2387
750.1072919394409,2415
752.3718336242467,2399
754.6357583873777,2308
756.8990664502545,2302
759.1617580343765,2316
761.423833361321,2418
763.6852926527457,2432
765.9461361303862,2376
768.206364016058,2307
770.4659765316536,2389
772.7249738991469,2387
774.9833563405886,2429
777.2411240781092,2481
779.4982773339183,2367
781.7548163303044,2316
784.010741289634,2471
786.2660524343538,2434
788.5207499869881,2416
790.7748341701416,2383
793.0283052064964,2408
795.2811633188143,2440
797.5334087299362,2375
799.7850416627813,2424
802.0360623403484,2371
804.2864709857143,2395
806.5362678220353,2399
808.7854530725468,2369
811.0340269605625,2397
813.2819897094754,2385
815.5293415427581,2427
817.77608268396,2406
820.0222133567116,2409
822.2677337847211,2400
824.5126441917765,2436
826.7569448017433,2427
829.0006358385675,2297
831.2437175262731,2413
833.4861900889629,2307
835.7280537508192,2321
837.9693087361026,2353
840.2099552691533,2402
842.4499935743896,2332
844.689423876309,2360
846.9282463994886,2331
849.1664613685833,2324
851.4040690083276,2359
853.6410695435349,2386
855.877463199097,2353
858.1132501999847,2317
860.3484307712487,2400
862.5830051380175,2417
864.8169735254988,2365
867.0503361589791,2398
869.2830932638243,2424
871.5152450654786,2380
873.7467917894654,2382
875.9777336613873,2309
878.2080709069252,2439
880.4378037518389,2384
882.666932421968,2387
884.8954571432301,2413
887.1233781416219,2456
889.3506956432192,2480
891.5774098741766,2383
893.803521060728,2375
896.0290294291852,2412
898.2539352059397,2407
900.4782386174619,2352
902.7019398903011,2380
904.925039251085,2395
907.147536926521,2378
909.3694331433943,2336
911.59072812857,2412
913.8114221089921,2399
916.0315153116827,2390
918.2510079637437,2372
920.4699002923547,2226
922.6881925247761,2328
924.905884888345,2326
927.1229776104793,2337
929.3394709186747,2353
931.555365040506,2281
933.7706602036275,2424
935.9853566357709,2344
938.1994545647489,2382
940.4129542184515,2335
942.6258558248488,2317
944.8381596119883,2365
947.0498658079974,2390
949.2609746410825,2330
951.4714863395287,2421
953.6814011316998,2311
955.8907192460387,2365
958.0994409110671,2361
960.3075663553858,2332
962.5150958076741,2321
964.7220294966913,2277
966.928367651274,2364
969.1341105003388,2366
971.3392582728806,2280
973.5438111979742,2327
975.747769504772,2297
977.9511334225061,2255
980.153903180487,2301
982.3560790081052,2171
984.5576611348289,2195
986.7586497902058,2272
988.9590452038618,2232
991.158847605503,2217
993.3580572249133,2198
995.5566742919558,2189
997.7546990365728,2103
999.952131688785,2104
1002.1489724786926,2095
1004.3452216364743,2129
1006.5408793923874,2089
1008.7359459767691,2116
1010.9304216200343,2024
1013.1243065526781,2118
1015.3176010052733,2127
1017.510305208472,2047
1019.7024193930064,2064
1021.8939437896848,2030
1024.0848786293977,2008
1026.2752241431122,1975
1028.4649805618747,1962
1030.6541481168115,1976
1032.842727039127,1983
1035.0307175601051,1948
1037.2181199111074,1989
1039.4049343235752,1972
1041.591161029029,1984
1043.7768002590683,2055
1045.9618522453698,2005
1048.1463172196918,2018
1050.3301954138697,1940
1052.513487059818,1952
1054.69619238953,1877
1056.8783116350783,1960
1059.0598450286152,1927
1061.2407928023704,1969
1063.4211551886528,1935
1065.6009324198508,1915
1067.780124728432,1902
1069.9587323469414,1957
1072.1367555080046,1955
1074.314194444325,2007
1076.4910493886855,1928
1078.667320573947,1964
1080.843008233051,1919
1083.0181125990161,1886
1085.1926339049414,1881
1087.3665723840027,1920
1089.5399282694575,1906
1091.7127017946405,1850
1093.8848931929647,1866
1096.0565026979243,1860
1098.2275305430899,1875
1100.3979769621128,1914
1102.567842188722,1907
1104.737126456726,1903
1106.9058300000124,1844
1109.0739530525475,1953
1111.2414958483764,1908
1113.4084586216231,1924
1115.5748416064907,1849
1117.7406450372605,1894
1119.9058691482942,1850
1122.0705141740304,1807
1124.2345803489884,1874
1126.3980679077658,1842
1128.5609770850388,1852
1130.7233081155623,1809
1132.8850612341707,1867
1135.0462366757774,1807
1137.2068346753745,1849
1139.3668554680326,1872
1141.526299288901,1803
1143.68516637321,1830
1145.8434569562655,1823
1148.001171273455,1909
1150.158309560244,1839
1152.3148720521767,1793
1154.470858984876,1799
1156.626270594044,1889
1158.7811071154629,1827
1160.9353687849912,1867
1163.089055838569,1800
1165.242168512213,1795
1167.3947070420209,1863
1169.5466716641677,1771
1171.6980626149075,1861
1173.8488801305748,1806
1175.9991244475814,1789
1178.1487958024186,1809
1180.2978944316555,1736
1182.4464205719428,1818
1184.5943744600072,1791
1186.7417563326567,1852
1188.8885664267755,1781
1191.0348049793297,1813
1193.1804722273619,1810
1195.325568407995,1784
1197.4700937584303,1785
1199.614048515948,1778
1201.7574329179074,1802
1203.900247201746,1774
1206.042491604982,1806
1208.1841663652099,1770
1210.3252717201053,1827
1212.465807907422,1836
1214.6057751649923,1821
1216.7451737307279,1820
1218.8840038426192,1841
1221.0222657387353,1822
1223.1599596572241,1874
1225.2970858363137,1823
1227.4336445143094,1890
1229.5696359295966,1855
1231.705060320639,1800
1233.8399179259786,1865
1235.9742089842384,1805
1238.107933734118,1823
1240.2410924143974,1824
1242.373685263935,1807
1244.5057125216676,1848
1246.6371744266116,1880
1248.7680712178621,1795
1250.898403134593,1849
1253.028170416058,1856
1255.1573733015875,1830
1257.2860120305932,1798
1259.4140868425648,1860
1261.54159797707,1828
1263.6685456737569,1857
1265.7949301723515,1881
1267.9207517126597,1888
1270.046010534565,1871
1272.1707068780306,1911
1274.2948409830983,1944
1276.4184130898889,1893
1278.541423438603,1903
1280.6638722695184,1972
1282.785759822993,1932
1284.9070863394636,1931
1287.0278520594447,1886
1289.1480572235314,1980
1291.2677020723963,2010
1293.3867868467923,1958
1295.5053117875495,1976
1297.623277135579,1980
1299.740683131868,2015
1301.8575300174857,2059
1303.973818033578,2025
1306.0895474213703,2025
1308.2047184221678,2074
1310.3193312773528,1991
1312.4333862283888,2055
1314.5468835168163,2081
1316.659823384255,2034
1318.7722060724045,2040
1320.8840318230418,2084
1322.9953008780249,2075
1325.1060134792888,2131
1327.2161698688478,2072
1329.3257702887959,2160
1331.4348149813054,2020
1333.5433041886276,2090
1335.6512381530933,2129
1337.7586171171101,2077
1339.8654413231675,2073
1341.9717110138317,2070
1344.0774264317488,1983
1346.1825878196432,2036
1348.2871954203192,1980
1350.3912494766587,1924
1352.4947502316231,1931
1354.5976979282532,2034
1356.7000928096686,2003
1358.8019351190665,1962
1360.9032250997243,1917
1363.0039629949988,2006
1365.1041490483235,1958
1367.2037835032133,1942
1369.3028666032606,1934
1371.401398592137,1948
1373.4993797135926,1958
1375.5968102114575,2013
1377.6936903296396,1945
1379.7900203121262,1902
1381.8858004029835,1889
1383.9810308463561,1883
1386.075711886469,1873
1388.1698437676241,1909
1390.2634267342032,1915
1392.356461030667,1966
1394.4489469015557,1868
1396.5408845914872,1875
1398.6322743451592,1880
1400.7231164073469,1937
1402.813411022907,1896
1404.903158436773,1975
1406.9923588939578,1949
1409.0810126395531,1896
1411.1691199187303,1906
1413.2566809767386,1997
1415.343696058907,1967
1417.4301654106425,1899
1419.5160892774315,1990
1421.6014679048399,1974
1423.6863015385125,1915
1425.7705904241707,1969
1427.8543348076178,1912
1429.9375349347342,1883
1432.0201910514802,1989
1434.102303403894,1984
1436.1838722380944,1987
1438.2648978002767,1998
1440.3453803367174,2014
1442.4253200937692,1967
1444.5047173178677,2041
1446.5835722555234,2061
1448.6618851533285,1963
1450.739656257952,1907
1452.8168858161434,2066
1454.8935740747306,2090
1456.96972128062,2090
1459.045327680797,2050
1461.120393522327,2090
1463.1949190523528,2181
1465.2689045180973,2184
1467.3423501668608,2166
1469.415256246024,2179
1471.4876230030463,2214
1473.559450685465,2172
1475.6307395408976,2220
1477.7014898170391,2178
1479.771701761665,2237
1481.8413756226287,2229
1483.9105116478618,2292
1485.9791100853772,2237
1488.0471711832643,2269
1490.1146951896926,2261
1492.1816823529098,2264
1494.2481329212433,2271
1496.3140471430984,2418
1498.3794252669609,2397
1500.4442675413939,2362
1502.5085742150404,2368
1504.572345536622,2380
1506.6355817549388,2406
1508.6982831188702,2385
1510.7604498773744,2389
1512.8220822794883,2446
1514.8831805743293,2449
1516.9437450110909,2473
1519.003775839048,2450
1521.0632733075522,2482
1523.1222376660367,2530
1525.1806691640113,2581
1527.2385680510652,2524
1529.2959345768668,2461
1531.3527689911643,2521
1533.4090715437833,2623
1535.4648424846291,2635
1537.5200820636855,2658
1539.5747905310159,2693
1541.6289681367616,2667
1543.6826151311434,2754
1545.7357317644614,2786
1547.7883182870937,2812
1549.8403749494987,2900
1551.8919020022113,2893
1553.9428996958477,2919
1555.9933682811015,2882
1558.0433080087469,3057
1560.0927191296346,3041
1562.1416018946961,3021
1564.1899565549415,3116
1566.2377833614592,3093
1568.2850825654164,3022
1570.3318544180606,3093
1572.3780991707158,3016
1574.423817074788,2958
1576.4690083817595,2871
1578.5136733431923,2845
1580.5578122107272,2746
1582.601425236085,2748
1584.6445126710646,2652
1586.6870747675434,2546
1588.7291117774776,2576
1590.7706239529034,2525
1592.8116115459347,2412
1594.8520748087658,2433
1596.8920139936686,2323
1598.9314293529933,2269
1600.9703211391711,2234
1603.008689604711,2260
1605.0465350022005,2216
1607.0838575843068,2210
1609.1206576037753,2193
1611.1569353134305,2064
1613.1926909661765,2048
1615.2279248149953,2095
1617.2626371129481,1997
1619.2968281131757,2006
1621.3304980688963,2076
1623.3636472334088,1955
1625.39627586009,1912
1627.428384202396,1923
1629.459972513861,1984
1631.4910410480993,1892
1633.5215900588028,1901
1635.551619799744,1875
1637.5811305247717,1744
1639.6101224878166,1874
1641.6385959428862,1867
1643.6665511440683,1814
1645.693988345528,1838
1647.7209078015112,1806
1649.7473097663405,1767
1651.7731944944203,1856
1653.7985622402307,1863
1655.823413258333,1819
1657.847747803366,1782
1659.8715661300494,1824
1661.8948684931793,1760
1663.9176551476316,1776
1665.9399263483624,1799
1667.9616823504057,1725
1669.982923408873,1775
1672.0036497789574,1744
1674.0238617159293,1784
1676.043559475138,1814
1678.0627433120121,1818
1680.081413482059,1780
1682.0995702408654,1838
1684.117213844096,1749
1686.134344547495,1814
1688.1509626068864,1739
1690.1670682781705,1798
1692.182661817329,1762
1694.1977434804217,1764
1696.2123135235875,1751
1698.226372203043,1815
1700.2399197750851,1760
1702.2529564960905,1746
1704.2654826225112,1858
1706.277498410882,1788
1708.2890041178139,1758
1710.2999999999988,1785
1712.3104863142066,1793
1714.3204633172854,1729
1716.329931266163,1720
1718.3388904178469,1843
1720.3473410294214,1787
1722.3552833580516,1800
1724.3627176609807,1839
1726.3696441955308,1804
1728.3760632191033,1699
1730.3819749891782,1817
1732.3873797633146,1757
1734.3922777991502,1699
1736.3966693544012,1752
1738.4005546868639,1776
1740.4039340544127,1757
1742.406807715001,1762
1744.4091759266616,1763
1746.4110389475054,1730
1748.4123970357223,1757
1750.413250449582,1727
1752.4135994474318,1704
1754.4134442876993,1792
1756.4127852288902,1762
1758.4116225295893,1668
1760.4099564484595,1724
1762.407787244244,1704
1764.405115175764,1803
1766.4019405019203,1672
1768.3982634816916,1745
1770.3940843741357,1690
1772.3894034383907,1719
1774.3842209336717,1669
1776.378537119274,1721
1778.372352254571,1704
1780.3656665990156,1667
1782.3584804121397,1680
1784.3507939535534,1764
1786.3426074829463,1732
1788.3339212600863,1728
1790.3247355448211,1777
1792.3150505970766,1726
1794.3048666768573,1704
1796.2941840442477,1810
1798.2830029594106,1787
1800.2713236825884,1688
1802.2591464741004,1712
1804.2464715943465,1698
1806.2332993038058,1728
1808.2196298630352,1686
1810.2054635326708,1726
1812.190800573428,1736
1814.175641246101,1688
1816.1599858115628,1731
1818.1438345307652,1759
1820.127187664738,1767
1822.1100454745924,1789
1824.092408221516,1656
1826.0742761667766,1756
1828.055649571721,1739
1830.0365286977735,1777
1832.0169138064398,1733
1833.9968051593014,1714
1835.9762030180214,1731
1837.9551076443408,1689
1839.9335193000788,1743
1841.9114382471344,1734
1843.888864747485,1760
1845.8657990631878,1696
1847.842241456378,1700
1849.8181921892697,1693
1851.7936515241558,1656
1853.7686197234098,1776
1855.7430970494815,1739
1857.7170837649014,1704
1859.6905801322787,1702
1861.6635864143004,1714
1863.6361028737338,1722
1865.608129773424,1754
1867.5796673762961,1697
1869.5507159453537,1698
1871.521275743678,1752
1873.4913470344313,1749
1875.4609300808534,1780
1877.4300251462632,1765
1879.3986324940588,1705
1881.366752387717,1761
1883.3343850907936,1787
1885.3015308669228,1856
1887.268189979819,1806
1889.2343626932739,1857
1891.2000492711595,1773
1893.1652499774254,1817
1895.1299650761011,1716
1897.0941948312952,1697
1899.0579395071945,1804
1901.0211993680641,1774
1902.98397467825,1847
1904.9462657021745,1764
1906.9080727043415,1799
1908.869395949332,1754
1910.8302357018065,1716
1912.790592226504,1687
1914.7504657882428,1859
1916.7098566519212,1766
1918.6687650825133,1747
1920.6271913450764,1764
1922.5851357047422,1831
1924.5425984267245,1798
1926.499579776314,1750
1928.4560800188833,1786
1930.4120994198802,1822
1932.367638244833,1755
1934.32269675935,1757
1936.2772752291175,1760
1938.231373919899,1782
1940.1849930975404,1717
1942.1381330279637,1731
1944.0907939771696,1813
1946.0429762112412,1728
1947.9946799963363,1747
1949.9459055986945,1757
1951.896653284633,1721
1953.8469233205478,1767
1955.7967159729142,1800
1957.7460315082863,1785
1959.6948701932974,1852
1961.6432322946594,1728
1963.5911180791632,1749
1965.5385278136787,1738
1967.4854617651545,1778
1969.4319202006182,1789
1971.377903387176,1791
1973.3234115920136,1793
1975.268445082395,1846
1977.2130041256642,1821
1979.1570889892423,1758
1981.1006999406304,1761
1983.04383724741,1794
1984.986501177238,1835
1986.928691997853,1804
1988.8704099770712,1728
1990.811655382789,1838
1992.7524284829801,1796
1994.692729545698,1788
1996.6325588390755,1769
1998.5719166313224,1815
2000.5108031907307,1821
2002.4492187856677,1769
2004.387163684583,1747
2006.3246381560011,1728
2008.2616424685298,1816
2010.1981768908527,1779
2012.1342416917332,1837
2014.069837140014,1747
2016.0049635046162,1727
2017.9396210545406,1807
2019.8738100588666,1757
2021.8075307867502,1714
2023.740783507431,1730
2025.6735684902228,1702
2027.6058860045214,1787
2029.5377363198004,1768
2031.4691197056118,1760
2033.4000364315875,1745
2035.3304867674374,1747
2037.260470982952,1764
2039.189989347998,1785
2041.1190421325232,1737
2043.047629606554,1686
2044.9757520401945,1736
2046.9034097036288,1769
2048.8306028671195,1799
2050.7573318010086,1762
2052.683596775716,1803
2054.609398061742,1743
2056.5347359296647,1835
2058.4596106501403,1794
2060.384022493906,1707
2062.3079717317764,1747
2064.231458634646,1840
2066.1544834734873,1824
2068.077046519352,1737
2069.99914804337,1781
2071.9207883167524,1821
2073.8419676107865,1814
2075.7626861968406,1833
2077.6829443463607,1792
2079.6027423308715,1783
2081.522080421977,1750
2083.440958891362,1759
2085.359378010786,1721
2087.2773380520907,1793
2089.194839287196,1789
2091.111881988101,1767
2093.0284664268825,1751
2094.9445928756973,1853
2096.86026160678,1750
2098.775472892446,1805
2100.690227005088,1766
2102.604524217178,1792
2104.5183648012676,1793
2106.431749029985,1816
2108.34467717604,1805
2110.2571495122206,1880
2112.169166311393,1828
2114.080727846503,1843
2115.9918343905747,1791
2117.902486216711,1791
2119.8126835980956,1746
2121.722426807987,1795
2123.6317161197285,1878
2125.5405518067364,1834
2127.448934142509,1812
2129.356863400624,1785
2131.264339854737,1814
2133.1713637785815,1825
2135.077935445972,1864
2136.9840551308002,1720
2138.889723107037,1767
2140.7949396487334,1758
2142.699705030018,1817
2144.6040195250994,1902
2146.507883408264,1856
2148.4112969538774,1835
2150.3142604363848,1794
2152.2167741303097,1825
2154.1188383102535,1854
2156.0204532508997,1805
2157.9216192270064,1858
2159.822336513414,1791
2161.7226053850413,1879
2163.622426116884,1844
2165.5217989840185,1878
2167.4207242616,1875
2169.319202224862,1809
2171.2172331491165,1773
2173.1148173097563,1816
2175.0119549822507,1833
2176.90864644215,1846
2178.8048919650823,1803
2180.7006918267534,1849
2182.596046302952,1897
2184.4909556695407,1842
2186.3854202024645,1981
2188.279440177746,1828
2190.173015871487,1849
2192.066147559868,1830
2193.958835519149,1809
2195.851080025667,1908
2197.7428813558417,1887
2199.6342397861667,1825
2201.5251555932186,1867
2203.415629053651,1882
2205.3056604441986,1846
2207.19525004167,1858
2209.084398122958,1883
2210.9731049650327,1821
2212.861370844941,1833
2214.749196039812,1951
2216.636580826851,1856
2218.523525483344,1910
2220.410030286655,1889
2222.296095514226,1854
2224.1817214435805,1918
2226.066908352319,1835
2227.951656518121,1839
2229.835966218746,1889
2231.71983773203,1866
2233.6032713358913,1830
2235.486267308324,1944
2237.3688259274036,1940
2239.2509474712824,1957
2241.132632218193,1878
2243.013880446447,1947
2244.8946924344323,1933
2246.7750684606203,1930
2248.6550088035574,1804
2250.534513741871,1848
2252.413583554265,1881
2254.292218519526,1916
2256.170418916517,1950
2258.0481850241786,1890
2259.925517121534,1900
2261.8024154876825,1926
2263.678880401803,1924
2265.5549121431536,1942
2267.430510991071,1905
2269.305677224971,1865
2271.180411124348,1879
2273.0547129687766,1896
2274.9285830379076,1848
2276.8020216114737,1877
2278.6750289692845,1901
2280.5476053912294,1914
2282.4197511572766,1919
2284.2914665474727,1904
2286.162751841943,1969
2288.0336073208937,1886
2289.904033264608,1875
2291.774029953448,1908
2293.6435976678554,1934
2295.5127366883517,1893
2297.381447295534,1898
2299.2497297700825,1901
2301.1175843927526,1870
2302.9850114443825,1837
2304.852011205885,1814
2306.7185839582553,1843
2308.5847299825664,1837
2310.4504495599676,1793
2312.3157429716925,1812
2314.1806104990483,1887
2316.0450524234247,1791
2317.9090690262888,1783
2319.772660589186,1727
2321.635827393742,1771
2323.498569721661,1878
2325.3608878547248,1828
2327.2227820747967,1823
2329.0842526638157,1786
2330.945299903803,1757
2332.805924076857,1724
2334.6661254651535,1845
2336.525904350951,1824
2338.3852610165827,1817
2340.244195744464,1743
2342.102708817088,1800
2343.9608005170253,1796
2345.8184711269287,1738
2347.675720929526,1808
2349.532550207628,1804
2351.38895924412,1768
2353.24494832197,1845
2355.100517724223,1781
2356.955667734004,1809
2358.810398634514,1842
2360.664710709037,1852
2362.5186042409337,1871
2364.3720795136437,1830
2366.225136810686,1855
2368.0777764156583,1793
2369.929998612237,1908
2371.7818036841777,1798
2373.633191915315,1830
2375.484163589562,1798
2377.3347189909114,1831
2379.184858403434,1770
2381.03458211128,1814
2382.8838903986775,1831
2384.732783549936,1877
2386.5812618494406,1803
2388.4293255816588,1807
2390.2769750311327,1799
2392.1242104824883,1857
2393.971032220427,1813
2395.8174405297295,1832
2397.6634356952563,1782
2399.509018001947,1795
2401.3541877348193,1825
2403.1989451789705,1813
2405.043290619576,1800
2406.8872243418905,1875
2408.730746631247,1845
2410.5738577730594,1844
2412.4165580528183,1800
2414.258847756095,1895
2416.100727168537,1876
2417.9421965758734,1831
2419.783256263912,1797
2421.623906518538,1846
2423.4641476257157,1822
2425.303979871491,1836
2427.143403541984,1800
2428.9824189233977,1870
2430.821026302012,1829
2432.6592259641866,1908
2434.497018196361,1832
2436.33440328505,1886
2438.171381516851,1815
2440.00795317844,1880
2441.844118556569,1843
2443.6798779380724,1858
2445.5152316098606,1853
2447.3501798589255,1802
2449.1847229723357,1839
2451.0188612372403,1818
2452.8525949408663,1924
2454.6859243705203,1849
2456.518849813587,1803
2458.3513715575314,1819
2460.183489889895,1817
2462.015205098301,1879
2463.8465174704493,1843
2465.67742729412,1867
2467.5079348571717,1841
2469.338040447542,1881
2471.1677443532476,1847
2472.9970468623833,1907
2474.825948263123,1815
2476.6544488437207,1828
2478.482548892508,1833
2480.310248697896,1862
2482.137548548374,1840
2483.9644487325118,1856
2485.790949538956,1898
2487.617051256433,1818
2489.44275417375,1836
2491.26805857979,1869
2493.0929647635157,1867
2494.917473013971,1897
2496.741583620276,1867
2498.5652968716304,1876
2500.3886130573137,1923
2502.2115324666834,1843
2504.0340553891765,1871
2505.856182114308,1880
2507.6779129316733,1831
2509.499248130945,1876
2511.3201880018764,1834
2513.140732834298,1865
2514.9608829181198,1888
2516.780638543331,1920
2518.6,1880
2520.418967578273,1853
2522.237541568376,1867
2524.0557222606144,1897
2525.8735099453706,1888
2527.6909049131086,1951
2529.507907454368,1910
2531.32451785977,1874
2533.140736420014,1924
2534.9565634258774,1897
2536.771999168218,1948
2538.5870439379714,1997
2540.4016980261526,1968
2542.2159617238544,1963
2544.02983532225,1905
2545.8433191125914,1937
2547.656413386209,1985
2549.4691184345115,2034
2551.2814345489874,2025
2553.093362021204,2010
2554.904901142808,1978
2556.716052205523,2069
2558.526815501153,1959
2560.3371913215824,2032
2562.147179958771,2020
2563.956781704761,2037
2565.7659968516705,1977
2567.5748256916986,2051
2569.3832685171224,1983
2571.1913256202984,2037
2572.9989972936614,2019
2574.806283829725,2010
2576.613185521084,2029
2578.4197026604074,2060
2580.2258355404483,1997
2582.031584454035,2042
2583.836949694077,1991
2585.6419315535613,2007
2587.4465303255533,2023
2589.2507463032002,2077
2591.0545797797245,2045
2592.8580310484303,2093
2594.6611004026995,2051
2596.463788135992,2035
2598.266094541849,2080
2600.0680199138874,2059
2601.869564545807,2055
2603.670728731383,2017
2605.4715127644704,2011
2607.2719169390048,1962
2609.071941548998,1970
2610.8715868885433,2029
2612.670853251811,2035
2614.469740933052,2120
2616.268250226594,2077
2618.0663814268455,2099
2619.864134828292,2107
2621.6615107255006,1980
2623.458509413115,2015
2625.2551311858597,1954
2627.0513763385347,2044
2628.8472451660223,1985
2630.6427379632833,1971
2632.4378550253564,1984
2634.232596647359,2018
2636.026963124488,2013
2637.8209547520187,2009
2639.6145718253065,1983
2641.407814639785,2008
2643.200683490966,2024
2644.9931786744414,1991
2646.7853004858807,1955
2648.577049221034,2003
2650.3684251757277,1938
2652.1594286458712,1964
2653.9500599274484,1919
2655.740319316525,1924
2657.5302071092437,1956
2659.3197236018286,1942
2661.10886909058,1963
2662.8976438718782,1922
2664.686048242183,1940
2666.4740824980327,1890
2668.2617469360443,1879
2670.0490418529134,1801
2671.8359675454153,1866
2673.622524310403,1920
2675.408712444811,1874
2677.1945322456495,1878
2678.979984010009,1924
2680.76506803506,1884
2682.5497846180497,1865
2684.334134056306,1927
2686.1181166472343,1854
2687.9017326883213,1877
2689.6849824771293,1885
2691.4678663113013,1852
2693.2503844885596,1884
2695.032537306705,1838
2696.8143250636167,1819
2698.5957480572542,1806
2700.3768065856534,1744
2702.1575009469316,1833
2703.937831439283,1782
2705.717798360982,1829
2707.4974020103837,1829
2709.276642685917,1838
2711.055520686095,1779
2712.834036309506,1762
2714.612189854819,1792
2716.389981620782,1823
2718.1674119062204,1824
2719.944481010041,1789
2721.721189231226,1809
2723.4975368688415,1730
2725.273524222027,1733
2727.0491515900053,1742
2728.824419272075,1820
2730.5993275676146,1765
2732.3738767760838,1767
2734.148067197016,1795
2735.921899130031,1788
2737.6953728748194,1853
2739.468488731156,1774
2741.2412469988926,1689
2743.0136479779617,1695
2744.785691968372,1768
2746.5573792702116,1745
2748.3287101836504,1780
2750.099685008934,1753
2751.870304046388,1776
2753.640567596418,1736
2755.4104759595057,1771
2757.1800294362156,1705
2758.949228327187,1769
2760.7180729331412,1753
2762.486563554877,1723
2764.254700493272,1681
2766.022484049284,1736
2767.789914523947,1730
2769.5569922183786,1687
2771.3237174337705,1727
2773.090090471394,1710
2774.8561116326036,1779
2776.6217812188274,1746
2778.3870995315756,1746
2780.1520668724356,1695
2781.9166835430747,1704
2783.6809498452394,1709
2785.444866080754,1754
2787.2084325515225,1694
2788.971649559527,1758
2790.73451740683,1758
2792.4970363955713,1692
2794.2592068279705,1716
2796.0210290063264,1687
2797.7825032330147,1670
2799.543629810493,1669
2801.304409041296,1796
2803.0648412280366,1697
2804.8249266734088,1791
2806.5846656801846,1688
2808.344058551212,1695
2810.1031055894246,1692
2811.8618070978273,1697
2813.6201633795085,1747
2815.378174737636,1770
2817.1358414754536,1773
2818.893163896285,1710
2820.6501423035334,1718
2822.4067770006814,1741
2824.1630682912883,1708
2825.9190164789957,1692
2827.6746218675207,1710
2829.429884760661,1759
2831.184805462294,1779
2832.9393842763743,1710
2834.693621506936,1750
2836.4475174580916,1737
2838.201072434034,1694
2839.954286739034,1693
2841.707160677441,1710
2843.459694553685,1727
2845.2118886722724,1753
2846.96374333779,1743
2848.7152588549034,1763
2850.4664355283567,1746
2852.217273662973,1720
2853.9677735636546,1661
2855.7179355353833,1709
2857.4677598832186,1730
2859.217246912299,1728
2860.9663969278427,1659
2862.715210235146,1671
2864.4636871395846,1727
2866.211827946614,1708
2867.9596329617652,1788
2869.7071024906536,1678
2871.4542368389684,1735
2873.20103631248,1737
2874.947501217038,1714
2876.6936318585695,1684
2878.4394285430812,1686
2880.1848915766604,1698
2881.9300212654707,1776
2883.6748179157553,1721
2885.4192818338374,1674
2887.1634133261173,1647
2888.907212699077,1678
2890.6506802592744,1702
2892.393816313348,1696
2894.1366211680142,1633
2895.8790951300693,1718
2897.621238506388,1697
2899.363051603925,1651
2901.1045347297118,1669
2902.8456881908596,1740
2904.58651229456,1673
2906.327007348081,1677
2908.067173658772,1700
2909.8070115340597,1635
2911.5465212814497,1697
2913.285703208527,1651
2915.0245576229563,1689
2916.7630848324807,1623
2918.5012851449196,1674
2920.2391588681758,1695
2921.976706310227,1619
2923.7139277791334,1650
2925.4508235830313,1645
2927.187394030137,1654
2928.923639428745,1700
2930.6595600872306,1709
2932.395156314046,1708
2934.1304284177218,1632
2935.8653767068713,1691
2937.6000014901815,1600
2939.3343030764227,1671
2941.068281774442,1679
2942.8019378931644,1705
2944.5352717415976,1702
2946.2682836288236,1668
2948.0009738640065,1727
2949.7333427563885,1655
2951.465390615289,1681
2953.1971177501086,1707
2954.9285244703265,1676
2956.6596110855,1690
2958.3903779052657,1686
2960.1208252393385,1649
2961.8509533975125,1606
2963.5807626896617,1687
2965.3102534257378,1635
2967.0394259157715,1625
2968.768280469873,1665
2970.496817398232,1654
2972.2250370111146,1634
2973.952939618869,1689
2975.6805255319196,1675
2977.4077950607707,1659
2979.134748516006,1625
2980.861386208289,1691
2982.587708448359,1748
2984.313715547037,1605
2986.039407815222,1640
2987.764785563891,1583
2989.489849104102,1723
2991.2145987469908,1675
2992.9390348037705,1635
2994.6631575857346,1618
2996.3869674042576,1640
2998.1104645707887,1587
2999.83364939686,1634
3001.5565221940783,1668
3003.2790832741334,1574
3005.0013329487924,1593
3006.7232715298996,1647
3008.4448993293804,1607
3010.166216659239,1553
3011.887223831558,1573
3013.607921158498,1567
3015.3283089522993,1680
3017.0483875252826,1664
3018.7681571898443,1653
3020.4876182584626,1597
3022.2067710436927,1643
3023.9256158581707,1662
3025.644153014609,1641
3027.362382825801,1607
3029.0803056046193,1649
3030.797921664012,1609
3032.5152313170106,1617
3034.2322348767225,1638
3035.9489326563353,1546
3037.665324969115,1618
3039.3814121284063,1641
3041.097194447633,1608
3042.812672240299,1551
3044.5278458199855,1582
3046.2427155003525,1576
3047.9572815951406,1620
3049.671544418167,1640
3051.38550428333,1628
3053.0991615046073,1647
3054.812516396051,1614
3056.5255692717974,1573
3058.2383204460575,1630
3059.9507702331257,1611
3061.662918947372,1620
3063.3747669032446,1604
3065.0863144152736,1647
3066.7975617980674,1589
3068.508509366309,1535
3070.219157434767,1663
3071.9295063182844,1567
3073.639556331785,1564
3075.3493077902704,1562
3077.058761008821,1628
3078.7679163025964,1625
3080.476773986837,1597
3082.1853343768594,1594
3083.89359778806,1595
3085.6015645359153,1590
3087.3092349359786,1657
3089.016609303884,1629
3090.7236879553434,1600
3092.4304712061476,1567
3094.136959372166,1553
3095.843152769349,1508
3097.5490517137237,1624
3099.2546565213966,1588
3100.959967508554,1539
3102.66498499146,1601
3104.3697092864577,1657
3106.0741407099695,1683
3107.778279578498,1594
3109.482126208622,1539
3111.1856809170004,1593
3112.8889440203716,1652
3114.5919158355528,1640
3116.294596679439,1565
3117.996986869006,1613
3119.6990867213062,1568
3121.4008965534726,1556
3123.102416682717,1584
3124.803647426329,1659
3126.5045891016784,1601
3128.205242026213,1604
3129.90560651746,1573
3131.605682893025,1596
3133.3054714705922,1565
3135.0049725679282,1586
3136.7041865028714,1601
3138.4031135933465,1702
3140.101754157353,1609
3141.800108512971,1614
3143.498176978357,1574
3145.1959598717494,1583
3146.8934575114636,1537
3148.5906702158954,1532
3150.2875983035183,1522
3151.9842420928853,1510
3153.680601902627,1583
3155.376678051456,1581
3157.07247085816,1604
3158.767980641609,1580
3160.463207720748,1580
3162.158152414606,1514
3163.8528150422862,1536
3165.5471959229726,1600
3167.2412953759303,1586
3168.9351137204976,1538
3170.628651276098,1537
3172.3219083622307,1508
3174.014885298474,1566
3175.707582404485,1580
3177.4000000000005,1542
3179.092138404835,1600
3180.7839979388846,1540
3182.47557892212,1582
3184.166881674594,1552
3185.8579065164386,1532
3187.5486537678626,1467
3189.2391237491547,1551
3190.9293167806827,1500
3192.6192331828934,1593
3194.3088732763117,1513
3195.998237381542,1560
3197.687325819268,1483
3199.376138910251,1572
3201.064676975334,1516
3202.7529403354347,1516
3204.4409293115523,1549
3206.1286442247647,1509
3207.816085396229,1484
3209.5032531471825,1488
3211.190147798936,1518
3212.8767696728846,1481
3214.5631190905015,1525
3216.2491963733373,1523
3217.9350018430214,1555
3219.6205358212637,1437
3221.305798629851,1477
3222.990790590651,1527
3224.6755120256103,1536
3226.359963256751,1512
3228.0441446061795,1532
3229.7280563960758,1555
3231.411698948703,1524
3233.0950725863995,1515
3234.778177631587,1508
3236.461014406761,1518
3238.1435832345005,1570
3239.8258844374595,1480
3241.507918338374,1540
3243.1896852600576,1516
3244.8711855254023,1538
3246.552419457381,1456
3248.233387379042,1500
3249.914089613516,1524
3251.59452648401,1567
3253.274698313813,1555
3254.95460542629,1513
3256.6342481448855,1496
3258.313626793125,1453
3259.9927416946084,1446
3261.6715931730196,1455
3263.3501815521176,1452
3265.0285071557437,1507
3266.706570307815,1517
3268.3843713323286,1433
3270.0619105533615,1455
3271.739188295068,1503
3273.4162048816834,1515
3275.0929606375184,1531
3276.769455886966,1506
3278.445690954498,1529
3280.1216661646613,1506
3281.797381842087,1509
3283.4728383114807,1465
3285.1480358976296,1562
3286.8229749253996,1490
3288.4976557197333,1453
3290.172078605655,1543
3291.846243908266,1518
3293.5201519527463,1469
3295.193803064357,1461
3296.8671975684374,1479
3298.5403357904024,1442
3300.21321805575,1496
3301.8858446900567,1512
3303.558216018975,1510
3305.23033236824,1477
3306.9021940636603,1497
3308.57380143113,1468
3310.2451547966184,1472
3311.916254486174,1526
3313.5871008259246,1550
3315.2576941420766,1479
3316.9280347609147,1524
3318.5981230088046,1502
3320.2679592121895,1441
3321.9375436975924,1480
3323.606876791612,1428
3325.27595882093,1533
3326.944790112305,1445
3328.6133709925753,1474
3330.2817017886573,1452
3331.949782827547,1485
3333.617614436319,1423
3335.2851969421245,1526
3336.952530672199,1510
3338.619615953853,1491
3340.286453114475,1510
3341.9530424815357,1499
3343.619384382583,1484
3345.2854791452437,1493
3346.951327097224,1489
3348.6169285663073,1489
3350.2822838803577,1525
3351.947393367319,1458
3353.61225735521,1546
3355.2768761721345,1505
3356.9412501462693,1484
3358.605379605873,1447
3360.2692648792827,1453
3361.9329062949146,1482
3363.596304181263,1498
