CollectionTime,9/25/2024 11:19:13 AM
ExposureUsed,3
CalibratedSpectrum
-962.7078968117929,450
-959.9714848408522,483
-957.2358232597828,496
-954.5009119013725,537
-951.7667505983302,560
-949.0333391832855,531
-946.3006774887896,524
-943.5687653473143,538
-940.837602591253,505
-938.1071890529199,531
-935.3775245645503,521
-932.6486089583007,506
-929.9204420662485,523
-927.1930237203925,552
-924.4663537526524,550
-921.7404319948689,539
-919.0152582788041,521
-916.2908324361409,543
-913.5671542984834,534
-910.8442236973568,519
-908.1220404642074,537
-905.4006044304027,562
-902.679915427231,529
-899.959973285902,524
-897.2407778375464,526
-894.5223289132158,551
-891.8046263438832,516
-889.0876699604426,519
-886.3714595937089,525
-883.6559950744183,518
-880.9412762332282,533
-878.2273029007168,531
-875.5140749073835,510
-872.8015920836489,519
-870.0898542598545,500
-867.3788612662631,492
-864.6686129330585,532
-861.9591090903457,539
-859.2503495681506,522
-856.5423341964203,496
-853.8350628050229,484
-851.1285352237478,498
-848.4227512823054,509
-845.7177108103272,508
-843.0134136373656,514
-840.3098595928943,518
-837.6070485063082,545
-834.9049802069229,549
-832.2036545239757,535
-829.5030712866244,527
-826.8032303239481,525
-824.1041314649472,503
-821.4057745385428,493
-818.7081593735775,519
-816.0112857988148,521
-813.3151536429393,506
-810.6197627345566,524
-807.9251129021936,495
-805.2312039742981,516
-802.5380357792392,517
-799.8456081453069,542
-797.1539209007124,551
-794.462973873588,525
-791.772766891987,516
-789.083299783884,547
-786.3945723771743,572
-783.7065844996748,536
-781.0193359791231,529
-778.3328266431781,521
-775.6470563194197,515
-772.9620248353489,504
-770.2777320183878,522
-767.5941776958798,514
-764.9113616950891,530
-762.2292838432011,513
-759.5479439673222,519
-756.8673418944801,533
-754.1874774516235,569
-751.5083504656222,550
-748.8299607632671,537
-746.15230817127,530
-743.475392516264,540
-740.7992136248035,538
-738.1237713233636,563
-735.4490654383407,570
-732.7750957960521,563
-730.1018622227365,529
-727.4293645445534,556
-724.7576025875837,573
-722.0865761778291,532
-719.4162851412126,558
-716.7467293035781,572
-714.0779084906909,569
-711.409822528237,585
-708.7424712418238,567
-706.0758544569796,558
-703.4099719991541,566
-700.7448236937178,558
-698.0804093659622,539
-695.4167288411002,577
-692.7537819442656,586
-690.0915685005134,572
-687.4300883348199,549
-684.7693412720819,584
-682.1093271371178,587
-679.4500457546669,573
-676.7914969493897,592
-674.1336805458676,563
-671.4765963686034,574
-668.8202442420206,588
-666.1646239904642,567
-663.5097354382001,568
-660.8555784094151,598
-658.2021527282176,572
-655.5494582186366,582
-652.8974947046223,561
-650.2462620100463,602
-647.5957599587009,580
-644.9459883742998,633
-642.2969470804776,642
-639.6486359007902,603
-637.0010546587141,600
-634.3542031776476,600
-631.7080812809096,623
-629.0626887917401,598
-626.4180255333008,606
-623.7740913286734,623
-621.1308860008619,655
-618.4884093727904,666
-615.8466612673046,624
-613.2056415071715,589
-610.5653499150785,605
-607.9257863136347,599
-605.28695052537,628
-602.6488423727357,627
-600.0114616781036,603
-597.3748082637674,666
-594.7388819519412,682
-592.1036825647604,651
-589.4692099242818,618
-586.8354638524829,629
-584.2024441712624,621
-581.5701507024403,665
-578.9385832677575,686
-576.3077416888759,661
-573.6776257873787,642
-571.0482353847704,649
-568.4195703024757,647
-565.7916303618415,641
-563.164415384135,644
-560.5379251905453,629
-557.9121596021815,644
-555.2871184400748,618
-552.6628015251767,629
-550.0392086783606,675
-547.4163397204204,684
-544.794194472071,698
-542.1727727539491,685
-539.5520743866118,669
-536.9320991905377,680
-534.3128469861261,703
-531.6943175936979,724
-529.0765108334947,742
-526.4594265256793,803
-523.8430644903358,900
-521.2274245474689,1053
-518.612506517005,1096
-515.9983102187913,1174
-513.3848354725959,1268
-510.77208209810846,1364
-508.16004991493924,1555
-505.5487387426199,1624
-502.9381484006032,1616
-500.3282787082628,1571
-497.71912948489364,1474
-495.1107005497117,1277
-492.5029917218539,1049
-489.8960028203786,993
-487.28973366426493,876
-484.68418407241325,829
-482.07935386364494,816
-479.47524285670266,797
-476.87185087025,814
-474.2691777228715,802
-471.66722323307334,855
-469.0659872192821,787
-466.4654694998459,828
-463.86566989303384,852
-461.26658821703614,805
-458.66822428996414,810
-456.07057792985,795
-453.4736489546475,862
-450.877437182231,823
-448.28194243039627,789
-445.68716451686,757
-443.09310325926003,755
-440.49975847515555,725
-437.9071299820263,772
-435.31521759727354,798
-432.72402113821954,818
-430.13354042210767,877
-427.5437752661022,848
-424.95472548728867,831
-422.36639090267386,824
-419.7787713291855,860
-417.1918665836721,864
-414.60567648290385,856
-412.0202008435715,858
-409.4354394822874,819
-406.8513922155845,870
-404.26805885991723,928
-401.685439231661,852
-399.103533147112,829
-396.522340422488,828
-393.9418608739278,827
-391.3620943174908,796
-388.7830405691583,821
-386.2046994448317,825
-383.6270707603344,798
-381.05015433141045,720
-378.473949973725,720
-375.8984575028645,654
-373.32367673433623,638
-370.74960748356875,626
-368.1762495659117,625
-365.60360279663576,567
-363.03166699093265,562
-360.4604419639154,547
-357.8899275306178,503
-355.32012350599507,506
-352.7510297049233,486
-350.1826459421999,500
-347.61497203254316,470
-345.04800779059235,452
-342.4817530309082,454
-339.91620756797226,472
-337.35137121618743,480
-334.7872437898774,513
-332.22382510328725,494
-329.66111497058273,541
-327.09911320585127,602
-324.53781962310075,540
-321.9772340362607,477
-319.4173562591816,500
-316.8581861056348,500
-314.2997233893127,501
-311.7419679238294,533
-309.1849195227194,545
-306.62857799943856,529
-304.0729431673641,515
-301.51801483979375,521
-298.963792829947,545
-296.41027695096386,537
-293.85746701590574,570
-291.3053628377552,598
-288.7539642294155,572
-286.2032710037115,563
-283.65328297338897,610
-281.1039999511146,590
-278.5554217494762,630
-276.007548180983,660
-273.4603790580651,669
-270.9139141930734,639
-268.3681533982807,706
-265.8230964858798,636
-263.27874326798565,586
-260.7350935566336,590
-258.1921471637804,681
-255.6499039013039,702
-253.10836358100266,777
-250.56752601459698,691
-248.02739101372765,634
-245.48795838995704,720
-242.94922795476816,734
-240.41119951956557,733
-237.8738728956746,763
-235.33724789434166,750
-232.80132432673452,726
-230.2661020039418,691
-227.73158073697357,696
-225.19776033676033,745
-222.66464061415422,785
-220.1322213799284,804
-217.60050244477725,791
-215.06948361931552,733
-212.53916471408013,781
-210.00954553952818,869
-207.48062590603843,755
-204.9524056239104,688
-202.4248845033651,781
-199.8980623545441,813
-197.37193898751036,864
-194.84651421224817,872
-192.32178783866232,844
-189.79775967657952,910
-187.27442953574644,930
-184.7517972258321,879
-182.2298625564256,805
-179.7086253370378,802
-177.18808537710026,983
-174.66824248596583,1155
-172.14909647290835,1094
-169.6306471471229,997
-167.11289431772548,848
-164.59583779375328,818
-162.07947738416453,915
-159.5638128978386,1060
-157.04884414357605,1173
-154.53457093009854,1274
-152.02099306604828,1161
-149.50811035998936,985
-146.99592262040665,999
-144.48442965570587,1097
-141.97363127421409,1162
-139.46352728417958,1313
-136.95411749377126,1430
-134.44540171107985,1255
-131.93737974411636,1213
-129.43005140081357,1148
-126.92341648902493,1438
-124.41747481652521,1785
-121.91222619101006,2199
-119.40767042009657,2659
-116.90380731132257,3184
-114.40063667214702,3178
-111.8981583099503,2824
-109.3963720320337,2823
-106.89527764561933,3211
-104.39487495785067,3316
-101.89516377579241,3655
-99.39614390642998,5028
-96.89781515667039,8023
-94.40017733334128,8756
-91.90323024319173,7429
-89.40697369289148,6250
-86.91140748903172,5253
-84.41653143812482,4289
-81.92234534660395,4233
-79.42884902082358,5117
-76.93604226705907,6163
-74.4439248915071,6388
-71.95249670028534,6888
-69.46175749943245,8678
-66.97170709490854,11060
-64.48234529259423,14081
-61.99367189829195,17122
-59.50568671772464,19160
-57.01838955653636,20800
-54.53178022029283,21827
-52.045858514480074,23406
-49.560624244506016,24597
-47.07607721569923,21770
-44.59221723330904,14834
-42.10904410250669,12867
-39.62655762838392,13899
-37.14475761595372,16294
-34.66364387015028,20354
-32.18321619582866,25108
-29.70347439776515,27207
-27.224418280657005,25900
-24.74604764912317,28587
-22.26836230770266,42757
-19.7913620608565,65041
-17.315046712966478,65041
-14.83941606833514,65041
-12.36446993118659,65041
-9.89020810566592,65041
-7.416630395839093,65041
-4.94373660569363,65041
-2.471526539137585,65041
-6.821210263296962E-13,65041
2.47084320796705,65041
4.941003281093458,65041
7.410480415786196,65041
9.879274808531363,65041
12.347386655893956,65041
14.814816154518212,65041
17.28156350112681,65041
19.74762889252179,65041
22.21301252558385,22201
24.67771459727237,5309
27.141735304626195,3784
29.605074844762612,3880
32.06773341487792,3434
34.52971121224755,3108
36.99100843422559,3225
39.45162527824516,3850
41.91156194181792,3808
44.370818622535126,2763
46.82939551806646,2416
49.287292826160524,2617
51.74451074464503,2576
54.201049471426245,2569
56.65690920448981,2666
59.112090141899785,2780
61.56659248179983,3161
64.02041642241159,2478
66.4735621620365,1985
68.92602989905402,2027
71.37781983192338,2221
73.82893215918205,1890
76.27936707944684,1760
78.72912479141326,1866
81.17820549385567,1810
83.62660938562783,1545
86.07433666566146,1353
88.5213875329681,1769
90.96776218663751,1630
93.41346082583925,1559
95.85848364982041,1458
98.30283085790859,1455
100.7465026495089,1384
103.18949922410604,1334
105.63182078126385,1466
108.07346752062438,1566
110.51443964190923,1441
112.95473734491827,1354
115.39436082953114,1142
117.83331029570547,1310
120.27158594347827,1338
122.7091879729652,1437
125.1461165843615,1465
127.58237197794062,1230
130.01795435405518,1110
132.4528639131364,978
134.88710085569494,1118
137.32066538231982,1370
139.75355769367923,1142
142.1857779905207,1033
144.61732647366978,1125
147.04820334403132,1159
149.47840880258934,1135
151.90794305040674,1148
154.33680628862487,1104
156.76499871846443,1174
159.19252054122433,1277
161.61937195828352,1398
164.04555317109896,1457
166.47106438120693,1521
168.89590579022217,1640
171.320077599839,1787
173.7435800118302,1772
176.16641322804742,1891
178.58857745042144,1969
181.01007288096173,1983
183.43089972175687,2053
185.85105817497413,2063
188.27054844285988,2063
190.6893707277394,2121
193.10752523201643,2082
195.5250121581745,1986
197.9418317087751,2066
200.3579840864594,2116
202.7734694939469,2103
205.18828813403627,2134
207.6024402096051,2267
210.01592592360964,2214
212.42874547908548,2212
214.84089907914665,2167
217.2523869269868,2076
219.66320922587727,2139
222.0733661791695,2239
224.48285799029293,2218
226.8916848627572,2218
229.29984700014882,2217
231.7073446061355,2290
234.11417788446204,2321
236.520347038953,2265
238.92585227351185,2271
241.33069379212054,2224
243.73487179884035,2266
246.1383864978112,2357
248.541238093252,2308
250.9434267894609,2333
253.34495279081432,2410
255.74581630176783,2351
258.1460175268563,2375
260.54555667069314,2447
262.9444339379703,2384
265.3426495334594,2472
267.7402036620107,2464
270.1370965285529,2335
272.53332833809407,2358
274.9288992957214,2271
277.32380960660055,2192
279.718059475976,2145
282.1116491091717,2171
284.5045787115897,2083
286.89684848871195,2079
289.2884586460981,2211
291.67940938938807,2169
294.0697009242996,2118
296.4593334566299,2239
298.84830719225477,2288
301.23662233712923,2206
303.6242790972866,2161
306.01127767884,2173
308.39761828798066,2101
310.78330113097934,2014
313.16832641418534,1992
315.5526943440269,1933
317.9364051270112,1887
320.3194589697242,1921
322.70185607883093,1950
325.0835966610754,1842
327.4646809232805,1887
329.8451090723478,1902
332.2248813152577,1920
334.6039978590701,1901
336.9824589109231,1927
339.36026467803447,1823
341.7374153677,1856
344.113911187295,1809
346.48975234427337,1805
348.8649390461686,1825
351.2394715005918,1791
353.61334991523415,1829
355.9865744978655,1768
358.35914545633375,1772
360.73106299856715,1783
363.10232733257146,1765
365.47293866643247,1731
367.84289720831396,1698
370.2122031664593,1731
372.5808567491905,1711
374.9488581649083,1686
377.31620762209275,1705
379.6829053293021,1693
382.0489514951745,1682
384.4143463284262,1711
386.7790900378528,1718
389.14318283232853,1656
391.50662492080653,1733
393.86941651231916,1751
396.23155781597745,1732
398.5930490409713,1786
400.9538903965696,1735
403.3140820921202,1678
405.6736243370498,1663
408.03251734086336,1708
410.3907613131465,1707
412.74835646356166,1655
415.10530300185144,1634
417.4616011378372,1636
419.81725108141893,1652
422.1722530425758,1661
424.5266072313656,1658
426.880313857925,1573
429.2333731324701,1645
431.58578526529516,1613
433.9375504667738,1604
436.2886689473588,1610
438.63914091758113,1624
440.9889665880513,1631
443.33814616945835,1621
445.68667987257015,1534
448.03456790823395,1565
450.3818104873759,1625
452.72840782100013,1608
455.07436012019105,1572
457.41966759611057,1522
459.7643304600007,1592
462.10834892318155,1558
464.4517231970525,1543
466.79445349309174,1518
469.1365400228566,1573
471.4779829979826,1578
473.81878263018564,1610
476.15893913125876,1622
478.4984527130747,1630
480.8373235875855,1655
483.17555196682144,1755
485.5131380628919,1743
487.8500820879857,1830
490.1863842543697,1836
492.52204477439034,1924
494.8570638604725,2029
497.1914417251204,2263
499.52517858091653,2549
501.85827464052306,3006
504.19073011668036,3358
506.5225452222086,3550
508.85372017000566,3604
511.18425517304956,3538
513.514150444396,3758
515.8434061971808,4496
518.1720226446176,5140
520.4999999999999,4997
522.8273384766991,4818
525.1540382881666,4365
527.480099647932,3950
529.8055227696037,3258
532.1303078668694,2312
534.454455153496,1946
536.777964843328,1750
539.1008371502907,1709
541.4230722883866,1673
543.744670471698,1672
546.0656319143858,1581
548.3859568306899,1644
550.7056454349294,1573
553.0246979415016,1567
555.3431145648834,1568
557.6608955196306,1548
559.978041020377,1597
562.2945512818363,1673
564.6104265188006,1622
566.9256669461412,1609
569.2402727788082,1609
571.5542442318302,1572
573.8675815203156,1624
576.1802848594508,1620
578.4923544645015,1635
580.8037905508126,1692
583.114593333807,1611
585.4247630289875,1634
587.7342998519354,1622
590.0432040183106,1612
592.3514757438526,1653
594.6591152443794,1595
596.9661227357875,1566
599.2724984340531,1606
601.578242555231,1596
603.8833553154542,1631
606.1878369309362,1593
608.4916876179676,1608
610.7949075929192,1561
613.0974970722403,1585
615.3994562724587,1607
617.7007854101818,1617
620.0014847020951,1616
622.3015543649641,1572
624.6009946156324,1567
626.8998056710224,1586
629.1979877481361,1644
631.4955410640538,1562
633.7924658359349,1544
636.0887622810175,1612
638.3844306166192,1648
640.6794710601358,1597
642.9738838290426,1645
645.2676691408932,1656
647.5608272133207,1676
649.853358264037,1653
652.1452625108324,1668
654.4365401715764,1606
656.7271914642178,1672
659.0172166067838,1714
661.3066158173809,1707
663.5953893141935,1711
665.8835373154867,1698
668.1710600396028,1784
670.4579577049639,1711
672.7442305300709,1701
675.0298787335033,1682
677.3149025339197,1658
679.599302150058,1665
681.8830778007342,1644
684.1662297048437,1620
686.4487580813608,1638
688.7306631493387,1687
691.0119451279091,1664
693.2926042362834,1579
695.5726406937516,1706
697.8520547196814,1700
700.1308465335215,1589
702.4090163547982,1663
704.6865644031171,1609
706.9634908981619,1605
709.2397960596965,1574
711.5154801075631,1596
713.7905432616823,1640
716.0649857420548,1684
718.3388077687592,1617
720.612009561953,1676
722.8845913418733,1575
725.1565533288352,1638
727.427895743234,1571
729.6986188055427,1626
731.9687227363137,1605
734.238207756178,1624
736.5070740858458,1699
738.7753219461066,1591
741.0429515578281,1579
743.3099631419569,1619
745.5763569195191,1620
747.8421331116193,1636
750.1072919394409,1584
752.3718336242467,1638
754.6357583873777,1607
756.8990664502545,1618
759.1617580343765,1633
761.423833361321,1669
763.6852926527457,1640
765.9461361303862,1676
768.206364016058,1710
770.4659765316536,1693
772.7249738991469,1737
774.9833563405886,1677
777.2411240781092,1695
779.4982773339183,1594
781.7548163303044,1721
784.010741289634,1695
786.2660524343538,1719
788.5207499869881,1711
790.7748341701416,1713
793.0283052064964,1683
795.2811633188143,1656
797.5334087299362,1674
799.7850416627813,1699
802.0360623403484,1734
804.2864709857143,1703
806.5362678220353,1650
808.7854530725468,1653
811.0340269605625,1751
813.2819897094754,1738
815.5293415427581,1726
817.77608268396,1720
820.0222133567116,1689
822.2677337847211,1704
824.5126441917765,1714
826.7569448017433,1651
829.0006358385675,1697
831.2437175262731,1677
833.4861900889629,1677
835.7280537508192,1639
837.9693087361026,1625
840.2099552691533,1646
842.4499935743896,1640
844.689423876309,1654
846.9282463994886,1664
849.1664613685833,1672
851.4040690083276,1666
853.6410695435349,1689
855.877463199097,1719
858.1132501999847,1700
860.3484307712487,1692
862.5830051380175,1683
864.8169735254988,1596
867.0503361589791,1683
869.2830932638243,1629
871.5152450654786,1637
873.7467917894654,1660
875.9777336613873,1682
878.2080709069252,1722
880.4378037518389,1718
882.666932421968,1714
884.8954571432301,1699
887.1233781416219,1710
889.3506956432192,1767
891.5774098741766,1697
893.803521060728,1794
896.0290294291852,1758
898.2539352059397,1721
900.4782386174619,1707
902.7019398903011,1711
904.925039251085,1676
907.147536926521,1709
909.3694331433943,1680
911.59072812857,1746
913.8114221089921,1742
916.0315153116827,1725
918.2510079637437,1737
920.4699002923547,1723
922.6881925247761,1716
924.905884888345,1746
927.1229776104793,1658
929.3394709186747,1705
931.555365040506,1694
933.7706602036275,1712
935.9853566357709,1751
938.1994545647489,1740
940.4129542184515,1689
942.6258558248488,1681
944.8381596119883,1765
947.0498658079974,1776
949.2609746410825,1717
951.4714863395287,1750
953.6814011316998,1776
955.8907192460387,1739
958.0994409110671,1717
960.3075663553858,1737
962.5150958076741,1689
964.7220294966913,1679
966.928367651274,1712
969.1341105003388,1745
971.3392582728806,1745
973.5438111979742,1630
975.747769504772,1621
977.9511334225061,1676
980.153903180487,1628
982.3560790081052,1628
984.5576611348289,1653
986.7586497902058,1576
988.9590452038618,1574
991.158847605503,1568
993.3580572249133,1565
995.5566742919558,1527
997.7546990365728,1557
999.952131688785,1480
1002.1489724786926,1470
1004.3452216364743,1413
1006.5408793923874,1459
1008.7359459767691,1482
1010.9304216200343,1455
1013.1243065526781,1435
1015.3176010052733,1435
1017.510305208472,1419
1019.7024193930064,1414
1021.8939437896848,1462
1024.0848786293977,1368
1026.2752241431122,1383
1028.4649805618747,1400
1030.6541481168115,1411
1032.842727039127,1405
1035.0307175601051,1393
1037.2181199111074,1351
1039.4049343235752,1382
1041.591161029029,1382
1043.7768002590683,1368
1045.9618522453698,1341
1048.1463172196918,1366
1050.3301954138697,1334
1052.513487059818,1348
1054.69619238953,1360
1056.8783116350783,1326
1059.0598450286152,1278
1061.2407928023704,1330
1063.4211551886528,1310
1065.6009324198508,1330
1067.780124728432,1314
1069.9587323469414,1376
1072.1367555080046,1382
1074.314194444325,1320
1076.4910493886855,1343
1078.667320573947,1314
1080.843008233051,1299
1083.0181125990161,1284
1085.1926339049414,1353
1087.3665723840027,1318
1089.5399282694575,1330
1091.7127017946405,1274
1093.8848931929647,1309
1096.0565026979243,1328
1098.2275305430899,1260
1100.3979769621128,1298
1102.567842188722,1293
1104.737126456726,1278
1106.9058300000124,1284
1109.0739530525475,1249
1111.2414958483764,1287
1113.4084586216231,1325
1115.5748416064907,1253
1117.7406450372605,1235
1119.9058691482942,1283
1122.0705141740304,1304
1124.2345803489884,1253
1126.3980679077658,1286
1128.5609770850388,1256
1130.7233081155623,1290
1132.8850612341707,1290
1135.0462366757774,1303
1137.2068346753745,1282
1139.3668554680326,1256
1141.526299288901,1299
1143.68516637321,1280
1145.8434569562655,1261
1148.001171273455,1255
1150.158309560244,1202
1152.3148720521767,1284
1154.470858984876,1275
1156.626270594044,1247
1158.7811071154629,1319
1160.9353687849912,1288
1163.089055838569,1233
1165.242168512213,1227
1167.3947070420209,1308
1169.5466716641677,1336
1171.6980626149075,1226
1173.8488801305748,1283
1175.9991244475814,1279
1178.1487958024186,1256
1180.2978944316555,1328
1182.4464205719428,1218
1184.5943744600072,1250
1186.7417563326567,1266
1188.8885664267755,1230
1191.0348049793297,1278
1193.1804722273619,1255
1195.325568407995,1260
1197.4700937584303,1239
1199.614048515948,1309
1201.7574329179074,1221
1203.900247201746,1287
1206.042491604982,1233
1208.1841663652099,1280
1210.3252717201053,1232
1212.465807907422,1256
1214.6057751649923,1301
1216.7451737307279,1260
1218.8840038426192,1316
1221.0222657387353,1259
1223.1599596572241,1282
1225.2970858363137,1299
1227.4336445143094,1310
1229.5696359295966,1297
1231.705060320639,1321
1233.8399179259786,1271
1235.9742089842384,1269
1238.107933734118,1279
1240.2410924143974,1321
1242.373685263935,1287
1244.5057125216676,1332
1246.6371744266116,1355
1248.7680712178621,1309
1250.898403134593,1269
1253.028170416058,1356
1255.1573733015875,1297
1257.2860120305932,1349
1259.4140868425648,1345
1261.54159797707,1375
1263.6685456737569,1317
1265.7949301723515,1367
1267.9207517126597,1369
1270.046010534565,1369
1272.1707068780306,1364
1274.2948409830983,1352
1276.4184130898889,1407
1278.541423438603,1342
1280.6638722695184,1375
1282.785759822993,1430
1284.9070863394636,1431
1287.0278520594447,1422
1289.1480572235314,1404
1291.2677020723963,1429
1293.3867868467923,1501
1295.5053117875495,1494
1297.623277135579,1460
1299.740683131868,1501
1301.8575300174857,1587
1303.973818033578,1466
1306.0895474213703,1524
1308.2047184221678,1450
1310.3193312773528,1478
1312.4333862283888,1510
1314.5468835168163,1517
1316.659823384255,1543
1318.7722060724045,1504
1320.8840318230418,1543
1322.9953008780249,1508
1325.1060134792888,1525
1327.2161698688478,1496
1329.3257702887959,1513
1331.4348149813054,1556
1333.5433041886276,1596
1335.6512381530933,1550
1337.7586171171101,1589
1339.8654413231675,1588
1341.9717110138317,1547
1344.0774264317488,1447
1346.1825878196432,1541
1348.2871954203192,1502
1350.3912494766587,1482
1352.4947502316231,1455
1354.5976979282532,1529
1356.7000928096686,1488
1358.8019351190665,1500
1360.9032250997243,1401
1363.0039629949988,1479
1365.1041490483235,1477
1367.2037835032133,1465
1369.3028666032606,1417
1371.401398592137,1413
1373.4993797135926,1495
1375.5968102114575,1401
1377.6936903296396,1384
1379.7900203121262,1452
1381.8858004029835,1441
1383.9810308463561,1416
1386.075711886469,1401
1388.1698437676241,1434
1390.2634267342032,1476
1392.356461030667,1424
1394.4489469015557,1444
1396.5408845914872,1472
1398.6322743451592,1481
1400.7231164073469,1427
1402.813411022907,1455
1404.903158436773,1502
1406.9923588939578,1448
1409.0810126395531,1466
1411.1691199187303,1461
1413.2566809767386,1429
1415.343696058907,1464
1417.4301654106425,1462
1419.5160892774315,1520
1421.6014679048399,1500
1423.6863015385125,1472
1425.7705904241707,1481
1427.8543348076178,1480
1429.9375349347342,1453
1432.0201910514802,1529
1434.102303403894,1519
1436.1838722380944,1568
1438.2648978002767,1491
1440.3453803367174,1570
1442.4253200937692,1537
1444.5047173178677,1485
1446.5835722555234,1519
1448.6618851533285,1472
1450.739656257952,1573
1452.8168858161434,1577
1454.8935740747306,1569
1456.96972128062,1616
1459.045327680797,1633
1461.120393522327,1624
1463.1949190523528,1737
1465.2689045180973,1686
1467.3423501668608,1657
1469.415256246024,1745
1471.4876230030463,1743
1473.559450685465,1688
1475.6307395408976,1708
1477.7014898170391,1806
1479.771701761665,1748
1481.8413756226287,1781
1483.9105116478618,1794
1485.9791100853772,1796
1488.0471711832643,1837
1490.1146951896926,1835
1492.1816823529098,1809
1494.2481329212433,1785
1496.3140471430984,1893
1498.3794252669609,1873
1500.4442675413939,1894
1502.5085742150404,1969
1504.572345536622,1920
1506.6355817549388,1917
1508.6982831188702,1976
1510.7604498773744,1963
1512.8220822794883,1896
1514.8831805743293,1858
1516.9437450110909,1977
1519.003775839048,1951
1521.0632733075522,1986
1523.1222376660367,2042
1525.1806691640113,2006
1527.2385680510652,2020
1529.2959345768668,2083
1531.3527689911643,2063
1533.4090715437833,2035
1535.4648424846291,2086
1537.5200820636855,2061
1539.5747905310159,2151
1541.6289681367616,2177
1543.6826151311434,2193
1545.7357317644614,2178
1547.7883182870937,2147
1549.8403749494987,2210
1551.8919020022113,2222
1553.9428996958477,2240
1555.9933682811015,2366
1558.0433080087469,2463
1560.0927191296346,2443
1562.1416018946961,2492
1564.1899565549415,2597
1566.2377833614592,2619
1568.2850825654164,2574
1570.3318544180606,2583
1572.3780991707158,2605
1574.423817074788,2507
1576.4690083817595,2572
1578.5136733431923,2538
1580.5578122107272,2397
1582.601425236085,2331
1584.6445126710646,2212
1586.6870747675434,2135
1588.7291117774776,2137
1590.7706239529034,2017
1592.8116115459347,2021
1594.8520748087658,1897
1596.8920139936686,1948
1598.9314293529933,1829
1600.9703211391711,1805
1603.008689604711,1812
1605.0465350022005,1776
1607.0838575843068,1647
1609.1206576037753,1675
1611.1569353134305,1679
1613.1926909661765,1601
1615.2279248149953,1673
1617.2626371129481,1598
1619.2968281131757,1547
1621.3304980688963,1524
1623.3636472334088,1453
1625.39627586009,1490
1627.428384202396,1481
1629.459972513861,1468
1631.4910410480993,1466
1633.5215900588028,1440
1635.551619799744,1417
1637.5811305247717,1354
1639.6101224878166,1346
1641.6385959428862,1469
1643.6665511440683,1380
1645.693988345528,1344
1647.7209078015112,1325
1649.7473097663405,1330
1651.7731944944203,1389
1653.7985622402307,1348
1655.823413258333,1303
1657.847747803366,1337
1659.8715661300494,1291
1661.8948684931793,1380
1663.9176551476316,1332
1665.9399263483624,1327
1667.9616823504057,1384
1669.982923408873,1312
1672.0036497789574,1253
1674.0238617159293,1346
1676.043559475138,1276
1678.0627433120121,1317
1680.081413482059,1307
1682.0995702408654,1332
1684.117213844096,1285
1686.134344547495,1310
1688.1509626068864,1284
1690.1670682781705,1245
1692.182661817329,1273
1694.1977434804217,1284
1696.2123135235875,1307
1698.226372203043,1287
1700.2399197750851,1352
1702.2529564960905,1293
1704.2654826225112,1321
1706.277498410882,1386
1708.2890041178139,1283
1710.2999999999988,1297
1712.3104863142066,1263
1714.3204633172854,1294
1716.329931266163,1269
1718.3388904178469,1264
1720.3473410294214,1271
1722.3552833580516,1257
1724.3627176609807,1295
1726.3696441955308,1286
1728.3760632191033,1379
1730.3819749891782,1244
1732.3873797633146,1300
1734.3922777991502,1342
1736.3966693544012,1304
1738.4005546868639,1279
1740.4039340544127,1278
1742.406807715001,1274
1744.4091759266616,1271
1746.4110389475054,1340
1748.4123970357223,1214
1750.413250449582,1249
1752.4135994474318,1278
1754.4134442876993,1257
1756.4127852288902,1243
1758.4116225295893,1285
1760.4099564484595,1222
1762.407787244244,1255
1764.405115175764,1228
1766.4019405019203,1245
1768.3982634816916,1241
1770.3940843741357,1272
1772.3894034383907,1250
1774.3842209336717,1271
1776.378537119274,1263
1778.372352254571,1190
1780.3656665990156,1235
1782.3584804121397,1186
1784.3507939535534,1222
1786.3426074829463,1282
1788.3339212600863,1158
1790.3247355448211,1208
1792.3150505970766,1276
1794.3048666768573,1202
1796.2941840442477,1256
1798.2830029594106,1221
1800.2713236825884,1247
1802.2591464741004,1206
1804.2464715943465,1165
1806.2332993038058,1223
1808.2196298630352,1206
1810.2054635326708,1244
1812.190800573428,1203
1814.175641246101,1198
1816.1599858115628,1262
1818.1438345307652,1217
1820.127187664738,1243
1822.1100454745924,1217
1824.092408221516,1212
1826.0742761667766,1220
1828.055649571721,1185
1830.0365286977735,1159
1832.0169138064398,1165
1833.9968051593014,1150
1835.9762030180214,1197
1837.9551076443408,1226
1839.9335193000788,1203
1841.9114382471344,1274
1843.888864747485,1228
1845.8657990631878,1160
1847.842241456378,1180
1849.8181921892697,1211
1851.7936515241558,1217
1853.7686197234098,1177
1855.7430970494815,1128
1857.7170837649014,1180
1859.6905801322787,1165
1861.6635864143004,1226
1863.6361028737338,1145
1865.608129773424,1232
1867.5796673762961,1227
1869.5507159453537,1230
1871.521275743678,1229
1873.4913470344313,1173
1875.4609300808534,1232
1877.4300251462632,1266
1879.3986324940588,1196
1881.366752387717,1259
1883.3343850907936,1226
1885.3015308669228,1268
1887.268189979819,1221
1889.2343626932739,1261
1891.2000492711595,1226
1893.1652499774254,1275
1895.1299650761011,1210
1897.0941948312952,1290
1899.0579395071945,1251
1901.0211993680641,1250
1902.98397467825,1275
1904.9462657021745,1197
1906.9080727043415,1282
1908.869395949332,1249
1910.8302357018065,1254
1912.790592226504,1263
1914.7504657882428,1254
1916.7098566519212,1261
1918.6687650825133,1261
1920.6271913450764,1260
1922.5851357047422,1265
1924.5425984267245,1219
1926.499579776314,1258
1928.4560800188833,1294
1930.4120994198802,1213
1932.367638244833,1254
1934.32269675935,1188
1936.2772752291175,1233
1938.231373919899,1174
1940.1849930975404,1202
1942.1381330279637,1274
1944.0907939771696,1253
1946.0429762112412,1260
1947.9946799963363,1233
1949.9459055986945,1208
1951.896653284633,1204
1953.8469233205478,1178
1955.7967159729142,1174
1957.7460315082863,1172
1959.6948701932974,1221
1961.6432322946594,1207
1963.5911180791632,1216
1965.5385278136787,1174
1967.4854617651545,1135
1969.4319202006182,1173
1971.377903387176,1182
1973.3234115920136,1225
1975.268445082395,1207
1977.2130041256642,1215
1979.1570889892423,1212
1981.1006999406304,1215
1983.04383724741,1206
1984.986501177238,1212
1986.928691997853,1174
1988.8704099770712,1158
1990.811655382789,1230
1992.7524284829801,1223
1994.692729545698,1150
1996.6325588390755,1217
1998.5719166313224,1181
2000.5108031907307,1180
2002.4492187856677,1109
2004.387163684583,1181
2006.3246381560011,1192
2008.2616424685298,1154
2010.1981768908527,1210
2012.1342416917332,1269
2014.069837140014,1166
2016.0049635046162,1187
2017.9396210545406,1174
2019.8738100588666,1139
2021.8075307867502,1187
2023.740783507431,1195
2025.6735684902228,1215
2027.6058860045214,1209
2029.5377363198004,1218
2031.4691197056118,1189
2033.4000364315875,1182
2035.3304867674374,1212
2037.260470982952,1148
2039.189989347998,1119
2041.1190421325232,1150
2043.047629606554,1219
2044.9757520401945,1160
2046.9034097036288,1174
2048.8306028671195,1220
2050.7573318010086,1205
2052.683596775716,1215
2054.609398061742,1160
2056.5347359296647,1119
2058.4596106501403,1197
2060.384022493906,1158
2062.3079717317764,1180
2064.231458634646,1160
2066.1544834734873,1143
2068.077046519352,1191
2069.99914804337,1186
2071.9207883167524,1156
2073.8419676107865,1154
2075.7626861968406,1139
2077.6829443463607,1159
2079.6027423308715,1191
2081.522080421977,1157
2083.440958891362,1200
2085.359378010786,1198
2087.2773380520907,1199
2089.194839287196,1173
2091.111881988101,1143
2093.0284664268825,1172
2094.9445928756973,1181
2096.86026160678,1172
2098.775472892446,1201
2100.690227005088,1141
2102.604524217178,1125
2104.5183648012676,1208
2106.431749029985,1237
2108.34467717604,1154
2110.2571495122206,1143
2112.169166311393,1125
2114.080727846503,1190
2115.9918343905747,1151
2117.902486216711,1167
2119.8126835980956,1182
2121.722426807987,1203
2123.6317161197285,1163
2125.5405518067364,1149
2127.448934142509,1135
2129.356863400624,1166
2131.264339854737,1205
2133.1713637785815,1221
2135.077935445972,1185
2136.9840551308002,1247
2138.889723107037,1169
2140.7949396487334,1204
2142.699705030018,1152
2144.6040195250994,1175
2146.507883408264,1167
2148.4112969538774,1200
2150.3142604363848,1156
2152.2167741303097,1202
2154.1188383102535,1201
2156.0204532508997,1148
2157.9216192270064,1200
2159.822336513414,1204
2161.7226053850413,1183
2163.622426116884,1150
2165.5217989840185,1200
2167.4207242616,1171
2169.319202224862,1208
2171.2172331491165,1202
2173.1148173097563,1209
2175.0119549822507,1184
2176.90864644215,1181
2178.8048919650823,1267
2180.7006918267534,1179
2182.596046302952,1210
2184.4909556695407,1174
2186.3854202024645,1207
2188.279440177746,1217
2190.173015871487,1183
2192.066147559868,1185
2193.958835519149,1230
2195.851080025667,1183
2197.7428813558417,1186
2199.6342397861667,1207
2201.5251555932186,1215
2203.415629053651,1226
2205.3056604441986,1218
2207.19525004167,1190
2209.084398122958,1233
2210.9731049650327,1253
2212.861370844941,1290
2214.749196039812,1218
2216.636580826851,1207
2218.523525483344,1195
2220.410030286655,1203
2222.296095514226,1276
2224.1817214435805,1215
2226.066908352319,1189
2227.951656518121,1213
2229.835966218746,1241
2231.71983773203,1261
2233.6032713358913,1243
2235.486267308324,1281
2237.3688259274036,1271
2239.2509474712824,1240
2241.132632218193,1252
2243.013880446447,1225
2244.8946924344323,1224
2246.7750684606203,1280
2248.6550088035574,1225
2250.534513741871,1213
2252.413583554265,1214
2254.292218519526,1185
2256.170418916517,1194
2258.0481850241786,1232
2259.925517121534,1215
2261.8024154876825,1203
2263.678880401803,1216
2265.5549121431536,1168
2267.430510991071,1177
2269.305677224971,1212
2271.180411124348,1201
2273.0547129687766,1186
2274.9285830379076,1220
2276.8020216114737,1246
2278.6750289692845,1191
2280.5476053912294,1228
2282.4197511572766,1269
2284.2914665474727,1221
2286.162751841943,1307
2288.0336073208937,1233
2289.904033264608,1266
2291.774029953448,1196
2293.6435976678554,1216
2295.5127366883517,1237
2297.381447295534,1195
2299.2497297700825,1199
2301.1175843927526,1165
2302.9850114443825,1190
2304.852011205885,1151
2306.7185839582553,1125
2308.5847299825664,1112
2310.4504495599676,1090
2312.3157429716925,1110
2314.1806104990483,1131
2316.0450524234247,1132
2317.9090690262888,1061
2319.772660589186,1115
2321.635827393742,1136
2323.498569721661,1098
2325.3608878547248,1135
2327.2227820747967,1073
2329.0842526638157,1146
2330.945299903803,1119
2332.805924076857,1117
2334.6661254651535,1115
2336.525904350951,1113
2338.3852610165827,1106
2340.244195744464,1075
2342.102708817088,1095
2343.9608005170253,1107
2345.8184711269287,1076
2347.675720929526,1073
2349.532550207628,1082
2351.38895924412,1103
2353.24494832197,1133
2355.100517724223,1086
2356.955667734004,1065
2358.810398634514,1122
2360.664710709037,1143
2362.5186042409337,1123
2364.3720795136437,1108
2366.225136810686,1095
2368.0777764156583,1126
2369.929998612237,1113
2371.7818036841777,1128
2373.633191915315,1143
2375.484163589562,1104
2377.3347189909114,1122
2379.184858403434,1129
2381.03458211128,1085
2382.8838903986775,1147
2384.732783549936,1186
2386.5812618494406,1175
2388.4293255816588,1106
2390.2769750311327,1119
2392.1242104824883,1151
2393.971032220427,1150
2395.8174405297295,1133
2397.6634356952563,1090
2399.509018001947,1147
2401.3541877348193,1109
2403.1989451789705,1140
2405.043290619576,1132
2406.8872243418905,1162
2408.730746631247,1076
2410.5738577730594,1130
2412.4165580528183,1188
2414.258847756095,1156
2416.100727168537,1101
2417.9421965758734,1178
2419.783256263912,1141
2421.623906518538,1131
2423.4641476257157,1131
2425.303979871491,1097
2427.143403541984,1128
2428.9824189233977,1185
2430.821026302012,1146
2432.6592259641866,1153
2434.497018196361,1168
2436.33440328505,1184
2438.171381516851,1146
2440.00795317844,1162
2441.844118556569,1155
2443.6798779380724,1153
2445.5152316098606,1171
2447.3501798589255,1173
2449.1847229723357,1161
2451.0188612372403,1122
2452.8525949408663,1114
2454.6859243705203,1154
2456.518849813587,1153
2458.3513715575314,1169
2460.183489889895,1137
2462.015205098301,1177
2463.8465174704493,1137
2465.67742729412,1157
2467.5079348571717,1125
2469.338040447542,1173
2471.1677443532476,1156
2472.9970468623833,1115
2474.825948263123,1197
2476.6544488437207,1141
2478.482548892508,1128
2480.310248697896,1154
2482.137548548374,1141
2483.9644487325118,1188
2485.790949538956,1128
2487.617051256433,1156
2489.44275417375,1105
2491.26805857979,1148
2493.0929647635157,1138
2494.917473013971,1172
2496.741583620276,1197
2498.5652968716304,1205
2500.3886130573137,1187
2502.2115324666834,1196
2504.0340553891765,1144
2505.856182114308,1176
2507.6779129316733,1125
2509.499248130945,1216
2511.3201880018764,1196
2513.140732834298,1200
2514.9608829181198,1164
2516.780638543331,1181
2518.6,1141
2520.418967578273,1185
2522.237541568376,1231
2524.0557222606144,1210
2525.8735099453706,1219
2527.6909049131086,1164
2529.507907454368,1225
2531.32451785977,1236
2533.140736420014,1187
2534.9565634258774,1209
2536.771999168218,1208
2538.5870439379714,1219
2540.4016980261526,1246
2542.2159617238544,1279
2544.02983532225,1240
2545.8433191125914,1232
2547.656413386209,1294
2549.4691184345115,1286
2551.2814345489874,1302
2553.093362021204,1273
2554.904901142808,1316
2556.716052205523,1307
2558.526815501153,1276
2560.3371913215824,1333
2562.147179958771,1298
2563.956781704761,1295
2565.7659968516705,1281
2567.5748256916986,1339
2569.3832685171224,1322
2571.1913256202984,1345
2572.9989972936614,1325
2574.806283829725,1316
2576.613185521084,1360
2578.4197026604074,1355
2580.2258355404483,1409
2582.031584454035,1393
2583.836949694077,1367
2585.6419315535613,1352
2587.4465303255533,1390
2589.2507463032002,1360
2591.0545797797245,1324
2592.8580310484303,1352
2594.6611004026995,1352
2596.463788135992,1369
2598.266094541849,1375
2600.0680199138874,1397
2601.869564545807,1385
2603.670728731383,1382
2605.4715127644704,1333
2607.2719169390048,1345
2609.071941548998,1386
2610.8715868885433,1368
2612.670853251811,1409
2614.469740933052,1436
2616.268250226594,1332
2618.0663814268455,1326
2619.864134828292,1398
2621.6615107255006,1341
2623.458509413115,1388
2625.2551311858597,1305
2627.0513763385347,1341
2628.8472451660223,1326
2630.6427379632833,1263
2632.4378550253564,1365
2634.232596647359,1271
2636.026963124488,1333
2637.8209547520187,1317
2639.6145718253065,1274
2641.407814639785,1297
2643.200683490966,1273
2644.9931786744414,1243
2646.7853004858807,1240
2648.577049221034,1179
2650.3684251757277,1274
2652.1594286458712,1255
2653.9500599274484,1253
2655.740319316525,1267
2657.5302071092437,1270
2659.3197236018286,1302
2661.10886909058,1247
2662.8976438718782,1255
2664.686048242183,1242
2666.4740824980327,1238
2668.2617469360443,1231
2670.0490418529134,1273
2671.8359675454153,1174
2673.622524310403,1195
2675.408712444811,1269
2677.1945322456495,1212
2678.979984010009,1156
2680.76506803506,1194
2682.5497846180497,1190
2684.334134056306,1183
2686.1181166472343,1210
2687.9017326883213,1157
2689.6849824771293,1172
2691.4678663113013,1175
2693.2503844885596,1190
2695.032537306705,1195
2696.8143250636167,1146
2698.5957480572542,1186
2700.3768065856534,1152
2702.1575009469316,1130
2703.937831439283,1157
2705.717798360982,1102
2707.4974020103837,1132
2709.276642685917,1137
2711.055520686095,1177
2712.834036309506,1124
2714.612189854819,1152
2716.389981620782,1149
2718.1674119062204,1109
2719.944481010041,1148
2721.721189231226,1167
2723.4975368688415,1105
2725.273524222027,1094
2727.0491515900053,1133
2728.824419272075,1081
2730.5993275676146,1132
2732.3738767760838,1135
2734.148067197016,1093
2735.921899130031,1129
2737.6953728748194,1139
2739.468488731156,1129
2741.2412469988926,1073
2743.0136479779617,1089
2744.785691968372,1098
2746.5573792702116,1131
2748.3287101836504,1083
2750.099685008934,1140
2751.870304046388,1066
2753.640567596418,1122
2755.4104759595057,1113
2757.1800294362156,1125
2758.949228327187,1121
2760.7180729331412,1123
2762.486563554877,1063
2764.254700493272,1070
2766.022484049284,1099
2767.789914523947,1159
2769.5569922183786,1054
2771.3237174337705,1053
2773.090090471394,1091
2774.8561116326036,1089
2776.6217812188274,1072
2778.3870995315756,1091
2780.1520668724356,1069
2781.9166835430747,1096
2783.6809498452394,1170
2785.444866080754,1109
2787.2084325515225,1106
2788.971649559527,1094
2790.73451740683,1116
2792.4970363955713,1071
2794.2592068279705,1099
2796.0210290063264,1092
2797.7825032330147,1089
2799.543629810493,1127
2801.304409041296,1062
2803.0648412280366,1115
2804.8249266734088,1085
2806.5846656801846,1091
2808.344058551212,1108
2810.1031055894246,1134
2811.8618070978273,1098
2813.6201633795085,1105
2815.378174737636,1126
2817.1358414754536,1121
2818.893163896285,1142
2820.6501423035334,1114
2822.4067770006814,1140
2824.1630682912883,1113
2825.9190164789957,1082
2827.6746218675207,1071
2829.429884760661,1056
2831.184805462294,1107
2832.9393842763743,1105
2834.693621506936,1123
2836.4475174580916,1079
2838.201072434034,1119
2839.954286739034,1082
2841.707160677441,1066
2843.459694553685,1112
2845.2118886722724,1057
2846.96374333779,1090
2848.7152588549034,1071
2850.4664355283567,1111
2852.217273662973,1088
2853.9677735636546,1077
2855.7179355353833,1131
2857.4677598832186,1093
2859.217246912299,1069
2860.9663969278427,1109
2862.715210235146,1078
2864.4636871395846,1105
2866.211827946614,1083
2867.9596329617652,1078
2869.7071024906536,1137
2871.4542368389684,1114
2873.20103631248,1084
2874.947501217038,1141
2876.6936318585695,1061
2878.4394285430812,1102
2880.1848915766604,1072
2881.9300212654707,1093
2883.6748179157553,1084
2885.4192818338374,1078
2887.1634133261173,1119
2888.907212699077,1085
2890.6506802592744,1117
2892.393816313348,1107
2894.1366211680142,1100
2895.8790951300693,1127
2897.621238506388,1052
2899.363051603925,1098
2901.1045347297118,1071
2902.8456881908596,1088
2904.58651229456,1071
2906.327007348081,1153
2908.067173658772,1127
2909.8070115340597,1065
2911.5465212814497,1136
2913.285703208527,1059
2915.0245576229563,1087
2916.7630848324807,1056
2918.5012851449196,1097
2920.2391588681758,1060
2921.976706310227,1062
2923.7139277791334,1097
2925.4508235830313,1088
2927.187394030137,1068
2928.923639428745,1097
2930.6595600872306,1100
2932.395156314046,1093
2934.1304284177218,1117
2935.8653767068713,1165
2937.6000014901815,1121
2939.3343030764227,1097
2941.068281774442,1133
2942.8019378931644,1093
2944.5352717415976,1092
2946.2682836288236,1047
2948.0009738640065,1041
2949.7333427563885,1098
2951.465390615289,1114
2953.1971177501086,1107
2954.9285244703265,1162
2956.6596110855,1125
2958.3903779052657,1069
2960.1208252393385,1064
2961.8509533975125,1038
2963.5807626896617,1033
2965.3102534257378,1081
2967.0394259157715,1106
2968.768280469873,1101
2970.496817398232,1107
2972.2250370111146,1085
2973.952939618869,1093
2975.6805255319196,1079
2977.4077950607707,1096
2979.134748516006,1099
2980.861386208289,1077
2982.587708448359,1081
2984.313715547037,1091
2986.039407815222,1036
2987.764785563891,1114
2989.489849104102,1040
2991.2145987469908,1062
2992.9390348037705,1081
2994.6631575857346,1045
2996.3869674042576,1033
2998.1104645707887,1053
2999.83364939686,1041
3001.5565221940783,1077
3003.2790832741334,1076
3005.0013329487924,1007
3006.7232715298996,1017
3008.4448993293804,994
3010.166216659239,1057
3011.887223831558,1075
3013.607921158498,1068
3015.3283089522993,1061
3017.0483875252826,1081
3018.7681571898443,1097
3020.4876182584626,1085
3022.2067710436927,1102
3023.9256158581707,1072
3025.644153014609,1086
3027.362382825801,1066
3029.0803056046193,1044
3030.797921664012,1094
3032.5152313170106,1077
3034.2322348767225,1056
3035.9489326563353,1059
3037.665324969115,1076
3039.3814121284063,1043
3041.097194447633,1070
3042.812672240299,1105
3044.5278458199855,1063
3046.2427155003525,1074
3047.9572815951406,1067
3049.671544418167,1042
3051.38550428333,1024
3053.0991615046073,1049
3054.812516396051,1092
3056.5255692717974,1051
3058.2383204460575,1040
3059.9507702331257,1085
3061.662918947372,1151
3063.3747669032446,1042
3065.0863144152736,1025
3066.7975617980674,1083
3068.508509366309,1089
3070.219157434767,1106
3071.9295063182844,1075
3073.639556331785,1081
3075.3493077902704,1061
3077.058761008821,1063
3078.7679163025964,1075
3080.476773986837,1051
3082.1853343768594,1061
3083.89359778806,1027
3085.6015645359153,1079
3087.3092349359786,1051
3089.016609303884,1068
3090.7236879553434,1046
3092.4304712061476,1091
3094.136959372166,1065
3095.843152769349,1110
3097.5490517137237,1057
3099.2546565213966,1086
3100.959967508554,1064
3102.66498499146,1066
3104.3697092864577,1061
3106.0741407099695,1126
3107.778279578498,1045
3109.482126208622,1056
3111.1856809170004,1080
3112.8889440203716,1079
3114.5919158355528,1078
3116.294596679439,1076
3117.996986869006,1075
3119.6990867213062,1088
3121.4008965534726,1074
3123.102416682717,1017
3124.803647426329,1060
3126.5045891016784,1078
3128.205242026213,1063
3129.90560651746,1098
3131.605682893025,1089
3133.3054714705922,1106
3135.0049725679282,1107
3136.7041865028714,1071
3138.4031135933465,1102
3140.101754157353,1110
3141.800108512971,1076
3143.498176978357,1061
3145.1959598717494,1072
3146.8934575114636,1066
3148.5906702158954,1050
3150.2875983035183,1078
3151.9842420928853,1038
3153.680601902627,1054
3155.376678051456,1029
3157.07247085816,1063
3158.767980641609,1094
3160.463207720748,1052
3162.158152414606,1014
3163.8528150422862,1032
3165.5471959229726,1072
3167.2412953759303,1025
3168.9351137204976,1056
3170.628651276098,1118
3172.3219083622307,1042
3174.014885298474,1035
3175.707582404485,1025
3177.4000000000005,1067
3179.092138404835,1093
3180.7839979388846,1058
3182.47557892212,1057
3184.166881674594,1085
3185.8579065164386,1003
3187.5486537678626,1040
3189.2391237491547,1086
3190.9293167806827,1057
3192.6192331828934,1040
3194.3088732763117,1045
3195.998237381542,1057
3197.687325819268,1041
3199.376138910251,1069
3201.064676975334,1018
3202.7529403354347,1084
3204.4409293115523,1060
3206.1286442247647,1054
3207.816085396229,1059
3209.5032531471825,1090
3211.190147798936,1094
3212.8767696728846,1054
3214.5631190905015,1031
3216.2491963733373,1051
3217.9350018430214,999
3219.6205358212637,983
3221.305798629851,1008
3222.990790590651,1054
3224.6755120256103,1007
3226.359963256751,1021
3228.0441446061795,1004
3229.7280563960758,1076
3231.411698948703,1026
3233.0950725863995,1053
3234.778177631587,1060
3236.461014406761,1017
3238.1435832345005,1087
3239.8258844374595,1081
3241.507918338374,1114
3243.1896852600576,1068
3244.8711855254023,1094
3246.552419457381,1051
3248.233387379042,1015
3249.914089613516,1062
3251.59452648401,1089
3253.274698313813,1064
3254.95460542629,1027
3256.6342481448855,1049
3258.313626793125,1043
3259.9927416946084,1029
3261.6715931730196,1001
3263.3501815521176,1005
3265.0285071557437,1006
3266.706570307815,1042
3268.3843713323286,1066
3270.0619105533615,1083
3271.739188295068,1015
3273.4162048816834,1092
3275.0929606375184,1073
3276.769455886966,1048
3278.445690954498,1063
3280.1216661646613,1026
3281.797381842087,1074
3283.4728383114807,1061
3285.1480358976296,1097
3286.8229749253996,1003
3288.4976557197333,1047
3290.172078605655,1056
3291.846243908266,1058
3293.5201519527463,1021
3295.193803064357,1043
3296.8671975684374,1019
3298.5403357904024,1052
3300.21321805575,1026
3301.8858446900567,1063
3303.558216018975,1076
3305.23033236824,1060
3306.9021940636603,1102
3308.57380143113,1038
3310.2451547966184,1062
3311.916254486174,1081
3313.5871008259246,1093
3315.2576941420766,1131
3316.9280347609147,1064
3318.5981230088046,1029
3320.2679592121895,1052
3321.9375436975924,1034
3323.606876791612,970
3325.27595882093,993
3326.944790112305,1045
3328.6133709925753,1032
3330.2817017886573,1056
3331.949782827547,1099
3333.617614436319,1043
3335.2851969421245,1047
3336.952530672199,1053
3338.619615953853,1033
3340.286453114475,1035
3341.9530424815357,1056
3343.619384382583,1054
3345.2854791452437,1001
3346.951327097224,1036
3348.6169285663073,1064
3350.2822838803577,1020
3351.947393367319,1025
3353.61225735521,1057
3355.2768761721345,1095
3356.9412501462693,1065
3358.605379605873,1035
3360.2692648792827,1032
3361.9329062949146,1047
3363.596304181263,1046
