CollectionTime,7/10/2024 4:29:43 PM
ExposureUsed,3
CalibratedSpectrum
-962.7078968117929,585
-959.9714848408522,613
-957.2358232597828,628
-954.5009119013725,647
-951.7667505983302,654
-949.0333391832855,644
-946.3006774887896,661
-943.5687653473143,677
-940.837602591253,630
-938.1071890529199,641
-935.3775245645503,679
-932.6486089583007,675
-929.9204420662485,619
-927.1930237203925,648
-924.4663537526524,615
-921.7404319948689,653
-919.0152582788041,666
-916.2908324361409,668
-913.5671542984834,652
-910.8442236973568,650
-908.1220404642074,681
-905.4006044304027,662
-902.679915427231,646
-899.959973285902,620
-897.2407778375464,618
-894.5223289132158,622
-891.8046263438832,639
-889.0876699604426,674
-886.3714595937089,651
-883.6559950744183,597
-880.9412762332282,647
-878.2273029007168,637
-875.5140749073835,625
-872.8015920836489,645
-870.0898542598545,634
-867.3788612662631,636
-864.6686129330585,643
-861.9591090903457,661
-859.2503495681506,657
-856.5423341964203,643
-853.8350628050229,638
-851.1285352237478,613
-848.4227512823054,628
-845.7177108103272,645
-843.0134136373656,654
-840.3098595928943,646
-837.6070485063082,676
-834.9049802069229,670
-832.2036545239757,638
-829.5030712866244,651
-826.8032303239481,642
-824.1041314649472,660
-821.4057745385428,648
-818.7081593735775,644
-816.0112857988148,712
-813.3151536429393,666
-810.6197627345566,696
-807.9251129021936,661
-805.2312039742981,646
-802.5380357792392,635
-799.8456081453069,684
-797.1539209007124,630
-794.462973873588,673
-791.772766891987,681
-789.083299783884,706
-786.3945723771743,665
-783.7065844996748,666
-781.0193359791231,688
-778.3328266431781,652
-775.6470563194197,652
-772.9620248353489,660
-770.2777320183878,645
-767.5941776958798,658
-764.9113616950891,703
-762.2292838432011,689
-759.5479439673222,677
-756.8673418944801,674
-754.1874774516235,668
-751.5083504656222,687
-748.8299607632671,707
-746.15230817127,664
-743.475392516264,669
-740.7992136248035,677
-738.1237713233636,706
-735.4490654383407,702
-732.7750957960521,715
-730.1018622227365,670
-727.4293645445534,714
-724.7576025875837,703
-722.0865761778291,688
-719.4162851412126,683
-716.7467293035781,722
-714.0779084906909,734
-711.409822528237,698
-708.7424712418238,695
-706.0758544569796,698
-703.4099719991541,729
-700.7448236937178,743
-698.0804093659622,745
-695.4167288411002,780
-692.7537819442656,760
-690.0915685005134,721
-687.4300883348199,720
-684.7693412720819,750
-682.1093271371178,730
-679.4500457546669,767
-676.7914969493897,745
-674.1336805458676,702
-671.4765963686034,731
-668.8202442420206,739
-666.1646239904642,727
-663.5097354382001,723
-660.8555784094151,743
-658.2021527282176,755
-655.5494582186366,751
-652.8974947046223,736
-650.2462620100463,797
-647.5957599587009,755
-644.9459883742998,763
-642.2969470804776,721
-639.6486359007902,767
-637.0010546587141,801
-634.3542031776476,785
-631.7080812809096,774
-629.0626887917401,774
-626.4180255333008,778
-623.7740913286734,780
-621.1308860008619,810
-618.4884093727904,747
-615.8466612673046,818
-613.2056415071715,759
-610.5653499150785,799
-607.9257863136347,774
-605.28695052537,832
-602.6488423727357,783
-600.0114616781036,778
-597.3748082637674,772
-594.7388819519412,778
-592.1036825647604,784
-589.4692099242818,825
-586.8354638524829,836
-584.2024441712624,780
-581.5701507024403,844
-578.9385832677575,792
-576.3077416888759,819
-573.6776257873787,838
-571.0482353847704,833
-568.4195703024757,833
-565.7916303618415,805
-563.164415384135,812
-560.5379251905453,818
-557.9121596021815,802
-555.2871184400748,805
-552.6628015251767,818
-550.0392086783606,831
-547.4163397204204,800
-544.794194472071,839
-542.1727727539491,847
-539.5520743866118,823
-536.9320991905377,863
-534.3128469861261,932
-531.6943175936979,958
-529.0765108334947,946
-526.4594265256793,963
-523.8430644903358,1053
-521.2274245474689,1175
-518.612506517005,1280
-515.9983102187913,1266
-513.3848354725959,1274
-510.77208209810846,1275
-508.16004991493924,1307
-505.5487387426199,1457
-502.9381484006032,1570
-500.3282787082628,1595
-497.71912948489364,1625
-495.1107005497117,1580
-492.5029917218539,1461
-489.8960028203786,1398
-487.28973366426493,1247
-484.68418407241325,1162
-482.07935386364494,1113
-479.47524285670266,1089
-476.87185087025,1068
-474.2691777228715,1077
-471.66722323307334,1062
-469.0659872192821,1030
-466.4654694998459,1047
-463.86566989303384,978
-461.26658821703614,1062
-458.66822428996414,1014
-456.07057792985,1088
-453.4736489546475,1015
-450.877437182231,1027
-448.28194243039627,974
-445.68716451686,989
-443.09310325926003,1021
-440.49975847515555,1051
-437.9071299820263,1014
-435.31521759727354,997
-432.72402113821954,1025
-430.13354042210767,1039
-427.5437752661022,1014
-424.95472548728867,958
-422.36639090267386,1048
-419.7787713291855,1105
-417.1918665836721,1116
-414.60567648290385,1162
-412.0202008435715,1150
-409.4354394822874,1077
-406.8513922155845,1094
-404.26805885991723,1136
-401.685439231661,1112
-399.103533147112,1108
-396.522340422488,1080
-393.9418608739278,1085
-391.3620943174908,1084
-388.7830405691583,1020
-386.2046994448317,985
-383.6270707603344,951
-381.05015433141045,952
-378.473949973725,851
-375.8984575028645,772
-373.32367673433623,786
-370.74960748356875,715
-368.1762495659117,678
-365.60360279663576,621
-363.03166699093265,573
-360.4604419639154,532
-357.8899275306178,542
-355.32012350599507,548
-352.7510297049233,547
-350.1826459421999,540
-347.61497203254316,507
-345.04800779059235,473
-342.4817530309082,490
-339.91620756797226,505
-337.35137121618743,519
-334.7872437898774,476
-332.22382510328725,497
-329.66111497058273,524
-327.09911320585127,541
-324.53781962310075,528
-321.9772340362607,541
-319.4173562591816,508
-316.8581861056348,469
-314.2997233893127,493
-311.7419679238294,460
-309.1849195227194,501
-306.62857799943856,553
-304.0729431673641,540
-301.51801483979375,541
-298.963792829947,533
-296.41027695096386,568
-293.85746701590574,614
-291.3053628377552,588
-288.7539642294155,607
-286.2032710037115,559
-283.65328297338897,529
-281.1039999511146,601
-278.5554217494762,638
-276.007548180983,673
-273.4603790580651,617
-270.9139141930734,563
-268.3681533982807,582
-265.8230964858798,591
-263.27874326798565,622
-260.7350935566336,609
-258.1921471637804,657
-255.6499039013039,616
-253.10836358100266,580
-250.56752601459698,574
-248.02739101372765,624
-245.48795838995704,632
-242.94922795476816,643
-240.41119951956557,630
-237.8738728956746,628
-235.33724789434166,750
-232.80132432673452,662
-230.2661020039418,623
-227.73158073697357,618
-225.19776033676033,677
-222.66464061415422,759
-220.1322213799284,715
-217.60050244477725,692
-215.06948361931552,664
-212.53916471408013,687
-210.00954553952818,740
-207.48062590603843,672
-204.9524056239104,637
-202.4248845033651,677
-199.8980623545441,713
-197.37193898751036,720
-194.84651421224817,766
-192.32178783866232,728
-189.79775967657952,768
-187.27442953574644,871
-184.7517972258321,858
-182.2298625564256,796
-179.7086253370378,809
-177.18808537710026,754
-174.66824248596583,770
-172.14909647290835,794
-169.6306471471229,836
-167.11289431772548,854
-164.59583779375328,808
-162.07947738416453,893
-159.5638128978386,1020
-157.04884414357605,1014
-154.53457093009854,1059
-152.02099306604828,990
-149.50811035998936,863
-146.99592262040665,914
-144.48442965570587,918
-141.97363127421409,875
-139.46352728417958,995
-136.95411749377126,1078
-134.44540171107985,915
-131.93737974411636,890
-129.43005140081357,967
-126.92341648902493,1252
-124.41747481652521,1509
-121.91222619101006,1993
-119.40767042009657,2123
-116.90380731132257,2291
-114.40063667214702,2335
-111.8981583099503,2182
-109.3963720320337,1757
-106.89527764561933,1811
-104.39487495785067,1923
-101.89516377579241,2232
-99.39614390642998,2970
-96.89781515667039,3326
-94.40017733334128,3029
-91.90323024319173,2371
-89.40697369289148,2069
-86.91140748903172,2668
-84.41653143812482,3717
-81.92234534660395,4516
-79.42884902082358,4604
-76.93604226705907,5175
-74.4439248915071,7978
-71.95249670028534,12948
-69.46175749943245,17412
-66.97170709490854,19033
-64.48234529259423,18403
-61.99367189829195,17259
-59.50568671772464,13687
-57.01838955653636,9537
-54.53178022029283,8389
-52.045858514480074,9541
-49.560624244506016,10740
-47.07607721569923,12305
-44.59221723330904,14538
-42.10904410250669,15449
-39.62655762838392,14750
-37.14475761595372,15090
-34.66364387015028,17791
-32.18321619582866,19042
-29.70347439776515,19221
-27.224418280657005,20041
-24.74604764912317,19376
-22.26836230770266,20411
-19.7913620608565,27172
-17.315046712966478,42525
-14.83941606833514,56424
-12.36446993118659,65037
-9.89020810566592,65037
-7.416630395839093,65037
-4.94373660569363,65037
-2.471526539137585,65037
-6.821210263296962E-13,65037
2.47084320796705,65037
4.941003281093458,65037
7.410480415786196,65037
9.879274808531363,65037
12.347386655893956,65037
14.814816154518212,65037
17.28156350112681,65037
19.74762889252179,65037
22.21301252558385,65037
24.67771459727237,20885
27.141735304626195,4267
29.605074844762612,3067
32.06773341487792,2670
34.52971121224755,2374
36.99100843422559,2375
39.45162527824516,2395
41.91156194181792,2136
44.370818622535126,2072
46.82939551806646,1644
49.287292826160524,1712
51.74451074464503,1777
54.201049471426245,1635
56.65690920448981,1427
59.112090141899785,1353
61.56659248179983,1565
64.02041642241159,1460
66.4735621620365,1241
68.92602989905402,1096
71.37781983192338,1194
73.82893215918205,1353
76.27936707944684,1299
78.72912479141326,1220
81.17820549385567,1188
83.62660938562783,1198
86.07433666566146,1248
88.5213875329681,1278
90.96776218663751,1038
93.41346082583925,989
95.85848364982041,1103
98.30283085790859,1264
100.7465026495089,1192
103.18949922410604,1256
105.63182078126385,1119
108.07346752062438,1032
110.51443964190923,1010
112.95473734491827,959
115.39436082953114,911
117.83331029570547,972
120.27158594347827,1022
122.7091879729652,1157
125.1461165843615,1166
127.58237197794062,1073
130.01795435405518,973
132.4528639131364,969
134.88710085569494,981
137.32066538231982,1058
139.75355769367923,998
142.1857779905207,872
144.61732647366978,852
147.04820334403132,938
149.47840880258934,961
151.90794305040674,950
154.33680628862487,1092
156.76499871846443,1226
159.19252054122433,1443
161.61937195828352,1553
164.04555317109896,1706
166.47106438120693,1843
168.89590579022217,1981
171.320077599839,2159
173.7435800118302,2368
176.16641322804742,2517
178.58857745042144,2647
181.01007288096173,2665
183.43089972175687,2702
185.85105817497413,2618
188.27054844285988,2693
190.6893707277394,2720
193.10752523201643,2741
195.5250121581745,2799
197.9418317087751,2799
200.3579840864594,2730
202.7734694939469,2818
205.18828813403627,2843
207.6024402096051,3064
210.01592592360964,3166
212.42874547908548,3129
214.84089907914665,3082
217.2523869269868,3080
219.66320922587727,2950
222.0733661791695,2910
224.48285799029293,2916
226.8916848627572,2853
229.29984700014882,2897
231.7073446061355,2992
234.11417788446204,3017
236.520347038953,3075
238.92585227351185,3031
241.33069379212054,3128
243.73487179884035,3150
246.1383864978112,3037
248.541238093252,3153
250.9434267894609,3059
253.34495279081432,3220
255.74581630176783,3286
258.1460175268563,3146
260.54555667069314,3076
262.9444339379703,3160
265.3426495334594,3180
267.7402036620107,3063
270.1370965285529,3012
272.53332833809407,3052
274.9288992957214,2858
277.32380960660055,2813
279.718059475976,2855
282.1116491091717,2751
284.5045787115897,2712
286.89684848871195,2773
289.2884586460981,2741
291.67940938938807,2757
294.0697009242996,2736
296.4593334566299,2821
298.84830719225477,2823
301.23662233712923,2811
303.6242790972866,2640
306.01127767884,2644
308.39761828798066,2697
310.78330113097934,2749
313.16832641418534,2584
315.5526943440269,2610
317.9364051270112,2511
320.3194589697242,2555
322.70185607883093,2573
325.0835966610754,2540
327.4646809232805,2462
329.8451090723478,2499
332.2248813152577,2511
334.6039978590701,2463
336.9824589109231,2525
339.36026467803447,2380
341.7374153677,2480
344.113911187295,2414
346.48975234427337,2422
348.8649390461686,2274
351.2394715005918,2405
353.61334991523415,2372
355.9865744978655,2345
358.35914545633375,2333
360.73106299856715,2366
363.10232733257146,2368
365.47293866643247,2337
367.84289720831396,2289
370.2122031664593,2318
372.5808567491905,2418
374.9488581649083,2338
377.31620762209275,2290
379.6829053293021,2268
382.0489514951745,2364
384.4143463284262,2180
386.7790900378528,2257
389.14318283232853,2231
391.50662492080653,2272
393.86941651231916,2265
396.23155781597745,2257
398.5930490409713,2241
400.9538903965696,2219
403.3140820921202,2279
405.6736243370498,2267
408.03251734086336,2228
410.3907613131465,2236
412.74835646356166,2102
415.10530300185144,2141
417.4616011378372,2209
419.81725108141893,2170
422.1722530425758,2134
424.5266072313656,2266
426.880313857925,2134
429.2333731324701,2200
431.58578526529516,2215
433.9375504667738,2147
436.2886689473588,2126
438.63914091758113,2195
440.9889665880513,2133
443.33814616945835,2113
445.68667987257015,2170
448.03456790823395,2063
450.3818104873759,2074
452.72840782100013,2048
455.07436012019105,2101
457.41966759611057,2078
459.7643304600007,2150
462.10834892318155,2139
464.4517231970525,2131
466.79445349309174,2104
469.1365400228566,2119
471.4779829979826,2178
473.81878263018564,2056
476.15893913125876,2103
478.4984527130747,2141
480.8373235875855,2248
483.17555196682144,2238
485.5131380628919,2268
487.8500820879857,2380
490.1863842543697,2547
492.52204477439034,2601
494.8570638604725,2889
497.1914417251204,3242
499.52517858091653,3486
501.85827464052306,3542
504.19073011668036,3557
506.5225452222086,3432
508.85372017000566,3385
511.18425517304956,3386
513.514150444396,3567
515.8434061971808,4172
518.1720226446176,5097
520.4999999999999,5526
522.8273384766991,5282
525.1540382881666,4992
527.480099647932,4359
529.8055227696037,3681
532.1303078668694,3016
534.454455153496,2499
536.777964843328,2346
539.1008371502907,2353
541.4230722883866,2325
543.744670471698,2315
546.0656319143858,2243
548.3859568306899,2269
550.7056454349294,2164
553.0246979415016,2196
555.3431145648834,2226
557.6608955196306,2219
559.978041020377,2218
562.2945512818363,2205
564.6104265188006,2180
566.9256669461412,2346
569.2402727788082,2228
571.5542442318302,2276
573.8675815203156,2270
576.1802848594508,2267
578.4923544645015,2258
580.8037905508126,2291
583.114593333807,2338
585.4247630289875,2231
587.7342998519354,2204
590.0432040183106,2289
592.3514757438526,2245
594.6591152443794,2246
596.9661227357875,2313
599.2724984340531,2257
601.578242555231,2338
603.8833553154542,2214
606.1878369309362,2304
608.4916876179676,2269
610.7949075929192,2319
613.0974970722403,2197
615.3994562724587,2279
617.7007854101818,2222
620.0014847020951,2252
622.3015543649641,2257
624.6009946156324,2267
626.8998056710224,2164
629.1979877481361,2310
631.4955410640538,2196
633.7924658359349,2213
636.0887622810175,2304
638.3844306166192,2218
640.6794710601358,2245
642.9738838290426,2224
645.2676691408932,2295
647.5608272133207,2210
649.853358264037,2204
652.1452625108324,2322
654.4365401715764,2303
656.7271914642178,2291
659.0172166067838,2357
661.3066158173809,2353
663.5953893141935,2230
665.8835373154867,2268
668.1710600396028,2258
670.4579577049639,2309
672.7442305300709,2246
675.0298787335033,2224
677.3149025339197,2225
679.599302150058,2215
681.8830778007342,2273
684.1662297048437,2209
686.4487580813608,2324
688.7306631493387,2270
691.0119451279091,2300
693.2926042362834,2248
695.5726406937516,2195
697.8520547196814,2217
700.1308465335215,2261
702.4090163547982,2241
704.6865644031171,2248
706.9634908981619,2257
709.2397960596965,2250
711.5154801075631,2199
713.7905432616823,2214
716.0649857420548,2235
718.3388077687592,2258
720.612009561953,2264
722.8845913418733,2249
725.1565533288352,2250
727.427895743234,2248
729.6986188055427,2254
731.9687227363137,2293
734.238207756178,2223
736.5070740858458,2222
738.7753219461066,2327
741.0429515578281,2237
743.3099631419569,2222
745.5763569195191,2213
747.8421331116193,2238
750.1072919394409,2226
752.3718336242467,2178
754.6357583873777,2158
756.8990664502545,2204
759.1617580343765,2227
761.423833361321,2206
763.6852926527457,2267
765.9461361303862,2310
768.206364016058,2307
770.4659765316536,2284
772.7249738991469,2305
774.9833563405886,2260
777.2411240781092,2255
779.4982773339183,2256
781.7548163303044,2328
784.010741289634,2346
786.2660524343538,2418
788.5207499869881,2242
790.7748341701416,2330
793.0283052064964,2277
795.2811633188143,2310
797.5334087299362,2291
799.7850416627813,2336
802.0360623403484,2267
804.2864709857143,2346
806.5362678220353,2258
808.7854530725468,2300
811.0340269605625,2272
813.2819897094754,2272
815.5293415427581,2245
817.77608268396,2332
820.0222133567116,2335
822.2677337847211,2251
824.5126441917765,2317
826.7569448017433,2336
829.0006358385675,2314
831.2437175262731,2347
833.4861900889629,2338
835.7280537508192,2278
837.9693087361026,2222
840.2099552691533,2308
842.4499935743896,2281
844.689423876309,2256
846.9282463994886,2246
849.1664613685833,2319
851.4040690083276,2375
853.6410695435349,2362
855.877463199097,2330
858.1132501999847,2205
860.3484307712487,2308
862.5830051380175,2307
864.8169735254988,2280
867.0503361589791,2348
869.2830932638243,2367
871.5152450654786,2339
873.7467917894654,2345
875.9777336613873,2296
878.2080709069252,2323
880.4378037518389,2369
882.666932421968,2364
884.8954571432301,2388
887.1233781416219,2427
889.3506956432192,2378
891.5774098741766,2336
893.803521060728,2411
896.0290294291852,2436
898.2539352059397,2339
900.4782386174619,2332
902.7019398903011,2267
904.925039251085,2286
907.147536926521,2368
909.3694331433943,2290
911.59072812857,2296
913.8114221089921,2296
916.0315153116827,2250
918.2510079637437,2305
920.4699002923547,2272
922.6881925247761,2210
924.905884888345,2316
927.1229776104793,2289
929.3394709186747,2279
931.555365040506,2255
933.7706602036275,2350
935.9853566357709,2301
938.1994545647489,2286
940.4129542184515,2344
942.6258558248488,2297
944.8381596119883,2263
947.0498658079974,2249
949.2609746410825,2272
951.4714863395287,2226
953.6814011316998,2136
955.8907192460387,2258
958.0994409110671,2200
960.3075663553858,2219
962.5150958076741,2150
964.7220294966913,2204
966.928367651274,2228
969.1341105003388,2181
971.3392582728806,2185
973.5438111979742,2162
975.747769504772,2188
977.9511334225061,2171
980.153903180487,2246
982.3560790081052,2121
984.5576611348289,2143
986.7586497902058,2163
988.9590452038618,2140
991.158847605503,2083
993.3580572249133,2134
995.5566742919558,2105
997.7546990365728,2030
999.952131688785,2041
1002.1489724786926,1999
1004.3452216364743,2005
1006.5408793923874,1997
1008.7359459767691,1974
1010.9304216200343,1954
1013.1243065526781,1859
1015.3176010052733,1981
1017.510305208472,1911
1019.7024193930064,1952
1021.8939437896848,1941
1024.0848786293977,1951
1026.2752241431122,1885
1028.4649805618747,1865
1030.6541481168115,1869
1032.842727039127,1855
1035.0307175601051,1922
1037.2181199111074,1918
1039.4049343235752,1887
1041.591161029029,1864
1043.7768002590683,1866
1045.9618522453698,1833
1048.1463172196918,1815
1050.3301954138697,1911
1052.513487059818,1861
1054.69619238953,1807
1056.8783116350783,1852
1059.0598450286152,1853
1061.2407928023704,1818
1063.4211551886528,1909
1065.6009324198508,1885
1067.780124728432,1915
1069.9587323469414,1894
1072.1367555080046,1874
1074.314194444325,1865
1076.4910493886855,1877
1078.667320573947,1821
1080.843008233051,1854
1083.0181125990161,1821
1085.1926339049414,1790
1087.3665723840027,1828
1089.5399282694575,1816
1091.7127017946405,1809
1093.8848931929647,1833
1096.0565026979243,1850
1098.2275305430899,1806
1100.3979769621128,1774
1102.567842188722,1747
1104.737126456726,1780
1106.9058300000124,1811
1109.0739530525475,1814
1111.2414958483764,1754
1113.4084586216231,1761
1115.5748416064907,1800
1117.7406450372605,1792
1119.9058691482942,1830
1122.0705141740304,1781
1124.2345803489884,1794
1126.3980679077658,1745
1128.5609770850388,1765
1130.7233081155623,1813
1132.8850612341707,1828
1135.0462366757774,1758
1137.2068346753745,1782
1139.3668554680326,1798
1141.526299288901,1769
1143.68516637321,1688
1145.8434569562655,1756
1148.001171273455,1782
1150.158309560244,1761
1152.3148720521767,1774
1154.470858984876,1728
1156.626270594044,1713
1158.7811071154629,1686
1160.9353687849912,1758
1163.089055838569,1813
1165.242168512213,1734
1167.3947070420209,1715
1169.5466716641677,1727
1171.6980626149075,1718
1173.8488801305748,1746
1175.9991244475814,1717
1178.1487958024186,1714
1180.2978944316555,1743
1182.4464205719428,1729
1184.5943744600072,1775
1186.7417563326567,1732
1188.8885664267755,1681
1191.0348049793297,1718
1193.1804722273619,1735
1195.325568407995,1764
1197.4700937584303,1729
1199.614048515948,1734
1201.7574329179074,1762
1203.900247201746,1719
1206.042491604982,1667
1208.1841663652099,1710
1210.3252717201053,1759
1212.465807907422,1728
1214.6057751649923,1759
1216.7451737307279,1755
1218.8840038426192,1735
1221.0222657387353,1718
1223.1599596572241,1719
1225.2970858363137,1725
1227.4336445143094,1745
1229.5696359295966,1705
1231.705060320639,1811
1233.8399179259786,1768
1235.9742089842384,1712
1238.107933734118,1771
1240.2410924143974,1772
1242.373685263935,1781
1244.5057125216676,1753
1246.6371744266116,1854
1248.7680712178621,1802
1250.898403134593,1891
1253.028170416058,1783
1255.1573733015875,1843
1257.2860120305932,1736
1259.4140868425648,1786
1261.54159797707,1753
1263.6685456737569,1798
1265.7949301723515,1757
1267.9207517126597,1802
1270.046010534565,1777
1272.1707068780306,1821
1274.2948409830983,1821
1276.4184130898889,1751
1278.541423438603,1836
1280.6638722695184,1850
1282.785759822993,1830
1284.9070863394636,1836
1287.0278520594447,1802
1289.1480572235314,1863
1291.2677020723963,1863
1293.3867868467923,1875
1295.5053117875495,1864
1297.623277135579,1877
1299.740683131868,1886
1301.8575300174857,1849
1303.973818033578,1982
1306.0895474213703,1873
1308.2047184221678,1890
1310.3193312773528,1968
1312.4333862283888,1867
1314.5468835168163,1877
1316.659823384255,1882
1318.7722060724045,1862
1320.8840318230418,1929
1322.9953008780249,1858
1325.1060134792888,1883
1327.2161698688478,1902
1329.3257702887959,1948
1331.4348149813054,1828
1333.5433041886276,1885
1335.6512381530933,1833
1337.7586171171101,1878
1339.8654413231675,1944
1341.9717110138317,1868
1344.0774264317488,1935
1346.1825878196432,1972
1348.2871954203192,1901
1350.3912494766587,1904
1352.4947502316231,1964
1354.5976979282532,1876
1356.7000928096686,1853
1358.8019351190665,1899
1360.9032250997243,1913
1363.0039629949988,1873
1365.1041490483235,1905
1367.2037835032133,1902
1369.3028666032606,1937
1371.401398592137,1858
1373.4993797135926,1752
1375.5968102114575,1949
1377.6936903296396,1879
1379.7900203121262,1832
1381.8858004029835,1939
1383.9810308463561,1882
1386.075711886469,1860
1388.1698437676241,1913
1390.2634267342032,1874
1392.356461030667,1870
1394.4489469015557,1939
1396.5408845914872,1859
1398.6322743451592,1981
1400.7231164073469,1865
1402.813411022907,1939
1404.903158436773,1908
1406.9923588939578,1914
1409.0810126395531,1921
1411.1691199187303,1972
1413.2566809767386,1998
1415.343696058907,1940
1417.4301654106425,1955
1419.5160892774315,1957
1421.6014679048399,2098
1423.6863015385125,1947
1425.7705904241707,2031
1427.8543348076178,1975
1429.9375349347342,2023
1432.0201910514802,2015
1434.102303403894,2025
1436.1838722380944,1985
1438.2648978002767,2133
1440.3453803367174,2013
1442.4253200937692,2126
1444.5047173178677,2095
1446.5835722555234,2105
1448.6618851533285,2198
1450.739656257952,2122
1452.8168858161434,2147
1454.8935740747306,2229
1456.96972128062,2179
1459.045327680797,2250
1461.120393522327,2269
1463.1949190523528,2314
1465.2689045180973,2312
1467.3423501668608,2378
1469.415256246024,2348
1471.4876230030463,2505
1473.559450685465,2346
1475.6307395408976,2452
1477.7014898170391,2488
1479.771701761665,2540
1481.8413756226287,2511
1483.9105116478618,2525
1485.9791100853772,2546
1488.0471711832643,2602
1490.1146951896926,2681
1492.1816823529098,2600
1494.2481329212433,2646
1496.3140471430984,2680
1498.3794252669609,2679
1500.4442675413939,2703
1502.5085742150404,2825
1504.572345536622,2767
1506.6355817549388,2770
1508.6982831188702,2800
1510.7604498773744,2916
1512.8220822794883,2878
1514.8831805743293,2873
1516.9437450110909,2936
1519.003775839048,2869
1521.0632733075522,2926
1523.1222376660367,2869
1525.1806691640113,2851
1527.2385680510652,2960
1529.2959345768668,3002
1531.3527689911643,3076
1533.4090715437833,3140
1535.4648424846291,3146
1537.5200820636855,3182
1539.5747905310159,3229
1541.6289681367616,3173
1543.6826151311434,3350
1545.7357317644614,3290
1547.7883182870937,3374
1549.8403749494987,3409
1551.8919020022113,3441
1553.9428996958477,3464
1555.9933682811015,3532
1558.0433080087469,3714
1560.0927191296346,3628
1562.1416018946961,3594
1564.1899565549415,3606
1566.2377833614592,3601
1568.2850825654164,3571
1570.3318544180606,3486
1572.3780991707158,3520
1574.423817074788,3270
1576.4690083817595,3144
1578.5136733431923,3029
1580.5578122107272,2990
1582.601425236085,2913
1584.6445126710646,2813
1586.6870747675434,2656
1588.7291117774776,2645
1590.7706239529034,2550
1592.8116115459347,2361
1594.8520748087658,2379
1596.8920139936686,2304
1598.9314293529933,2321
1600.9703211391711,2223
1603.008689604711,2286
1605.0465350022005,2178
1607.0838575843068,2194
1609.1206576037753,2140
1611.1569353134305,2053
1613.1926909661765,2020
1615.2279248149953,2042
1617.2626371129481,1920
1619.2968281131757,2006
1621.3304980688963,1969
1623.3636472334088,1990
1625.39627586009,1895
1627.428384202396,2011
1629.459972513861,1932
1631.4910410480993,1915
1633.5215900588028,1851
1635.551619799744,1846
1637.5811305247717,1912
1639.6101224878166,1888
1641.6385959428862,1902
1643.6665511440683,1961
1645.693988345528,1885
1647.7209078015112,1846
1649.7473097663405,1916
1651.7731944944203,1837
1653.7985622402307,1885
1655.823413258333,1827
1657.847747803366,1862
1659.8715661300494,1859
1661.8948684931793,1788
1663.9176551476316,1829
1665.9399263483624,1774
1667.9616823504057,1780
1669.982923408873,1816
1672.0036497789574,1832
1674.0238617159293,1797
1676.043559475138,1869
1678.0627433120121,1836
1680.081413482059,1821
1682.0995702408654,1814
1684.117213844096,1874
1686.134344547495,1844
1688.1509626068864,1793
1690.1670682781705,1828
1692.182661817329,1745
1694.1977434804217,1851
1696.2123135235875,1841
1698.226372203043,1858
1700.2399197750851,1804
1702.2529564960905,1711
1704.2654826225112,1788
1706.277498410882,1756
1708.2890041178139,1793
1710.2999999999988,1751
1712.3104863142066,1770
1714.3204633172854,1782
1716.329931266163,1775
1718.3388904178469,1829
1720.3473410294214,1763
1722.3552833580516,1774
1724.3627176609807,1775
1726.3696441955308,1828
1728.3760632191033,1788
1730.3819749891782,1749
1732.3873797633146,1763
1734.3922777991502,1735
1736.3966693544012,1737
1738.4005546868639,1712
1740.4039340544127,1772
1742.406807715001,1757
1744.4091759266616,1759
1746.4110389475054,1733
1748.4123970357223,1694
1750.413250449582,1707
1752.4135994474318,1695
1754.4134442876993,1749
1756.4127852288902,1719
1758.4116225295893,1729
1760.4099564484595,1700
1762.407787244244,1696
1764.405115175764,1631
1766.4019405019203,1667
1768.3982634816916,1676
1770.3940843741357,1756
1772.3894034383907,1631
1774.3842209336717,1593
1776.378537119274,1632
1778.372352254571,1658
1780.3656665990156,1635
1782.3584804121397,1633
1784.3507939535534,1682
1786.3426074829463,1689
1788.3339212600863,1690
1790.3247355448211,1729
1792.3150505970766,1665
1794.3048666768573,1673
1796.2941840442477,1705
1798.2830029594106,1701
1800.2713236825884,1681
1802.2591464741004,1725
1804.2464715943465,1706
1806.2332993038058,1670
1808.2196298630352,1677
1810.2054635326708,1738
1812.190800573428,1657
1814.175641246101,1703
1816.1599858115628,1716
1818.1438345307652,1762
1820.127187664738,1669
1822.1100454745924,1716
1824.092408221516,1643
1826.0742761667766,1688
1828.055649571721,1690
1830.0365286977735,1678
1832.0169138064398,1693
1833.9968051593014,1692
1835.9762030180214,1661
1837.9551076443408,1712
1839.9335193000788,1670
1841.9114382471344,1717
1843.888864747485,1669
1845.8657990631878,1706
1847.842241456378,1714
1849.8181921892697,1636
1851.7936515241558,1666
1853.7686197234098,1614
1855.7430970494815,1653
1857.7170837649014,1612
1859.6905801322787,1721
1861.6635864143004,1726
1863.6361028737338,1692
1865.608129773424,1720
1867.5796673762961,1675
1869.5507159453537,1688
1871.521275743678,1647
1873.4913470344313,1662
1875.4609300808534,1646
1877.4300251462632,1744
1879.3986324940588,1654
1881.366752387717,1728
1883.3343850907936,1718
1885.3015308669228,1750
1887.268189979819,1684
1889.2343626932739,1698
1891.2000492711595,1671
1893.1652499774254,1709
1895.1299650761011,1726
1897.0941948312952,1680
1899.0579395071945,1668
1901.0211993680641,1694
1902.98397467825,1664
1904.9462657021745,1620
1906.9080727043415,1699
1908.869395949332,1650
1910.8302357018065,1734
1912.790592226504,1633
1914.7504657882428,1595
1916.7098566519212,1690
1918.6687650825133,1650
1920.6271913450764,1681
1922.5851357047422,1608
1924.5425984267245,1617
1926.499579776314,1622
1928.4560800188833,1601
1930.4120994198802,1645
1932.367638244833,1738
1934.32269675935,1641
1936.2772752291175,1667
1938.231373919899,1631
1940.1849930975404,1695
1942.1381330279637,1671
1944.0907939771696,1642
1946.0429762112412,1613
1947.9946799963363,1685
1949.9459055986945,1681
1951.896653284633,1707
1953.8469233205478,1650
1955.7967159729142,1654
1957.7460315082863,1676
1959.6948701932974,1634
1961.6432322946594,1651
1963.5911180791632,1682
1965.5385278136787,1695
1967.4854617651545,1684
1969.4319202006182,1634
1971.377903387176,1623
1973.3234115920136,1699
1975.268445082395,1617
1977.2130041256642,1689
1979.1570889892423,1648
1981.1006999406304,1664
1983.04383724741,1579
1984.986501177238,1712
1986.928691997853,1580
1988.8704099770712,1691
1990.811655382789,1599
1992.7524284829801,1623
1994.692729545698,1658
1996.6325588390755,1662
1998.5719166313224,1683
2000.5108031907307,1655
2002.4492187856677,1648
2004.387163684583,1633
2006.3246381560011,1634
2008.2616424685298,1611
2010.1981768908527,1555
2012.1342416917332,1577
2014.069837140014,1617
2016.0049635046162,1614
2017.9396210545406,1643
2019.8738100588666,1673
2021.8075307867502,1651
2023.740783507431,1601
2025.6735684902228,1630
2027.6058860045214,1627
2029.5377363198004,1626
2031.4691197056118,1586
2033.4000364315875,1648
2035.3304867674374,1615
2037.260470982952,1643
2039.189989347998,1586
2041.1190421325232,1610
2043.047629606554,1585
2044.9757520401945,1631
2046.9034097036288,1617
2048.8306028671195,1630
2050.7573318010086,1635
2052.683596775716,1628
2054.609398061742,1644
2056.5347359296647,1614
2058.4596106501403,1676
2060.384022493906,1633
2062.3079717317764,1597
2064.231458634646,1585
2066.1544834734873,1603
2068.077046519352,1599
2069.99914804337,1615
2071.9207883167524,1619
2073.8419676107865,1620
2075.7626861968406,1575
2077.6829443463607,1656
2079.6027423308715,1625
2081.522080421977,1617
2083.440958891362,1644
2085.359378010786,1624
2087.2773380520907,1567
2089.194839287196,1597
2091.111881988101,1599
2093.0284664268825,1615
2094.9445928756973,1637
2096.86026160678,1580
2098.775472892446,1595
2100.690227005088,1681
2102.604524217178,1592
2104.5183648012676,1625
2106.431749029985,1649
2108.34467717604,1654
2110.2571495122206,1627
2112.169166311393,1597
2114.080727846503,1626
2115.9918343905747,1611
2117.902486216711,1611
2119.8126835980956,1621
2121.722426807987,1626
2123.6317161197285,1610
2125.5405518067364,1664
2127.448934142509,1594
2129.356863400624,1668
2131.264339854737,1621
2133.1713637785815,1673
2135.077935445972,1650
2136.9840551308002,1656
2138.889723107037,1693
2140.7949396487334,1654
2142.699705030018,1665
2144.6040195250994,1690
2146.507883408264,1634
2148.4112969538774,1636
2150.3142604363848,1696
2152.2167741303097,1759
2154.1188383102535,1658
2156.0204532508997,1708
2157.9216192270064,1694
2159.822336513414,1695
2161.7226053850413,1692
2163.622426116884,1674
2165.5217989840185,1660
2167.4207242616,1755
2169.319202224862,1635
2171.2172331491165,1699
2173.1148173097563,1717
2175.0119549822507,1672
2176.90864644215,1716
2178.8048919650823,1688
2180.7006918267534,1768
2182.596046302952,1729
2184.4909556695407,1648
2186.3854202024645,1691
2188.279440177746,1705
2190.173015871487,1671
2192.066147559868,1704
2193.958835519149,1779
2195.851080025667,1689
2197.7428813558417,1674
2199.6342397861667,1717
2201.5251555932186,1727
2203.415629053651,1711
2205.3056604441986,1766
2207.19525004167,1733
2209.084398122958,1717
2210.9731049650327,1748
2212.861370844941,1715
2214.749196039812,1731
2216.636580826851,1742
2218.523525483344,1723
2220.410030286655,1720
2222.296095514226,1769
2224.1817214435805,1702
2226.066908352319,1759
2227.951656518121,1729
2229.835966218746,1735
2231.71983773203,1809
2233.6032713358913,1758
2235.486267308324,1814
2237.3688259274036,1770
2239.2509474712824,1780
2241.132632218193,1772
2243.013880446447,1733
2244.8946924344323,1789
2246.7750684606203,1804
2248.6550088035574,1796
2250.534513741871,1762
2252.413583554265,1739
2254.292218519526,1732
2256.170418916517,1741
2258.0481850241786,1749
2259.925517121534,1753
2261.8024154876825,1731
2263.678880401803,1779
2265.5549121431536,1811
2267.430510991071,1774
2269.305677224971,1827
2271.180411124348,1778
2273.0547129687766,1773
2274.9285830379076,1821
2276.8020216114737,1733
2278.6750289692845,1796
2280.5476053912294,1744
2282.4197511572766,1760
2284.2914665474727,1756
2286.162751841943,1727
2288.0336073208937,1833
2289.904033264608,1802
2291.774029953448,1856
2293.6435976678554,1784
2295.5127366883517,1769
2297.381447295534,1731
2299.2497297700825,1573
2301.1175843927526,1635
2302.9850114443825,1667
2304.852011205885,1645
2306.7185839582553,1552
2308.5847299825664,1545
2310.4504495599676,1541
2312.3157429716925,1460
2314.1806104990483,1439
2316.0450524234247,1508
2317.9090690262888,1500
2319.772660589186,1574
2321.635827393742,1539
2323.498569721661,1493
2325.3608878547248,1564
2327.2227820747967,1497
2329.0842526638157,1489
2330.945299903803,1474
2332.805924076857,1496
2334.6661254651535,1496
2336.525904350951,1454
2338.3852610165827,1483
2340.244195744464,1497
2342.102708817088,1436
2343.9608005170253,1510
2345.8184711269287,1426
2347.675720929526,1525
2349.532550207628,1450
2351.38895924412,1563
2353.24494832197,1525
2355.100517724223,1439
2356.955667734004,1469
2358.810398634514,1494
2360.664710709037,1498
2362.5186042409337,1453
2364.3720795136437,1570
2366.225136810686,1506
2368.0777764156583,1449
2369.929998612237,1471
2371.7818036841777,1485
2373.633191915315,1477
2375.484163589562,1548
2377.3347189909114,1541
2379.184858403434,1488
2381.03458211128,1494
2382.8838903986775,1531
2384.732783549936,1588
2386.5812618494406,1537
2388.4293255816588,1537
2390.2769750311327,1598
2392.1242104824883,1603
2393.971032220427,1578
2395.8174405297295,1541
2397.6634356952563,1509
2399.509018001947,1505
2401.3541877348193,1494
2403.1989451789705,1563
2405.043290619576,1567
2406.8872243418905,1516
2408.730746631247,1493
2410.5738577730594,1534
2412.4165580528183,1554
2414.258847756095,1571
2416.100727168537,1531
2417.9421965758734,1496
2419.783256263912,1488
2421.623906518538,1573
2423.4641476257157,1548
2425.303979871491,1480
2427.143403541984,1523
2428.9824189233977,1500
2430.821026302012,1505
2432.6592259641866,1578
2434.497018196361,1524
2436.33440328505,1494
2438.171381516851,1533
2440.00795317844,1501
2441.844118556569,1525
2443.6798779380724,1562
2445.5152316098606,1546
2447.3501798589255,1507
2449.1847229723357,1522
2451.0188612372403,1546
2452.8525949408663,1515
2454.6859243705203,1535
2456.518849813587,1552
2458.3513715575314,1531
2460.183489889895,1542
2462.015205098301,1592
2463.8465174704493,1563
2465.67742729412,1529
2467.5079348571717,1557
2469.338040447542,1544
2471.1677443532476,1606
2472.9970468623833,1582
2474.825948263123,1559
2476.6544488437207,1511
2478.482548892508,1563
2480.310248697896,1553
2482.137548548374,1558
2483.9644487325118,1542
2485.790949538956,1510
2487.617051256433,1570
2489.44275417375,1546
2491.26805857979,1605
2493.0929647635157,1559
2494.917473013971,1540
2496.741583620276,1570
2498.5652968716304,1553
2500.3886130573137,1628
2502.2115324666834,1546
2504.0340553891765,1610
2505.856182114308,1533
2507.6779129316733,1605
2509.499248130945,1605
2511.3201880018764,1528
2513.140732834298,1640
2514.9608829181198,1579
2516.780638543331,1609
2518.6,1621
2520.418967578273,1666
2522.237541568376,1533
2524.0557222606144,1543
2525.8735099453706,1619
2527.6909049131086,1656
2529.507907454368,1629
2531.32451785977,1666
2533.140736420014,1608
2534.9565634258774,1639
2536.771999168218,1582
2538.5870439379714,1621
2540.4016980261526,1656
2542.2159617238544,1707
2544.02983532225,1671
2545.8433191125914,1637
2547.656413386209,1592
2549.4691184345115,1657
2551.2814345489874,1673
2553.093362021204,1770
2554.904901142808,1705
2556.716052205523,1696
2558.526815501153,1689
2560.3371913215824,1697
2562.147179958771,1726
2563.956781704761,1765
2565.7659968516705,1739
2567.5748256916986,1742
2569.3832685171224,1746
2571.1913256202984,1728
2572.9989972936614,1790
2574.806283829725,1759
2576.613185521084,1764
2578.4197026604074,1721
2580.2258355404483,1779
2582.031584454035,1788
2583.836949694077,1791
2585.6419315535613,1818
2587.4465303255533,1794
2589.2507463032002,1819
2591.0545797797245,1834
2592.8580310484303,1821
2594.6611004026995,1859
2596.463788135992,1838
2598.266094541849,1829
2600.0680199138874,1828
2601.869564545807,1895
2603.670728731383,1862
2605.4715127644704,1791
2607.2719169390048,1854
2609.071941548998,1864
2610.8715868885433,1801
2612.670853251811,1831
2614.469740933052,1821
2616.268250226594,1863
2618.0663814268455,1810
2619.864134828292,1804
2621.6615107255006,1813
2623.458509413115,1836
2625.2551311858597,1780
2627.0513763385347,1766
2628.8472451660223,1729
2630.6427379632833,1761
2632.4378550253564,1764
2634.232596647359,1788
2636.026963124488,1705
2637.8209547520187,1733
2639.6145718253065,1748
2641.407814639785,1731
2643.200683490966,1715
2644.9931786744414,1718
2646.7853004858807,1722
2648.577049221034,1699
2650.3684251757277,1754
2652.1594286458712,1689
2653.9500599274484,1716
2655.740319316525,1658
2657.5302071092437,1637
2659.3197236018286,1652
2661.10886909058,1640
2662.8976438718782,1719
2664.686048242183,1688
2666.4740824980327,1670
2668.2617469360443,1656
2670.0490418529134,1657
2671.8359675454153,1641
2673.622524310403,1641
2675.408712444811,1656
2677.1945322456495,1547
2678.979984010009,1533
2680.76506803506,1622
2682.5497846180497,1588
2684.334134056306,1549
2686.1181166472343,1582
2687.9017326883213,1567
2689.6849824771293,1543
2691.4678663113013,1554
2693.2503844885596,1560
2695.032537306705,1535
2696.8143250636167,1559
2698.5957480572542,1553
2700.3768065856534,1544
2702.1575009469316,1581
2703.937831439283,1529
2705.717798360982,1494
2707.4974020103837,1589
2709.276642685917,1534
2711.055520686095,1462
2712.834036309506,1505
2714.612189854819,1562
2716.389981620782,1488
2718.1674119062204,1566
2719.944481010041,1533
2721.721189231226,1523
2723.4975368688415,1564
2725.273524222027,1541
2727.0491515900053,1491
2728.824419272075,1475
2730.5993275676146,1522
2732.3738767760838,1499
2734.148067197016,1537
2735.921899130031,1460
2737.6953728748194,1482
2739.468488731156,1478
2741.2412469988926,1515
2743.0136479779617,1515
2744.785691968372,1464
2746.5573792702116,1506
2748.3287101836504,1467
2750.099685008934,1486
2751.870304046388,1448
2753.640567596418,1535
2755.4104759595057,1443
2757.1800294362156,1457
2758.949228327187,1492
2760.7180729331412,1514
2762.486563554877,1482
2764.254700493272,1540
2766.022484049284,1484
2767.789914523947,1489
2769.5569922183786,1565
2771.3237174337705,1516
2773.090090471394,1437
2774.8561116326036,1492
2776.6217812188274,1503
2778.3870995315756,1512
2780.1520668724356,1517
2781.9166835430747,1501
2783.6809498452394,1502
2785.444866080754,1467
2787.2084325515225,1551
2788.971649559527,1506
2790.73451740683,1464
2792.4970363955713,1464
2794.2592068279705,1423
2796.0210290063264,1462
2797.7825032330147,1424
2799.543629810493,1510
2801.304409041296,1509
2803.0648412280366,1463
2804.8249266734088,1494
2806.5846656801846,1512
2808.344058551212,1447
2810.1031055894246,1449
2811.8618070978273,1494
2813.6201633795085,1494
2815.378174737636,1504
2817.1358414754536,1480
2818.893163896285,1519
2820.6501423035334,1458
2822.4067770006814,1512
2824.1630682912883,1497
2825.9190164789957,1425
2827.6746218675207,1488
2829.429884760661,1444
2831.184805462294,1470
2832.9393842763743,1484
2834.693621506936,1491
2836.4475174580916,1505
2838.201072434034,1524
2839.954286739034,1531
2841.707160677441,1502
2843.459694553685,1431
2845.2118886722724,1455
2846.96374333779,1448
2848.7152588549034,1513
2850.4664355283567,1487
2852.217273662973,1483
2853.9677735636546,1500
2855.7179355353833,1533
2857.4677598832186,1531
2859.217246912299,1471
2860.9663969278427,1437
2862.715210235146,1438
2864.4636871395846,1495
2866.211827946614,1473
2867.9596329617652,1512
2869.7071024906536,1483
2871.4542368389684,1444
2873.20103631248,1475
2874.947501217038,1489
2876.6936318585695,1502
2878.4394285430812,1506
2880.1848915766604,1481
2881.9300212654707,1595
2883.6748179157553,1533
2885.4192818338374,1459
2887.1634133261173,1444
2888.907212699077,1452
2890.6506802592744,1442
2892.393816313348,1516
2894.1366211680142,1446
2895.8790951300693,1471
2897.621238506388,1518
2899.363051603925,1430
2901.1045347297118,1438
2902.8456881908596,1518
2904.58651229456,1474
2906.327007348081,1501
2908.067173658772,1478
2909.8070115340597,1449
2911.5465212814497,1512
2913.285703208527,1466
2915.0245576229563,1523
2916.7630848324807,1463
2918.5012851449196,1540
2920.2391588681758,1508
2921.976706310227,1467
2923.7139277791334,1504
2925.4508235830313,1480
2927.187394030137,1502
2928.923639428745,1444
2930.6595600872306,1451
2932.395156314046,1498
2934.1304284177218,1515
2935.8653767068713,1508
2937.6000014901815,1469
2939.3343030764227,1513
2941.068281774442,1471
2942.8019378931644,1473
2944.5352717415976,1502
2946.2682836288236,1480
2948.0009738640065,1492
2949.7333427563885,1490
2951.465390615289,1520
2953.1971177501086,1478
2954.9285244703265,1501
2956.6596110855,1493
2958.3903779052657,1530
2960.1208252393385,1539
2961.8509533975125,1501
2963.5807626896617,1544
2965.3102534257378,1476
2967.0394259157715,1455
2968.768280469873,1510
2970.496817398232,1442
2972.2250370111146,1415
2973.952939618869,1479
2975.6805255319196,1506
2977.4077950607707,1537
2979.134748516006,1514
2980.861386208289,1510
2982.587708448359,1514
2984.313715547037,1452
2986.039407815222,1473
2987.764785563891,1497
2989.489849104102,1442
2991.2145987469908,1541
2992.9390348037705,1466
2994.6631575857346,1503
2996.3869674042576,1529
2998.1104645707887,1506
2999.83364939686,1525
3001.5565221940783,1440
3003.2790832741334,1490
3005.0013329487924,1467
3006.7232715298996,1453
3008.4448993293804,1455
3010.166216659239,1421
3011.887223831558,1479
3013.607921158498,1467
3015.3283089522993,1475
3017.0483875252826,1460
3018.7681571898443,1491
3020.4876182584626,1394
3022.2067710436927,1506
3023.9256158581707,1464
3025.644153014609,1454
3027.362382825801,1442
3029.0803056046193,1506
3030.797921664012,1414
3032.5152313170106,1504
3034.2322348767225,1453
3035.9489326563353,1413
3037.665324969115,1460
3039.3814121284063,1497
3041.097194447633,1486
3042.812672240299,1484
3044.5278458199855,1431
3046.2427155003525,1482
3047.9572815951406,1475
3049.671544418167,1413
3051.38550428333,1424
3053.0991615046073,1459
3054.812516396051,1483
3056.5255692717974,1510
3058.2383204460575,1484
3059.9507702331257,1496
3061.662918947372,1441
3063.3747669032446,1528
3065.0863144152736,1483
3066.7975617980674,1560
3068.508509366309,1443
3070.219157434767,1476
3071.9295063182844,1478
3073.639556331785,1492
3075.3493077902704,1511
3077.058761008821,1440
3078.7679163025964,1493
3080.476773986837,1499
3082.1853343768594,1504
3083.89359778806,1453
3085.6015645359153,1496
3087.3092349359786,1415
3089.016609303884,1467
3090.7236879553434,1469
3092.4304712061476,1480
3094.136959372166,1448
3095.843152769349,1489
3097.5490517137237,1502
3099.2546565213966,1441
3100.959967508554,1470
3102.66498499146,1497
3104.3697092864577,1481
3106.0741407099695,1563
3107.778279578498,1506
3109.482126208622,1445
3111.1856809170004,1503
3112.8889440203716,1510
3114.5919158355528,1470
3116.294596679439,1484
3117.996986869006,1510
3119.6990867213062,1512
3121.4008965534726,1511
3123.102416682717,1487
3124.803647426329,1473
3126.5045891016784,1452
3128.205242026213,1474
3129.90560651746,1454
3131.605682893025,1531
3133.3054714705922,1495
3135.0049725679282,1522
3136.7041865028714,1537
3138.4031135933465,1536
3140.101754157353,1455
3141.800108512971,1473
3143.498176978357,1561
3145.1959598717494,1406
3146.8934575114636,1495
3148.5906702158954,1480
3150.2875983035183,1420
3151.9842420928853,1444
3153.680601902627,1475
3155.376678051456,1477
3157.07247085816,1419
3158.767980641609,1403
3160.463207720748,1463
3162.158152414606,1474
3163.8528150422862,1445
3165.5471959229726,1434
3167.2412953759303,1528
3168.9351137204976,1448
3170.628651276098,1509
3172.3219083622307,1464
3174.014885298474,1520
3175.707582404485,1470
3177.4000000000005,1471
3179.092138404835,1502
3180.7839979388846,1477
3182.47557892212,1441
3184.166881674594,1501
3185.8579065164386,1464
3187.5486537678626,1490
3189.2391237491547,1501
3190.9293167806827,1477
3192.6192331828934,1483
3194.3088732763117,1478
3195.998237381542,1435
3197.687325819268,1398
3199.376138910251,1455
3201.064676975334,1465
3202.7529403354347,1533
3204.4409293115523,1442
3206.1286442247647,1452
3207.816085396229,1438
3209.5032531471825,1468
3211.190147798936,1411
3212.8767696728846,1463
3214.5631190905015,1486
3216.2491963733373,1388
3217.9350018430214,1423
3219.6205358212637,1450
3221.305798629851,1425
3222.990790590651,1391
3224.6755120256103,1432
3226.359963256751,1460
3228.0441446061795,1464
3229.7280563960758,1471
3231.411698948703,1474
3233.0950725863995,1484
3234.778177631587,1451
3236.461014406761,1464
3238.1435832345005,1430
3239.8258844374595,1533
3241.507918338374,1377
3243.1896852600576,1440
3244.8711855254023,1474
3246.552419457381,1461
3248.233387379042,1478
3249.914089613516,1519
3251.59452648401,1525
3253.274698313813,1489
3254.95460542629,1402
3256.6342481448855,1415
3258.313626793125,1472
3259.9927416946084,1434
3261.6715931730196,1416
3263.3501815521176,1422
3265.0285071557437,1391
3266.706570307815,1455
3268.3843713323286,1446
3270.0619105533615,1412
3271.739188295068,1420
3273.4162048816834,1421
3275.0929606375184,1491
3276.769455886966,1463
3278.445690954498,1419
3280.1216661646613,1415
3281.797381842087,1471
3283.4728383114807,1449
3285.1480358976296,1440
3286.8229749253996,1396
3288.4976557197333,1430
3290.172078605655,1445
3291.846243908266,1439
3293.5201519527463,1423
3295.193803064357,1386
3296.8671975684374,1452
3298.5403357904024,1471
3300.21321805575,1459
3301.8858446900567,1476
3303.558216018975,1466
3305.23033236824,1492
3306.9021940636603,1439
3308.57380143113,1495
3310.2451547966184,1494
3311.916254486174,1449
3313.5871008259246,1481
3315.2576941420766,1477
3316.9280347609147,1452
3318.5981230088046,1491
3320.2679592121895,1460
3321.9375436975924,1433
3323.606876791612,1398
3325.27595882093,1460
3326.944790112305,1438
3328.6133709925753,1474
3330.2817017886573,1406
3331.949782827547,1387
3333.617614436319,1484
3335.2851969421245,1495
3336.952530672199,1489
3338.619615953853,1426
3340.286453114475,1486
3341.9530424815357,1490
3343.619384382583,1521
3345.2854791452437,1455
3346.951327097224,1459
3348.6169285663073,1461
3350.2822838803577,1486
3351.947393367319,1517
3353.61225735521,1472
3355.2768761721345,1493
3356.9412501462693,1442
3358.605379605873,1433
3360.2692648792827,1437
3361.9329062949146,1440
3363.596304181263,1476
