CollectionTime,7/10/2024 4:29:39 PM
ExposureUsed,3
CalibratedSpectrum
-962.7078968117929,572
-959.9714848408522,607
-957.2358232597828,650
-954.5009119013725,664
-951.7667505983302,650
-949.0333391832855,670
-946.3006774887896,623
-943.5687653473143,677
-940.837602591253,629
-938.1071890529199,618
-935.3775245645503,648
-932.6486089583007,657
-929.9204420662485,695
-927.1930237203925,662
-924.4663537526524,616
-921.7404319948689,637
-919.0152582788041,655
-916.2908324361409,660
-913.5671542984834,672
-910.8442236973568,664
-908.1220404642074,648
-905.4006044304027,661
-902.679915427231,670
-899.959973285902,646
-897.2407778375464,675
-894.5223289132158,640
-891.8046263438832,638
-889.0876699604426,648
-886.3714595937089,622
-883.6559950744183,692
-880.9412762332282,633
-878.2273029007168,678
-875.5140749073835,651
-872.8015920836489,639
-870.0898542598545,642
-867.3788612662631,623
-864.6686129330585,653
-861.9591090903457,643
-859.2503495681506,702
-856.5423341964203,641
-853.8350628050229,633
-851.1285352237478,637
-848.4227512823054,628
-845.7177108103272,662
-843.0134136373656,641
-840.3098595928943,624
-837.6070485063082,645
-834.9049802069229,658
-832.2036545239757,661
-829.5030712866244,650
-826.8032303239481,662
-824.1041314649472,664
-821.4057745385428,645
-818.7081593735775,670
-816.0112857988148,690
-813.3151536429393,706
-810.6197627345566,693
-807.9251129021936,678
-805.2312039742981,635
-802.5380357792392,675
-799.8456081453069,662
-797.1539209007124,639
-794.462973873588,655
-791.772766891987,667
-789.083299783884,701
-786.3945723771743,687
-783.7065844996748,663
-781.0193359791231,689
-778.3328266431781,682
-775.6470563194197,667
-772.9620248353489,641
-770.2777320183878,679
-767.5941776958798,663
-764.9113616950891,647
-762.2292838432011,655
-759.5479439673222,660
-756.8673418944801,659
-754.1874774516235,671
-751.5083504656222,705
-748.8299607632671,706
-746.15230817127,695
-743.475392516264,705
-740.7992136248035,730
-738.1237713233636,703
-735.4490654383407,713
-732.7750957960521,691
-730.1018622227365,700
-727.4293645445534,700
-724.7576025875837,698
-722.0865761778291,690
-719.4162851412126,747
-716.7467293035781,711
-714.0779084906909,707
-711.409822528237,762
-708.7424712418238,670
-706.0758544569796,702
-703.4099719991541,724
-700.7448236937178,720
-698.0804093659622,726
-695.4167288411002,751
-692.7537819442656,711
-690.0915685005134,747
-687.4300883348199,686
-684.7693412720819,771
-682.1093271371178,767
-679.4500457546669,713
-676.7914969493897,743
-674.1336805458676,762
-671.4765963686034,729
-668.8202442420206,763
-666.1646239904642,755
-663.5097354382001,760
-660.8555784094151,736
-658.2021527282176,752
-655.5494582186366,776
-652.8974947046223,753
-650.2462620100463,753
-647.5957599587009,767
-644.9459883742998,790
-642.2969470804776,760
-639.6486359007902,734
-637.0010546587141,777
-634.3542031776476,779
-631.7080812809096,793
-629.0626887917401,799
-626.4180255333008,789
-623.7740913286734,776
-621.1308860008619,784
-618.4884093727904,771
-615.8466612673046,810
-613.2056415071715,799
-610.5653499150785,817
-607.9257863136347,849
-605.28695052537,781
-602.6488423727357,764
-600.0114616781036,788
-597.3748082637674,763
-594.7388819519412,788
-592.1036825647604,791
-589.4692099242818,818
-586.8354638524829,838
-584.2024441712624,819
-581.5701507024403,854
-578.9385832677575,785
-576.3077416888759,801
-573.6776257873787,853
-571.0482353847704,803
-568.4195703024757,831
-565.7916303618415,836
-563.164415384135,824
-560.5379251905453,829
-557.9121596021815,791
-555.2871184400748,833
-552.6628015251767,829
-550.0392086783606,841
-547.4163397204204,833
-544.794194472071,849
-542.1727727539491,865
-539.5520743866118,852
-536.9320991905377,869
-534.3128469861261,920
-531.6943175936979,957
-529.0765108334947,939
-526.4594265256793,989
-523.8430644903358,1080
-521.2274245474689,1243
-518.612506517005,1239
-515.9983102187913,1234
-513.3848354725959,1191
-510.77208209810846,1274
-508.16004991493924,1284
-505.5487387426199,1431
-502.9381484006032,1600
-500.3282787082628,1610
-497.71912948489364,1672
-495.1107005497117,1622
-492.5029917218539,1490
-489.8960028203786,1378
-487.28973366426493,1191
-484.68418407241325,1173
-482.07935386364494,1109
-479.47524285670266,1083
-476.87185087025,1068
-474.2691777228715,1090
-471.66722323307334,1056
-469.0659872192821,1047
-466.4654694998459,1063
-463.86566989303384,1054
-461.26658821703614,1042
-458.66822428996414,1059
-456.07057792985,1049
-453.4736489546475,1062
-450.877437182231,1057
-448.28194243039627,1098
-445.68716451686,967
-443.09310325926003,1001
-440.49975847515555,1026
-437.9071299820263,998
-435.31521759727354,978
-432.72402113821954,1029
-430.13354042210767,1067
-427.5437752661022,1002
-424.95472548728867,1053
-422.36639090267386,1034
-419.7787713291855,1061
-417.1918665836721,1102
-414.60567648290385,1121
-412.0202008435715,1163
-409.4354394822874,1164
-406.8513922155845,1128
-404.26805885991723,1097
-401.685439231661,1092
-399.103533147112,1077
-396.522340422488,1052
-393.9418608739278,1072
-391.3620943174908,1042
-388.7830405691583,1040
-386.2046994448317,1028
-383.6270707603344,1042
-381.05015433141045,995
-378.473949973725,864
-375.8984575028645,826
-373.32367673433623,709
-370.74960748356875,681
-368.1762495659117,661
-365.60360279663576,636
-363.03166699093265,574
-360.4604419639154,564
-357.8899275306178,520
-355.32012350599507,517
-352.7510297049233,540
-350.1826459421999,517
-347.61497203254316,498
-345.04800779059235,499
-342.4817530309082,536
-339.91620756797226,537
-337.35137121618743,502
-334.7872437898774,497
-332.22382510328725,526
-329.66111497058273,505
-327.09911320585127,542
-324.53781962310075,530
-321.9772340362607,537
-319.4173562591816,506
-316.8581861056348,485
-314.2997233893127,497
-311.7419679238294,480
-309.1849195227194,505
-306.62857799943856,552
-304.0729431673641,500
-301.51801483979375,538
-298.963792829947,567
-296.41027695096386,556
-293.85746701590574,593
-291.3053628377552,595
-288.7539642294155,586
-286.2032710037115,602
-283.65328297338897,546
-281.1039999511146,573
-278.5554217494762,638
-276.007548180983,754
-273.4603790580651,632
-270.9139141930734,582
-268.3681533982807,538
-265.8230964858798,547
-263.27874326798565,593
-260.7350935566336,628
-258.1921471637804,611
-255.6499039013039,587
-253.10836358100266,592
-250.56752601459698,605
-248.02739101372765,640
-245.48795838995704,610
-242.94922795476816,630
-240.41119951956557,647
-237.8738728956746,704
-235.33724789434166,710
-232.80132432673452,665
-230.2661020039418,621
-227.73158073697357,647
-225.19776033676033,719
-222.66464061415422,763
-220.1322213799284,735
-217.60050244477725,663
-215.06948361931552,622
-212.53916471408013,703
-210.00954553952818,742
-207.48062590603843,669
-204.9524056239104,656
-202.4248845033651,689
-199.8980623545441,715
-197.37193898751036,760
-194.84651421224817,705
-192.32178783866232,689
-189.79775967657952,738
-187.27442953574644,840
-184.7517972258321,869
-182.2298625564256,857
-179.7086253370378,793
-177.18808537710026,757
-174.66824248596583,735
-172.14909647290835,822
-169.6306471471229,879
-167.11289431772548,853
-164.59583779375328,858
-162.07947738416453,906
-159.5638128978386,1022
-157.04884414357605,1004
-154.53457093009854,1034
-152.02099306604828,987
-149.50811035998936,906
-146.99592262040665,930
-144.48442965570587,945
-141.97363127421409,895
-139.46352728417958,988
-136.95411749377126,1071
-134.44540171107985,984
-131.93737974411636,891
-129.43005140081357,942
-126.92341648902493,1161
-124.41747481652521,1490
-121.91222619101006,1862
-119.40767042009657,2099
-116.90380731132257,2204
-114.40063667214702,2364
-111.8981583099503,2058
-109.3963720320337,1797
-106.89527764561933,1786
-104.39487495785067,1873
-101.89516377579241,2143
-99.39614390642998,3017
-96.89781515667039,3264
-94.40017733334128,3028
-91.90323024319173,2434
-89.40697369289148,2044
-86.91140748903172,2618
-84.41653143812482,3794
-81.92234534660395,4576
-79.42884902082358,4678
-76.93604226705907,5301
-74.4439248915071,8243
-71.95249670028534,13892
-69.46175749943245,17831
-66.97170709490854,19330
-64.48234529259423,19012
-61.99367189829195,17580
-59.50568671772464,14319
-57.01838955653636,9677
-54.53178022029283,8586
-52.045858514480074,9563
-49.560624244506016,10858
-47.07607721569923,12363
-44.59221723330904,14942
-42.10904410250669,15711
-39.62655762838392,15187
-37.14475761595372,15243
-34.66364387015028,17566
-32.18321619582866,19024
-29.70347439776515,19221
-27.224418280657005,19750
-24.74604764912317,18489
-22.26836230770266,19439
-19.7913620608565,26288
-17.315046712966478,40915
-14.83941606833514,55095
-12.36446993118659,65038
-9.89020810566592,65038
-7.416630395839093,65038
-4.94373660569363,65038
-2.471526539137585,65038
-6.821210263296962E-13,65038
2.47084320796705,65038
4.941003281093458,65038
7.410480415786196,65038
9.879274808531363,65038
12.347386655893956,65038
14.814816154518212,65038
17.28156350112681,65038
19.74762889252179,65038
22.21301252558385,65038
24.67771459727237,20880
27.141735304626195,4286
29.605074844762612,2954
32.06773341487792,2528
34.52971121224755,2354
36.99100843422559,2351
39.45162527824516,2507
41.91156194181792,2154
44.370818622535126,2036
46.82939551806646,1656
49.287292826160524,1676
51.74451074464503,1813
54.201049471426245,1689
56.65690920448981,1491
59.112090141899785,1402
61.56659248179983,1590
64.02041642241159,1401
66.4735621620365,1173
68.92602989905402,1059
71.37781983192338,1186
73.82893215918205,1360
76.27936707944684,1355
78.72912479141326,1277
81.17820549385567,1210
83.62660938562783,1219
86.07433666566146,1286
88.5213875329681,1288
90.96776218663751,1065
93.41346082583925,974
95.85848364982041,1115
98.30283085790859,1205
100.7465026495089,1234
103.18949922410604,1266
105.63182078126385,1082
108.07346752062438,1075
110.51443964190923,1003
112.95473734491827,952
115.39436082953114,869
117.83331029570547,961
120.27158594347827,1040
122.7091879729652,1228
125.1461165843615,1258
127.58237197794062,1094
130.01795435405518,1019
132.4528639131364,953
134.88710085569494,993
137.32066538231982,1038
139.75355769367923,1010
142.1857779905207,905
144.61732647366978,829
147.04820334403132,925
149.47840880258934,993
151.90794305040674,1017
154.33680628862487,1095
156.76499871846443,1310
159.19252054122433,1468
161.61937195828352,1540
164.04555317109896,1649
166.47106438120693,1784
168.89590579022217,2095
171.320077599839,2220
173.7435800118302,2314
176.16641322804742,2573
178.58857745042144,2527
181.01007288096173,2612
183.43089972175687,2757
185.85105817497413,2648
188.27054844285988,2684
190.6893707277394,2723
193.10752523201643,2771
195.5250121581745,2733
197.9418317087751,2794
200.3579840864594,2811
202.7734694939469,2863
205.18828813403627,2863
207.6024402096051,3033
210.01592592360964,3109
212.42874547908548,3019
214.84089907914665,3106
217.2523869269868,3154
219.66320922587727,3078
222.0733661791695,3020
224.48285799029293,2872
226.8916848627572,2905
229.29984700014882,3006
231.7073446061355,2928
234.11417788446204,2954
236.520347038953,2942
238.92585227351185,3071
241.33069379212054,3203
243.73487179884035,3115
246.1383864978112,3135
248.541238093252,3194
250.9434267894609,3165
253.34495279081432,3161
255.74581630176783,3122
258.1460175268563,3212
260.54555667069314,3116
262.9444339379703,3313
265.3426495334594,3135
267.7402036620107,3095
270.1370965285529,3049
272.53332833809407,2956
274.9288992957214,2921
277.32380960660055,2817
279.718059475976,2826
282.1116491091717,2795
284.5045787115897,2927
286.89684848871195,2714
289.2884586460981,2792
291.67940938938807,2789
294.0697009242996,2779
296.4593334566299,2786
298.84830719225477,2817
301.23662233712923,2801
303.6242790972866,2731
306.01127767884,2634
308.39761828798066,2654
310.78330113097934,2636
313.16832641418534,2666
315.5526943440269,2598
317.9364051270112,2647
320.3194589697242,2560
322.70185607883093,2622
325.0835966610754,2528
327.4646809232805,2516
329.8451090723478,2541
332.2248813152577,2449
334.6039978590701,2476
336.9824589109231,2480
339.36026467803447,2488
341.7374153677,2424
344.113911187295,2395
346.48975234427337,2371
348.8649390461686,2440
351.2394715005918,2442
353.61334991523415,2344
355.9865744978655,2383
358.35914545633375,2336
360.73106299856715,2391
363.10232733257146,2319
365.47293866643247,2394
367.84289720831396,2327
370.2122031664593,2246
372.5808567491905,2275
374.9488581649083,2421
377.31620762209275,2272
379.6829053293021,2311
382.0489514951745,2231
384.4143463284262,2194
386.7790900378528,2242
389.14318283232853,2270
391.50662492080653,2246
393.86941651231916,2205
396.23155781597745,2290
398.5930490409713,2296
400.9538903965696,2232
403.3140820921202,2206
405.6736243370498,2232
408.03251734086336,2253
410.3907613131465,2193
412.74835646356166,2239
415.10530300185144,2170
417.4616011378372,2180
419.81725108141893,2266
422.1722530425758,2201
424.5266072313656,2177
426.880313857925,2228
429.2333731324701,2214
431.58578526529516,2195
433.9375504667738,2164
436.2886689473588,2142
438.63914091758113,2183
440.9889665880513,2144
443.33814616945835,2116
445.68667987257015,2145
448.03456790823395,2142
450.3818104873759,2121
452.72840782100013,2081
455.07436012019105,2093
457.41966759611057,2154
459.7643304600007,2129
462.10834892318155,2161
464.4517231970525,2142
466.79445349309174,2179
469.1365400228566,2215
471.4779829979826,2101
473.81878263018564,2214
476.15893913125876,2142
478.4984527130747,2210
480.8373235875855,2239
483.17555196682144,2271
485.5131380628919,2395
487.8500820879857,2436
490.1863842543697,2566
492.52204477439034,2636
494.8570638604725,2900
497.1914417251204,3119
499.52517858091653,3498
501.85827464052306,3557
504.19073011668036,3622
506.5225452222086,3530
508.85372017000566,3387
511.18425517304956,3421
513.514150444396,3414
515.8434061971808,4212
518.1720226446176,5235
520.4999999999999,5452
522.8273384766991,5228
525.1540382881666,4803
527.480099647932,4387
529.8055227696037,3618
532.1303078668694,3047
534.454455153496,2549
536.777964843328,2367
539.1008371502907,2314
541.4230722883866,2282
543.744670471698,2318
546.0656319143858,2273
548.3859568306899,2312
550.7056454349294,2175
553.0246979415016,2203
555.3431145648834,2206
557.6608955196306,2173
559.978041020377,2182
562.2945512818363,2234
564.6104265188006,2252
566.9256669461412,2236
569.2402727788082,2186
571.5542442318302,2253
573.8675815203156,2244
576.1802848594508,2292
578.4923544645015,2292
580.8037905508126,2313
583.114593333807,2322
585.4247630289875,2304
587.7342998519354,2247
590.0432040183106,2284
592.3514757438526,2246
594.6591152443794,2251
596.9661227357875,2303
599.2724984340531,2232
601.578242555231,2352
603.8833553154542,2247
606.1878369309362,2314
608.4916876179676,2223
610.7949075929192,2229
613.0974970722403,2254
615.3994562724587,2246
617.7007854101818,2199
620.0014847020951,2283
622.3015543649641,2250
624.6009946156324,2300
626.8998056710224,2307
629.1979877481361,2255
631.4955410640538,2284
633.7924658359349,2250
636.0887622810175,2283
638.3844306166192,2296
640.6794710601358,2238
642.9738838290426,2271
645.2676691408932,2308
647.5608272133207,2298
649.853358264037,2361
652.1452625108324,2243
654.4365401715764,2244
656.7271914642178,2327
659.0172166067838,2293
661.3066158173809,2253
663.5953893141935,2317
665.8835373154867,2348
668.1710600396028,2338
670.4579577049639,2239
672.7442305300709,2245
675.0298787335033,2300
677.3149025339197,2303
679.599302150058,2226
681.8830778007342,2314
684.1662297048437,2285
686.4487580813608,2342
688.7306631493387,2257
691.0119451279091,2264
693.2926042362834,2258
695.5726406937516,2259
697.8520547196814,2240
700.1308465335215,2218
702.4090163547982,2262
704.6865644031171,2263
706.9634908981619,2202
709.2397960596965,2259
711.5154801075631,2277
713.7905432616823,2231
716.0649857420548,2236
718.3388077687592,2306
720.612009561953,2352
722.8845913418733,2343
725.1565533288352,2323
727.427895743234,2234
729.6986188055427,2250
731.9687227363137,2247
734.238207756178,2339
736.5070740858458,2299
738.7753219461066,2282
741.0429515578281,2297
743.3099631419569,2277
745.5763569195191,2322
747.8421331116193,2213
750.1072919394409,2266
752.3718336242467,2277
754.6357583873777,2263
756.8990664502545,2244
759.1617580343765,2215
761.423833361321,2250
763.6852926527457,2324
765.9461361303862,2303
768.206364016058,2314
770.4659765316536,2219
772.7249738991469,2331
774.9833563405886,2282
777.2411240781092,2360
779.4982773339183,2258
781.7548163303044,2307
784.010741289634,2301
786.2660524343538,2447
788.5207499869881,2346
790.7748341701416,2305
793.0283052064964,2311
795.2811633188143,2345
797.5334087299362,2354
799.7850416627813,2280
802.0360623403484,2339
804.2864709857143,2293
806.5362678220353,2374
808.7854530725468,2366
811.0340269605625,2292
813.2819897094754,2376
815.5293415427581,2319
817.77608268396,2378
820.0222133567116,2366
822.2677337847211,2343
824.5126441917765,2251
826.7569448017433,2299
829.0006358385675,2356
831.2437175262731,2311
833.4861900889629,2322
835.7280537508192,2332
837.9693087361026,2344
840.2099552691533,2375
842.4499935743896,2318
844.689423876309,2385
846.9282463994886,2314
849.1664613685833,2314
851.4040690083276,2284
853.6410695435349,2262
855.877463199097,2233
858.1132501999847,2333
860.3484307712487,2258
862.5830051380175,2316
864.8169735254988,2243
867.0503361589791,2364
869.2830932638243,2396
871.5152450654786,2355
873.7467917894654,2346
875.9777336613873,2359
878.2080709069252,2364
880.4378037518389,2328
882.666932421968,2338
884.8954571432301,2330
887.1233781416219,2365
889.3506956432192,2472
891.5774098741766,2317
893.803521060728,2338
896.0290294291852,2421
898.2539352059397,2408
900.4782386174619,2401
902.7019398903011,2364
904.925039251085,2321
907.147536926521,2429
909.3694331433943,2293
911.59072812857,2263
913.8114221089921,2319
916.0315153116827,2313
918.2510079637437,2314
920.4699002923547,2359
922.6881925247761,2270
924.905884888345,2284
927.1229776104793,2300
929.3394709186747,2302
931.555365040506,2277
933.7706602036275,2298
935.9853566357709,2328
938.1994545647489,2298
940.4129542184515,2432
942.6258558248488,2378
944.8381596119883,2257
947.0498658079974,2270
949.2609746410825,2259
951.4714863395287,2290
953.6814011316998,2236
955.8907192460387,2220
958.0994409110671,2277
960.3075663553858,2272
962.5150958076741,2233
964.7220294966913,2226
966.928367651274,2117
969.1341105003388,2167
971.3392582728806,2167
973.5438111979742,2240
975.747769504772,2233
977.9511334225061,2144
980.153903180487,2222
982.3560790081052,2197
984.5576611348289,2161
986.7586497902058,2142
988.9590452038618,2117
991.158847605503,2078
993.3580572249133,2143
995.5566742919558,2152
997.7546990365728,2087
999.952131688785,2060
1002.1489724786926,1982
1004.3452216364743,2053
1006.5408793923874,1978
1008.7359459767691,1999
1010.9304216200343,1931
1013.1243065526781,1910
1015.3176010052733,1933
1017.510305208472,2025
1019.7024193930064,1943
1021.8939437896848,1926
1024.0848786293977,1852
1026.2752241431122,1974
1028.4649805618747,1870
1030.6541481168115,1964
1032.842727039127,1933
1035.0307175601051,1861
1037.2181199111074,1921
1039.4049343235752,1865
1041.591161029029,1916
1043.7768002590683,1854
1045.9618522453698,1946
1048.1463172196918,1921
1050.3301954138697,1863
1052.513487059818,1978
1054.69619238953,1909
1056.8783116350783,1897
1059.0598450286152,1838
1061.2407928023704,1829
1063.4211551886528,1850
1065.6009324198508,1878
1067.780124728432,1931
1069.9587323469414,1913
1072.1367555080046,1940
1074.314194444325,1863
1076.4910493886855,1850
1078.667320573947,1909
1080.843008233051,1941
1083.0181125990161,1819
1085.1926339049414,1856
1087.3665723840027,1857
1089.5399282694575,1817
1091.7127017946405,1829
1093.8848931929647,1871
1096.0565026979243,1814
1098.2275305430899,1795
1100.3979769621128,1880
1102.567842188722,1759
1104.737126456726,1765
1106.9058300000124,1772
1109.0739530525475,1833
1111.2414958483764,1789
1113.4084586216231,1823
1115.5748416064907,1804
1117.7406450372605,1737
1119.9058691482942,1764
1122.0705141740304,1809
1124.2345803489884,1792
1126.3980679077658,1866
1128.5609770850388,1850
1130.7233081155623,1767
1132.8850612341707,1790
1135.0462366757774,1790
1137.2068346753745,1789
1139.3668554680326,1805
1141.526299288901,1811
1143.68516637321,1727
1145.8434569562655,1789
1148.001171273455,1767
1150.158309560244,1742
1152.3148720521767,1767
1154.470858984876,1733
1156.626270594044,1760
1158.7811071154629,1740
1160.9353687849912,1735
1163.089055838569,1765
1165.242168512213,1741
1167.3947070420209,1737
1169.5466716641677,1774
1171.6980626149075,1675
1173.8488801305748,1710
1175.9991244475814,1732
1178.1487958024186,1706
1180.2978944316555,1736
1182.4464205719428,1771
1184.5943744600072,1762
1186.7417563326567,1717
1188.8885664267755,1735
1191.0348049793297,1733
1193.1804722273619,1771
1195.325568407995,1773
1197.4700937584303,1705
1199.614048515948,1793
1201.7574329179074,1702
1203.900247201746,1707
1206.042491604982,1718
1208.1841663652099,1762
1210.3252717201053,1758
1212.465807907422,1760
1214.6057751649923,1794
1216.7451737307279,1631
1218.8840038426192,1731
1221.0222657387353,1711
1223.1599596572241,1744
1225.2970858363137,1776
1227.4336445143094,1787
1229.5696359295966,1787
1231.705060320639,1757
1233.8399179259786,1800
1235.9742089842384,1755
1238.107933734118,1845
1240.2410924143974,1812
1242.373685263935,1831
1244.5057125216676,1750
1246.6371744266116,1734
1248.7680712178621,1829
1250.898403134593,1860
1253.028170416058,1789
1255.1573733015875,1819
1257.2860120305932,1787
1259.4140868425648,1828
1261.54159797707,1801
1263.6685456737569,1786
1265.7949301723515,1810
1267.9207517126597,1859
1270.046010534565,1875
1272.1707068780306,1822
1274.2948409830983,1792
1276.4184130898889,1807
1278.541423438603,1909
1280.6638722695184,1893
1282.785759822993,1903
1284.9070863394636,1956
1287.0278520594447,1924
1289.1480572235314,1923
1291.2677020723963,1850
1293.3867868467923,1837
1295.5053117875495,1892
1297.623277135579,1916
1299.740683131868,1852
1301.8575300174857,1884
1303.973818033578,1915
1306.0895474213703,2038
1308.2047184221678,1974
1310.3193312773528,1980
1312.4333862283888,1883
1314.5468835168163,1922
1316.659823384255,1976
1318.7722060724045,1965
1320.8840318230418,1943
1322.9953008780249,1879
1325.1060134792888,1907
1327.2161698688478,1886
1329.3257702887959,1937
1331.4348149813054,1982
1333.5433041886276,1887
1335.6512381530933,1910
1337.7586171171101,1867
1339.8654413231675,1951
1341.9717110138317,1903
1344.0774264317488,1941
1346.1825878196432,1909
1348.2871954203192,1921
1350.3912494766587,1965
1352.4947502316231,1903
1354.5976979282532,1923
1356.7000928096686,1943
1358.8019351190665,1928
1360.9032250997243,1899
1363.0039629949988,1883
1365.1041490483235,1903
1367.2037835032133,1894
1369.3028666032606,1893
1371.401398592137,1796
1373.4993797135926,1881
1375.5968102114575,1967
1377.6936903296396,1954
1379.7900203121262,1929
1381.8858004029835,1939
1383.9810308463561,1878
1386.075711886469,1873
1388.1698437676241,1864
1390.2634267342032,1886
1392.356461030667,1868
1394.4489469015557,1987
1396.5408845914872,1936
1398.6322743451592,1870
1400.7231164073469,1919
1402.813411022907,1967
1404.903158436773,1915
1406.9923588939578,2022
1409.0810126395531,1993
1411.1691199187303,2078
1413.2566809767386,2004
1415.343696058907,1947
1417.4301654106425,2017
1419.5160892774315,2046
1421.6014679048399,1921
1423.6863015385125,2037
1425.7705904241707,1989
1427.8543348076178,2002
1429.9375349347342,1971
1432.0201910514802,2039
1434.102303403894,2040
1436.1838722380944,2088
1438.2648978002767,2091
1440.3453803367174,2102
1442.4253200937692,2066
1444.5047173178677,2150
1446.5835722555234,2159
1448.6618851533285,2151
1450.739656257952,2224
1452.8168858161434,2238
1454.8935740747306,2223
1456.96972128062,2197
1459.045327680797,2241
1461.120393522327,2325
1463.1949190523528,2313
1465.2689045180973,2325
1467.3423501668608,2365
1469.415256246024,2371
1471.4876230030463,2409
1473.559450685465,2494
1475.6307395408976,2462
1477.7014898170391,2468
1479.771701761665,2502
1481.8413756226287,2541
1483.9105116478618,2593
1485.9791100853772,2658
1488.0471711832643,2595
1490.1146951896926,2630
1492.1816823529098,2618
1494.2481329212433,2657
1496.3140471430984,2690
1498.3794252669609,2652
1500.4442675413939,2770
1502.5085742150404,2784
1504.572345536622,2816
1506.6355817549388,2814
1508.6982831188702,2827
1510.7604498773744,2856
1512.8220822794883,2929
1514.8831805743293,2850
1516.9437450110909,2874
1519.003775839048,2906
1521.0632733075522,3010
1523.1222376660367,2976
1525.1806691640113,3014
1527.2385680510652,3079
1529.2959345768668,3072
1531.3527689911643,3065
1533.4090715437833,3149
1535.4648424846291,3204
1537.5200820636855,3220
1539.5747905310159,3275
1541.6289681367616,3344
1543.6826151311434,3313
1545.7357317644614,3317
1547.7883182870937,3463
1549.8403749494987,3481
1551.8919020022113,3491
1553.9428996958477,3578
1555.9933682811015,3646
1558.0433080087469,3704
1560.0927191296346,3639
1562.1416018946961,3660
1564.1899565549415,3707
1566.2377833614592,3645
1568.2850825654164,3536
1570.3318544180606,3482
1572.3780991707158,3331
1574.423817074788,3349
1576.4690083817595,3188
1578.5136733431923,3154
1580.5578122107272,2964
1582.601425236085,2957
1584.6445126710646,2796
1586.6870747675434,2730
1588.7291117774776,2625
1590.7706239529034,2585
1592.8116115459347,2568
1594.8520748087658,2376
1596.8920139936686,2339
1598.9314293529933,2278
1600.9703211391711,2273
1603.008689604711,2140
1605.0465350022005,2150
1607.0838575843068,2098
1609.1206576037753,2127
1611.1569353134305,2074
1613.1926909661765,2054
1615.2279248149953,2017
1617.2626371129481,1990
1619.2968281131757,1948
1621.3304980688963,2022
1623.3636472334088,2019
1625.39627586009,2060
1627.428384202396,1959
1629.459972513861,1965
1631.4910410480993,1935
1633.5215900588028,1963
1635.551619799744,1933
1637.5811305247717,1853
1639.6101224878166,1862
1641.6385959428862,1900
1643.6665511440683,1891
1645.693988345528,1922
1647.7209078015112,1820
1649.7473097663405,1888
1651.7731944944203,1854
1653.7985622402307,1870
1655.823413258333,1859
1657.847747803366,1828
1659.8715661300494,1868
1661.8948684931793,1884
1663.9176551476316,1860
1665.9399263483624,1892
1667.9616823504057,1878
1669.982923408873,1838
1672.0036497789574,1836
1674.0238617159293,1862
1676.043559475138,1758
1678.0627433120121,1919
1680.081413482059,1865
1682.0995702408654,1818
1684.117213844096,1871
1686.134344547495,1902
1688.1509626068864,1824
1690.1670682781705,1784
1692.182661817329,1765
1694.1977434804217,1781
1696.2123135235875,1844
1698.226372203043,1810
1700.2399197750851,1810
1702.2529564960905,1845
1704.2654826225112,1858
1706.277498410882,1850
1708.2890041178139,1794
1710.2999999999988,1783
1712.3104863142066,1752
1714.3204633172854,1744
1716.329931266163,1879
1718.3388904178469,1829
1720.3473410294214,1821
1722.3552833580516,1827
1724.3627176609807,1793
1726.3696441955308,1810
1728.3760632191033,1766
1730.3819749891782,1796
1732.3873797633146,1803
1734.3922777991502,1773
1736.3966693544012,1805
1738.4005546868639,1752
1740.4039340544127,1818
1742.406807715001,1752
1744.4091759266616,1734
1746.4110389475054,1716
1748.4123970357223,1772
1750.413250449582,1755
1752.4135994474318,1662
1754.4134442876993,1704
1756.4127852288902,1759
1758.4116225295893,1690
1760.4099564484595,1781
1762.407787244244,1708
1764.405115175764,1710
1766.4019405019203,1709
1768.3982634816916,1701
1770.3940843741357,1697
1772.3894034383907,1701
1774.3842209336717,1680
1776.378537119274,1701
1778.372352254571,1752
1780.3656665990156,1739
1782.3584804121397,1653
1784.3507939535534,1713
1786.3426074829463,1706
1788.3339212600863,1716
1790.3247355448211,1731
1792.3150505970766,1707
1794.3048666768573,1720
1796.2941840442477,1763
1798.2830029594106,1723
1800.2713236825884,1728
1802.2591464741004,1701
1804.2464715943465,1758
1806.2332993038058,1716
1808.2196298630352,1689
1810.2054635326708,1749
1812.190800573428,1667
1814.175641246101,1710
1816.1599858115628,1702
1818.1438345307652,1699
1820.127187664738,1751
1822.1100454745924,1658
1824.092408221516,1681
1826.0742761667766,1718
1828.055649571721,1675
1830.0365286977735,1707
1832.0169138064398,1686
1833.9968051593014,1663
1835.9762030180214,1718
1837.9551076443408,1706
1839.9335193000788,1765
1841.9114382471344,1722
1843.888864747485,1704
1845.8657990631878,1687
1847.842241456378,1710
1849.8181921892697,1706
1851.7936515241558,1698
1853.7686197234098,1635
1855.7430970494815,1651
1857.7170837649014,1599
1859.6905801322787,1637
1861.6635864143004,1615
1863.6361028737338,1687
1865.608129773424,1745
1867.5796673762961,1639
1869.5507159453537,1755
1871.521275743678,1645
1873.4913470344313,1707
1875.4609300808534,1687
1877.4300251462632,1661
1879.3986324940588,1748
1881.366752387717,1754
1883.3343850907936,1737
1885.3015308669228,1719
1887.268189979819,1680
1889.2343626932739,1689
1891.2000492711595,1714
1893.1652499774254,1716
1895.1299650761011,1701
1897.0941948312952,1677
1899.0579395071945,1724
1901.0211993680641,1682
1902.98397467825,1696
1904.9462657021745,1660
1906.9080727043415,1738
1908.869395949332,1688
1910.8302357018065,1676
1912.790592226504,1783
1914.7504657882428,1669
1916.7098566519212,1698
1918.6687650825133,1730
1920.6271913450764,1669
1922.5851357047422,1712
1924.5425984267245,1680
1926.499579776314,1670
1928.4560800188833,1668
1930.4120994198802,1653
1932.367638244833,1686
1934.32269675935,1742
1936.2772752291175,1633
1938.231373919899,1705
1940.1849930975404,1687
1942.1381330279637,1705
1944.0907939771696,1698
1946.0429762112412,1670
1947.9946799963363,1716
1949.9459055986945,1673
1951.896653284633,1719
1953.8469233205478,1657
1955.7967159729142,1661
1957.7460315082863,1620
1959.6948701932974,1655
1961.6432322946594,1649
1963.5911180791632,1686
1965.5385278136787,1709
1967.4854617651545,1682
1969.4319202006182,1642
1971.377903387176,1679
1973.3234115920136,1698
1975.268445082395,1653
1977.2130041256642,1695
1979.1570889892423,1680
1981.1006999406304,1658
1983.04383724741,1702
1984.986501177238,1648
1986.928691997853,1624
1988.8704099770712,1669
1990.811655382789,1633
1992.7524284829801,1677
1994.692729545698,1664
1996.6325588390755,1650
1998.5719166313224,1680
2000.5108031907307,1649
2002.4492187856677,1585
2004.387163684583,1644
2006.3246381560011,1590
2008.2616424685298,1679
2010.1981768908527,1670
2012.1342416917332,1643
2014.069837140014,1635
2016.0049635046162,1626
2017.9396210545406,1626
2019.8738100588666,1642
2021.8075307867502,1609
2023.740783507431,1634
2025.6735684902228,1650
2027.6058860045214,1615
2029.5377363198004,1644
2031.4691197056118,1606
2033.4000364315875,1636
2035.3304867674374,1665
2037.260470982952,1623
2039.189989347998,1695
2041.1190421325232,1627
2043.047629606554,1634
2044.9757520401945,1661
2046.9034097036288,1623
2048.8306028671195,1699
2050.7573318010086,1615
2052.683596775716,1626
2054.609398061742,1689
2056.5347359296647,1608
2058.4596106501403,1649
2060.384022493906,1594
2062.3079717317764,1621
2064.231458634646,1626
2066.1544834734873,1633
2068.077046519352,1641
2069.99914804337,1614
2071.9207883167524,1669
2073.8419676107865,1699
2075.7626861968406,1635
2077.6829443463607,1630
2079.6027423308715,1648
2081.522080421977,1633
2083.440958891362,1616
2085.359378010786,1670
2087.2773380520907,1671
2089.194839287196,1626
2091.111881988101,1628
2093.0284664268825,1676
2094.9445928756973,1640
2096.86026160678,1722
2098.775472892446,1643
2100.690227005088,1650
2102.604524217178,1628
2104.5183648012676,1620
2106.431749029985,1692
2108.34467717604,1634
2110.2571495122206,1658
2112.169166311393,1636
2114.080727846503,1585
2115.9918343905747,1619
2117.902486216711,1662
2119.8126835980956,1609
2121.722426807987,1632
2123.6317161197285,1625
2125.5405518067364,1680
2127.448934142509,1657
2129.356863400624,1649
2131.264339854737,1687
2133.1713637785815,1628
2135.077935445972,1627
2136.9840551308002,1711
2138.889723107037,1637
2140.7949396487334,1654
2142.699705030018,1705
2144.6040195250994,1643
2146.507883408264,1633
2148.4112969538774,1701
2150.3142604363848,1651
2152.2167741303097,1684
2154.1188383102535,1724
2156.0204532508997,1675
2157.9216192270064,1664
2159.822336513414,1684
2161.7226053850413,1753
2163.622426116884,1643
2165.5217989840185,1689
2167.4207242616,1716
2169.319202224862,1674
2171.2172331491165,1740
2173.1148173097563,1738
2175.0119549822507,1731
2176.90864644215,1706
2178.8048919650823,1727
2180.7006918267534,1693
2182.596046302952,1719
2184.4909556695407,1723
2186.3854202024645,1702
2188.279440177746,1752
2190.173015871487,1740
2192.066147559868,1700
2193.958835519149,1701
2195.851080025667,1713
2197.7428813558417,1706
2199.6342397861667,1694
2201.5251555932186,1689
2203.415629053651,1721
2205.3056604441986,1693
2207.19525004167,1711
2209.084398122958,1750
2210.9731049650327,1764
2212.861370844941,1810
2214.749196039812,1768
2216.636580826851,1784
2218.523525483344,1854
2220.410030286655,1710
2222.296095514226,1822
2224.1817214435805,1740
2226.066908352319,1761
2227.951656518121,1770
2229.835966218746,1726
2231.71983773203,1745
2233.6032713358913,1775
2235.486267308324,1786
2237.3688259274036,1804
2239.2509474712824,1734
2241.132632218193,1785
2243.013880446447,1689
2244.8946924344323,1800
2246.7750684606203,1768
2248.6550088035574,1791
2250.534513741871,1806
2252.413583554265,1852
2254.292218519526,1746
2256.170418916517,1802
2258.0481850241786,1811
2259.925517121534,1790
2261.8024154876825,1724
2263.678880401803,1822
2265.5549121431536,1767
2267.430510991071,1810
2269.305677224971,1815
2271.180411124348,1785
2273.0547129687766,1803
2274.9285830379076,1776
2276.8020216114737,1767
2278.6750289692845,1739
2280.5476053912294,1758
2282.4197511572766,1811
2284.2914665474727,1795
2286.162751841943,1760
2288.0336073208937,1834
2289.904033264608,1841
2291.774029953448,1766
2293.6435976678554,1746
2295.5127366883517,1775
2297.381447295534,1767
2299.2497297700825,1721
2301.1175843927526,1674
2302.9850114443825,1649
2304.852011205885,1582
2306.7185839582553,1630
2308.5847299825664,1537
2310.4504495599676,1520
2312.3157429716925,1505
2314.1806104990483,1495
2316.0450524234247,1500
2317.9090690262888,1535
2319.772660589186,1495
2321.635827393742,1519
2323.498569721661,1547
2325.3608878547248,1508
2327.2227820747967,1561
2329.0842526638157,1482
2330.945299903803,1510
2332.805924076857,1515
2334.6661254651535,1487
2336.525904350951,1531
2338.3852610165827,1501
2340.244195744464,1499
2342.102708817088,1554
2343.9608005170253,1505
2345.8184711269287,1512
2347.675720929526,1589
2349.532550207628,1445
2351.38895924412,1549
2353.24494832197,1548
2355.100517724223,1523
2356.955667734004,1548
2358.810398634514,1523
2360.664710709037,1514
2362.5186042409337,1507
2364.3720795136437,1502
2366.225136810686,1518
2368.0777764156583,1579
2369.929998612237,1506
2371.7818036841777,1542
2373.633191915315,1508
2375.484163589562,1470
2377.3347189909114,1475
2379.184858403434,1533
2381.03458211128,1540
2382.8838903986775,1510
2384.732783549936,1471
2386.5812618494406,1574
2388.4293255816588,1573
2390.2769750311327,1568
2392.1242104824883,1545
2393.971032220427,1523
2395.8174405297295,1547
2397.6634356952563,1561
2399.509018001947,1523
2401.3541877348193,1550
2403.1989451789705,1475
2405.043290619576,1546
2406.8872243418905,1555
2408.730746631247,1525
2410.5738577730594,1501
2412.4165580528183,1504
2414.258847756095,1598
2416.100727168537,1527
2417.9421965758734,1569
2419.783256263912,1508
2421.623906518538,1533
2423.4641476257157,1527
2425.303979871491,1531
2427.143403541984,1551
2428.9824189233977,1563
2430.821026302012,1480
2432.6592259641866,1534
2434.497018196361,1555
2436.33440328505,1505
2438.171381516851,1528
2440.00795317844,1611
2441.844118556569,1557
2443.6798779380724,1530
2445.5152316098606,1588
2447.3501798589255,1569
2449.1847229723357,1527
2451.0188612372403,1540
2452.8525949408663,1506
2454.6859243705203,1562
2456.518849813587,1511
2458.3513715575314,1494
2460.183489889895,1579
2462.015205098301,1504
2463.8465174704493,1566
2465.67742729412,1496
2467.5079348571717,1497
2469.338040447542,1594
2471.1677443532476,1560
2472.9970468623833,1609
2474.825948263123,1495
2476.6544488437207,1541
2478.482548892508,1530
2480.310248697896,1516
2482.137548548374,1524
2483.9644487325118,1581
2485.790949538956,1607
2487.617051256433,1609
2489.44275417375,1594
2491.26805857979,1587
2493.0929647635157,1588
2494.917473013971,1588
2496.741583620276,1605
2498.5652968716304,1584
2500.3886130573137,1566
2502.2115324666834,1589
2504.0340553891765,1634
2505.856182114308,1622
2507.6779129316733,1618
2509.499248130945,1611
2511.3201880018764,1651
2513.140732834298,1620
2514.9608829181198,1596
2516.780638543331,1552
2518.6,1604
2520.418967578273,1595
2522.237541568376,1580
2524.0557222606144,1585
2525.8735099453706,1659
2527.6909049131086,1696
2529.507907454368,1641
2531.32451785977,1598
2533.140736420014,1648
2534.9565634258774,1612
2536.771999168218,1723
2538.5870439379714,1624
2540.4016980261526,1646
2542.2159617238544,1708
2544.02983532225,1686
2545.8433191125914,1672
2547.656413386209,1677
2549.4691184345115,1737
2551.2814345489874,1724
2553.093362021204,1691
2554.904901142808,1723
2556.716052205523,1744
2558.526815501153,1758
2560.3371913215824,1719
2562.147179958771,1703
2563.956781704761,1754
2565.7659968516705,1775
2567.5748256916986,1734
2569.3832685171224,1810
2571.1913256202984,1751
2572.9989972936614,1818
2574.806283829725,1771
2576.613185521084,1771
2578.4197026604074,1774
2580.2258355404483,1786
2582.031584454035,1813
2583.836949694077,1844
2585.6419315535613,1799
2587.4465303255533,1828
2589.2507463032002,1873
2591.0545797797245,1801
2592.8580310484303,1831
2594.6611004026995,1796
2596.463788135992,1780
2598.266094541849,1854
2600.0680199138874,1877
2601.869564545807,1859
2603.670728731383,1795
2605.4715127644704,1873
2607.2719169390048,1821
2609.071941548998,1796
2610.8715868885433,1819
2612.670853251811,1856
2614.469740933052,1876
2616.268250226594,1840
2618.0663814268455,1825
2619.864134828292,1800
2621.6615107255006,1846
2623.458509413115,1855
2625.2551311858597,1825
2627.0513763385347,1762
2628.8472451660223,1829
2630.6427379632833,1815
2632.4378550253564,1758
2634.232596647359,1751
2636.026963124488,1704
2637.8209547520187,1721
2639.6145718253065,1693
2641.407814639785,1772
2643.200683490966,1769
2644.9931786744414,1747
2646.7853004858807,1691
2648.577049221034,1767
2650.3684251757277,1754
2652.1594286458712,1729
2653.9500599274484,1767
2655.740319316525,1657
2657.5302071092437,1672
2659.3197236018286,1682
2661.10886909058,1639
2662.8976438718782,1656
2664.686048242183,1634
2666.4740824980327,1633
2668.2617469360443,1681
2670.0490418529134,1665
2671.8359675454153,1576
2673.622524310403,1612
2675.408712444811,1634
2677.1945322456495,1577
2678.979984010009,1613
2680.76506803506,1548
2682.5497846180497,1556
2684.334134056306,1525
2686.1181166472343,1567
2687.9017326883213,1576
2689.6849824771293,1680
2691.4678663113013,1616
2693.2503844885596,1604
2695.032537306705,1544
2696.8143250636167,1602
2698.5957480572542,1603
2700.3768065856534,1582
2702.1575009469316,1577
2703.937831439283,1594
2705.717798360982,1534
2707.4974020103837,1568
2709.276642685917,1527
2711.055520686095,1524
2712.834036309506,1505
2714.612189854819,1556
2716.389981620782,1527
2718.1674119062204,1552
2719.944481010041,1546
2721.721189231226,1533
2723.4975368688415,1516
2725.273524222027,1559
2727.0491515900053,1556
2728.824419272075,1528
2730.5993275676146,1518
2732.3738767760838,1496
2734.148067197016,1471
2735.921899130031,1506
2737.6953728748194,1566
2739.468488731156,1514
2741.2412469988926,1523
2743.0136479779617,1536
2744.785691968372,1467
2746.5573792702116,1530
2748.3287101836504,1419
2750.099685008934,1450
2751.870304046388,1538
2753.640567596418,1442
2755.4104759595057,1547
2757.1800294362156,1497
2758.949228327187,1540
2760.7180729331412,1481
2762.486563554877,1449
2764.254700493272,1490
2766.022484049284,1522
2767.789914523947,1522
2769.5569922183786,1543
2771.3237174337705,1584
2773.090090471394,1530
2774.8561116326036,1466
2776.6217812188274,1548
2778.3870995315756,1482
2780.1520668724356,1501
2781.9166835430747,1467
2783.6809498452394,1528
2785.444866080754,1537
2787.2084325515225,1476
2788.971649559527,1470
2790.73451740683,1448
2792.4970363955713,1498
2794.2592068279705,1474
2796.0210290063264,1506
2797.7825032330147,1529
2799.543629810493,1484
2801.304409041296,1543
2803.0648412280366,1532
2804.8249266734088,1438
2806.5846656801846,1546
2808.344058551212,1549
2810.1031055894246,1471
2811.8618070978273,1512
2813.6201633795085,1445
2815.378174737636,1454
2817.1358414754536,1474
2818.893163896285,1543
2820.6501423035334,1527
2822.4067770006814,1506
2824.1630682912883,1553
2825.9190164789957,1508
2827.6746218675207,1513
2829.429884760661,1525
2831.184805462294,1525
2832.9393842763743,1481
2834.693621506936,1512
2836.4475174580916,1440
2838.201072434034,1461
2839.954286739034,1488
2841.707160677441,1467
2843.459694553685,1545
2845.2118886722724,1579
2846.96374333779,1490
2848.7152588549034,1511
2850.4664355283567,1542
2852.217273662973,1509
2853.9677735636546,1552
2855.7179355353833,1572
2857.4677598832186,1493
2859.217246912299,1520
2860.9663969278427,1485
2862.715210235146,1516
2864.4636871395846,1489
2866.211827946614,1572
2867.9596329617652,1469
2869.7071024906536,1469
2871.4542368389684,1455
2873.20103631248,1448
2874.947501217038,1503
2876.6936318585695,1503
2878.4394285430812,1508
2880.1848915766604,1514
2881.9300212654707,1515
2883.6748179157553,1419
2885.4192818338374,1433
2887.1634133261173,1477
2888.907212699077,1516
2890.6506802592744,1469
2892.393816313348,1449
2894.1366211680142,1501
2895.8790951300693,1534
2897.621238506388,1566
2899.363051603925,1533
2901.1045347297118,1523
2902.8456881908596,1481
2904.58651229456,1493
2906.327007348081,1492
2908.067173658772,1501
2909.8070115340597,1430
2911.5465212814497,1547
2913.285703208527,1509
2915.0245576229563,1467
2916.7630848324807,1421
2918.5012851449196,1567
2920.2391588681758,1480
2921.976706310227,1557
2923.7139277791334,1460
2925.4508235830313,1500
2927.187394030137,1470
2928.923639428745,1543
2930.6595600872306,1496
2932.395156314046,1428
2934.1304284177218,1497
2935.8653767068713,1509
2937.6000014901815,1489
2939.3343030764227,1508
2941.068281774442,1514
2942.8019378931644,1509
2944.5352717415976,1496
2946.2682836288236,1501
2948.0009738640065,1512
2949.7333427563885,1479
2951.465390615289,1515
2953.1971177501086,1563
2954.9285244703265,1522
2956.6596110855,1486
2958.3903779052657,1517
2960.1208252393385,1474
2961.8509533975125,1515
2963.5807626896617,1506
2965.3102534257378,1497
2967.0394259157715,1466
2968.768280469873,1506
2970.496817398232,1512
2972.2250370111146,1510
2973.952939618869,1473
2975.6805255319196,1530
2977.4077950607707,1507
2979.134748516006,1522
2980.861386208289,1572
2982.587708448359,1580
2984.313715547037,1544
2986.039407815222,1562
2987.764785563891,1451
2989.489849104102,1488
2991.2145987469908,1503
2992.9390348037705,1497
2994.6631575857346,1469
2996.3869674042576,1455
2998.1104645707887,1475
2999.83364939686,1473
3001.5565221940783,1537
3003.2790832741334,1430
3005.0013329487924,1506
3006.7232715298996,1446
3008.4448993293804,1428
3010.166216659239,1507
3011.887223831558,1491
3013.607921158498,1420
3015.3283089522993,1500
3017.0483875252826,1552
3018.7681571898443,1508
3020.4876182584626,1468
3022.2067710436927,1482
3023.9256158581707,1495
3025.644153014609,1464
3027.362382825801,1474
3029.0803056046193,1459
3030.797921664012,1406
3032.5152313170106,1478
3034.2322348767225,1458
3035.9489326563353,1515
3037.665324969115,1519
3039.3814121284063,1460
3041.097194447633,1432
3042.812672240299,1433
3044.5278458199855,1446
3046.2427155003525,1437
3047.9572815951406,1461
3049.671544418167,1470
3051.38550428333,1458
3053.0991615046073,1505
3054.812516396051,1483
3056.5255692717974,1409
3058.2383204460575,1444
3059.9507702331257,1458
3061.662918947372,1482
3063.3747669032446,1510
3065.0863144152736,1493
3066.7975617980674,1483
3068.508509366309,1478
3070.219157434767,1425
3071.9295063182844,1477
3073.639556331785,1502
3075.3493077902704,1479
3077.058761008821,1426
3078.7679163025964,1511
3080.476773986837,1471
3082.1853343768594,1492
3083.89359778806,1477
3085.6015645359153,1465
3087.3092349359786,1479
3089.016609303884,1460
3090.7236879553434,1450
3092.4304712061476,1476
3094.136959372166,1444
3095.843152769349,1483
3097.5490517137237,1476
3099.2546565213966,1568
3100.959967508554,1490
3102.66498499146,1548
3104.3697092864577,1435
3106.0741407099695,1535
3107.778279578498,1456
3109.482126208622,1539
3111.1856809170004,1477
3112.8889440203716,1578
3114.5919158355528,1554
3116.294596679439,1466
3117.996986869006,1507
3119.6990867213062,1521
3121.4008965534726,1516
3123.102416682717,1478
3124.803647426329,1517
3126.5045891016784,1557
3128.205242026213,1466
3129.90560651746,1552
3131.605682893025,1490
3133.3054714705922,1516
3135.0049725679282,1520
3136.7041865028714,1551
3138.4031135933465,1492
3140.101754157353,1509
3141.800108512971,1529
3143.498176978357,1444
3145.1959598717494,1505
3146.8934575114636,1513
3148.5906702158954,1475
3150.2875983035183,1504
3151.9842420928853,1467
3153.680601902627,1534
3155.376678051456,1459
3157.07247085816,1470
3158.767980641609,1489
3160.463207720748,1510
3162.158152414606,1463
3163.8528150422862,1506
3165.5471959229726,1483
3167.2412953759303,1493
3168.9351137204976,1418
3170.628651276098,1527
3172.3219083622307,1469
3174.014885298474,1458
3175.707582404485,1458
3177.4000000000005,1479
3179.092138404835,1439
3180.7839979388846,1477
3182.47557892212,1455
3184.166881674594,1518
3185.8579065164386,1509
3187.5486537678626,1516
3189.2391237491547,1468
3190.9293167806827,1501
3192.6192331828934,1433
3194.3088732763117,1468
3195.998237381542,1429
3197.687325819268,1451
3199.376138910251,1470
3201.064676975334,1498
3202.7529403354347,1534
3204.4409293115523,1459
3206.1286442247647,1469
3207.816085396229,1495
3209.5032531471825,1522
3211.190147798936,1506
3212.8767696728846,1430
3214.5631190905015,1414
3216.2491963733373,1470
3217.9350018430214,1476
3219.6205358212637,1408
3221.305798629851,1470
3222.990790590651,1489
3224.6755120256103,1454
3226.359963256751,1431
3228.0441446061795,1463
3229.7280563960758,1435
3231.411698948703,1520
3233.0950725863995,1434
3234.778177631587,1517
3236.461014406761,1477
3238.1435832345005,1433
3239.8258844374595,1512
3241.507918338374,1509
3243.1896852600576,1464
3244.8711855254023,1451
3246.552419457381,1483
3248.233387379042,1448
3249.914089613516,1472
3251.59452648401,1478
3253.274698313813,1501
3254.95460542629,1503
3256.6342481448855,1491
3258.313626793125,1429
3259.9927416946084,1421
3261.6715931730196,1429
3263.3501815521176,1427
3265.0285071557437,1456
3266.706570307815,1453
3268.3843713323286,1475
3270.0619105533615,1474
3271.739188295068,1463
3273.4162048816834,1471
3275.0929606375184,1470
3276.769455886966,1566
3278.445690954498,1507
3280.1216661646613,1520
3281.797381842087,1484
3283.4728383114807,1492
3285.1480358976296,1502
3286.8229749253996,1515
3288.4976557197333,1493
3290.172078605655,1418
3291.846243908266,1481
3293.5201519527463,1434
3295.193803064357,1450
3296.8671975684374,1476
3298.5403357904024,1454
3300.21321805575,1440
3301.8858446900567,1467
3303.558216018975,1493
3305.23033236824,1462
3306.9021940636603,1486
3308.57380143113,1460
3310.2451547966184,1483
3311.916254486174,1493
3313.5871008259246,1471
3315.2576941420766,1488
3316.9280347609147,1391
3318.5981230088046,1504
3320.2679592121895,1488
3321.9375436975924,1443
3323.606876791612,1437
3325.27595882093,1464
3326.944790112305,1446
3328.6133709925753,1438
3330.2817017886573,1439
3331.949782827547,1487
3333.617614436319,1494
3335.2851969421245,1451
3336.952530672199,1517
3338.619615953853,1490
3340.286453114475,1468
3341.9530424815357,1498
3343.619384382583,1456
3345.2854791452437,1473
3346.951327097224,1493
3348.6169285663073,1464
3350.2822838803577,1516
3351.947393367319,1483
3353.61225735521,1504
3355.2768761721345,1510
3356.9412501462693,1474
3358.605379605873,1470
3360.2692648792827,1425
3361.9329062949146,1438
3363.596304181263,1393
