CollectionTime,7/10/2024 4:29:56 PM
ExposureUsed,3
CalibratedSpectrum
-962.7078968117929,550
-959.9714848408522,590
-957.2358232597828,576
-954.5009119013725,600
-951.7667505983302,617
-949.0333391832855,581
-946.3006774887896,623
-943.5687653473143,620
-940.837602591253,594
-938.1071890529199,568
-935.3775245645503,591
-932.6486089583007,611
-929.9204420662485,610
-927.1930237203925,624
-924.4663537526524,545
-921.7404319948689,614
-919.0152582788041,626
-916.2908324361409,624
-913.5671542984834,623
-910.8442236973568,645
-908.1220404642074,613
-905.4006044304027,625
-902.679915427231,604
-899.959973285902,595
-897.2407778375464,609
-894.5223289132158,593
-891.8046263438832,605
-889.0876699604426,607
-886.3714595937089,594
-883.6559950744183,612
-880.9412762332282,615
-878.2273029007168,579
-875.5140749073835,593
-872.8015920836489,527
-870.0898542598545,601
-867.3788612662631,572
-864.6686129330585,597
-861.9591090903457,569
-859.2503495681506,609
-856.5423341964203,579
-853.8350628050229,570
-851.1285352237478,578
-848.4227512823054,605
-845.7177108103272,576
-843.0134136373656,589
-840.3098595928943,606
-837.6070485063082,610
-834.9049802069229,657
-832.2036545239757,617
-829.5030712866244,601
-826.8032303239481,601
-824.1041314649472,609
-821.4057745385428,595
-818.7081593735775,650
-816.0112857988148,631
-813.3151536429393,651
-810.6197627345566,663
-807.9251129021936,607
-805.2312039742981,601
-802.5380357792392,615
-799.8456081453069,590
-797.1539209007124,585
-794.462973873588,609
-791.772766891987,613
-789.083299783884,589
-786.3945723771743,603
-783.7065844996748,590
-781.0193359791231,639
-778.3328266431781,607
-775.6470563194197,633
-772.9620248353489,605
-770.2777320183878,604
-767.5941776958798,631
-764.9113616950891,614
-762.2292838432011,633
-759.5479439673222,627
-756.8673418944801,596
-754.1874774516235,629
-751.5083504656222,634
-748.8299607632671,665
-746.15230817127,638
-743.475392516264,608
-740.7992136248035,680
-738.1237713233636,611
-735.4490654383407,633
-732.7750957960521,641
-730.1018622227365,664
-727.4293645445534,644
-724.7576025875837,680
-722.0865761778291,637
-719.4162851412126,619
-716.7467293035781,655
-714.0779084906909,657
-711.409822528237,629
-708.7424712418238,646
-706.0758544569796,647
-703.4099719991541,665
-700.7448236937178,689
-698.0804093659622,675
-695.4167288411002,676
-692.7537819442656,669
-690.0915685005134,659
-687.4300883348199,635
-684.7693412720819,704
-682.1093271371178,666
-679.4500457546669,665
-676.7914969493897,650
-674.1336805458676,703
-671.4765963686034,650
-668.8202442420206,681
-666.1646239904642,663
-663.5097354382001,709
-660.8555784094151,723
-658.2021527282176,743
-655.5494582186366,711
-652.8974947046223,704
-650.2462620100463,719
-647.5957599587009,684
-644.9459883742998,721
-642.2969470804776,689
-639.6486359007902,720
-637.0010546587141,725
-634.3542031776476,709
-631.7080812809096,700
-629.0626887917401,733
-626.4180255333008,707
-623.7740913286734,735
-621.1308860008619,709
-618.4884093727904,739
-615.8466612673046,745
-613.2056415071715,752
-610.5653499150785,740
-607.9257863136347,774
-605.28695052537,750
-602.6488423727357,746
-600.0114616781036,729
-597.3748082637674,703
-594.7388819519412,724
-592.1036825647604,734
-589.4692099242818,758
-586.8354638524829,782
-584.2024441712624,751
-581.5701507024403,755
-578.9385832677575,735
-576.3077416888759,757
-573.6776257873787,770
-571.0482353847704,751
-568.4195703024757,733
-565.7916303618415,743
-563.164415384135,778
-560.5379251905453,751
-557.9121596021815,707
-555.2871184400748,764
-552.6628015251767,743
-550.0392086783606,768
-547.4163397204204,746
-544.794194472071,757
-542.1727727539491,840
-539.5520743866118,790
-536.9320991905377,785
-534.3128469861261,785
-531.6943175936979,921
-529.0765108334947,933
-526.4594265256793,925
-523.8430644903358,1052
-521.2274245474689,1140
-518.612506517005,1202
-515.9983102187913,1128
-513.3848354725959,1162
-510.77208209810846,1117
-508.16004991493924,1188
-505.5487387426199,1344
-502.9381484006032,1512
-500.3282787082628,1551
-497.71912948489364,1572
-495.1107005497117,1500
-492.5029917218539,1406
-489.8960028203786,1278
-487.28973366426493,1186
-484.68418407241325,1171
-482.07935386364494,1079
-479.47524285670266,1046
-476.87185087025,1032
-474.2691777228715,1021
-471.66722323307334,1004
-469.0659872192821,968
-466.4654694998459,946
-463.86566989303384,979
-461.26658821703614,947
-458.66822428996414,989
-456.07057792985,1021
-453.4736489546475,983
-450.877437182231,979
-448.28194243039627,979
-445.68716451686,943
-443.09310325926003,885
-440.49975847515555,965
-437.9071299820263,930
-435.31521759727354,964
-432.72402113821954,1004
-430.13354042210767,970
-427.5437752661022,971
-424.95472548728867,989
-422.36639090267386,980
-419.7787713291855,1018
-417.1918665836721,1058
-414.60567648290385,1116
-412.0202008435715,1083
-409.4354394822874,994
-406.8513922155845,1022
-404.26805885991723,1018
-401.685439231661,972
-399.103533147112,1059
-396.522340422488,1011
-393.9418608739278,1014
-391.3620943174908,1015
-388.7830405691583,953
-386.2046994448317,921
-383.6270707603344,907
-381.05015433141045,840
-378.473949973725,849
-375.8984575028645,779
-373.32367673433623,704
-370.74960748356875,656
-368.1762495659117,660
-365.60360279663576,612
-363.03166699093265,577
-360.4604419639154,562
-357.8899275306178,542
-355.32012350599507,521
-352.7510297049233,562
-350.1826459421999,522
-347.61497203254316,503
-345.04800779059235,490
-342.4817530309082,490
-339.91620756797226,513
-337.35137121618743,512
-334.7872437898774,479
-332.22382510328725,512
-329.66111497058273,533
-327.09911320585127,528
-324.53781962310075,533
-321.9772340362607,550
-319.4173562591816,516
-316.8581861056348,490
-314.2997233893127,487
-311.7419679238294,485
-309.1849195227194,499
-306.62857799943856,501
-304.0729431673641,521
-301.51801483979375,537
-298.963792829947,552
-296.41027695096386,527
-293.85746701590574,529
-291.3053628377552,575
-288.7539642294155,602
-286.2032710037115,560
-283.65328297338897,569
-281.1039999511146,585
-278.5554217494762,604
-276.007548180983,663
-273.4603790580651,643
-270.9139141930734,568
-268.3681533982807,560
-265.8230964858798,564
-263.27874326798565,593
-260.7350935566336,602
-258.1921471637804,657
-255.6499039013039,627
-253.10836358100266,562
-250.56752601459698,583
-248.02739101372765,600
-245.48795838995704,660
-242.94922795476816,622
-240.41119951956557,629
-237.8738728956746,632
-235.33724789434166,689
-232.80132432673452,680
-230.2661020039418,693
-227.73158073697357,689
-225.19776033676033,726
-222.66464061415422,745
-220.1322213799284,748
-217.60050244477725,654
-215.06948361931552,618
-212.53916471408013,714
-210.00954553952818,720
-207.48062590603843,696
-204.9524056239104,638
-202.4248845033651,738
-199.8980623545441,729
-197.37193898751036,763
-194.84651421224817,797
-192.32178783866232,741
-189.79775967657952,815
-187.27442953574644,798
-184.7517972258321,777
-182.2298625564256,859
-179.7086253370378,825
-177.18808537710026,772
-174.66824248596583,805
-172.14909647290835,833
-169.6306471471229,833
-167.11289431772548,841
-164.59583779375328,875
-162.07947738416453,897
-159.5638128978386,1014
-157.04884414357605,1035
-154.53457093009854,1055
-152.02099306604828,939
-149.50811035998936,831
-146.99592262040665,887
-144.48442965570587,957
-141.97363127421409,918
-139.46352728417958,945
-136.95411749377126,1052
-134.44540171107985,947
-131.93737974411636,870
-129.43005140081357,899
-126.92341648902493,1202
-124.41747481652521,1521
-121.91222619101006,1976
-119.40767042009657,2230
-116.90380731132257,2154
-114.40063667214702,2303
-111.8981583099503,2072
-109.3963720320337,1667
-106.89527764561933,1638
-104.39487495785067,1820
-101.89516377579241,2163
-99.39614390642998,2987
-96.89781515667039,3349
-94.40017733334128,3128
-91.90323024319173,2574
-89.40697369289148,2108
-86.91140748903172,2685
-84.41653143812482,3642
-81.92234534660395,4280
-79.42884902082358,4456
-76.93604226705907,5052
-74.4439248915071,8235
-71.95249670028534,13537
-69.46175749943245,17257
-66.97170709490854,18677
-64.48234529259423,18121
-61.99367189829195,16654
-59.50568671772464,13468
-57.01838955653636,9453
-54.53178022029283,8104
-52.045858514480074,8904
-49.560624244506016,10500
-47.07607721569923,11458
-44.59221723330904,13014
-42.10904410250669,13701
-39.62655762838392,14135
-37.14475761595372,14922
-34.66364387015028,18253
-32.18321619582866,19778
-29.70347439776515,20161
-27.224418280657005,21349
-24.74604764912317,20355
-22.26836230770266,21088
-19.7913620608565,28256
-17.315046712966478,44411
-14.83941606833514,59103
-12.36446993118659,65037
-9.89020810566592,65037
-7.416630395839093,65037
-4.94373660569363,65037
-2.471526539137585,65037
-6.821210263296962E-13,65037
2.47084320796705,65037
4.941003281093458,65037
7.410480415786196,65037
9.879274808531363,65037
12.347386655893956,65037
14.814816154518212,65037
17.28156350112681,65037
19.74762889252179,65037
22.21301252558385,65037
24.67771459727237,21052
27.141735304626195,4567
29.605074844762612,3332
32.06773341487792,2820
34.52971121224755,2641
36.99100843422559,2501
39.45162527824516,2203
41.91156194181792,2016
44.370818622535126,2055
46.82939551806646,1654
49.287292826160524,1722
51.74451074464503,1831
54.201049471426245,1527
56.65690920448981,1317
59.112090141899785,1419
61.56659248179983,1524
64.02041642241159,1439
66.4735621620365,1221
68.92602989905402,1083
71.37781983192338,1241
73.82893215918205,1378
76.27936707944684,1413
78.72912479141326,1292
81.17820549385567,1316
83.62660938562783,1266
86.07433666566146,1163
88.5213875329681,1203
90.96776218663751,1004
93.41346082583925,957
95.85848364982041,1057
98.30283085790859,1198
100.7465026495089,1117
103.18949922410604,1174
105.63182078126385,1069
108.07346752062438,1048
110.51443964190923,1024
112.95473734491827,917
115.39436082953114,944
117.83331029570547,919
120.27158594347827,905
122.7091879729652,966
125.1461165843615,1031
127.58237197794062,987
130.01795435405518,1010
132.4528639131364,1082
134.88710085569494,1079
137.32066538231982,1023
139.75355769367923,989
142.1857779905207,893
144.61732647366978,931
147.04820334403132,938
149.47840880258934,961
151.90794305040674,977
154.33680628862487,1034
156.76499871846443,1215
159.19252054122433,1417
161.61937195828352,1500
164.04555317109896,1593
166.47106438120693,1780
168.89590579022217,1965
171.320077599839,2080
173.7435800118302,2272
176.16641322804742,2447
178.58857745042144,2497
181.01007288096173,2557
183.43089972175687,2592
185.85105817497413,2560
188.27054844285988,2553
190.6893707277394,2571
193.10752523201643,2714
195.5250121581745,2725
197.9418317087751,2917
200.3579840864594,2736
202.7734694939469,2754
205.18828813403627,2875
207.6024402096051,2916
210.01592592360964,3097
212.42874547908548,3031
214.84089907914665,2890
217.2523869269868,2942
219.66320922587727,2904
222.0733661791695,2937
224.48285799029293,2840
226.8916848627572,2838
229.29984700014882,2805
231.7073446061355,2938
234.11417788446204,2867
236.520347038953,2800
238.92585227351185,2890
241.33069379212054,2807
243.73487179884035,3076
246.1383864978112,3036
248.541238093252,3106
250.9434267894609,3058
253.34495279081432,3068
255.74581630176783,3100
258.1460175268563,3056
260.54555667069314,3062
262.9444339379703,3082
265.3426495334594,3059
267.7402036620107,2917
270.1370965285529,2903
272.53332833809407,2869
274.9288992957214,2677
277.32380960660055,2830
279.718059475976,2726
282.1116491091717,2787
284.5045787115897,2683
286.89684848871195,2726
289.2884586460981,2725
291.67940938938807,2637
294.0697009242996,2775
296.4593334566299,2796
298.84830719225477,2729
301.23662233712923,2650
303.6242790972866,2678
306.01127767884,2657
308.39761828798066,2553
310.78330113097934,2577
313.16832641418534,2560
315.5526943440269,2451
317.9364051270112,2516
320.3194589697242,2531
322.70185607883093,2428
325.0835966610754,2465
327.4646809232805,2379
329.8451090723478,2396
332.2248813152577,2446
334.6039978590701,2416
336.9824589109231,2324
339.36026467803447,2263
341.7374153677,2229
344.113911187295,2372
346.48975234427337,2272
348.8649390461686,2313
351.2394715005918,2337
353.61334991523415,2314
355.9865744978655,2277
358.35914545633375,2248
360.73106299856715,2249
363.10232733257146,2249
365.47293866643247,2291
367.84289720831396,2160
370.2122031664593,2172
372.5808567491905,2241
374.9488581649083,2251
377.31620762209275,2183
379.6829053293021,2171
382.0489514951745,2145
384.4143463284262,2114
386.7790900378528,2142
389.14318283232853,2149
391.50662492080653,2072
393.86941651231916,2153
396.23155781597745,2151
398.5930490409713,2125
400.9538903965696,2147
403.3140820921202,2151
405.6736243370498,2133
408.03251734086336,2140
410.3907613131465,2120
412.74835646356166,2103
415.10530300185144,2131
417.4616011378372,2081
419.81725108141893,2051
422.1722530425758,2021
424.5266072313656,2072
426.880313857925,2040
429.2333731324701,2098
431.58578526529516,2067
433.9375504667738,2041
436.2886689473588,2032
438.63914091758113,2099
440.9889665880513,2028
443.33814616945835,2102
445.68667987257015,2103
448.03456790823395,2069
450.3818104873759,2089
452.72840782100013,2049
455.07436012019105,1936
457.41966759611057,2056
459.7643304600007,2072
462.10834892318155,2037
464.4517231970525,1978
466.79445349309174,2003
469.1365400228566,2040
471.4779829979826,2032
473.81878263018564,2031
476.15893913125876,2047
478.4984527130747,2005
480.8373235875855,2132
483.17555196682144,2208
485.5131380628919,2234
487.8500820879857,2288
490.1863842543697,2489
492.52204477439034,2580
494.8570638604725,2828
497.1914417251204,3026
499.52517858091653,3283
501.85827464052306,3505
504.19073011668036,3395
506.5225452222086,3492
508.85372017000566,3306
511.18425517304956,3234
513.514150444396,3430
515.8434061971808,4204
518.1720226446176,5130
520.4999999999999,5442
522.8273384766991,5195
525.1540382881666,4728
527.480099647932,4246
529.8055227696037,3568
532.1303078668694,2846
534.454455153496,2486
536.777964843328,2397
539.1008371502907,2279
541.4230722883866,2201
543.744670471698,2193
546.0656319143858,2188
548.3859568306899,2142
550.7056454349294,2199
553.0246979415016,2088
555.3431145648834,2076
557.6608955196306,2052
559.978041020377,2012
562.2945512818363,2092
564.6104265188006,2111
566.9256669461412,2157
569.2402727788082,2032
571.5542442318302,2213
573.8675815203156,2122
576.1802848594508,2089
578.4923544645015,2094
580.8037905508126,2176
583.114593333807,2133
585.4247630289875,2100
587.7342998519354,2152
590.0432040183106,2162
592.3514757438526,2151
594.6591152443794,2178
596.9661227357875,2132
599.2724984340531,2129
601.578242555231,2126
603.8833553154542,2130
606.1878369309362,2120
608.4916876179676,2117
610.7949075929192,2128
613.0974970722403,2140
615.3994562724587,2080
617.7007854101818,2105
620.0014847020951,2117
622.3015543649641,2070
624.6009946156324,2118
626.8998056710224,2179
629.1979877481361,2119
631.4955410640538,2139
633.7924658359349,2161
636.0887622810175,2123
638.3844306166192,2134
640.6794710601358,2142
642.9738838290426,2161
645.2676691408932,2150
647.5608272133207,2069
649.853358264037,2165
652.1452625108324,2149
654.4365401715764,2206
656.7271914642178,2141
659.0172166067838,2152
661.3066158173809,2142
663.5953893141935,2142
665.8835373154867,2121
668.1710600396028,2121
670.4579577049639,2169
672.7442305300709,2186
675.0298787335033,2034
677.3149025339197,2095
679.599302150058,2175
681.8830778007342,2104
684.1662297048437,2097
686.4487580813608,2136
688.7306631493387,2124
691.0119451279091,2204
693.2926042362834,2094
695.5726406937516,2107
697.8520547196814,2132
700.1308465335215,2140
702.4090163547982,2160
704.6865644031171,2139
706.9634908981619,2123
709.2397960596965,2147
711.5154801075631,2161
713.7905432616823,2190
716.0649857420548,2046
718.3388077687592,2169
720.612009561953,2131
722.8845913418733,2197
725.1565533288352,2206
727.427895743234,2134
729.6986188055427,2156
731.9687227363137,2210
734.238207756178,2170
736.5070740858458,2172
738.7753219461066,2085
741.0429515578281,2105
743.3099631419569,2100
745.5763569195191,2075
747.8421331116193,2145
750.1072919394409,2166
752.3718336242467,2147
754.6357583873777,2163
756.8990664502545,2179
759.1617580343765,2170
761.423833361321,2183
763.6852926527457,2149
765.9461361303862,2176
768.206364016058,2131
770.4659765316536,2162
772.7249738991469,2182
774.9833563405886,2221
777.2411240781092,2259
779.4982773339183,2128
781.7548163303044,2166
784.010741289634,2222
786.2660524343538,2245
788.5207499869881,2207
790.7748341701416,2114
793.0283052064964,2143
795.2811633188143,2286
797.5334087299362,2223
799.7850416627813,2143
802.0360623403484,2218
804.2864709857143,2112
806.5362678220353,2267
808.7854530725468,2153
811.0340269605625,2144
813.2819897094754,2257
815.5293415427581,2198
817.77608268396,2141
820.0222133567116,2184
822.2677337847211,2152
824.5126441917765,2145
826.7569448017433,2182
829.0006358385675,2197
831.2437175262731,2265
833.4861900889629,2139
835.7280537508192,2169
837.9693087361026,2247
840.2099552691533,2252
842.4499935743896,2192
844.689423876309,2142
846.9282463994886,2161
849.1664613685833,2254
851.4040690083276,2230
853.6410695435349,2137
855.877463199097,2195
858.1132501999847,2113
860.3484307712487,2278
862.5830051380175,2169
864.8169735254988,2155
867.0503361589791,2165
869.2830932638243,2219
871.5152450654786,2201
873.7467917894654,2243
875.9777336613873,2309
878.2080709069252,2245
880.4378037518389,2263
882.666932421968,2226
884.8954571432301,2225
887.1233781416219,2283
889.3506956432192,2296
891.5774098741766,2301
893.803521060728,2321
896.0290294291852,2261
898.2539352059397,2281
900.4782386174619,2211
902.7019398903011,2174
904.925039251085,2245
907.147536926521,2228
909.3694331433943,2211
911.59072812857,2192
913.8114221089921,2158
916.0315153116827,2251
918.2510079637437,2122
920.4699002923547,2132
922.6881925247761,2228
924.905884888345,2133
927.1229776104793,2166
929.3394709186747,2216
931.555365040506,2182
933.7706602036275,2179
935.9853566357709,2154
938.1994545647489,2142
940.4129542184515,2121
942.6258558248488,2113
944.8381596119883,2129
947.0498658079974,2047
949.2609746410825,2186
951.4714863395287,2085
953.6814011316998,2185
955.8907192460387,2174
958.0994409110671,2107
960.3075663553858,2115
962.5150958076741,2190
964.7220294966913,2113
966.928367651274,2126
969.1341105003388,2132
971.3392582728806,2137
973.5438111979742,2073
975.747769504772,2107
977.9511334225061,2051
980.153903180487,2087
982.3560790081052,2071
984.5576611348289,2063
986.7586497902058,2049
988.9590452038618,2021
991.158847605503,1982
993.3580572249133,2011
995.5566742919558,1939
997.7546990365728,1980
999.952131688785,1937
1002.1489724786926,1893
1004.3452216364743,1905
1006.5408793923874,1872
1008.7359459767691,1852
1010.9304216200343,1872
1013.1243065526781,1839
1015.3176010052733,1858
1017.510305208472,1861
1019.7024193930064,1843
1021.8939437896848,1790
1024.0848786293977,1787
1026.2752241431122,1839
1028.4649805618747,1861
1030.6541481168115,1774
1032.842727039127,1756
1035.0307175601051,1784
1037.2181199111074,1772
1039.4049343235752,1742
1041.591161029029,1812
1043.7768002590683,1708
1045.9618522453698,1719
1048.1463172196918,1720
1050.3301954138697,1775
1052.513487059818,1825
1054.69619238953,1740
1056.8783116350783,1744
1059.0598450286152,1726
1061.2407928023704,1772
1063.4211551886528,1751
1065.6009324198508,1832
1067.780124728432,1718
1069.9587323469414,1815
1072.1367555080046,1785
1074.314194444325,1805
1076.4910493886855,1708
1078.667320573947,1703
1080.843008233051,1757
1083.0181125990161,1726
1085.1926339049414,1753
1087.3665723840027,1663
1089.5399282694575,1654
1091.7127017946405,1694
1093.8848931929647,1758
1096.0565026979243,1722
1098.2275305430899,1700
1100.3979769621128,1727
1102.567842188722,1668
1104.737126456726,1730
1106.9058300000124,1706
1109.0739530525475,1681
1111.2414958483764,1663
1113.4084586216231,1646
1115.5748416064907,1686
1117.7406450372605,1746
1119.9058691482942,1704
1122.0705141740304,1694
1124.2345803489884,1640
1126.3980679077658,1659
1128.5609770850388,1622
1130.7233081155623,1644
1132.8850612341707,1557
1135.0462366757774,1602
1137.2068346753745,1670
1139.3668554680326,1711
1141.526299288901,1628
1143.68516637321,1626
1145.8434569562655,1650
1148.001171273455,1657
1150.158309560244,1627
1152.3148720521767,1647
1154.470858984876,1668
1156.626270594044,1585
1158.7811071154629,1648
1160.9353687849912,1663
1163.089055838569,1634
1165.242168512213,1639
1167.3947070420209,1657
1169.5466716641677,1647
1171.6980626149075,1622
1173.8488801305748,1607
1175.9991244475814,1570
1178.1487958024186,1690
1180.2978944316555,1617
1182.4464205719428,1632
1184.5943744600072,1610
1186.7417563326567,1632
1188.8885664267755,1600
1191.0348049793297,1598
1193.1804722273619,1599
1195.325568407995,1608
1197.4700937584303,1623
1199.614048515948,1591
1201.7574329179074,1692
1203.900247201746,1627
1206.042491604982,1648
1208.1841663652099,1594
1210.3252717201053,1630
1212.465807907422,1645
1214.6057751649923,1659
1216.7451737307279,1616
1218.8840038426192,1553
1221.0222657387353,1604
1223.1599596572241,1604
1225.2970858363137,1618
1227.4336445143094,1538
1229.5696359295966,1652
1231.705060320639,1627
1233.8399179259786,1597
1235.9742089842384,1673
1238.107933734118,1651
1240.2410924143974,1626
1242.373685263935,1660
1244.5057125216676,1705
1246.6371744266116,1597
1248.7680712178621,1655
1250.898403134593,1624
1253.028170416058,1701
1255.1573733015875,1774
1257.2860120305932,1673
1259.4140868425648,1654
1261.54159797707,1621
1263.6685456737569,1686
1265.7949301723515,1640
1267.9207517126597,1751
1270.046010534565,1735
1272.1707068780306,1677
1274.2948409830983,1729
1276.4184130898889,1775
1278.541423438603,1722
1280.6638722695184,1723
1282.785759822993,1693
1284.9070863394636,1784
1287.0278520594447,1815
1289.1480572235314,1782
1291.2677020723963,1679
1293.3867868467923,1753
1295.5053117875495,1768
1297.623277135579,1730
1299.740683131868,1756
1301.8575300174857,1797
1303.973818033578,1804
1306.0895474213703,1815
1308.2047184221678,1843
1310.3193312773528,1780
1312.4333862283888,1842
1314.5468835168163,1833
1316.659823384255,1784
1318.7722060724045,1804
1320.8840318230418,1779
1322.9953008780249,1839
1325.1060134792888,1770
1327.2161698688478,1799
1329.3257702887959,1807
1331.4348149813054,1755
1333.5433041886276,1813
1335.6512381530933,1761
1337.7586171171101,1781
1339.8654413231675,1770
1341.9717110138317,1768
1344.0774264317488,1780
1346.1825878196432,1821
1348.2871954203192,1788
1350.3912494766587,1722
1352.4947502316231,1819
1354.5976979282532,1778
1356.7000928096686,1788
1358.8019351190665,1761
1360.9032250997243,1771
1363.0039629949988,1785
1365.1041490483235,1739
1367.2037835032133,1815
1369.3028666032606,1803
1371.401398592137,1799
1373.4993797135926,1839
1375.5968102114575,1777
1377.6936903296396,1751
1379.7900203121262,1776
1381.8858004029835,1774
1383.9810308463561,1837
1386.075711886469,1809
1388.1698437676241,1808
1390.2634267342032,1795
1392.356461030667,1854
1394.4489469015557,1824
1396.5408845914872,1832
1398.6322743451592,1829
1400.7231164073469,1817
1402.813411022907,1813
1404.903158436773,1924
1406.9923588939578,1817
1409.0810126395531,1900
1411.1691199187303,1852
1413.2566809767386,1922
1415.343696058907,1799
1417.4301654106425,1865
1419.5160892774315,1913
1421.6014679048399,1823
1423.6863015385125,1880
1425.7705904241707,1892
1427.8543348076178,1966
1429.9375349347342,1996
1432.0201910514802,1941
1434.102303403894,1969
1436.1838722380944,1971
1438.2648978002767,1977
1440.3453803367174,2025
1442.4253200937692,1958
1444.5047173178677,1995
1446.5835722555234,2032
1448.6618851533285,2038
1450.739656257952,1987
1452.8168858161434,1957
1454.8935740747306,2004
1456.96972128062,2083
1459.045327680797,2154
1461.120393522327,2111
1463.1949190523528,2213
1465.2689045180973,2139
1467.3423501668608,2163
1469.415256246024,2195
1471.4876230030463,2255
1473.559450685465,2269
1475.6307395408976,2360
1477.7014898170391,2360
1479.771701761665,2451
1481.8413756226287,2408
1483.9105116478618,2428
1485.9791100853772,2503
1488.0471711832643,2555
1490.1146951896926,2468
1492.1816823529098,2528
1494.2481329212433,2590
1496.3140471430984,2653
1498.3794252669609,2605
1500.4442675413939,2634
1502.5085742150404,2620
1504.572345536622,2697
1506.6355817549388,2700
1508.6982831188702,2688
1510.7604498773744,2695
1512.8220822794883,2807
1514.8831805743293,2722
1516.9437450110909,2807
1519.003775839048,2807
1521.0632733075522,2834
1523.1222376660367,2869
1525.1806691640113,2910
1527.2385680510652,2921
1529.2959345768668,2952
1531.3527689911643,3012
1533.4090715437833,3079
1535.4648424846291,3065
1537.5200820636855,3092
1539.5747905310159,3160
1541.6289681367616,3156
1543.6826151311434,3253
1545.7357317644614,3204
1547.7883182870937,3233
1549.8403749494987,3325
1551.8919020022113,3314
1553.9428996958477,3452
1555.9933682811015,3517
1558.0433080087469,3523
1560.0927191296346,3574
1562.1416018946961,3539
1564.1899565549415,3511
1566.2377833614592,3543
1568.2850825654164,3444
1570.3318544180606,3314
1572.3780991707158,3208
1574.423817074788,3120
1576.4690083817595,3051
1578.5136733431923,2923
1580.5578122107272,2865
1582.601425236085,2705
1584.6445126710646,2768
1586.6870747675434,2616
1588.7291117774776,2473
1590.7706239529034,2384
1592.8116115459347,2365
1594.8520748087658,2297
1596.8920139936686,2274
1598.9314293529933,2168
1600.9703211391711,2128
1603.008689604711,2139
1605.0465350022005,2044
1607.0838575843068,2057
1609.1206576037753,2005
1611.1569353134305,1946
1613.1926909661765,1913
1615.2279248149953,1968
1617.2626371129481,1918
1619.2968281131757,1955
1621.3304980688963,1916
1623.3636472334088,1895
1625.39627586009,1828
1627.428384202396,1809
1629.459972513861,1802
1631.4910410480993,1746
1633.5215900588028,1809
1635.551619799744,1795
1637.5811305247717,1810
1639.6101224878166,1826
1641.6385959428862,1728
1643.6665511440683,1721
1645.693988345528,1834
1647.7209078015112,1738
1649.7473097663405,1675
1651.7731944944203,1666
1653.7985622402307,1826
1655.823413258333,1719
1657.847747803366,1779
1659.8715661300494,1729
1661.8948684931793,1789
1663.9176551476316,1718
1665.9399263483624,1753
1667.9616823504057,1705
1669.982923408873,1786
1672.0036497789574,1663
1674.0238617159293,1708
1676.043559475138,1746
1678.0627433120121,1655
1680.081413482059,1773
1682.0995702408654,1781
1684.117213844096,1702
1686.134344547495,1637
1688.1509626068864,1683
1690.1670682781705,1688
1692.182661817329,1693
1694.1977434804217,1726
1696.2123135235875,1674
1698.226372203043,1737
1700.2399197750851,1721
1702.2529564960905,1762
1704.2654826225112,1693
1706.277498410882,1685
1708.2890041178139,1668
1710.2999999999988,1653
1712.3104863142066,1729
1714.3204633172854,1686
1716.329931266163,1663
1718.3388904178469,1730
1720.3473410294214,1690
1722.3552833580516,1647
1724.3627176609807,1669
1726.3696441955308,1683
1728.3760632191033,1682
1730.3819749891782,1696
1732.3873797633146,1679
1734.3922777991502,1678
1736.3966693544012,1658
1738.4005546868639,1589
1740.4039340544127,1638
1742.406807715001,1643
1744.4091759266616,1547
1746.4110389475054,1650
1748.4123970357223,1645
1750.413250449582,1652
1752.4135994474318,1647
1754.4134442876993,1571
1756.4127852288902,1540
1758.4116225295893,1628
1760.4099564484595,1626
1762.407787244244,1643
1764.405115175764,1575
1766.4019405019203,1621
1768.3982634816916,1645
1770.3940843741357,1574
1772.3894034383907,1625
1774.3842209336717,1596
1776.378537119274,1617
1778.372352254571,1586
1780.3656665990156,1545
1782.3584804121397,1599
1784.3507939535534,1590
1786.3426074829463,1564
1788.3339212600863,1613
1790.3247355448211,1589
1792.3150505970766,1593
1794.3048666768573,1591
1796.2941840442477,1552
1798.2830029594106,1578
1800.2713236825884,1611
1802.2591464741004,1639
1804.2464715943465,1544
1806.2332993038058,1551
1808.2196298630352,1528
1810.2054635326708,1629
1812.190800573428,1577
1814.175641246101,1587
1816.1599858115628,1628
1818.1438345307652,1557
1820.127187664738,1542
1822.1100454745924,1541
1824.092408221516,1636
1826.0742761667766,1578
1828.055649571721,1586
1830.0365286977735,1608
1832.0169138064398,1500
1833.9968051593014,1562
1835.9762030180214,1602
1837.9551076443408,1552
1839.9335193000788,1612
1841.9114382471344,1549
1843.888864747485,1641
1845.8657990631878,1593
1847.842241456378,1557
1849.8181921892697,1634
1851.7936515241558,1565
1853.7686197234098,1599
1855.7430970494815,1597
1857.7170837649014,1563
1859.6905801322787,1557
1861.6635864143004,1518
1863.6361028737338,1576
1865.608129773424,1562
1867.5796673762961,1577
1869.5507159453537,1610
1871.521275743678,1543
1873.4913470344313,1589
1875.4609300808534,1553
1877.4300251462632,1591
1879.3986324940588,1617
1881.366752387717,1618
1883.3343850907936,1625
1885.3015308669228,1630
1887.268189979819,1601
1889.2343626932739,1540
1891.2000492711595,1672
1893.1652499774254,1579
1895.1299650761011,1598
1897.0941948312952,1636
1899.0579395071945,1551
1901.0211993680641,1633
1902.98397467825,1531
1904.9462657021745,1602
1906.9080727043415,1578
1908.869395949332,1607
1910.8302357018065,1608
1912.790592226504,1557
1914.7504657882428,1567
1916.7098566519212,1577
1918.6687650825133,1655
1920.6271913450764,1594
1922.5851357047422,1551
1924.5425984267245,1563
1926.499579776314,1607
1928.4560800188833,1629
1930.4120994198802,1621
1932.367638244833,1635
1934.32269675935,1573
1936.2772752291175,1595
1938.231373919899,1555
1940.1849930975404,1545
1942.1381330279637,1575
1944.0907939771696,1507
1946.0429762112412,1588
1947.9946799963363,1588
1949.9459055986945,1577
1951.896653284633,1602
1953.8469233205478,1543
1955.7967159729142,1570
1957.7460315082863,1523
1959.6948701932974,1636
1961.6432322946594,1571
1963.5911180791632,1630
1965.5385278136787,1583
1967.4854617651545,1555
1969.4319202006182,1564
1971.377903387176,1522
1973.3234115920136,1589
1975.268445082395,1483
1977.2130041256642,1573
1979.1570889892423,1570
1981.1006999406304,1552
1983.04383724741,1577
1984.986501177238,1545
1986.928691997853,1547
1988.8704099770712,1612
1990.811655382789,1566
1992.7524284829801,1482
1994.692729545698,1573
1996.6325588390755,1538
1998.5719166313224,1562
2000.5108031907307,1585
2002.4492187856677,1518
2004.387163684583,1599
2006.3246381560011,1664
2008.2616424685298,1499
2010.1981768908527,1560
2012.1342416917332,1584
2014.069837140014,1560
2016.0049635046162,1525
2017.9396210545406,1556
2019.8738100588666,1520
2021.8075307867502,1561
2023.740783507431,1544
2025.6735684902228,1542
2027.6058860045214,1472
2029.5377363198004,1554
2031.4691197056118,1560
2033.4000364315875,1563
2035.3304867674374,1572
2037.260470982952,1560
2039.189989347998,1527
2041.1190421325232,1553
2043.047629606554,1545
2044.9757520401945,1553
2046.9034097036288,1479
2048.8306028671195,1497
2050.7573318010086,1529
2052.683596775716,1497
2054.609398061742,1488
2056.5347359296647,1507
2058.4596106501403,1507
2060.384022493906,1513
2062.3079717317764,1515
2064.231458634646,1521
2066.1544834734873,1529
2068.077046519352,1556
2069.99914804337,1551
2071.9207883167524,1527
2073.8419676107865,1529
2075.7626861968406,1525
2077.6829443463607,1523
2079.6027423308715,1568
2081.522080421977,1512
2083.440958891362,1552
2085.359378010786,1554
2087.2773380520907,1568
2089.194839287196,1444
2091.111881988101,1543
2093.0284664268825,1555
2094.9445928756973,1530
2096.86026160678,1586
2098.775472892446,1525
2100.690227005088,1497
2102.604524217178,1518
2104.5183648012676,1519
2106.431749029985,1492
2108.34467717604,1511
2110.2571495122206,1554
2112.169166311393,1482
2114.080727846503,1507
2115.9918343905747,1534
2117.902486216711,1523
2119.8126835980956,1522
2121.722426807987,1559
2123.6317161197285,1549
2125.5405518067364,1552
2127.448934142509,1478
2129.356863400624,1564
2131.264339854737,1574
2133.1713637785815,1607
2135.077935445972,1585
2136.9840551308002,1611
2138.889723107037,1555
2140.7949396487334,1531
2142.699705030018,1537
2144.6040195250994,1551
2146.507883408264,1562
2148.4112969538774,1581
2150.3142604363848,1580
2152.2167741303097,1612
2154.1188383102535,1538
2156.0204532508997,1585
2157.9216192270064,1515
2159.822336513414,1564
2161.7226053850413,1612
2163.622426116884,1571
2165.5217989840185,1663
2167.4207242616,1543
2169.319202224862,1605
2171.2172331491165,1608
2173.1148173097563,1606
2175.0119549822507,1644
2176.90864644215,1594
2178.8048919650823,1622
2180.7006918267534,1615
2182.596046302952,1569
2184.4909556695407,1582
2186.3854202024645,1600
2188.279440177746,1537
2190.173015871487,1579
2192.066147559868,1545
2193.958835519149,1607
2195.851080025667,1595
2197.7428813558417,1558
2199.6342397861667,1601
2201.5251555932186,1628
2203.415629053651,1574
2205.3056604441986,1631
2207.19525004167,1614
2209.084398122958,1606
2210.9731049650327,1633
2212.861370844941,1654
2214.749196039812,1620
2216.636580826851,1547
2218.523525483344,1598
2220.410030286655,1632
2222.296095514226,1604
2224.1817214435805,1630
2226.066908352319,1592
2227.951656518121,1611
2229.835966218746,1592
2231.71983773203,1607
2233.6032713358913,1631
2235.486267308324,1670
2237.3688259274036,1652
2239.2509474712824,1606
2241.132632218193,1568
2243.013880446447,1659
2244.8946924344323,1667
2246.7750684606203,1705
2248.6550088035574,1625
2250.534513741871,1567
2252.413583554265,1694
2254.292218519526,1678
2256.170418916517,1619
2258.0481850241786,1636
2259.925517121534,1568
2261.8024154876825,1602
2263.678880401803,1657
2265.5549121431536,1685
2267.430510991071,1694
2269.305677224971,1621
2271.180411124348,1636
2273.0547129687766,1586
2274.9285830379076,1580
2276.8020216114737,1631
2278.6750289692845,1603
2280.5476053912294,1599
2282.4197511572766,1701
2284.2914665474727,1708
2286.162751841943,1674
2288.0336073208937,1734
2289.904033264608,1678
2291.774029953448,1660
2293.6435976678554,1604
2295.5127366883517,1608
2297.381447295534,1625
2299.2497297700825,1542
2301.1175843927526,1569
2302.9850114443825,1471
2304.852011205885,1494
2306.7185839582553,1421
2308.5847299825664,1487
2310.4504495599676,1460
2312.3157429716925,1395
2314.1806104990483,1446
2316.0450524234247,1396
2317.9090690262888,1388
2319.772660589186,1413
2321.635827393742,1501
2323.498569721661,1416
2325.3608878547248,1428
2327.2227820747967,1411
2329.0842526638157,1399
2330.945299903803,1434
2332.805924076857,1411
2334.6661254651535,1420
2336.525904350951,1406
2338.3852610165827,1437
2340.244195744464,1436
2342.102708817088,1400
2343.9608005170253,1435
2345.8184711269287,1459
2347.675720929526,1434
2349.532550207628,1443
2351.38895924412,1425
2353.24494832197,1351
2355.100517724223,1418
2356.955667734004,1389
2358.810398634514,1401
2360.664710709037,1397
2362.5186042409337,1387
2364.3720795136437,1432
2366.225136810686,1435
2368.0777764156583,1372
2369.929998612237,1438
2371.7818036841777,1449
2373.633191915315,1472
2375.484163589562,1379
2377.3347189909114,1450
2379.184858403434,1469
2381.03458211128,1437
2382.8838903986775,1375
2384.732783549936,1388
2386.5812618494406,1433
2388.4293255816588,1393
2390.2769750311327,1447
2392.1242104824883,1419
2393.971032220427,1411
2395.8174405297295,1418
2397.6634356952563,1478
2399.509018001947,1472
2401.3541877348193,1439
2403.1989451789705,1489
2405.043290619576,1435
2406.8872243418905,1433
2408.730746631247,1451
2410.5738577730594,1449
2412.4165580528183,1442
2414.258847756095,1445
2416.100727168537,1374
2417.9421965758734,1390
2419.783256263912,1448
2421.623906518538,1467
2423.4641476257157,1387
2425.303979871491,1417
2427.143403541984,1503
2428.9824189233977,1408
2430.821026302012,1475
2432.6592259641866,1406
2434.497018196361,1427
2436.33440328505,1461
2438.171381516851,1455
2440.00795317844,1419
2441.844118556569,1522
2443.6798779380724,1419
2445.5152316098606,1433
2447.3501798589255,1442
2449.1847229723357,1392
2451.0188612372403,1448
2452.8525949408663,1504
2454.6859243705203,1429
2456.518849813587,1434
2458.3513715575314,1504
2460.183489889895,1445
2462.015205098301,1453
2463.8465174704493,1414
2465.67742729412,1491
2467.5079348571717,1489
2469.338040447542,1443
2471.1677443532476,1446
2472.9970468623833,1494
2474.825948263123,1456
2476.6544488437207,1430
2478.482548892508,1376
2480.310248697896,1419
2482.137548548374,1461
2483.9644487325118,1449
2485.790949538956,1495
2487.617051256433,1474
2489.44275417375,1441
2491.26805857979,1492
2493.0929647635157,1474
2494.917473013971,1444
2496.741583620276,1449
2498.5652968716304,1452
2500.3886130573137,1506
2502.2115324666834,1487
2504.0340553891765,1508
2505.856182114308,1475
2507.6779129316733,1458
2509.499248130945,1491
2511.3201880018764,1520
2513.140732834298,1527
2514.9608829181198,1553
2516.780638543331,1528
2518.6,1519
2520.418967578273,1522
2522.237541568376,1464
2524.0557222606144,1525
2525.8735099453706,1551
2527.6909049131086,1585
2529.507907454368,1543
2531.32451785977,1493
2533.140736420014,1557
2534.9565634258774,1512
2536.771999168218,1546
2538.5870439379714,1508
2540.4016980261526,1568
2542.2159617238544,1545
2544.02983532225,1547
2545.8433191125914,1582
2547.656413386209,1594
2549.4691184345115,1566
2551.2814345489874,1632
2553.093362021204,1648
2554.904901142808,1619
2556.716052205523,1666
2558.526815501153,1628
2560.3371913215824,1622
2562.147179958771,1663
2563.956781704761,1612
2565.7659968516705,1663
2567.5748256916986,1622
2569.3832685171224,1641
2571.1913256202984,1669
2572.9989972936614,1672
2574.806283829725,1630
2576.613185521084,1708
2578.4197026604074,1690
2580.2258355404483,1694
2582.031584454035,1744
2583.836949694077,1731
2585.6419315535613,1698
2587.4465303255533,1677
2589.2507463032002,1709
2591.0545797797245,1776
2592.8580310484303,1761
2594.6611004026995,1704
2596.463788135992,1724
2598.266094541849,1704
2600.0680199138874,1712
2601.869564545807,1741
2603.670728731383,1709
2605.4715127644704,1751
2607.2719169390048,1760
2609.071941548998,1712
2610.8715868885433,1749
2612.670853251811,1757
2614.469740933052,1723
2616.268250226594,1759
2618.0663814268455,1764
2619.864134828292,1753
2621.6615107255006,1796
2623.458509413115,1657
2625.2551311858597,1747
2627.0513763385347,1721
2628.8472451660223,1745
2630.6427379632833,1698
2632.4378550253564,1669
2634.232596647359,1662
2636.026963124488,1686
2637.8209547520187,1646
2639.6145718253065,1687
2641.407814639785,1625
2643.200683490966,1657
2644.9931786744414,1672
2646.7853004858807,1637
2648.577049221034,1618
2650.3684251757277,1590
2652.1594286458712,1586
2653.9500599274484,1603
2655.740319316525,1563
2657.5302071092437,1558
2659.3197236018286,1636
2661.10886909058,1585
2662.8976438718782,1569
2664.686048242183,1599
2666.4740824980327,1601
2668.2617469360443,1547
2670.0490418529134,1497
2671.8359675454153,1533
2673.622524310403,1564
2675.408712444811,1481
2677.1945322456495,1497
2678.979984010009,1457
2680.76506803506,1508
2682.5497846180497,1474
2684.334134056306,1477
2686.1181166472343,1487
2687.9017326883213,1507
2689.6849824771293,1523
2691.4678663113013,1532
2693.2503844885596,1461
2695.032537306705,1454
2696.8143250636167,1465
2698.5957480572542,1484
2700.3768065856534,1463
2702.1575009469316,1461
2703.937831439283,1428
2705.717798360982,1420
2707.4974020103837,1428
2709.276642685917,1458
2711.055520686095,1512
2712.834036309506,1429
2714.612189854819,1457
2716.389981620782,1435
2718.1674119062204,1461
2719.944481010041,1447
2721.721189231226,1429
2723.4975368688415,1467
2725.273524222027,1439
2727.0491515900053,1444
2728.824419272075,1467
2730.5993275676146,1407
2732.3738767760838,1434
2734.148067197016,1427
2735.921899130031,1430
2737.6953728748194,1387
2739.468488731156,1437
2741.2412469988926,1349
2743.0136479779617,1422
2744.785691968372,1427
2746.5573792702116,1466
2748.3287101836504,1432
2750.099685008934,1413
2751.870304046388,1460
2753.640567596418,1405
2755.4104759595057,1426
2757.1800294362156,1436
2758.949228327187,1405
2760.7180729331412,1401
2762.486563554877,1408
2764.254700493272,1442
2766.022484049284,1503
2767.789914523947,1422
2769.5569922183786,1426
2771.3237174337705,1473
2773.090090471394,1398
2774.8561116326036,1433
2776.6217812188274,1407
2778.3870995315756,1407
2780.1520668724356,1426
2781.9166835430747,1486
2783.6809498452394,1393
2785.444866080754,1406
2787.2084325515225,1430
2788.971649559527,1450
2790.73451740683,1413
2792.4970363955713,1410
2794.2592068279705,1410
2796.0210290063264,1427
2797.7825032330147,1409
2799.543629810493,1409
2801.304409041296,1417
2803.0648412280366,1402
2804.8249266734088,1442
2806.5846656801846,1381
2808.344058551212,1371
2810.1031055894246,1413
2811.8618070978273,1439
2813.6201633795085,1376
2815.378174737636,1372
2817.1358414754536,1397
2818.893163896285,1398
2820.6501423035334,1408
2822.4067770006814,1395
2824.1630682912883,1434
2825.9190164789957,1364
2827.6746218675207,1423
2829.429884760661,1372
2831.184805462294,1378
2832.9393842763743,1440
2834.693621506936,1410
2836.4475174580916,1413
2838.201072434034,1415
2839.954286739034,1425
2841.707160677441,1441
2843.459694553685,1395
2845.2118886722724,1426
2846.96374333779,1430
2848.7152588549034,1415
2850.4664355283567,1442
2852.217273662973,1441
2853.9677735636546,1484
2855.7179355353833,1384
2857.4677598832186,1457
2859.217246912299,1380
2860.9663969278427,1429
2862.715210235146,1461
2864.4636871395846,1448
2866.211827946614,1376
2867.9596329617652,1413
2869.7071024906536,1430
2871.4542368389684,1449
2873.20103631248,1460
2874.947501217038,1473
2876.6936318585695,1440
2878.4394285430812,1412
2880.1848915766604,1417
2881.9300212654707,1413
2883.6748179157553,1412
2885.4192818338374,1400
2887.1634133261173,1404
2888.907212699077,1438
2890.6506802592744,1462
2892.393816313348,1426
2894.1366211680142,1420
2895.8790951300693,1391
2897.621238506388,1456
2899.363051603925,1371
2901.1045347297118,1416
2902.8456881908596,1438
2904.58651229456,1348
2906.327007348081,1353
2908.067173658772,1436
2909.8070115340597,1478
2911.5465212814497,1451
2913.285703208527,1370
2915.0245576229563,1425
2916.7630848324807,1464
2918.5012851449196,1464
2920.2391588681758,1398
2921.976706310227,1485
2923.7139277791334,1454
2925.4508235830313,1430
2927.187394030137,1422
2928.923639428745,1437
2930.6595600872306,1394
2932.395156314046,1415
2934.1304284177218,1418
2935.8653767068713,1380
2937.6000014901815,1416
2939.3343030764227,1451
2941.068281774442,1441
2942.8019378931644,1402
2944.5352717415976,1376
2946.2682836288236,1448
2948.0009738640065,1421
2949.7333427563885,1473
2951.465390615289,1455
2953.1971177501086,1468
2954.9285244703265,1409
2956.6596110855,1448
2958.3903779052657,1405
2960.1208252393385,1387
2961.8509533975125,1434
2963.5807626896617,1391
2965.3102534257378,1434
2967.0394259157715,1426
2968.768280469873,1457
2970.496817398232,1446
2972.2250370111146,1456
2973.952939618869,1464
2975.6805255319196,1455
2977.4077950607707,1390
2979.134748516006,1440
2980.861386208289,1433
2982.587708448359,1417
2984.313715547037,1441
2986.039407815222,1445
2987.764785563891,1437
2989.489849104102,1414
2991.2145987469908,1417
2992.9390348037705,1450
2994.6631575857346,1429
2996.3869674042576,1458
2998.1104645707887,1472
2999.83364939686,1439
3001.5565221940783,1458
3003.2790832741334,1385
3005.0013329487924,1394
3006.7232715298996,1326
3008.4448993293804,1413
3010.166216659239,1438
3011.887223831558,1418
3013.607921158498,1414
3015.3283089522993,1441
3017.0483875252826,1376
3018.7681571898443,1408
3020.4876182584626,1356
3022.2067710436927,1433
3023.9256158581707,1387
3025.644153014609,1367
3027.362382825801,1381
3029.0803056046193,1366
3030.797921664012,1384
3032.5152313170106,1427
3034.2322348767225,1443
3035.9489326563353,1437
3037.665324969115,1375
3039.3814121284063,1399
3041.097194447633,1401
3042.812672240299,1373
3044.5278458199855,1408
3046.2427155003525,1397
3047.9572815951406,1377
3049.671544418167,1436
3051.38550428333,1401
3053.0991615046073,1326
3054.812516396051,1392
3056.5255692717974,1419
3058.2383204460575,1399
3059.9507702331257,1415
3061.662918947372,1415
3063.3747669032446,1419
3065.0863144152736,1415
3066.7975617980674,1392
3068.508509366309,1406
3070.219157434767,1381
3071.9295063182844,1429
3073.639556331785,1393
3075.3493077902704,1379
3077.058761008821,1376
3078.7679163025964,1361
3080.476773986837,1396
3082.1853343768594,1363
3083.89359778806,1397
3085.6015645359153,1401
3087.3092349359786,1404
3089.016609303884,1421
3090.7236879553434,1390
3092.4304712061476,1395
3094.136959372166,1384
3095.843152769349,1407
3097.5490517137237,1379
3099.2546565213966,1367
3100.959967508554,1442
3102.66498499146,1449
3104.3697092864577,1429
3106.0741407099695,1401
3107.778279578498,1420
3109.482126208622,1410
3111.1856809170004,1397
3112.8889440203716,1484
3114.5919158355528,1433
3116.294596679439,1440
3117.996986869006,1454
3119.6990867213062,1467
3121.4008965534726,1436
3123.102416682717,1429
3124.803647426329,1439
3126.5045891016784,1440
3128.205242026213,1430
3129.90560651746,1393
3131.605682893025,1425
3133.3054714705922,1415
3135.0049725679282,1398
3136.7041865028714,1373
3138.4031135933465,1442
3140.101754157353,1393
3141.800108512971,1394
3143.498176978357,1411
3145.1959598717494,1390
3146.8934575114636,1391
3148.5906702158954,1335
3150.2875983035183,1390
3151.9842420928853,1428
3153.680601902627,1379
3155.376678051456,1387
3157.07247085816,1330
3158.767980641609,1373
3160.463207720748,1348
3162.158152414606,1411
3163.8528150422862,1387
3165.5471959229726,1388
3167.2412953759303,1392
3168.9351137204976,1427
3170.628651276098,1463
3172.3219083622307,1388
3174.014885298474,1353
3175.707582404485,1410
3177.4000000000005,1412
3179.092138404835,1380
3180.7839979388846,1396
3182.47557892212,1385
3184.166881674594,1399
3185.8579065164386,1459
3187.5486537678626,1394
3189.2391237491547,1433
3190.9293167806827,1434
3192.6192331828934,1374
3194.3088732763117,1384
3195.998237381542,1412
3197.687325819268,1391
3199.376138910251,1356
3201.064676975334,1386
3202.7529403354347,1459
3204.4409293115523,1445
3206.1286442247647,1393
3207.816085396229,1373
3209.5032531471825,1393
3211.190147798936,1403
3212.8767696728846,1395
3214.5631190905015,1363
3216.2491963733373,1352
3217.9350018430214,1386
3219.6205358212637,1343
3221.305798629851,1317
3222.990790590651,1345
3224.6755120256103,1404
3226.359963256751,1370
3228.0441446061795,1307
3229.7280563960758,1384
3231.411698948703,1429
3233.0950725863995,1334
3234.778177631587,1377
3236.461014406761,1385
3238.1435832345005,1354
3239.8258844374595,1375
3241.507918338374,1431
3243.1896852600576,1373
3244.8711855254023,1370
3246.552419457381,1387
3248.233387379042,1400
3249.914089613516,1426
3251.59452648401,1413
3253.274698313813,1433
3254.95460542629,1367
3256.6342481448855,1373
3258.313626793125,1335
3259.9927416946084,1333
3261.6715931730196,1332
3263.3501815521176,1376
3265.0285071557437,1392
3266.706570307815,1335
3268.3843713323286,1325
3270.0619105533615,1352
3271.739188295068,1386
3273.4162048816834,1436
3275.0929606375184,1388
3276.769455886966,1377
3278.445690954498,1414
3280.1216661646613,1377
3281.797381842087,1421
3283.4728383114807,1409
3285.1480358976296,1427
3286.8229749253996,1354
3288.4976557197333,1408
3290.172078605655,1357
3291.846243908266,1422
3293.5201519527463,1347
3295.193803064357,1392
3296.8671975684374,1322
3298.5403357904024,1303
3300.21321805575,1380
3301.8858446900567,1344
3303.558216018975,1408
3305.23033236824,1400
3306.9021940636603,1447
3308.57380143113,1374
3310.2451547966184,1442
3311.916254486174,1373
3313.5871008259246,1354
3315.2576941420766,1408
3316.9280347609147,1387
3318.5981230088046,1427
3320.2679592121895,1414
3321.9375436975924,1364
3323.606876791612,1374
3325.27595882093,1359
3326.944790112305,1354
3328.6133709925753,1344
3330.2817017886573,1429
3331.949782827547,1388
3333.617614436319,1333
3335.2851969421245,1349
3336.952530672199,1414
3338.619615953853,1404
3340.286453114475,1346
3341.9530424815357,1375
3343.619384382583,1452
3345.2854791452437,1375
3346.951327097224,1398
3348.6169285663073,1349
3350.2822838803577,1454
3351.947393367319,1406
3353.61225735521,1413
3355.2768761721345,1335
3356.9412501462693,1388
3358.605379605873,1339
3360.2692648792827,1380
3361.9329062949146,1364
3363.596304181263,1329
