CollectionTime,9/26/2024 8:52:23 AM
ExposureUsed,3
CalibratedSpectrum
-962.7078968117929,3313
-959.9714848408522,3387
-957.2358232597828,3440
-954.5009119013725,3418
-951.7667505983302,3397
-949.0333391832855,3285
-946.3006774887896,3349
-943.5687653473143,3408
-940.837602591253,3443
-938.1071890529199,3364
-935.3775245645503,3311
-932.6486089583007,3328
-929.9204420662485,3327
-927.1930237203925,3561
-924.4663537526524,3433
-921.7404319948689,3453
-919.0152582788041,3461
-916.2908324361409,3670
-913.5671542984834,3537
-910.8442236973568,3522
-908.1220404642074,3616
-905.4006044304027,3460
-902.679915427231,3425
-899.959973285902,3518
-897.2407778375464,3453
-894.5223289132158,3300
-891.8046263438832,3396
-889.0876699604426,3405
-886.3714595937089,3388
-883.6559950744183,3407
-880.9412762332282,3533
-878.2273029007168,3393
-875.5140749073835,3511
-872.8015920836489,3445
-870.0898542598545,3361
-867.3788612662631,3357
-864.6686129330585,3349
-861.9591090903457,3369
-859.2503495681506,3306
-856.5423341964203,3426
-853.8350628050229,3467
-851.1285352237478,3416
-848.4227512823054,3441
-845.7177108103272,3555
-843.0134136373656,3552
-840.3098595928943,3618
-837.6070485063082,3509
-834.9049802069229,3593
-832.2036545239757,3474
-829.5030712866244,3531
-826.8032303239481,3566
-824.1041314649472,3605
-821.4057745385428,3460
-818.7081593735775,3359
-816.0112857988148,3410
-813.3151536429393,3451
-810.6197627345566,3471
-807.9251129021936,3390
-805.2312039742981,3417
-802.5380357792392,3434
-799.8456081453069,3416
-797.1539209007124,3529
-794.462973873588,3498
-791.772766891987,3489
-789.083299783884,3478
-786.3945723771743,3470
-783.7065844996748,3439
-781.0193359791231,3507
-778.3328266431781,3437
-775.6470563194197,3430
-772.9620248353489,3633
-770.2777320183878,3685
-767.5941776958798,3568
-764.9113616950891,3416
-762.2292838432011,3487
-759.5479439673222,3397
-756.8673418944801,3397
-754.1874774516235,3453
-751.5083504656222,3576
-748.8299607632671,3530
-746.15230817127,3688
-743.475392516264,3726
-740.7992136248035,3501
-738.1237713233636,3498
-735.4490654383407,3626
-732.7750957960521,3553
-730.1018622227365,3517
-727.4293645445534,3652
-724.7576025875837,3645
-722.0865761778291,3766
-719.4162851412126,3628
-716.7467293035781,3689
-714.0779084906909,3785
-711.409822528237,3633
-708.7424712418238,3597
-706.0758544569796,3782
-703.4099719991541,3645
-700.7448236937178,3672
-698.0804093659622,3640
-695.4167288411002,3606
-692.7537819442656,3591
-690.0915685005134,3722
-687.4300883348199,3574
-684.7693412720819,3654
-682.1093271371178,3497
-679.4500457546669,3643
-676.7914969493897,3756
-674.1336805458676,3672
-671.4765963686034,3654
-668.8202442420206,3604
-666.1646239904642,3598
-663.5097354382001,3618
-660.8555784094151,3660
-658.2021527282176,3549
-655.5494582186366,3582
-652.8974947046223,3623
-650.2462620100463,3730
-647.5957599587009,3650
-644.9459883742998,3746
-642.2969470804776,3856
-639.6486359007902,3780
-637.0010546587141,3725
-634.3542031776476,3715
-631.7080812809096,3609
-629.0626887917401,3945
-626.4180255333008,4223
-623.7740913286734,4033
-621.1308860008619,3629
-618.4884093727904,3741
-615.8466612673046,3818
-613.2056415071715,3821
-610.5653499150785,3943
-607.9257863136347,3865
-605.28695052537,3746
-602.6488423727357,3745
-600.0114616781036,3850
-597.3748082637674,4459
-594.7388819519412,4221
-592.1036825647604,3966
-589.4692099242818,4091
-586.8354638524829,4289
-584.2024441712624,4020
-581.5701507024403,3896
-578.9385832677575,3897
-576.3077416888759,3934
-573.6776257873787,4046
-571.0482353847704,4041
-568.4195703024757,4060
-565.7916303618415,3909
-563.164415384135,3816
-560.5379251905453,3858
-557.9121596021815,4065
-555.2871184400748,3960
-552.6628015251767,3858
-550.0392086783606,3888
-547.4163397204204,4082
-544.794194472071,4078
-542.1727727539491,3981
-539.5520743866118,4046
-536.9320991905377,3962
-534.3128469861261,4152
-531.6943175936979,4372
-529.0765108334947,4294
-526.4594265256793,4412
-523.8430644903358,4476
-521.2274245474689,4615
-518.612506517005,4657
-515.9983102187913,4574
-513.3848354725959,4731
-510.77208209810846,4603
-508.16004991493924,4761
-505.5487387426199,4977
-502.9381484006032,4805
-500.3282787082628,4607
-497.71912948489364,4693
-495.1107005497117,4627
-492.5029917218539,4515
-489.8960028203786,4232
-487.28973366426493,4019
-484.68418407241325,4090
-482.07935386364494,4203
-479.47524285670266,4122
-476.87185087025,4097
-474.2691777228715,4275
-471.66722323307334,4147
-469.0659872192821,4161
-466.4654694998459,4107
-463.86566989303384,4181
-461.26658821703614,4287
-458.66822428996414,4277
-456.07057792985,4366
-453.4736489546475,4317
-450.877437182231,4145
-448.28194243039627,3919
-445.68716451686,4126
-443.09310325926003,4014
-440.49975847515555,4024
-437.9071299820263,3998
-435.31521759727354,4044
-432.72402113821954,4408
-430.13354042210767,4092
-427.5437752661022,4124
-424.95472548728867,4219
-422.36639090267386,4242
-419.7787713291855,4375
-417.1918665836721,4420
-414.60567648290385,4488
-412.0202008435715,4260
-409.4354394822874,4407
-406.8513922155845,4555
-404.26805885991723,4444
-401.685439231661,4184
-399.103533147112,4071
-396.522340422488,4214
-393.9418608739278,4134
-391.3620943174908,4089
-388.7830405691583,3900
-386.2046994448317,3787
-383.6270707603344,3613
-381.05015433141045,3454
-378.473949973725,2925
-375.8984575028645,2659
-373.32367673433623,2410
-370.74960748356875,2089
-368.1762495659117,1791
-365.60360279663576,1604
-363.03166699093265,1512
-360.4604419639154,1259
-357.8899275306178,1085
-355.32012350599507,920
-352.7510297049233,937
-350.1826459421999,939
-347.61497203254316,821
-345.04800779059235,966
-342.4817530309082,1292
-339.91620756797226,1477
-337.35137121618743,1436
-334.7872437898774,1390
-332.22382510328725,1538
-329.66111497058273,1457
-327.09911320585127,1010
-324.53781962310075,943
-321.9772340362607,902
-319.4173562591816,938
-316.8581861056348,949
-314.2997233893127,865
-311.7419679238294,1002
-309.1849195227194,1018
-306.62857799943856,1034
-304.0729431673641,1043
-301.51801483979375,1074
-298.963792829947,1255
-296.41027695096386,1322
-293.85746701590574,1498
-291.3053628377552,1523
-288.7539642294155,1536
-286.2032710037115,1801
-283.65328297338897,2309
-281.1039999511146,2654
-278.5554217494762,2952
-276.007548180983,2109
-273.4603790580651,1247
-270.9139141930734,1309
-268.3681533982807,1585
-265.8230964858798,1993
-263.27874326798565,1602
-260.7350935566336,1466
-258.1921471637804,1823
-255.6499039013039,2233
-253.10836358100266,1766
-250.56752601459698,1692
-248.02739101372765,2077
-245.48795838995704,2308
-242.94922795476816,2024
-240.41119951956557,1417
-237.8738728956746,1709
-235.33724789434166,1928
-232.80132432673452,1849
-230.2661020039418,1739
-227.73158073697357,1833
-225.19776033676033,2200
-222.66464061415422,2227
-220.1322213799284,1906
-217.60050244477725,1662
-215.06948361931552,2231
-212.53916471408013,3202
-210.00954553952818,3589
-207.48062590603843,2452
-204.9524056239104,1890
-202.4248845033651,2207
-199.8980623545441,2585
-197.37193898751036,3003
-194.84651421224817,2191
-192.32178783866232,2002
-189.79775967657952,2632
-187.27442953574644,3393
-184.7517972258321,3911
-182.2298625564256,3048
-179.7086253370378,2638
-177.18808537710026,2998
-174.66824248596583,3518
-172.14909647290835,3930
-169.6306471471229,3288
-167.11289431772548,2775
-164.59583779375328,2586
-162.07947738416453,3017
-159.5638128978386,4174
-157.04884414357605,4157
-154.53457093009854,3814
-152.02099306604828,3544
-149.50811035998936,3110
-146.99592262040665,3390
-144.48442965570587,5098
-141.97363127421409,6507
-139.46352728417958,6777
-136.95411749377126,5245
-134.44540171107985,3996
-131.93737974411636,2912
-129.43005140081357,3896
-126.92341648902493,6687
-124.41747481652521,10937
-121.91222619101006,13081
-119.40767042009657,11420
-116.90380731132257,8373
-114.40063667214702,5604
-111.8981583099503,4283
-109.3963720320337,8096
-106.89527764561933,18202
-104.39487495785067,32092
-101.89516377579241,40114
-99.39614390642998,37825
-96.89781515667039,36357
-94.40017733334128,39873
-91.90323024319173,39526
-89.40697369289148,35700
-86.91140748903172,28949
-84.41653143812482,29410
-81.92234534660395,46034
-79.42884902082358,65025
-76.93604226705907,65025
-74.4439248915071,65025
-71.95249670028534,65025
-69.46175749943245,65025
-66.97170709490854,65025
-64.48234529259423,65025
-61.99367189829195,65025
-59.50568671772464,65025
-57.01838955653636,65025
-54.53178022029283,65025
-52.045858514480074,65025
-49.560624244506016,65025
-47.07607721569923,57376
-44.59221723330904,38672
-42.10904410250669,36005
-39.62655762838392,30496
-37.14475761595372,32462
-34.66364387015028,38621
-32.18321619582866,49131
-29.70347439776515,61868
-27.224418280657005,65025
-24.74604764912317,65025
-22.26836230770266,65025
-19.7913620608565,65025
-17.315046712966478,65025
-14.83941606833514,65025
-12.36446993118659,65025
-9.89020810566592,65025
-7.416630395839093,65025
-4.94373660569363,65025
-2.471526539137585,65025
-6.821210263296962E-13,65025
2.47084320796705,65025
4.941003281093458,65025
7.410480415786196,65025
9.879274808531363,65025
12.347386655893956,65025
14.814816154518212,65025
17.28156350112681,65025
19.74762889252179,65025
22.21301252558385,30660
24.67771459727237,12834
27.141735304626195,16161
29.605074844762612,16611
32.06773341487792,13723
34.52971121224755,12958
36.99100843422559,14845
39.45162527824516,14470
41.91156194181792,12813
44.370818622535126,10172
46.82939551806646,11312
49.287292826160524,12617
51.74451074464503,11738
54.201049471426245,8499
56.65690920448981,7131
59.112090141899785,7085
61.56659248179983,6208
64.02041642241159,6265
66.4735621620365,6702
68.92602989905402,7551
71.37781983192338,7783
73.82893215918205,8218
76.27936707944684,8256
78.72912479141326,7816
81.17820549385567,8868
83.62660938562783,8626
86.07433666566146,8046
88.5213875329681,5179
90.96776218663751,4819
93.41346082583925,4737
95.85848364982041,4967
98.30283085790859,7236
100.7465026495089,8327
103.18949922410604,6775
105.63182078126385,4725
108.07346752062438,4330
110.51443964190923,3244
112.95473734491827,3741
115.39436082953114,4543
117.83331029570547,5613
120.27158594347827,4316
122.7091879729652,3706
125.1461165843615,3740
127.58237197794062,4962
130.01795435405518,4664
132.4528639131364,3987
134.88710085569494,4565
137.32066538231982,5285
139.75355769367923,4494
142.1857779905207,3662
144.61732647366978,3698
147.04820334403132,3499
149.47840880258934,2864
151.90794305040674,3593
154.33680628862487,3557
156.76499871846443,3279
159.19252054122433,3303
161.61937195828352,3935
164.04555317109896,4605
166.47106438120693,4784
168.89590579022217,4790
171.320077599839,5324
173.7435800118302,5795
176.16641322804742,6366
178.58857745042144,6117
181.01007288096173,6324
183.43089972175687,6847
185.85105817497413,6404
188.27054844285988,6170
190.6893707277394,6378
193.10752523201643,6911
195.5250121581745,6945
197.9418317087751,6313
200.3579840864594,6873
202.7734694939469,7239
205.18828813403627,6917
207.6024402096051,6848
210.01592592360964,6845
212.42874547908548,6664
214.84089907914665,7122
217.2523869269868,7141
219.66320922587727,6809
222.0733661791695,6587
224.48285799029293,6942
226.8916848627572,7200
229.29984700014882,6813
231.7073446061355,7024
234.11417788446204,7118
236.520347038953,7386
238.92585227351185,7504
241.33069379212054,7003
243.73487179884035,7033
246.1383864978112,7223
248.541238093252,7547
250.9434267894609,7654
253.34495279081432,7386
255.74581630176783,6836
258.1460175268563,7086
260.54555667069314,6993
262.9444339379703,7370
265.3426495334594,7890
267.7402036620107,7434
270.1370965285529,7229
272.53332833809407,6952
274.9288992957214,7282
277.32380960660055,7216
279.718059475976,7031
282.1116491091717,6634
284.5045787115897,6377
286.89684848871195,6428
289.2884586460981,6652
291.67940938938807,6897
294.0697009242996,6676
296.4593334566299,6842
298.84830719225477,6688
301.23662233712923,6565
303.6242790972866,6503
306.01127767884,6514
308.39761828798066,6632
310.78330113097934,6333
313.16832641418534,6210
315.5526943440269,6284
317.9364051270112,6545
320.3194589697242,6689
322.70185607883093,6501
325.0835966610754,6437
327.4646809232805,6342
329.8451090723478,6380
332.2248813152577,6256
334.6039978590701,6166
336.9824589109231,6201
339.36026467803447,6047
341.7374153677,6120
344.113911187295,6055
346.48975234427337,6061
348.8649390461686,6037
351.2394715005918,6012
353.61334991523415,6057
355.9865744978655,6119
358.35914545633375,6039
360.73106299856715,6098
363.10232733257146,6306
365.47293866643247,6175
367.84289720831396,6111
370.2122031664593,5926
372.5808567491905,6145
374.9488581649083,5971
377.31620762209275,5869
379.6829053293021,5841
382.0489514951745,6009
384.4143463284262,6018
386.7790900378528,6075
389.14318283232853,5990
391.50662492080653,6194
393.86941651231916,6363
396.23155781597745,6781
398.5930490409713,6314
400.9538903965696,6260
403.3140820921202,6244
405.6736243370498,6058
408.03251734086336,6262
410.3907613131465,5912
412.74835646356166,5922
415.10530300185144,6034
417.4616011378372,5880
419.81725108141893,5931
422.1722530425758,5962
424.5266072313656,6130
426.880313857925,5976
429.2333731324701,5872
431.58578526529516,6007
433.9375504667738,5952
436.2886689473588,5974
438.63914091758113,5787
440.9889665880513,5819
443.33814616945835,5788
445.68667987257015,5864
448.03456790823395,5955
450.3818104873759,5865
452.72840782100013,5870
455.07436012019105,5997
457.41966759611057,5732
459.7643304600007,5752
462.10834892318155,5683
464.4517231970525,5936
466.79445349309174,6018
469.1365400228566,5878
471.4779829979826,6019
473.81878263018564,5852
476.15893913125876,5959
478.4984527130747,6129
480.8373235875855,6054
483.17555196682144,5967
485.5131380628919,6221
487.8500820879857,6288
490.1863842543697,6355
492.52204477439034,6683
494.8570638604725,7036
497.1914417251204,7420
499.52517858091653,7474
501.85827464052306,7757
504.19073011668036,7760
506.5225452222086,7986
508.85372017000566,8258
511.18425517304956,8794
513.514150444396,10190
515.8434061971808,11782
518.1720226446176,12352
520.4999999999999,12264
522.8273384766991,11575
525.1540382881666,10756
527.480099647932,9300
529.8055227696037,7869
532.1303078668694,6889
534.454455153496,6609
536.777964843328,6354
539.1008371502907,6217
541.4230722883866,6375
543.744670471698,6267
546.0656319143858,6198
548.3859568306899,6148
550.7056454349294,6625
553.0246979415016,6614
555.3431145648834,6490
557.6608955196306,6143
559.978041020377,6210
562.2945512818363,6062
564.6104265188006,6024
566.9256669461412,6089
569.2402727788082,6131
571.5542442318302,6515
573.8675815203156,6087
576.1802848594508,6162
578.4923544645015,6284
580.8037905508126,6105
583.114593333807,6060
585.4247630289875,6210
587.7342998519354,6318
590.0432040183106,6336
592.3514757438526,6038
594.6591152443794,6132
596.9661227357875,6253
599.2724984340531,6161
601.578242555231,6114
603.8833553154542,6059
606.1878369309362,6150
608.4916876179676,6008
610.7949075929192,6024
613.0974970722403,6143
615.3994562724587,6048
617.7007854101818,6120
620.0014847020951,6070
622.3015543649641,6192
624.6009946156324,6107
626.8998056710224,6051
629.1979877481361,6053
631.4955410640538,6119
633.7924658359349,6200
636.0887622810175,6075
638.3844306166192,6126
640.6794710601358,6191
642.9738838290426,6319
645.2676691408932,6410
647.5608272133207,6228
649.853358264037,6330
652.1452625108324,6406
654.4365401715764,6253
656.7271914642178,6339
659.0172166067838,6315
661.3066158173809,6349
663.5953893141935,6290
665.8835373154867,6333
668.1710600396028,6469
670.4579577049639,6448
672.7442305300709,6229
675.0298787335033,6164
677.3149025339197,6220
679.599302150058,6233
681.8830778007342,6383
684.1662297048437,6294
686.4487580813608,6261
688.7306631493387,6322
691.0119451279091,6405
693.2926042362834,6409
695.5726406937516,6305
697.8520547196814,6360
700.1308465335215,6340
702.4090163547982,6274
704.6865644031171,6186
706.9634908981619,6293
709.2397960596965,6103
711.5154801075631,6305
713.7905432616823,6429
716.0649857420548,6382
718.3388077687592,6296
720.612009561953,6238
722.8845913418733,6340
725.1565533288352,6166
727.427895743234,6284
729.6986188055427,6269
731.9687227363137,6411
734.238207756178,6358
736.5070740858458,6336
738.7753219461066,6371
741.0429515578281,6425
743.3099631419569,6468
745.5763569195191,6218
747.8421331116193,6327
750.1072919394409,6505
752.3718336242467,6512
754.6357583873777,6295
756.8990664502545,6431
759.1617580343765,6380
761.423833361321,6431
763.6852926527457,6289
765.9461361303862,6458
768.206364016058,6561
770.4659765316536,6518
772.7249738991469,6478
774.9833563405886,6422
777.2411240781092,6352
779.4982773339183,6248
781.7548163303044,6495
784.010741289634,6475
786.2660524343538,6437
788.5207499869881,6412
790.7748341701416,6516
793.0283052064964,6508
795.2811633188143,6423
797.5334087299362,6493
799.7850416627813,6464
802.0360623403484,6525
804.2864709857143,6608
806.5362678220353,6722
808.7854530725468,6484
811.0340269605625,6567
813.2819897094754,6722
815.5293415427581,6651
817.77608268396,6585
820.0222133567116,6529
822.2677337847211,6684
824.5126441917765,6760
826.7569448017433,6595
829.0006358385675,6537
831.2437175262731,6516
833.4861900889629,6490
835.7280537508192,6495
837.9693087361026,6421
840.2099552691533,6445
842.4499935743896,6315
844.689423876309,6572
846.9282463994886,6714
849.1664613685833,6412
851.4040690083276,6477
853.6410695435349,6576
855.877463199097,6615
858.1132501999847,6471
860.3484307712487,6454
862.5830051380175,6389
864.8169735254988,6473
867.0503361589791,6523
869.2830932638243,6563
871.5152450654786,6622
873.7467917894654,6535
875.9777336613873,6568
878.2080709069252,6568
880.4378037518389,6736
882.666932421968,6702
884.8954571432301,6795
887.1233781416219,6880
889.3506956432192,6766
891.5774098741766,6585
893.803521060728,6660
896.0290294291852,6567
898.2539352059397,6822
900.4782386174619,6887
902.7019398903011,6713
904.925039251085,6780
907.147536926521,6627
909.3694331433943,6466
911.59072812857,6672
913.8114221089921,6545
916.0315153116827,6616
918.2510079637437,6473
920.4699002923547,6623
922.6881925247761,6430
924.905884888345,6588
927.1229776104793,6483
929.3394709186747,6682
931.555365040506,6529
933.7706602036275,6419
935.9853566357709,6695
938.1994545647489,6898
940.4129542184515,6702
942.6258558248488,6678
944.8381596119883,6763
947.0498658079974,6924
949.2609746410825,6739
951.4714863395287,6610
953.6814011316998,6735
955.8907192460387,6684
958.0994409110671,6643
960.3075663553858,6858
962.5150958076741,6857
964.7220294966913,6848
966.928367651274,6836
969.1341105003388,6701
971.3392582728806,6725
973.5438111979742,6768
975.747769504772,6735
977.9511334225061,6468
980.153903180487,6816
982.3560790081052,6641
984.5576611348289,6542
986.7586497902058,6640
988.9590452038618,6705
991.158847605503,6777
993.3580572249133,6720
995.5566742919558,6509
997.7546990365728,6494
999.952131688785,6444
1002.1489724786926,6404
1004.3452216364743,6393
1006.5408793923874,6382
1008.7359459767691,6278
1010.9304216200343,6340
1013.1243065526781,6316
1015.3176010052733,6194
1017.510305208472,6216
1019.7024193930064,6550
1021.8939437896848,6608
1024.0848786293977,6492
1026.2752241431122,6250
1028.4649805618747,6173
1030.6541481168115,6132
1032.842727039127,6271
1035.0307175601051,6204
1037.2181199111074,6235
1039.4049343235752,6310
1041.591161029029,6313
1043.7768002590683,6268
1045.9618522453698,6183
1048.1463172196918,6254
1050.3301954138697,6316
1052.513487059818,6211
1054.69619238953,6166
1056.8783116350783,6348
1059.0598450286152,6453
1061.2407928023704,6303
1063.4211551886528,6112
1065.6009324198508,6210
1067.780124728432,6221
1069.9587323469414,6308
1072.1367555080046,6218
1074.314194444325,6216
1076.4910493886855,6226
1078.667320573947,6189
1080.843008233051,6219
1083.0181125990161,6257
1085.1926339049414,6213
1087.3665723840027,6318
1089.5399282694575,6214
1091.7127017946405,6162
1093.8848931929647,6154
1096.0565026979243,6186
1098.2275305430899,6177
1100.3979769621128,6185
1102.567842188722,6157
1104.737126456726,6226
1106.9058300000124,6331
1109.0739530525475,6167
1111.2414958483764,6184
1113.4084586216231,6244
1115.5748416064907,6261
1117.7406450372605,6352
1119.9058691482942,6273
1122.0705141740304,6279
1124.2345803489884,6162
1126.3980679077658,6117
1128.5609770850388,6283
1130.7233081155623,6279
1132.8850612341707,6066
1135.0462366757774,6105
1137.2068346753745,6314
1139.3668554680326,6253
1141.526299288901,6278
1143.68516637321,6379
1145.8434569562655,6170
1148.001171273455,6251
1150.158309560244,6307
1152.3148720521767,6285
1154.470858984876,6229
1156.626270594044,6123
1158.7811071154629,6285
1160.9353687849912,6463
1163.089055838569,6234
1165.242168512213,6339
1167.3947070420209,6304
1169.5466716641677,6208
1171.6980626149075,6254
1173.8488801305748,6372
1175.9991244475814,6278
1178.1487958024186,6238
1180.2978944316555,6233
1182.4464205719428,6198
1184.5943744600072,6058
1186.7417563326567,6151
1188.8885664267755,6170
1191.0348049793297,6090
1193.1804722273619,6171
1195.325568407995,6165
1197.4700937584303,6228
1199.614048515948,6244
1201.7574329179074,6211
1203.900247201746,6228
1206.042491604982,6247
1208.1841663652099,6246
1210.3252717201053,6220
1212.465807907422,6323
1214.6057751649923,6316
1216.7451737307279,6267
1218.8840038426192,6290
1221.0222657387353,6345
1223.1599596572241,6283
1225.2970858363137,6395
1227.4336445143094,6373
1229.5696359295966,6252
1231.705060320639,6320
1233.8399179259786,6359
1235.9742089842384,6446
1238.107933734118,6452
1240.2410924143974,6422
1242.373685263935,6321
1244.5057125216676,6512
1246.6371744266116,6358
1248.7680712178621,6373
1250.898403134593,6445
1253.028170416058,6389
1255.1573733015875,6464
1257.2860120305932,6302
1259.4140868425648,6381
1261.54159797707,6355
1263.6685456737569,6495
1265.7949301723515,6494
1267.9207517126597,6555
1270.046010534565,6422
1272.1707068780306,6573
1274.2948409830983,6501
1276.4184130898889,6406
1278.541423438603,6422
1280.6638722695184,6400
1282.785759822993,6400
1284.9070863394636,6503
1287.0278520594447,6451
1289.1480572235314,6466
1291.2677020723963,6675
1293.3867868467923,6676
1295.5053117875495,6733
1297.623277135579,6556
1299.740683131868,6643
1301.8575300174857,6745
1303.973818033578,6713
1306.0895474213703,6732
1308.2047184221678,6851
1310.3193312773528,6697
1312.4333862283888,6679
1314.5468835168163,6666
1316.659823384255,6791
1318.7722060724045,6624
1320.8840318230418,6578
1322.9953008780249,6545
1325.1060134792888,6571
1327.2161698688478,6638
1329.3257702887959,6617
1331.4348149813054,6681
1333.5433041886276,6587
1335.6512381530933,6504
1337.7586171171101,6592
1339.8654413231675,6554
1341.9717110138317,6563
1344.0774264317488,6425
1346.1825878196432,6422
1348.2871954203192,6461
1350.3912494766587,6393
1352.4947502316231,6435
1354.5976979282532,6433
1356.7000928096686,6478
1358.8019351190665,6467
1360.9032250997243,6559
1363.0039629949988,6503
1365.1041490483235,6458
1367.2037835032133,6427
1369.3028666032606,6471
1371.401398592137,6600
1373.4993797135926,6507
1375.5968102114575,6468
1377.6936903296396,6551
1379.7900203121262,6515
1381.8858004029835,6402
1383.9810308463561,6587
1386.075711886469,6510
1388.1698437676241,6665
1390.2634267342032,6615
1392.356461030667,6473
1394.4489469015557,6671
1396.5408845914872,6634
1398.6322743451592,6543
1400.7231164073469,6602
1402.813411022907,6541
1404.903158436773,6628
1406.9923588939578,6536
1409.0810126395531,6640
1411.1691199187303,6489
1413.2566809767386,6501
1415.343696058907,6403
1417.4301654106425,6658
1419.5160892774315,6518
1421.6014679048399,6618
1423.6863015385125,6558
1425.7705904241707,6543
1427.8543348076178,6587
1429.9375349347342,6548
1432.0201910514802,6661
1434.102303403894,6479
1436.1838722380944,6471
1438.2648978002767,6654
1440.3453803367174,6632
1442.4253200937692,6794
1444.5047173178677,6696
1446.5835722555234,6790
1448.6618851533285,6728
1450.739656257952,6871
1452.8168858161434,6781
1454.8935740747306,6895
1456.96972128062,6872
1459.045327680797,6924
1461.120393522327,6914
1463.1949190523528,7020
1465.2689045180973,6931
1467.3423501668608,7077
1469.415256246024,7043
1471.4876230030463,7177
1473.559450685465,7158
1475.6307395408976,7189
1477.7014898170391,7278
1479.771701761665,7167
1481.8413756226287,7210
1483.9105116478618,7367
1485.9791100853772,7232
1488.0471711832643,7277
1490.1146951896926,7421
1492.1816823529098,7268
1494.2481329212433,7384
1496.3140471430984,7483
1498.3794252669609,7454
1500.4442675413939,7456
1502.5085742150404,7632
1504.572345536622,7665
1506.6355817549388,7415
1508.6982831188702,7458
1510.7604498773744,7653
1512.8220822794883,7619
1514.8831805743293,7527
1516.9437450110909,7614
1519.003775839048,7693
1521.0632733075522,7676
1523.1222376660367,7838
1525.1806691640113,7925
1527.2385680510652,7805
1529.2959345768668,7818
1531.3527689911643,7897
1533.4090715437833,7942
1535.4648424846291,7998
1537.5200820636855,7948
1539.5747905310159,8180
1541.6289681367616,8130
1543.6826151311434,8216
1545.7357317644614,8227
1547.7883182870937,8279
1549.8403749494987,8354
1551.8919020022113,8314
1553.9428996958477,8459
1555.9933682811015,8656
1558.0433080087469,8446
1560.0927191296346,8493
1562.1416018946961,8556
1564.1899565549415,8589
1566.2377833614592,8569
1568.2850825654164,8347
1570.3318544180606,8338
1572.3780991707158,8292
1574.423817074788,7954
1576.4690083817595,7846
1578.5136733431923,7879
1580.5578122107272,7774
1582.601425236085,7677
1584.6445126710646,7615
1586.6870747675434,7354
1588.7291117774776,7253
1590.7706239529034,7125
1592.8116115459347,7140
1594.8520748087658,7040
1596.8920139936686,6965
1598.9314293529933,6967
1600.9703211391711,6952
1603.008689604711,6804
1605.0465350022005,6770
1607.0838575843068,6742
1609.1206576037753,6602
1611.1569353134305,6656
1613.1926909661765,6580
1615.2279248149953,6777
1617.2626371129481,6547
1619.2968281131757,6601
1621.3304980688963,6550
1623.3636472334088,6560
1625.39627586009,6563
1627.428384202396,6475
1629.459972513861,6424
1631.4910410480993,6449
1633.5215900588028,6579
1635.551619799744,6549
1637.5811305247717,6473
1639.6101224878166,6419
1641.6385959428862,6384
1643.6665511440683,6476
1645.693988345528,6333
1647.7209078015112,6442
1649.7473097663405,6313
1651.7731944944203,6462
1653.7985622402307,6495
1655.823413258333,6412
1657.847747803366,6361
1659.8715661300494,6347
1661.8948684931793,6355
1663.9176551476316,6450
1665.9399263483624,6393
1667.9616823504057,6342
1669.982923408873,6163
1672.0036497789574,6223
1674.0238617159293,6352
1676.043559475138,6262
1678.0627433120121,6429
1680.081413482059,6276
1682.0995702408654,6437
1684.117213844096,6264
1686.134344547495,6360
1688.1509626068864,6148
1690.1670682781705,6226
1692.182661817329,6211
1694.1977434804217,6303
1696.2123135235875,6285
1698.226372203043,6357
1700.2399197750851,6389
1702.2529564960905,6432
1704.2654826225112,6189
1706.277498410882,6156
1708.2890041178139,6274
1710.2999999999988,6384
1712.3104863142066,6205
1714.3204633172854,6206
1716.329931266163,6170
1718.3388904178469,6356
1720.3473410294214,6389
1722.3552833580516,6300
1724.3627176609807,6268
1726.3696441955308,6241
1728.3760632191033,6345
1730.3819749891782,6256
1732.3873797633146,6186
1734.3922777991502,6156
1736.3966693544012,6268
1738.4005546868639,6116
1740.4039340544127,6125
1742.406807715001,6005
1744.4091759266616,6149
1746.4110389475054,6291
1748.4123970357223,6175
1750.413250449582,6138
1752.4135994474318,5996
1754.4134442876993,6053
1756.4127852288902,6107
1758.4116225295893,6122
1760.4099564484595,6138
1762.407787244244,6234
1764.405115175764,6041
1766.4019405019203,6181
1768.3982634816916,6008
1770.3940843741357,6109
1772.3894034383907,6173
1774.3842209336717,6129
1776.378537119274,6152
1778.372352254571,6015
1780.3656665990156,6026
1782.3584804121397,6147
1784.3507939535534,6136
1786.3426074829463,6154
1788.3339212600863,6146
1790.3247355448211,6216
1792.3150505970766,6165
1794.3048666768573,6179
1796.2941840442477,6125
1798.2830029594106,6086
1800.2713236825884,6035
1802.2591464741004,6221
1804.2464715943465,5930
1806.2332993038058,6043
1808.2196298630352,6045
1810.2054635326708,6056
1812.190800573428,5958
1814.175641246101,6203
1816.1599858115628,6148
1818.1438345307652,6232
1820.127187664738,6062
1822.1100454745924,6040
1824.092408221516,6125
1826.0742761667766,6073
1828.055649571721,6183
1830.0365286977735,6064
1832.0169138064398,6127
1833.9968051593014,6117
1835.9762030180214,5916
1837.9551076443408,6074
1839.9335193000788,6085
1841.9114382471344,6066
1843.888864747485,6123
1845.8657990631878,6128
1847.842241456378,6016
1849.8181921892697,6078
1851.7936515241558,5984
1853.7686197234098,6055
1855.7430970494815,6086
1857.7170837649014,6091
1859.6905801322787,5947
1861.6635864143004,6002
1863.6361028737338,6185
1865.608129773424,6200
1867.5796673762961,6031
1869.5507159453537,6191
1871.521275743678,6109
1873.4913470344313,6147
1875.4609300808534,6023
1877.4300251462632,6136
1879.3986324940588,6138
1881.366752387717,6069
1883.3343850907936,6053
1885.3015308669228,6104
1887.268189979819,6162
1889.2343626932739,6195
1891.2000492711595,6086
1893.1652499774254,6240
1895.1299650761011,6123
1897.0941948312952,6144
1899.0579395071945,6172
1901.0211993680641,6070
1902.98397467825,6223
1904.9462657021745,6087
1906.9080727043415,6046
1908.869395949332,6098
1910.8302357018065,6098
1912.790592226504,6101
1914.7504657882428,6103
1916.7098566519212,6049
1918.6687650825133,6085
1920.6271913450764,6127
1922.5851357047422,5866
1924.5425984267245,6164
1926.499579776314,6254
1928.4560800188833,6064
1930.4120994198802,6029
1932.367638244833,6202
1934.32269675935,6218
1936.2772752291175,6005
1938.231373919899,6088
1940.1849930975404,5978
1942.1381330279637,6116
1944.0907939771696,6186
1946.0429762112412,6144
1947.9946799963363,6061
1949.9459055986945,6089
1951.896653284633,6084
1953.8469233205478,6064
1955.7967159729142,6070
1957.7460315082863,6138
1959.6948701932974,6049
1961.6432322946594,6050
1963.5911180791632,6008
1965.5385278136787,6055
1967.4854617651545,6170
1969.4319202006182,6105
1971.377903387176,6073
1973.3234115920136,6093
1975.268445082395,6170
1977.2130041256642,6261
1979.1570889892423,6179
1981.1006999406304,6110
1983.04383724741,6098
1984.986501177238,6083
1986.928691997853,6090
1988.8704099770712,6060
1990.811655382789,6191
1992.7524284829801,6037
1994.692729545698,6182
1996.6325588390755,6129
1998.5719166313224,6022
2000.5108031907307,6034
2002.4492187856677,6114
2004.387163684583,6105
2006.3246381560011,6035
2008.2616424685298,6111
2010.1981768908527,6024
2012.1342416917332,6072
2014.069837140014,5946
2016.0049635046162,5941
2017.9396210545406,6203
2019.8738100588666,6004
2021.8075307867502,5959
2023.740783507431,6125
2025.6735684902228,6054
2027.6058860045214,6020
2029.5377363198004,6021
2031.4691197056118,6112
2033.4000364315875,6139
2035.3304867674374,6017
2037.260470982952,6124
2039.189989347998,6088
2041.1190421325232,6000
2043.047629606554,6099
2044.9757520401945,5975
2046.9034097036288,6062
2048.8306028671195,6055
2050.7573318010086,6077
2052.683596775716,5962
2054.609398061742,6071
2056.5347359296647,5968
2058.4596106501403,6162
2060.384022493906,6062
2062.3079717317764,6182
2064.231458634646,6130
2066.1544834734873,6130
2068.077046519352,6000
2069.99914804337,5905
2071.9207883167524,6003
2073.8419676107865,6190
2075.7626861968406,6056
2077.6829443463607,6092
2079.6027423308715,5938
2081.522080421977,6081
2083.440958891362,6038
2085.359378010786,6180
2087.2773380520907,6229
2089.194839287196,5955
2091.111881988101,6123
2093.0284664268825,6032
2094.9445928756973,6061
2096.86026160678,6096
2098.775472892446,6066
2100.690227005088,6227
2102.604524217178,5988
2104.5183648012676,6123
2106.431749029985,6240
2108.34467717604,6030
2110.2571495122206,5994
2112.169166311393,6117
2114.080727846503,6143
2115.9918343905747,5974
2117.902486216711,6025
2119.8126835980956,6118
2121.722426807987,5986
2123.6317161197285,6087
2125.5405518067364,6062
2127.448934142509,6100
2129.356863400624,6035
2131.264339854737,6197
2133.1713637785815,6170
2135.077935445972,6100
2136.9840551308002,6162
2138.889723107037,6106
2140.7949396487334,6157
2142.699705030018,6144
2144.6040195250994,5989
2146.507883408264,6022
2148.4112969538774,6027
2150.3142604363848,6005
2152.2167741303097,6021
2154.1188383102535,6122
2156.0204532508997,6040
2157.9216192270064,6000
2159.822336513414,6087
2161.7226053850413,5954
2163.622426116884,6169
2165.5217989840185,6027
2167.4207242616,6135
2169.319202224862,6197
2171.2172331491165,6175
2173.1148173097563,6157
2175.0119549822507,6122
2176.90864644215,6089
2178.8048919650823,6087
2180.7006918267534,6080
2182.596046302952,6176
2184.4909556695407,6099
2186.3854202024645,6136
2188.279440177746,6126
2190.173015871487,6220
2192.066147559868,6044
2193.958835519149,6180
2195.851080025667,6116
2197.7428813558417,6041
2199.6342397861667,6060
2201.5251555932186,6098
2203.415629053651,6118
2205.3056604441986,6070
2207.19525004167,6007
2209.084398122958,5989
2210.9731049650327,5994
2212.861370844941,6136
2214.749196039812,6169
2216.636580826851,6374
2218.523525483344,6178
2220.410030286655,6220
2222.296095514226,6277
2224.1817214435805,6316
2226.066908352319,6256
2227.951656518121,6190
2229.835966218746,6248
2231.71983773203,6171
2233.6032713358913,6130
2235.486267308324,6138
2237.3688259274036,6179
2239.2509474712824,6148
2241.132632218193,6196
2243.013880446447,6252
2244.8946924344323,6158
2246.7750684606203,6284
2248.6550088035574,6166
2250.534513741871,6160
2252.413583554265,6134
2254.292218519526,6258
2256.170418916517,6283
2258.0481850241786,6234
2259.925517121534,6182
2261.8024154876825,6121
2263.678880401803,6111
2265.5549121431536,6194
2267.430510991071,6086
2269.305677224971,6018
2271.180411124348,6173
2273.0547129687766,6250
2274.9285830379076,6145
2276.8020216114737,6108
2278.6750289692845,6100
2280.5476053912294,6127
2282.4197511572766,6191
2284.2914665474727,6227
2286.162751841943,6195
2288.0336073208937,6275
2289.904033264608,6359
2291.774029953448,6226
2293.6435976678554,6089
2295.5127366883517,6248
2297.381447295534,6145
2299.2497297700825,6131
2301.1175843927526,6114
2302.9850114443825,6187
2304.852011205885,6205
2306.7185839582553,6172
2308.5847299825664,6160
2310.4504495599676,6233
2312.3157429716925,6073
2314.1806104990483,6154
2316.0450524234247,6073
2317.9090690262888,6167
2319.772660589186,6046
2321.635827393742,6082
2323.498569721661,6180
2325.3608878547248,6095
2327.2227820747967,6145
2329.0842526638157,6079
2330.945299903803,6072
2332.805924076857,6058
2334.6661254651535,6262
2336.525904350951,6005
2338.3852610165827,6221
2340.244195744464,6146
2342.102708817088,6198
2343.9608005170253,5961
2345.8184711269287,6140
2347.675720929526,6063
2349.532550207628,6115
2351.38895924412,6223
2353.24494832197,6095
2355.100517724223,6085
2356.955667734004,6130
2358.810398634514,6082
2360.664710709037,6020
2362.5186042409337,6147
2364.3720795136437,6088
2366.225136810686,6091
2368.0777764156583,6112
2369.929998612237,5947
2371.7818036841777,6026
2373.633191915315,6033
2375.484163589562,6107
2377.3347189909114,6045
2379.184858403434,6039
2381.03458211128,5993
2382.8838903986775,6126
2384.732783549936,6161
2386.5812618494406,6057
2388.4293255816588,6096
2390.2769750311327,5987
2392.1242104824883,5955
2393.971032220427,6114
2395.8174405297295,6007
2397.6634356952563,6156
2399.509018001947,6048
2401.3541877348193,6055
2403.1989451789705,6110
2405.043290619576,6095
2406.8872243418905,6118
2408.730746631247,6049
2410.5738577730594,6104
2412.4165580528183,6109
2414.258847756095,6082
2416.100727168537,5980
2417.9421965758734,5990
2419.783256263912,6117
2421.623906518538,6010
2423.4641476257157,5958
2425.303979871491,5992
2427.143403541984,6095
2428.9824189233977,6151
2430.821026302012,5984
2432.6592259641866,6053
2434.497018196361,6042
2436.33440328505,5979
2438.171381516851,6036
2440.00795317844,6144
2441.844118556569,6061
2443.6798779380724,6043
2445.5152316098606,6035
2447.3501798589255,6087
2449.1847229723357,6125
2451.0188612372403,6062
2452.8525949408663,6025
2454.6859243705203,5968
2456.518849813587,6144
2458.3513715575314,6089
2460.183489889895,5944
2462.015205098301,6201
2463.8465174704493,6066
2465.67742729412,6049
2467.5079348571717,6182
2469.338040447542,6040
2471.1677443532476,6119
2472.9970468623833,5989
2474.825948263123,6080
2476.6544488437207,6012
2478.482548892508,5961
2480.310248697896,6211
2482.137548548374,6103
2483.9644487325118,6237
2485.790949538956,6149
2487.617051256433,6048
2489.44275417375,6122
2491.26805857979,6187
2493.0929647635157,6191
2494.917473013971,6214
2496.741583620276,6106
2498.5652968716304,5965
2500.3886130573137,6163
2502.2115324666834,6210
2504.0340553891765,6184
2505.856182114308,6233
2507.6779129316733,6298
2509.499248130945,6245
2511.3201880018764,6033
2513.140732834298,6053
2514.9608829181198,6043
2516.780638543331,5989
2518.6,6198
2520.418967578273,6156
2522.237541568376,6253
2524.0557222606144,6211
2525.8735099453706,6173
2527.6909049131086,6091
2529.507907454368,6137
2531.32451785977,6181
2533.140736420014,6189
2534.9565634258774,6297
2536.771999168218,6142
2538.5870439379714,6096
2540.4016980261526,6093
2542.2159617238544,6225
2544.02983532225,6277
2545.8433191125914,6198
2547.656413386209,6202
2549.4691184345115,6145
2551.2814345489874,6302
2553.093362021204,6354
2554.904901142808,6274
2556.716052205523,6353
2558.526815501153,6290
2560.3371913215824,6155
2562.147179958771,6372
2563.956781704761,6210
2565.7659968516705,6205
2567.5748256916986,6379
2569.3832685171224,6346
2571.1913256202984,6391
2572.9989972936614,6329
2574.806283829725,6242
2576.613185521084,6278
2578.4197026604074,6387
2580.2258355404483,6297
2582.031584454035,6214
2583.836949694077,6273
2585.6419315535613,6299
2587.4465303255533,6333
2589.2507463032002,6321
2591.0545797797245,6233
2592.8580310484303,6344
2594.6611004026995,6500
2596.463788135992,6436
2598.266094541849,6379
2600.0680199138874,6302
2601.869564545807,6402
2603.670728731383,6532
2605.4715127644704,6408
2607.2719169390048,6320
2609.071941548998,6484
2610.8715868885433,6537
2612.670853251811,6413
2614.469740933052,6263
2616.268250226594,6274
2618.0663814268455,6399
2619.864134828292,6467
2621.6615107255006,6278
2623.458509413115,6240
2625.2551311858597,6383
2627.0513763385347,6369
2628.8472451660223,6425
2630.6427379632833,6446
2632.4378550253564,6288
2634.232596647359,6178
2636.026963124488,6302
2637.8209547520187,6311
2639.6145718253065,6327
2641.407814639785,6297
2643.200683490966,6201
2644.9931786744414,6170
2646.7853004858807,6220
2648.577049221034,6195
2650.3684251757277,6197
2652.1594286458712,6231
2653.9500599274484,6149
2655.740319316525,6171
2657.5302071092437,6229
2659.3197236018286,6251
2661.10886909058,6161
2662.8976438718782,6244
2664.686048242183,6122
2666.4740824980327,6191
2668.2617469360443,6163
2670.0490418529134,6057
2671.8359675454153,6128
2673.622524310403,6061
2675.408712444811,6097
2677.1945322456495,6112
2678.979984010009,6123
2680.76506803506,6144
2682.5497846180497,6041
2684.334134056306,6005
2686.1181166472343,6070
2687.9017326883213,6032
2689.6849824771293,6041
2691.4678663113013,6148
2693.2503844885596,6054
2695.032537306705,6099
2696.8143250636167,6252
2698.5957480572542,5980
2700.3768065856534,5986
2702.1575009469316,6110
2703.937831439283,5978
2705.717798360982,6113
2707.4974020103837,5916
2709.276642685917,6069
2711.055520686095,6022
2712.834036309506,5997
2714.612189854819,6005
2716.389981620782,5925
2718.1674119062204,6054
2719.944481010041,5903
2721.721189231226,6133
2723.4975368688415,6011
2725.273524222027,5916
2727.0491515900053,5961
2728.824419272075,5956
2730.5993275676146,5957
2732.3738767760838,5948
2734.148067197016,5857
2735.921899130031,5839
2737.6953728748194,5902
2739.468488731156,5956
2741.2412469988926,5978
2743.0136479779617,6032
2744.785691968372,5925
2746.5573792702116,5980
2748.3287101836504,5899
2750.099685008934,5953
2751.870304046388,5965
2753.640567596418,5921
2755.4104759595057,5912
2757.1800294362156,5824
2758.949228327187,6035
2760.7180729331412,5861
2762.486563554877,5923
2764.254700493272,5865
2766.022484049284,5987
2767.789914523947,5725
2769.5569922183786,6022
2771.3237174337705,5946
2773.090090471394,5918
2774.8561116326036,5895
2776.6217812188274,5931
2778.3870995315756,5873
2780.1520668724356,5901
2781.9166835430747,6040
2783.6809498452394,5935
2785.444866080754,5997
2787.2084325515225,5992
2788.971649559527,5960
2790.73451740683,5798
2792.4970363955713,5932
2794.2592068279705,5916
2796.0210290063264,5861
2797.7825032330147,5860
2799.543629810493,5822
2801.304409041296,5925
2803.0648412280366,6064
2804.8249266734088,5938
2806.5846656801846,6009
2808.344058551212,5863
2810.1031055894246,5803
2811.8618070978273,5915
2813.6201633795085,6028
2815.378174737636,5933
2817.1358414754536,5958
2818.893163896285,5927
2820.6501423035334,5917
2822.4067770006814,5970
2824.1630682912883,5846
2825.9190164789957,5998
2827.6746218675207,5736
2829.429884760661,5943
2831.184805462294,5940
2832.9393842763743,5845
2834.693621506936,6002
2836.4475174580916,5945
2838.201072434034,5912
2839.954286739034,5960
2841.707160677441,5959
2843.459694553685,6020
2845.2118886722724,5939
2846.96374333779,5930
2848.7152588549034,5932
2850.4664355283567,5944
2852.217273662973,5835
2853.9677735636546,5877
2855.7179355353833,5856
2857.4677598832186,5884
2859.217246912299,5957
2860.9663969278427,5868
2862.715210235146,5792
2864.4636871395846,5845
2866.211827946614,5831
2867.9596329617652,5893
2869.7071024906536,5965
2871.4542368389684,5816
2873.20103631248,5834
2874.947501217038,5789
2876.6936318585695,5830
2878.4394285430812,5847
2880.1848915766604,5901
2881.9300212654707,5925
2883.6748179157553,5744
2885.4192818338374,5697
2887.1634133261173,5852
2888.907212699077,5917
2890.6506802592744,5746
2892.393816313348,5817
2894.1366211680142,5836
2895.8790951300693,5810
2897.621238506388,6020
2899.363051603925,5756
2901.1045347297118,5813
2902.8456881908596,5887
2904.58651229456,5881
2906.327007348081,5784
2908.067173658772,5760
2909.8070115340597,5841
2911.5465212814497,5805
2913.285703208527,5754
2915.0245576229563,5829
2916.7630848324807,5761
2918.5012851449196,5727
2920.2391588681758,5680
2921.976706310227,5722
2923.7139277791334,5824
2925.4508235830313,5809
2927.187394030137,5775
2928.923639428745,5924
2930.6595600872306,5854
2932.395156314046,5797
2934.1304284177218,5783
2935.8653767068713,5680
2937.6000014901815,5749
2939.3343030764227,5920
2941.068281774442,5938
2942.8019378931644,5977
2944.5352717415976,5904
2946.2682836288236,5941
2948.0009738640065,5907
2949.7333427563885,5861
2951.465390615289,5922
2953.1971177501086,5880
2954.9285244703265,5923
2956.6596110855,5824
2958.3903779052657,5757
2960.1208252393385,5869
2961.8509533975125,5730
2963.5807626896617,5746
2965.3102534257378,5930
2967.0394259157715,5733
2968.768280469873,5726
2970.496817398232,5802
2972.2250370111146,5823
2973.952939618869,5765
2975.6805255319196,5802
2977.4077950607707,5785
2979.134748516006,5867
2980.861386208289,5935
2982.587708448359,6025
2984.313715547037,5952
2986.039407815222,5756
2987.764785563891,5877
2989.489849104102,5822
2991.2145987469908,5894
2992.9390348037705,5872
2994.6631575857346,5943
2996.3869674042576,5797
2998.1104645707887,5651
2999.83364939686,5719
3001.5565221940783,5798
3003.2790832741334,5735
3005.0013329487924,5801
3006.7232715298996,5754
3008.4448993293804,5768
3010.166216659239,5650
3011.887223831558,5701
3013.607921158498,5647
3015.3283089522993,5759
3017.0483875252826,5755
3018.7681571898443,5776
3020.4876182584626,5739
3022.2067710436927,5876
3023.9256158581707,5814
3025.644153014609,5756
3027.362382825801,5737
3029.0803056046193,5875
3030.797921664012,5851
3032.5152313170106,5945
3034.2322348767225,5802
3035.9489326563353,5786
3037.665324969115,5822
3039.3814121284063,5780
3041.097194447633,5712
3042.812672240299,5891
3044.5278458199855,5744
3046.2427155003525,5800
3047.9572815951406,5719
3049.671544418167,5817
3051.38550428333,5832
3053.0991615046073,5779
3054.812516396051,5801
3056.5255692717974,5858
3058.2383204460575,5802
3059.9507702331257,5724
3061.662918947372,5808
3063.3747669032446,5740
3065.0863144152736,5747
3066.7975617980674,5711
3068.508509366309,5697
3070.219157434767,5729
3071.9295063182844,5745
3073.639556331785,5818
3075.3493077902704,5817
3077.058761008821,5764
3078.7679163025964,5809
3080.476773986837,5667
3082.1853343768594,5794
3083.89359778806,5749
3085.6015645359153,5662
3087.3092349359786,5717
3089.016609303884,5749
3090.7236879553434,5653
3092.4304712061476,5709
3094.136959372166,5739
3095.843152769349,5700
3097.5490517137237,5679
3099.2546565213966,5678
3100.959967508554,5739
3102.66498499146,5735
3104.3697092864577,5899
3106.0741407099695,5847
3107.778279578498,5753
3109.482126208622,5801
3111.1856809170004,5801
3112.8889440203716,5727
3114.5919158355528,5772
3116.294596679439,5662
3117.996986869006,5786
3119.6990867213062,5891
3121.4008965534726,5831
3123.102416682717,5931
3124.803647426329,5689
3126.5045891016784,5742
3128.205242026213,5773
3129.90560651746,5775
3131.605682893025,5687
3133.3054714705922,5765
3135.0049725679282,5917
3136.7041865028714,5750
3138.4031135933465,5800
3140.101754157353,5684
3141.800108512971,5718
3143.498176978357,5671
3145.1959598717494,5791
3146.8934575114636,5751
3148.5906702158954,5752
3150.2875983035183,5732
3151.9842420928853,5760
3153.680601902627,5671
3155.376678051456,5708
3157.07247085816,5662
3158.767980641609,5673
3160.463207720748,5712
3162.158152414606,5646
3163.8528150422862,5677
3165.5471959229726,5679
3167.2412953759303,5744
3168.9351137204976,5806
3170.628651276098,5743
3172.3219083622307,5728
3174.014885298474,5781
3175.707582404485,5853
3177.4000000000005,5842
3179.092138404835,5801
3180.7839979388846,5807
3182.47557892212,5750
3184.166881674594,5837
3185.8579065164386,5809
3187.5486537678626,5669
3189.2391237491547,5717
3190.9293167806827,5746
3192.6192331828934,5657
3194.3088732763117,5808
3195.998237381542,5741
3197.687325819268,5827
3199.376138910251,5642
3201.064676975334,5653
3202.7529403354347,5707
3204.4409293115523,5560
3206.1286442247647,5646
3207.816085396229,5633
3209.5032531471825,5611
3211.190147798936,5552
3212.8767696728846,5847
3214.5631190905015,5619
3216.2491963733373,5529
3217.9350018430214,5613
3219.6205358212637,5580
3221.305798629851,5622
3222.990790590651,5633
3224.6755120256103,5594
3226.359963256751,5577
3228.0441446061795,5566
3229.7280563960758,5721
3231.411698948703,5696
3233.0950725863995,5659
3234.778177631587,5604
3236.461014406761,5655
3238.1435832345005,5719
3239.8258844374595,5667
3241.507918338374,5797
3243.1896852600576,5678
3244.8711855254023,5506
3246.552419457381,5778
3248.233387379042,5675
3249.914089613516,5614
3251.59452648401,5755
3253.274698313813,5655
3254.95460542629,5587
3256.6342481448855,5630
3258.313626793125,5696
3259.9927416946084,5681
3261.6715931730196,5665
3263.3501815521176,5618
3265.0285071557437,5563
3266.706570307815,5562
3268.3843713323286,5632
3270.0619105533615,5539
3271.739188295068,5608
3273.4162048816834,5719
3275.0929606375184,5454
3276.769455886966,5666
3278.445690954498,5633
3280.1216661646613,5681
3281.797381842087,5698
3283.4728383114807,5637
3285.1480358976296,5618
3286.8229749253996,5641
3288.4976557197333,5534
3290.172078605655,5529
3291.846243908266,5649
3293.5201519527463,5514
3295.193803064357,5565
3296.8671975684374,5465
3298.5403357904024,5517
3300.21321805575,5667
3301.8858446900567,5565
3303.558216018975,5598
3305.23033236824,5725
3306.9021940636603,5469
3308.57380143113,5548
3310.2451547966184,5498
3311.916254486174,5647
3313.5871008259246,5630
3315.2576941420766,5595
3316.9280347609147,5526
3318.5981230088046,5653
3320.2679592121895,5504
3321.9375436975924,5451
3323.606876791612,5465
3325.27595882093,5502
3326.944790112305,5496
3328.6133709925753,5629
3330.2817017886573,5519
3331.949782827547,5583
3333.617614436319,5539
3335.2851969421245,5394
3336.952530672199,5619
3338.619615953853,5590
3340.286453114475,5708
3341.9530424815357,5624
3343.619384382583,5577
3345.2854791452437,5638
3346.951327097224,5601
3348.6169285663073,5654
3350.2822838803577,5663
3351.947393367319,5633
3353.61225735521,5621
3355.2768761721345,5680
3356.9412501462693,5586
3358.605379605873,5501
3360.2692648792827,5571
3361.9329062949146,5457
3363.596304181263,5598
