CollectionTime,9/26/2024 8:51:01 AM
ExposureUsed,3
CalibratedSpectrum
-962.7078968117929,969
-959.9714848408522,1055
-957.2358232597828,951
-954.5009119013725,963
-951.7667505983302,1048
-949.0333391832855,904
-946.3006774887896,949
-943.5687653473143,993
-940.837602591253,1068
-938.1071890529199,973
-935.3775245645503,985
-932.6486089583007,954
-929.9204420662485,1008
-927.1930237203925,1093
-924.4663537526524,1003
-921.7404319948689,1081
-919.0152582788041,1132
-916.2908324361409,1194
-913.5671542984834,1147
-910.8442236973568,1075
-908.1220404642074,1062
-905.4006044304027,1020
-902.679915427231,1028
-899.959973285902,1080
-897.2407778375464,1046
-894.5223289132158,1015
-891.8046263438832,896
-889.0876699604426,973
-886.3714595937089,996
-883.6559950744183,1037
-880.9412762332282,1051
-878.2273029007168,1017
-875.5140749073835,988
-872.8015920836489,950
-870.0898542598545,879
-867.3788612662631,898
-864.6686129330585,887
-861.9591090903457,928
-859.2503495681506,863
-856.5423341964203,922
-853.8350628050229,957
-851.1285352237478,983
-848.4227512823054,963
-845.7177108103272,1057
-843.0134136373656,1082
-840.3098595928943,1033
-837.6070485063082,1090
-834.9049802069229,972
-832.2036545239757,962
-829.5030712866244,1078
-826.8032303239481,1113
-824.1041314649472,1025
-821.4057745385428,884
-818.7081593735775,946
-816.0112857988148,967
-813.3151536429393,986
-810.6197627345566,1008
-807.9251129021936,1014
-805.2312039742981,958
-802.5380357792392,927
-799.8456081453069,912
-797.1539209007124,997
-794.462973873588,949
-791.772766891987,935
-789.083299783884,976
-786.3945723771743,1000
-783.7065844996748,985
-781.0193359791231,1024
-778.3328266431781,974
-775.6470563194197,965
-772.9620248353489,1096
-770.2777320183878,1049
-767.5941776958798,893
-764.9113616950891,869
-762.2292838432011,920
-759.5479439673222,931
-756.8673418944801,965
-754.1874774516235,1024
-751.5083504656222,1030
-748.8299607632671,1010
-746.15230817127,1152
-743.475392516264,1093
-740.7992136248035,1037
-738.1237713233636,998
-735.4490654383407,1058
-732.7750957960521,1096
-730.1018622227365,1006
-727.4293645445534,1037
-724.7576025875837,1081
-722.0865761778291,1070
-719.4162851412126,1121
-716.7467293035781,1151
-714.0779084906909,1143
-711.409822528237,1060
-708.7424712418238,1059
-706.0758544569796,1110
-703.4099719991541,1118
-700.7448236937178,1146
-698.0804093659622,1117
-695.4167288411002,1122
-692.7537819442656,1110
-690.0915685005134,1102
-687.4300883348199,1045
-684.7693412720819,1093
-682.1093271371178,1075
-679.4500457546669,1044
-676.7914969493897,1089
-674.1336805458676,1074
-671.4765963686034,1061
-668.8202442420206,1083
-666.1646239904642,1043
-663.5097354382001,1096
-660.8555784094151,1053
-658.2021527282176,1083
-655.5494582186366,1124
-652.8974947046223,1112
-650.2462620100463,1196
-647.5957599587009,1154
-644.9459883742998,1244
-642.2969470804776,1291
-639.6486359007902,1269
-637.0010546587141,1098
-634.3542031776476,1070
-631.7080812809096,1086
-629.0626887917401,1380
-626.4180255333008,1634
-623.7740913286734,1366
-621.1308860008619,1119
-618.4884093727904,1218
-615.8466612673046,1184
-613.2056415071715,1156
-610.5653499150785,1269
-607.9257863136347,1247
-605.28695052537,1154
-602.6488423727357,1198
-600.0114616781036,1321
-597.3748082637674,1654
-594.7388819519412,1643
-592.1036825647604,1383
-589.4692099242818,1542
-586.8354638524829,1720
-584.2024441712624,1464
-581.5701507024403,1252
-578.9385832677575,1219
-576.3077416888759,1361
-573.6776257873787,1480
-571.0482353847704,1543
-568.4195703024757,1362
-565.7916303618415,1123
-563.164415384135,1100
-560.5379251905453,1189
-557.9121596021815,1303
-555.2871184400748,1233
-552.6628015251767,1252
-550.0392086783606,1449
-547.4163397204204,1434
-544.794194472071,1512
-542.1727727539491,1411
-539.5520743866118,1388
-536.9320991905377,1377
-534.3128469861261,1500
-531.6943175936979,1472
-529.0765108334947,1513
-526.4594265256793,1722
-523.8430644903358,1854
-521.2274245474689,1848
-518.612506517005,1868
-515.9983102187913,1953
-513.3848354725959,2098
-510.77208209810846,2153
-508.16004991493924,2163
-505.5487387426199,2275
-502.9381484006032,2276
-500.3282787082628,2080
-497.71912948489364,2056
-495.1107005497117,1868
-492.5029917218539,1738
-489.8960028203786,1510
-487.28973366426493,1468
-484.68418407241325,1445
-482.07935386364494,1525
-479.47524285670266,1414
-476.87185087025,1435
-474.2691777228715,1453
-471.66722323307334,1439
-469.0659872192821,1464
-466.4654694998459,1476
-463.86566989303384,1379
-461.26658821703614,1551
-458.66822428996414,1652
-456.07057792985,1587
-453.4736489546475,1577
-450.877437182231,1396
-448.28194243039627,1350
-445.68716451686,1427
-443.09310325926003,1400
-440.49975847515555,1408
-437.9071299820263,1440
-435.31521759727354,1486
-432.72402113821954,1795
-430.13354042210767,1554
-427.5437752661022,1496
-424.95472548728867,1594
-422.36639090267386,1594
-419.7787713291855,1802
-417.1918665836721,1883
-414.60567648290385,1790
-412.0202008435715,1609
-409.4354394822874,1810
-406.8513922155845,1858
-404.26805885991723,1744
-401.685439231661,1557
-399.103533147112,1554
-396.522340422488,1498
-393.9418608739278,1579
-391.3620943174908,1697
-388.7830405691583,1591
-386.2046994448317,1509
-383.6270707603344,1592
-381.05015433141045,1661
-378.473949973725,1342
-375.8984575028645,1262
-373.32367673433623,1126
-370.74960748356875,1071
-368.1762495659117,1060
-365.60360279663576,1079
-363.03166699093265,1010
-360.4604419639154,926
-357.8899275306178,869
-355.32012350599507,754
-352.7510297049233,821
-350.1826459421999,866
-347.61497203254316,763
-345.04800779059235,975
-342.4817530309082,1301
-339.91620756797226,1347
-337.35137121618743,1313
-334.7872437898774,1283
-332.22382510328725,1573
-329.66111497058273,1418
-327.09911320585127,987
-324.53781962310075,917
-321.9772340362607,882
-319.4173562591816,947
-316.8581861056348,963
-314.2997233893127,809
-311.7419679238294,992
-309.1849195227194,900
-306.62857799943856,1048
-304.0729431673641,1138
-301.51801483979375,1207
-298.963792829947,1313
-296.41027695096386,1411
-293.85746701590574,1592
-291.3053628377552,1643
-288.7539642294155,1528
-286.2032710037115,1650
-283.65328297338897,2349
-281.1039999511146,2806
-278.5554217494762,3025
-276.007548180983,1982
-273.4603790580651,1250
-270.9139141930734,1413
-268.3681533982807,1862
-265.8230964858798,2046
-263.27874326798565,1678
-260.7350935566336,1546
-258.1921471637804,1881
-255.6499039013039,2309
-253.10836358100266,1657
-250.56752601459698,1682
-248.02739101372765,2007
-245.48795838995704,2282
-242.94922795476816,1986
-240.41119951956557,1478
-237.8738728956746,1794
-235.33724789434166,1944
-232.80132432673452,1965
-230.2661020039418,1898
-227.73158073697357,1921
-225.19776033676033,2271
-222.66464061415422,2276
-220.1322213799284,1798
-217.60050244477725,1615
-215.06948361931552,2201
-212.53916471408013,3187
-210.00954553952818,3614
-207.48062590603843,2313
-204.9524056239104,1725
-202.4248845033651,2082
-199.8980623545441,2748
-197.37193898751036,3020
-194.84651421224817,2219
-192.32178783866232,1949
-189.79775967657952,2675
-187.27442953574644,3459
-184.7517972258321,3983
-182.2298625564256,3193
-179.7086253370378,2908
-177.18808537710026,3227
-174.66824248596583,3822
-172.14909647290835,4043
-169.6306471471229,3212
-167.11289431772548,2670
-164.59583779375328,2588
-162.07947738416453,3169
-159.5638128978386,4468
-157.04884414357605,4236
-154.53457093009854,3906
-152.02099306604828,3742
-149.50811035998936,2959
-146.99592262040665,3524
-144.48442965570587,5246
-141.97363127421409,6842
-139.46352728417958,6834
-136.95411749377126,5122
-134.44540171107985,3855
-131.93737974411636,2862
-129.43005140081357,3903
-126.92341648902493,7037
-124.41747481652521,11347
-121.91222619101006,12705
-119.40767042009657,10859
-116.90380731132257,8261
-114.40063667214702,5364
-111.8981583099503,4207
-109.3963720320337,7947
-106.89527764561933,16686
-104.39487495785067,29058
-101.89516377579241,34412
-99.39614390642998,29632
-96.89781515667039,27618
-94.40017733334128,26726
-91.90323024319173,23032
-89.40697369289148,18281
-86.91140748903172,18161
-84.41653143812482,29295
-81.92234534660395,49549
-79.42884902082358,65025
-76.93604226705907,65025
-74.4439248915071,65025
-71.95249670028534,65025
-69.46175749943245,65025
-66.97170709490854,65025
-64.48234529259423,65025
-61.99367189829195,65025
-59.50568671772464,65025
-57.01838955653636,65025
-54.53178022029283,65025
-52.045858514480074,65025
-49.560624244506016,65025
-47.07607721569923,65025
-44.59221723330904,65025
-42.10904410250669,56403
-39.62655762838392,29362
-37.14475761595372,30069
-34.66364387015028,36284
-32.18321619582866,48116
-29.70347439776515,62198
-27.224418280657005,65025
-24.74604764912317,65025
-22.26836230770266,65025
-19.7913620608565,65025
-17.315046712966478,65025
-14.83941606833514,65025
-12.36446993118659,65025
-9.89020810566592,65025
-7.416630395839093,65025
-4.94373660569363,65025
-2.471526539137585,65025
-6.821210263296962E-13,65025
2.47084320796705,65025
4.941003281093458,65025
7.410480415786196,65025
9.879274808531363,65025
12.347386655893956,65025
14.814816154518212,65025
17.28156350112681,65025
19.74762889252179,65025
22.21301252558385,29410
24.67771459727237,12630
27.141735304626195,15615
29.605074844762612,15312
32.06773341487792,11766
34.52971121224755,12076
36.99100843422559,14901
39.45162527824516,13580
41.91156194181792,11905
44.370818622535126,9441
46.82939551806646,10432
49.287292826160524,11610
51.74451074464503,10480
54.201049471426245,8568
56.65690920448981,7640
59.112090141899785,7130
61.56659248179983,6107
64.02041642241159,5685
66.4735621620365,6141
68.92602989905402,7017
71.37781983192338,7191
73.82893215918205,7507
76.27936707944684,7482
78.72912479141326,6657
81.17820549385567,7957
83.62660938562783,8345
86.07433666566146,7604
88.5213875329681,5214
90.96776218663751,4787
93.41346082583925,4449
95.85848364982041,4718
98.30283085790859,7556
100.7465026495089,8144
103.18949922410604,6314
105.63182078126385,4344
108.07346752062438,3935
110.51443964190923,3073
112.95473734491827,3488
115.39436082953114,4265
117.83331029570547,5267
120.27158594347827,4073
122.7091879729652,3672
125.1461165843615,3799
127.58237197794062,5129
130.01795435405518,4470
132.4528639131364,3747
134.88710085569494,4465
137.32066538231982,4868
139.75355769367923,3742
142.1857779905207,3353
144.61732647366978,3709
147.04820334403132,3313
149.47840880258934,2657
151.90794305040674,3075
154.33680628862487,3002
156.76499871846443,2788
159.19252054122433,2924
161.61937195828352,3204
164.04555317109896,3702
166.47106438120693,3638
168.89590579022217,3694
171.320077599839,3943
173.7435800118302,4370
176.16641322804742,4398
178.58857745042144,4142
181.01007288096173,4357
183.43089972175687,4737
185.85105817497413,4098
188.27054844285988,3690
190.6893707277394,3853
193.10752523201643,4225
195.5250121581745,4144
197.9418317087751,3687
200.3579840864594,3982
202.7734694939469,4154
205.18828813403627,3970
207.6024402096051,3891
210.01592592360964,3954
212.42874547908548,3804
214.84089907914665,4135
217.2523869269868,4223
219.66320922587727,3919
222.0733661791695,3671
224.48285799029293,3798
226.8916848627572,4029
229.29984700014882,3935
231.7073446061355,3988
234.11417788446204,4153
236.520347038953,4553
238.92585227351185,4578
241.33069379212054,4150
243.73487179884035,4165
246.1383864978112,4400
248.541238093252,4806
250.9434267894609,4693
253.34495279081432,4364
255.74581630176783,3911
258.1460175268563,4016
260.54555667069314,4121
262.9444339379703,4582
265.3426495334594,4875
267.7402036620107,4681
270.1370965285529,4304
272.53332833809407,4003
274.9288992957214,4240
277.32380960660055,4241
279.718059475976,4008
282.1116491091717,3645
284.5045787115897,3369
286.89684848871195,3376
289.2884586460981,3525
291.67940938938807,3770
294.0697009242996,3595
296.4593334566299,3840
298.84830719225477,3671
301.23662233712923,3692
303.6242790972866,3339
306.01127767884,3405
308.39761828798066,3489
310.78330113097934,3241
313.16832641418534,3053
315.5526943440269,3137
317.9364051270112,3350
320.3194589697242,3382
322.70185607883093,3174
325.0835966610754,3128
327.4646809232805,3328
329.8451090723478,3149
332.2248813152577,3109
334.6039978590701,3060
336.9824589109231,2877
339.36026467803447,2851
341.7374153677,2866
344.113911187295,2886
346.48975234427337,2895
348.8649390461686,2872
351.2394715005918,2756
353.61334991523415,2836
355.9865744978655,2800
358.35914545633375,2824
360.73106299856715,2813
363.10232733257146,3033
365.47293866643247,3081
367.84289720831396,2856
370.2122031664593,2754
372.5808567491905,2832
374.9488581649083,2644
377.31620762209275,2569
379.6829053293021,2600
382.0489514951745,2698
384.4143463284262,2729
386.7790900378528,2807
389.14318283232853,2871
391.50662492080653,2848
393.86941651231916,3156
396.23155781597745,3440
398.5930490409713,3172
400.9538903965696,2910
403.3140820921202,2913
405.6736243370498,2761
408.03251734086336,2796
410.3907613131465,2621
412.74835646356166,2662
415.10530300185144,2621
417.4616011378372,2738
419.81725108141893,2629
422.1722530425758,2599
424.5266072313656,2752
426.880313857925,2685
429.2333731324701,2504
431.58578526529516,2484
433.9375504667738,2542
436.2886689473588,2504
438.63914091758113,2504
440.9889665880513,2457
443.33814616945835,2393
445.68667987257015,2596
448.03456790823395,2688
450.3818104873759,2533
452.72840782100013,2501
455.07436012019105,2532
457.41966759611057,2382
459.7643304600007,2451
462.10834892318155,2453
464.4517231970525,2607
466.79445349309174,2478
469.1365400228566,2554
471.4779829979826,2628
473.81878263018564,2459
476.15893913125876,2512
478.4984527130747,2734
480.8373235875855,2686
483.17555196682144,2708
485.5131380628919,2718
487.8500820879857,2826
490.1863842543697,2863
492.52204477439034,3293
494.8570638604725,3764
497.1914417251204,4133
499.52517858091653,4306
501.85827464052306,4433
504.19073011668036,4605
506.5225452222086,4586
508.85372017000566,5000
511.18425517304956,5522
513.514150444396,6674
515.8434061971808,8513
518.1720226446176,9126
520.4999999999999,8926
522.8273384766991,8158
525.1540382881666,7355
527.480099647932,6073
529.8055227696037,4379
532.1303078668694,3381
534.454455153496,3058
536.777964843328,2809
539.1008371502907,2685
541.4230722883866,2684
543.744670471698,2756
546.0656319143858,2681
548.3859568306899,2784
550.7056454349294,3179
553.0246979415016,3134
555.3431145648834,2862
557.6608955196306,2542
559.978041020377,2579
562.2945512818363,2639
564.6104265188006,2433
566.9256669461412,2543
569.2402727788082,2668
571.5542442318302,2801
573.8675815203156,2499
576.1802848594508,2598
578.4923544645015,2557
580.8037905508126,2501
583.114593333807,2491
585.4247630289875,2586
587.7342998519354,2814
590.0432040183106,2695
592.3514757438526,2528
594.6591152443794,2574
596.9661227357875,2677
599.2724984340531,2652
601.578242555231,2541
603.8833553154542,2562
606.1878369309362,2476
608.4916876179676,2404
610.7949075929192,2468
613.0974970722403,2571
615.3994562724587,2444
617.7007854101818,2390
620.0014847020951,2459
622.3015543649641,2490
624.6009946156324,2488
626.8998056710224,2433
629.1979877481361,2479
631.4955410640538,2380
633.7924658359349,2396
636.0887622810175,2459
638.3844306166192,2380
640.6794710601358,2479
642.9738838290426,2589
645.2676691408932,2629
647.5608272133207,2619
649.853358264037,2569
652.1452625108324,2612
654.4365401715764,2531
656.7271914642178,2669
659.0172166067838,2720
661.3066158173809,2498
663.5953893141935,2557
665.8835373154867,2693
668.1710600396028,2731
670.4579577049639,2665
672.7442305300709,2566
675.0298787335033,2514
677.3149025339197,2483
679.599302150058,2599
681.8830778007342,2594
684.1662297048437,2541
686.4487580813608,2557
688.7306631493387,2516
691.0119451279091,2551
693.2926042362834,2547
695.5726406937516,2555
697.8520547196814,2678
700.1308465335215,2496
702.4090163547982,2427
704.6865644031171,2393
706.9634908981619,2527
709.2397960596965,2502
711.5154801075631,2512
713.7905432616823,2531
716.0649857420548,2481
718.3388077687592,2473
720.612009561953,2528
722.8845913418733,2456
725.1565533288352,2328
727.427895743234,2486
729.6986188055427,2535
731.9687227363137,2577
734.238207756178,2538
736.5070740858458,2404
738.7753219461066,2440
741.0429515578281,2578
743.3099631419569,2502
745.5763569195191,2420
747.8421331116193,2402
750.1072919394409,2492
752.3718336242467,2654
754.6357583873777,2588
756.8990664502545,2555
759.1617580343765,2436
761.423833361321,2437
763.6852926527457,2407
765.9461361303862,2588
768.206364016058,2559
770.4659765316536,2663
772.7249738991469,2510
774.9833563405886,2447
777.2411240781092,2452
779.4982773339183,2531
781.7548163303044,2454
784.010741289634,2535
786.2660524343538,2677
788.5207499869881,2697
790.7748341701416,2613
793.0283052064964,2591
795.2811633188143,2551
797.5334087299362,2614
799.7850416627813,2522
802.0360623403484,2627
804.2864709857143,2860
806.5362678220353,2718
808.7854530725468,2523
811.0340269605625,2578
813.2819897094754,2664
815.5293415427581,2683
817.77608268396,2623
820.0222133567116,2611
822.2677337847211,2876
824.5126441917765,2875
826.7569448017433,2661
829.0006358385675,2507
831.2437175262731,2601
833.4861900889629,2575
835.7280537508192,2653
837.9693087361026,2494
840.2099552691533,2383
842.4499935743896,2458
844.689423876309,2565
846.9282463994886,2531
849.1664613685833,2547
851.4040690083276,2516
853.6410695435349,2527
855.877463199097,2627
858.1132501999847,2577
860.3484307712487,2632
862.5830051380175,2547
864.8169735254988,2477
867.0503361589791,2643
869.2830932638243,2604
871.5152450654786,2553
873.7467917894654,2543
875.9777336613873,2700
878.2080709069252,2589
880.4378037518389,2576
882.666932421968,2697
884.8954571432301,2764
887.1233781416219,2932
889.3506956432192,2685
891.5774098741766,2570
893.803521060728,2512
896.0290294291852,2612
898.2539352059397,2716
900.4782386174619,3015
902.7019398903011,2861
904.925039251085,2654
907.147536926521,2546
909.3694331433943,2498
911.59072812857,2572
913.8114221089921,2562
916.0315153116827,2529
918.2510079637437,2522
920.4699002923547,2549
922.6881925247761,2584
924.905884888345,2600
927.1229776104793,2566
929.3394709186747,2679
931.555365040506,2631
933.7706602036275,2527
935.9853566357709,2728
938.1994545647489,2663
940.4129542184515,2751
942.6258558248488,2801
944.8381596119883,2839
947.0498658079974,2920
949.2609746410825,2771
951.4714863395287,2657
953.6814011316998,2646
955.8907192460387,2669
958.0994409110671,2668
960.3075663553858,2726
962.5150958076741,2879
964.7220294966913,2787
966.928367651274,2691
969.1341105003388,2714
971.3392582728806,2636
973.5438111979742,2626
975.747769504772,2583
977.9511334225061,2556
980.153903180487,2670
982.3560790081052,2670
984.5576611348289,2710
986.7586497902058,2532
988.9590452038618,2649
991.158847605503,2697
993.3580572249133,2693
995.5566742919558,2542
997.7546990365728,2436
999.952131688785,2400
1002.1489724786926,2265
1004.3452216364743,2347
1006.5408793923874,2331
1008.7359459767691,2319
1010.9304216200343,2208
1013.1243065526781,2274
1015.3176010052733,2194
1017.510305208472,2360
1019.7024193930064,2644
1021.8939437896848,2519
1024.0848786293977,2308
1026.2752241431122,2183
1028.4649805618747,2239
1030.6541481168115,2223
1032.842727039127,2150
1035.0307175601051,2145
1037.2181199111074,2185
1039.4049343235752,2160
1041.591161029029,2182
1043.7768002590683,2093
1045.9618522453698,2090
1048.1463172196918,2201
1050.3301954138697,2165
1052.513487059818,2151
1054.69619238953,2047
1056.8783116350783,2185
1059.0598450286152,2240
1061.2407928023704,2240
1063.4211551886528,2139
1065.6009324198508,2177
1067.780124728432,2163
1069.9587323469414,2064
1072.1367555080046,2093
1074.314194444325,2087
1076.4910493886855,2041
1078.667320573947,2025
1080.843008233051,2015
1083.0181125990161,2039
1085.1926339049414,2099
1087.3665723840027,2087
1089.5399282694575,2102
1091.7127017946405,2079
1093.8848931929647,2080
1096.0565026979243,2077
1098.2275305430899,2073
1100.3979769621128,2125
1102.567842188722,2115
1104.737126456726,2089
1106.9058300000124,2138
1109.0739530525475,2014
1111.2414958483764,2106
1113.4084586216231,2080
1115.5748416064907,2122
1117.7406450372605,2128
1119.9058691482942,2040
1122.0705141740304,2087
1124.2345803489884,1998
1126.3980679077658,2113
1128.5609770850388,2102
1130.7233081155623,2095
1132.8850612341707,2005
1135.0462366757774,1972
1137.2068346753745,1981
1139.3668554680326,2038
1141.526299288901,2060
1143.68516637321,2053
1145.8434569562655,2072
1148.001171273455,2036
1150.158309560244,2020
1152.3148720521767,2162
1154.470858984876,2120
1156.626270594044,1944
1158.7811071154629,1980
1160.9353687849912,2172
1163.089055838569,2181
1165.242168512213,2184
1167.3947070420209,2037
1169.5466716641677,2077
1171.6980626149075,2126
1173.8488801305748,2261
1175.9991244475814,2152
1178.1487958024186,2131
1180.2978944316555,2123
1182.4464205719428,2085
1184.5943744600072,1982
1186.7417563326567,2046
1188.8885664267755,2027
1191.0348049793297,2020
1193.1804722273619,2050
1195.325568407995,2060
1197.4700937584303,2076
1199.614048515948,2042
1201.7574329179074,2034
1203.900247201746,2049
1206.042491604982,1973
1208.1841663652099,2066
1210.3252717201053,2115
1212.465807907422,2056
1214.6057751649923,2069
1216.7451737307279,2108
1218.8840038426192,2191
1221.0222657387353,2128
1223.1599596572241,2006
1225.2970858363137,2022
1227.4336445143094,2132
1229.5696359295966,2148
1231.705060320639,2078
1233.8399179259786,2088
1235.9742089842384,2117
1238.107933734118,2148
1240.2410924143974,2118
1242.373685263935,2226
1244.5057125216676,2145
1246.6371744266116,2131
1248.7680712178621,2171
1250.898403134593,2171
1253.028170416058,2174
1255.1573733015875,2145
1257.2860120305932,2136
1259.4140868425648,2249
1261.54159797707,2237
1263.6685456737569,2286
1265.7949301723515,2348
1267.9207517126597,2209
1270.046010534565,2239
1272.1707068780306,2259
1274.2948409830983,2301
1276.4184130898889,2236
1278.541423438603,2202
1280.6638722695184,2156
1282.785759822993,2206
1284.9070863394636,2260
1287.0278520594447,2234
1289.1480572235314,2245
1291.2677020723963,2288
1293.3867868467923,2338
1295.5053117875495,2320
1297.623277135579,2296
1299.740683131868,2276
1301.8575300174857,2425
1303.973818033578,2376
1306.0895474213703,2479
1308.2047184221678,2393
1310.3193312773528,2488
1312.4333862283888,2408
1314.5468835168163,2377
1316.659823384255,2380
1318.7722060724045,2348
1320.8840318230418,2356
1322.9953008780249,2382
1325.1060134792888,2411
1327.2161698688478,2382
1329.3257702887959,2452
1331.4348149813054,2373
1333.5433041886276,2336
1335.6512381530933,2352
1337.7586171171101,2338
1339.8654413231675,2326
1341.9717110138317,2315
1344.0774264317488,2191
1346.1825878196432,2276
1348.2871954203192,2264
1350.3912494766587,2353
1352.4947502316231,2377
1354.5976979282532,2306
1356.7000928096686,2256
1358.8019351190665,2245
1360.9032250997243,2215
1363.0039629949988,2228
1365.1041490483235,2137
1367.2037835032133,2225
1369.3028666032606,2270
1371.401398592137,2292
1373.4993797135926,2328
1375.5968102114575,2261
1377.6936903296396,2301
1379.7900203121262,2234
1381.8858004029835,2353
1383.9810308463561,2226
1386.075711886469,2326
1388.1698437676241,2231
1390.2634267342032,2403
1392.356461030667,2390
1394.4489469015557,2264
1396.5408845914872,2261
1398.6322743451592,2260
1400.7231164073469,2261
1402.813411022907,2419
1404.903158436773,2313
1406.9923588939578,2386
1409.0810126395531,2391
1411.1691199187303,2321
1413.2566809767386,2324
1415.343696058907,2347
1417.4301654106425,2393
1419.5160892774315,2390
1421.6014679048399,2361
1423.6863015385125,2396
1425.7705904241707,2383
1427.8543348076178,2439
1429.9375349347342,2364
1432.0201910514802,2446
1434.102303403894,2453
1436.1838722380944,2475
1438.2648978002767,2527
1440.3453803367174,2490
1442.4253200937692,2601
1444.5047173178677,2533
1446.5835722555234,2633
1448.6618851533285,2638
1450.739656257952,2667
1452.8168858161434,2653
1454.8935740747306,2736
1456.96972128062,2768
1459.045327680797,2837
1461.120393522327,2743
1463.1949190523528,2840
1465.2689045180973,2860
1467.3423501668608,2844
1469.415256246024,2940
1471.4876230030463,2913
1473.559450685465,2976
1475.6307395408976,3079
1477.7014898170391,3195
1479.771701761665,3147
1481.8413756226287,3104
1483.9105116478618,3163
1485.9791100853772,3291
1488.0471711832643,3353
1490.1146951896926,3431
1492.1816823529098,3293
1494.2481329212433,3338
1496.3140471430984,3332
1498.3794252669609,3442
1500.4442675413939,3528
1502.5085742150404,3430
1504.572345536622,3478
1506.6355817549388,3457
1508.6982831188702,3459
1510.7604498773744,3544
1512.8220822794883,3552
1514.8831805743293,3606
1516.9437450110909,3648
1519.003775839048,3557
1521.0632733075522,3538
1523.1222376660367,3697
1525.1806691640113,3651
1527.2385680510652,3677
1529.2959345768668,3766
1531.3527689911643,3845
1533.4090715437833,3807
1535.4648424846291,3894
1537.5200820636855,3936
1539.5747905310159,3961
1541.6289681367616,3914
1543.6826151311434,4004
1545.7357317644614,4029
1547.7883182870937,4078
1549.8403749494987,4164
1551.8919020022113,4191
1553.9428996958477,4232
1555.9933682811015,4353
1558.0433080087469,4372
1560.0927191296346,4457
1562.1416018946961,4378
1564.1899565549415,4334
1566.2377833614592,4532
1568.2850825654164,4304
1570.3318544180606,4213
1572.3780991707158,4080
1574.423817074788,3976
1576.4690083817595,3877
1578.5136733431923,3694
1580.5578122107272,3546
1582.601425236085,3590
1584.6445126710646,3388
1586.6870747675434,3148
1588.7291117774776,3205
1590.7706239529034,2964
1592.8116115459347,2911
1594.8520748087658,2905
1596.8920139936686,2816
1598.9314293529933,2801
1600.9703211391711,2722
1603.008689604711,2630
1605.0465350022005,2605
1607.0838575843068,2632
1609.1206576037753,2614
1611.1569353134305,2483
1613.1926909661765,2469
1615.2279248149953,2439
1617.2626371129481,2423
1619.2968281131757,2332
1621.3304980688963,2357
1623.3636472334088,2363
1625.39627586009,2418
1627.428384202396,2321
1629.459972513861,2292
1631.4910410480993,2252
1633.5215900588028,2309
1635.551619799744,2260
1637.5811305247717,2335
1639.6101224878166,2284
1641.6385959428862,2190
1643.6665511440683,2134
1645.693988345528,2172
1647.7209078015112,2108
1649.7473097663405,2210
1651.7731944944203,2279
1653.7985622402307,2172
1655.823413258333,2157
1657.847747803366,2121
1659.8715661300494,2136
1661.8948684931793,2198
1663.9176551476316,2082
1665.9399263483624,2150
1667.9616823504057,2173
1669.982923408873,2117
1672.0036497789574,2109
1674.0238617159293,2036
1676.043559475138,2153
1678.0627433120121,2158
1680.081413482059,2092
1682.0995702408654,2089
1684.117213844096,2103
1686.134344547495,2089
1688.1509626068864,2117
1690.1670682781705,2135
1692.182661817329,2062
1694.1977434804217,2138
1696.2123135235875,2160
1698.226372203043,2146
1700.2399197750851,2217
1702.2529564960905,2205
1704.2654826225112,2137
1706.277498410882,2083
1708.2890041178139,2067
1710.2999999999988,2041
1712.3104863142066,2110
1714.3204633172854,2046
1716.329931266163,1987
1718.3388904178469,2043
1720.3473410294214,2059
1722.3552833580516,2015
1724.3627176609807,2041
1726.3696441955308,2083
1728.3760632191033,2083
1730.3819749891782,2099
1732.3873797633146,1983
1734.3922777991502,2016
1736.3966693544012,2028
1738.4005546868639,1954
1740.4039340544127,1981
1742.406807715001,2007
1744.4091759266616,1950
1746.4110389475054,2023
1748.4123970357223,2031
1750.413250449582,2037
1752.4135994474318,2044
1754.4134442876993,1950
1756.4127852288902,1945
1758.4116225295893,2010
1760.4099564484595,1976
1762.407787244244,1977
1764.405115175764,1968
1766.4019405019203,1972
1768.3982634816916,1930
1770.3940843741357,2008
1772.3894034383907,1924
1774.3842209336717,1888
1776.378537119274,1868
1778.372352254571,1896
1780.3656665990156,1895
1782.3584804121397,1871
1784.3507939535534,1934
1786.3426074829463,1972
1788.3339212600863,1908
1790.3247355448211,1874
1792.3150505970766,1926
1794.3048666768573,1990
1796.2941840442477,1852
1798.2830029594106,1984
1800.2713236825884,1946
1802.2591464741004,1901
1804.2464715943465,1904
1806.2332993038058,1939
1808.2196298630352,1975
1810.2054635326708,1933
1812.190800573428,1927
1814.175641246101,1996
1816.1599858115628,1924
1818.1438345307652,1926
1820.127187664738,1951
1822.1100454745924,1891
1824.092408221516,1946
1826.0742761667766,1924
1828.055649571721,1938
1830.0365286977735,1927
1832.0169138064398,1907
1833.9968051593014,1864
1835.9762030180214,1997
1837.9551076443408,1976
1839.9335193000788,1920
1841.9114382471344,1845
1843.888864747485,1950
1845.8657990631878,1935
1847.842241456378,1892
1849.8181921892697,1866
1851.7936515241558,1900
1853.7686197234098,1924
1855.7430970494815,1863
1857.7170837649014,1924
1859.6905801322787,1973
1861.6635864143004,1934
1863.6361028737338,1945
1865.608129773424,1941
1867.5796673762961,1795
1869.5507159453537,1868
1871.521275743678,1931
1873.4913470344313,1964
1875.4609300808534,1932
1877.4300251462632,1967
1879.3986324940588,1941
1881.366752387717,1949
1883.3343850907936,2009
1885.3015308669228,2011
1887.268189979819,1957
1889.2343626932739,1946
1891.2000492711595,1931
1893.1652499774254,1981
1895.1299650761011,1960
1897.0941948312952,1982
1899.0579395071945,1985
1901.0211993680641,2025
1902.98397467825,1925
1904.9462657021745,1938
1906.9080727043415,1922
1908.869395949332,1951
1910.8302357018065,1926
1912.790592226504,1957
1914.7504657882428,1931
1916.7098566519212,1933
1918.6687650825133,1912
1920.6271913450764,1903
1922.5851357047422,1901
1924.5425984267245,1977
1926.499579776314,1963
1928.4560800188833,1984
1930.4120994198802,1964
1932.367638244833,2056
1934.32269675935,1966
1936.2772752291175,1975
1938.231373919899,1964
1940.1849930975404,1968
1942.1381330279637,2055
1944.0907939771696,1954
1946.0429762112412,1880
1947.9946799963363,1920
1949.9459055986945,1963
1951.896653284633,1924
1953.8469233205478,1879
1955.7967159729142,1853
1957.7460315082863,1827
1959.6948701932974,1844
1961.6432322946594,1860
1963.5911180791632,1917
1965.5385278136787,1868
1967.4854617651545,1961
1969.4319202006182,1943
1971.377903387176,1901
1973.3234115920136,1915
1975.268445082395,1945
1977.2130041256642,1922
1979.1570889892423,1901
1981.1006999406304,1934
1983.04383724741,1883
1984.986501177238,1863
1986.928691997853,1878
1988.8704099770712,1968
1990.811655382789,1940
1992.7524284829801,1921
1994.692729545698,1962
1996.6325588390755,1923
1998.5719166313224,1845
2000.5108031907307,1870
2002.4492187856677,1910
2004.387163684583,1917
2006.3246381560011,1915
2008.2616424685298,1904
2010.1981768908527,1938
2012.1342416917332,1955
2014.069837140014,1875
2016.0049635046162,1824
2017.9396210545406,1918
2019.8738100588666,1778
2021.8075307867502,1886
2023.740783507431,1895
2025.6735684902228,1915
2027.6058860045214,1876
2029.5377363198004,1899
2031.4691197056118,1905
2033.4000364315875,1912
2035.3304867674374,1890
2037.260470982952,1828
2039.189989347998,1853
2041.1190421325232,1796
2043.047629606554,1900
2044.9757520401945,1887
2046.9034097036288,1846
2048.8306028671195,1871
2050.7573318010086,1891
2052.683596775716,1850
2054.609398061742,1886
2056.5347359296647,1876
2058.4596106501403,1840
2060.384022493906,1847
2062.3079717317764,1827
2064.231458634646,1781
2066.1544834734873,1794
2068.077046519352,1812
2069.99914804337,1869
2071.9207883167524,1850
2073.8419676107865,1832
2075.7626861968406,1876
2077.6829443463607,1855
2079.6027423308715,1883
2081.522080421977,1903
2083.440958891362,1857
2085.359378010786,1864
2087.2773380520907,1895
2089.194839287196,1827
2091.111881988101,1844
2093.0284664268825,1789
2094.9445928756973,1875
2096.86026160678,1791
2098.775472892446,1808
2100.690227005088,1826
2102.604524217178,1862
2104.5183648012676,1879
2106.431749029985,1808
2108.34467717604,1893
2110.2571495122206,1789
2112.169166311393,1834
2114.080727846503,1833
2115.9918343905747,1813
2117.902486216711,1834
2119.8126835980956,1834
2121.722426807987,1845
2123.6317161197285,1780
2125.5405518067364,1812
2127.448934142509,1834
2129.356863400624,1841
2131.264339854737,1880
2133.1713637785815,1876
2135.077935445972,1858
2136.9840551308002,1844
2138.889723107037,1877
2140.7949396487334,1878
2142.699705030018,1879
2144.6040195250994,1917
2146.507883408264,1921
2148.4112969538774,1903
2150.3142604363848,1866
2152.2167741303097,1881
2154.1188383102535,1846
2156.0204532508997,1837
2157.9216192270064,1859
2159.822336513414,1896
2161.7226053850413,1913
2163.622426116884,1863
2165.5217989840185,1857
2167.4207242616,1848
2169.319202224862,1834
2171.2172331491165,1868
2173.1148173097563,1888
2175.0119549822507,1812
2176.90864644215,1868
2178.8048919650823,1905
2180.7006918267534,1874
2182.596046302952,1820
2184.4909556695407,1803
2186.3854202024645,1813
2188.279440177746,1888
2190.173015871487,1865
2192.066147559868,1935
2193.958835519149,1875
2195.851080025667,1852
2197.7428813558417,1813
2199.6342397861667,1921
2201.5251555932186,1829
2203.415629053651,1861
2205.3056604441986,1896
2207.19525004167,1876
2209.084398122958,1892
2210.9731049650327,1948
2212.861370844941,1887
2214.749196039812,1903
2216.636580826851,1900
2218.523525483344,1910
2220.410030286655,1903
2222.296095514226,1823
2224.1817214435805,1830
2226.066908352319,1854
2227.951656518121,1931
2229.835966218746,1817
2231.71983773203,1823
2233.6032713358913,1857
2235.486267308324,1925
2237.3688259274036,1909
2239.2509474712824,1990
2241.132632218193,1916
2243.013880446447,1858
2244.8946924344323,1885
2246.7750684606203,1842
2248.6550088035574,1943
2250.534513741871,1932
2252.413583554265,1902
2254.292218519526,1918
2256.170418916517,1846
2258.0481850241786,1850
2259.925517121534,1860
2261.8024154876825,1856
2263.678880401803,1838
2265.5549121431536,1848
2267.430510991071,1885
2269.305677224971,1839
2271.180411124348,1853
2273.0547129687766,1893
2274.9285830379076,1851
2276.8020216114737,1845
2278.6750289692845,1872
2280.5476053912294,1879
2282.4197511572766,1982
2284.2914665474727,1936
2286.162751841943,1935
2288.0336073208937,1899
2289.904033264608,1914
2291.774029953448,1975
2293.6435976678554,1974
2295.5127366883517,1962
2297.381447295534,1896
2299.2497297700825,1870
2301.1175843927526,1858
2302.9850114443825,1849
2304.852011205885,1818
2306.7185839582553,1780
2308.5847299825664,1774
2310.4504495599676,1803
2312.3157429716925,1738
2314.1806104990483,1806
2316.0450524234247,1772
2317.9090690262888,1767
2319.772660589186,1818
2321.635827393742,1775
2323.498569721661,1763
2325.3608878547248,1807
2327.2227820747967,1753
2329.0842526638157,1742
2330.945299903803,1782
2332.805924076857,1742
2334.6661254651535,1792
2336.525904350951,1714
2338.3852610165827,1740
2340.244195744464,1711
2342.102708817088,1788
2343.9608005170253,1788
2345.8184711269287,1762
2347.675720929526,1701
2349.532550207628,1804
2351.38895924412,1785
2353.24494832197,1739
2355.100517724223,1759
2356.955667734004,1833
2358.810398634514,1809
2360.664710709037,1885
2362.5186042409337,1821
2364.3720795136437,1811
2366.225136810686,1744
2368.0777764156583,1797
2369.929998612237,1704
2371.7818036841777,1750
2373.633191915315,1842
2375.484163589562,1769
2377.3347189909114,1781
2379.184858403434,1768
2381.03458211128,1777
2382.8838903986775,1818
2384.732783549936,1761
2386.5812618494406,1772
2388.4293255816588,1790
2390.2769750311327,1721
2392.1242104824883,1880
2393.971032220427,1797
2395.8174405297295,1763
2397.6634356952563,1792
2399.509018001947,1867
2401.3541877348193,1811
2403.1989451789705,1805
2405.043290619576,1902
2406.8872243418905,1792
2408.730746631247,1766
2410.5738577730594,1791
2412.4165580528183,1826
2414.258847756095,1745
2416.100727168537,1749
2417.9421965758734,1853
2419.783256263912,1757
2421.623906518538,1781
2423.4641476257157,1839
2425.303979871491,1799
2427.143403541984,1829
2428.9824189233977,1878
2430.821026302012,1847
2432.6592259641866,1788
2434.497018196361,1794
2436.33440328505,1796
2438.171381516851,1772
2440.00795317844,1777
2441.844118556569,1775
2443.6798779380724,1836
2445.5152316098606,1806
2447.3501798589255,1820
2449.1847229723357,1886
2451.0188612372403,1799
2452.8525949408663,1801
2454.6859243705203,1845
2456.518849813587,1839
2458.3513715575314,1758
2460.183489889895,1819
2462.015205098301,1805
2463.8465174704493,1874
2465.67742729412,1815
2467.5079348571717,1827
2469.338040447542,1761
2471.1677443532476,1759
2472.9970468623833,1822
2474.825948263123,1818
2476.6544488437207,1783
2478.482548892508,1870
2480.310248697896,1838
2482.137548548374,1808
2483.9644487325118,1789
2485.790949538956,1821
2487.617051256433,1854
2489.44275417375,1810
2491.26805857979,1801
2493.0929647635157,1926
2494.917473013971,1843
2496.741583620276,1909
2498.5652968716304,1845
2500.3886130573137,1841
2502.2115324666834,1837
2504.0340553891765,1898
2505.856182114308,1852
2507.6779129316733,1906
2509.499248130945,1938
2511.3201880018764,1848
2513.140732834298,1919
2514.9608829181198,1888
2516.780638543331,1861
2518.6,1821
2520.418967578273,1853
2522.237541568376,1919
2524.0557222606144,1949
2525.8735099453706,1947
2527.6909049131086,1933
2529.507907454368,1921
2531.32451785977,1964
2533.140736420014,1954
2534.9565634258774,2009
2536.771999168218,1975
2538.5870439379714,1995
2540.4016980261526,2044
2542.2159617238544,2013
2544.02983532225,1991
2545.8433191125914,2042
2547.656413386209,2002
2549.4691184345115,2025
2551.2814345489874,2074
2553.093362021204,2031
2554.904901142808,2002
2556.716052205523,2017
2558.526815501153,2082
2560.3371913215824,2122
2562.147179958771,2167
2563.956781704761,2143
2565.7659968516705,2084
2567.5748256916986,2147
2569.3832685171224,2107
2571.1913256202984,2145
2572.9989972936614,2099
2574.806283829725,2122
2576.613185521084,2141
2578.4197026604074,2199
2580.2258355404483,2154
2582.031584454035,2157
2583.836949694077,2174
2585.6419315535613,2193
2587.4465303255533,2248
2589.2507463032002,2173
2591.0545797797245,2096
2592.8580310484303,2206
2594.6611004026995,2131
2596.463788135992,2185
2598.266094541849,2239
2600.0680199138874,2275
2601.869564545807,2272
2603.670728731383,2219
2605.4715127644704,2184
2607.2719169390048,2195
2609.071941548998,2174
2610.8715868885433,2161
2612.670853251811,2190
2614.469740933052,2193
2616.268250226594,2218
2618.0663814268455,2172
2619.864134828292,2161
2621.6615107255006,2166
2623.458509413115,2165
2625.2551311858597,2168
2627.0513763385347,2136
2628.8472451660223,2123
2630.6427379632833,2064
2632.4378550253564,2061
2634.232596647359,2113
2636.026963124488,2114
2637.8209547520187,2075
2639.6145718253065,2091
2641.407814639785,2059
2643.200683490966,2022
2644.9931786744414,2072
2646.7853004858807,2053
2648.577049221034,2065
2650.3684251757277,2019
2652.1594286458712,2044
2653.9500599274484,1986
2655.740319316525,1994
2657.5302071092437,2082
2659.3197236018286,1971
2661.10886909058,1948
2662.8976438718782,1901
2664.686048242183,1954
2666.4740824980327,2074
2668.2617469360443,1930
2670.0490418529134,1937
2671.8359675454153,1998
2673.622524310403,2013
2675.408712444811,1944
2677.1945322456495,1917
2678.979984010009,1847
2680.76506803506,1923
2682.5497846180497,1888
2684.334134056306,1853
2686.1181166472343,1897
2687.9017326883213,1933
2689.6849824771293,1823
2691.4678663113013,1898
2693.2503844885596,1923
2695.032537306705,1930
2696.8143250636167,1957
2698.5957480572542,1897
2700.3768065856534,1930
2702.1575009469316,1868
2703.937831439283,1841
2705.717798360982,1815
2707.4974020103837,1785
2709.276642685917,1917
2711.055520686095,1803
2712.834036309506,1843
2714.612189854819,1895
2716.389981620782,1840
2718.1674119062204,1820
2719.944481010041,1809
2721.721189231226,1912
2723.4975368688415,1790
2725.273524222027,1782
2727.0491515900053,1765
2728.824419272075,1773
2730.5993275676146,1847
2732.3738767760838,1830
2734.148067197016,1750
2735.921899130031,1728
2737.6953728748194,1773
2739.468488731156,1770
2741.2412469988926,1731
2743.0136479779617,1793
2744.785691968372,1716
2746.5573792702116,1818
2748.3287101836504,1838
2750.099685008934,1785
2751.870304046388,1772
2753.640567596418,1757
2755.4104759595057,1755
2757.1800294362156,1757
2758.949228327187,1775
2760.7180729331412,1809
2762.486563554877,1788
2764.254700493272,1789
2766.022484049284,1713
2767.789914523947,1734
2769.5569922183786,1808
2771.3237174337705,1778
2773.090090471394,1698
2774.8561116326036,1735
2776.6217812188274,1767
2778.3870995315756,1765
2780.1520668724356,1709
2781.9166835430747,1713
2783.6809498452394,1731
2785.444866080754,1762
2787.2084325515225,1789
2788.971649559527,1714
2790.73451740683,1754
2792.4970363955713,1763
2794.2592068279705,1738
2796.0210290063264,1757
2797.7825032330147,1772
2799.543629810493,1749
2801.304409041296,1751
2803.0648412280366,1694
2804.8249266734088,1794
2806.5846656801846,1737
2808.344058551212,1762
2810.1031055894246,1757
2811.8618070978273,1843
2813.6201633795085,1830
2815.378174737636,1740
2817.1358414754536,1760
2818.893163896285,1757
2820.6501423035334,1740
2822.4067770006814,1696
2824.1630682912883,1773
2825.9190164789957,1768
2827.6746218675207,1797
2829.429884760661,1791
2831.184805462294,1823
2832.9393842763743,1744
2834.693621506936,1774
2836.4475174580916,1817
2838.201072434034,1771
2839.954286739034,1719
2841.707160677441,1728
2843.459694553685,1799
2845.2118886722724,1832
2846.96374333779,1771
2848.7152588549034,1769
2850.4664355283567,1720
2852.217273662973,1785
2853.9677735636546,1804
2855.7179355353833,1767
2857.4677598832186,1802
2859.217246912299,1786
2860.9663969278427,1797
2862.715210235146,1729
2864.4636871395846,1753
2866.211827946614,1726
2867.9596329617652,1755
2869.7071024906536,1808
2871.4542368389684,1731
2873.20103631248,1712
2874.947501217038,1688
2876.6936318585695,1731
2878.4394285430812,1742
2880.1848915766604,1762
2881.9300212654707,1813
2883.6748179157553,1790
2885.4192818338374,1767
2887.1634133261173,1751
2888.907212699077,1762
2890.6506802592744,1722
2892.393816313348,1705
2894.1366211680142,1769
2895.8790951300693,1751
2897.621238506388,1774
2899.363051603925,1708
2901.1045347297118,1698
2902.8456881908596,1730
2904.58651229456,1695
2906.327007348081,1670
2908.067173658772,1760
2909.8070115340597,1757
2911.5465212814497,1755
2913.285703208527,1745
2915.0245576229563,1727
2916.7630848324807,1708
2918.5012851449196,1733
2920.2391588681758,1758
2921.976706310227,1742
2923.7139277791334,1752
2925.4508235830313,1780
2927.187394030137,1786
2928.923639428745,1753
2930.6595600872306,1720
2932.395156314046,1733
2934.1304284177218,1858
2935.8653767068713,1791
2937.6000014901815,1775
2939.3343030764227,1775
2941.068281774442,1819
2942.8019378931644,1747
2944.5352717415976,1723
2946.2682836288236,1742
2948.0009738640065,1736
2949.7333427563885,1784
2951.465390615289,1765
2953.1971177501086,1799
2954.9285244703265,1789
2956.6596110855,1762
2958.3903779052657,1766
2960.1208252393385,1824
2961.8509533975125,1738
2963.5807626896617,1687
2965.3102534257378,1780
2967.0394259157715,1780
2968.768280469873,1779
2970.496817398232,1761
2972.2250370111146,1743
2973.952939618869,1741
2975.6805255319196,1743
2977.4077950607707,1701
2979.134748516006,1756
2980.861386208289,1799
2982.587708448359,1779
2984.313715547037,1781
2986.039407815222,1733
2987.764785563891,1753
2989.489849104102,1826
2991.2145987469908,1797
2992.9390348037705,1786
2994.6631575857346,1713
2996.3869674042576,1783
2998.1104645707887,1726
2999.83364939686,1790
3001.5565221940783,1788
3003.2790832741334,1763
3005.0013329487924,1733
3006.7232715298996,1749
3008.4448993293804,1762
3010.166216659239,1705
3011.887223831558,1745
3013.607921158498,1724
3015.3283089522993,1729
3017.0483875252826,1716
3018.7681571898443,1792
3020.4876182584626,1768
3022.2067710436927,1775
3023.9256158581707,1743
3025.644153014609,1740
3027.362382825801,1726
3029.0803056046193,1716
3030.797921664012,1780
3032.5152313170106,1745
3034.2322348767225,1773
3035.9489326563353,1783
3037.665324969115,1861
3039.3814121284063,1783
3041.097194447633,1757
3042.812672240299,1732
3044.5278458199855,1723
3046.2427155003525,1733
3047.9572815951406,1753
3049.671544418167,1831
3051.38550428333,1751
3053.0991615046073,1767
3054.812516396051,1768
3056.5255692717974,1854
3058.2383204460575,1817
3059.9507702331257,1757
3061.662918947372,1837
3063.3747669032446,1757
3065.0863144152736,1717
3066.7975617980674,1718
3068.508509366309,1752
3070.219157434767,1834
3071.9295063182844,1794
3073.639556331785,1824
3075.3493077902704,1775
3077.058761008821,1787
3078.7679163025964,1714
3080.476773986837,1743
3082.1853343768594,1723
3083.89359778806,1756
3085.6015645359153,1741
3087.3092349359786,1704
3089.016609303884,1718
3090.7236879553434,1725
3092.4304712061476,1730
3094.136959372166,1750
3095.843152769349,1844
3097.5490517137237,1727
3099.2546565213966,1837
3100.959967508554,1705
3102.66498499146,1786
3104.3697092864577,1809
3106.0741407099695,1813
3107.778279578498,1759
3109.482126208622,1719
3111.1856809170004,1814
3112.8889440203716,1729
3114.5919158355528,1769
3116.294596679439,1757
3117.996986869006,1769
3119.6990867213062,1793
3121.4008965534726,1845
3123.102416682717,1754
3124.803647426329,1757
3126.5045891016784,1840
3128.205242026213,1776
3129.90560651746,1786
3131.605682893025,1725
3133.3054714705922,1728
3135.0049725679282,1790
3136.7041865028714,1722
3138.4031135933465,1766
3140.101754157353,1820
3141.800108512971,1798
3143.498176978357,1755
3145.1959598717494,1745
3146.8934575114636,1685
3148.5906702158954,1704
3150.2875983035183,1710
3151.9842420928853,1754
3153.680601902627,1759
3155.376678051456,1775
3157.07247085816,1739
3158.767980641609,1749
3160.463207720748,1777
3162.158152414606,1714
3163.8528150422862,1734
3165.5471959229726,1714
3167.2412953759303,1740
3168.9351137204976,1757
3170.628651276098,1758
3172.3219083622307,1788
3174.014885298474,1756
3175.707582404485,1751
3177.4000000000005,1762
3179.092138404835,1792
3180.7839979388846,1818
3182.47557892212,1716
3184.166881674594,1783
3185.8579065164386,1724
3187.5486537678626,1695
3189.2391237491547,1739
3190.9293167806827,1691
3192.6192331828934,1708
3194.3088732763117,1706
3195.998237381542,1810
3197.687325819268,1724
3199.376138910251,1711
3201.064676975334,1766
3202.7529403354347,1722
3204.4409293115523,1637
3206.1286442247647,1709
3207.816085396229,1709
3209.5032531471825,1718
3211.190147798936,1703
3212.8767696728846,1736
3214.5631190905015,1678
3216.2491963733373,1709
3217.9350018430214,1672
3219.6205358212637,1696
3221.305798629851,1686
3222.990790590651,1726
3224.6755120256103,1655
3226.359963256751,1649
3228.0441446061795,1739
3229.7280563960758,1741
3231.411698948703,1717
3233.0950725863995,1746
3234.778177631587,1692
3236.461014406761,1750
3238.1435832345005,1749
3239.8258844374595,1760
3241.507918338374,1767
3243.1896852600576,1778
3244.8711855254023,1819
3246.552419457381,1726
3248.233387379042,1705
3249.914089613516,1765
3251.59452648401,1721
3253.274698313813,1724
3254.95460542629,1703
3256.6342481448855,1692
3258.313626793125,1755
3259.9927416946084,1719
3261.6715931730196,1687
3263.3501815521176,1695
3265.0285071557437,1587
3266.706570307815,1713
3268.3843713323286,1710
3270.0619105533615,1713
3271.739188295068,1737
3273.4162048816834,1739
3275.0929606375184,1682
3276.769455886966,1727
3278.445690954498,1671
3280.1216661646613,1722
3281.797381842087,1704
3283.4728383114807,1750
3285.1480358976296,1707
3286.8229749253996,1712
3288.4976557197333,1691
3290.172078605655,1747
3291.846243908266,1718
3293.5201519527463,1667
3295.193803064357,1659
3296.8671975684374,1734
3298.5403357904024,1673
3300.21321805575,1732
3301.8858446900567,1725
3303.558216018975,1715
3305.23033236824,1734
3306.9021940636603,1728
3308.57380143113,1687
3310.2451547966184,1727
3311.916254486174,1736
3313.5871008259246,1747
3315.2576941420766,1693
3316.9280347609147,1691
3318.5981230088046,1689
3320.2679592121895,1666
3321.9375436975924,1669
3323.606876791612,1649
3325.27595882093,1697
3326.944790112305,1652
3328.6133709925753,1730
3330.2817017886573,1707
3331.949782827547,1689
3333.617614436319,1717
3335.2851969421245,1777
3336.952530672199,1721
3338.619615953853,1682
3340.286453114475,1737
3341.9530424815357,1728
3343.619384382583,1730
3345.2854791452437,1739
3346.951327097224,1701
3348.6169285663073,1725
3350.2822838803577,1724
3351.947393367319,1722
3353.61225735521,1732
3355.2768761721345,1770
3356.9412501462693,1751
3358.605379605873,1698
3360.2692648792827,1742
3361.9329062949146,1736
3363.596304181263,1701
