CollectionTime,9/26/2024 8:51:11 AM
ExposureUsed,3
CalibratedSpectrum
-962.7078968117929,1587
-959.9714848408522,1600
-957.2358232597828,1554
-954.5009119013725,1627
-951.7667505983302,1594
-949.0333391832855,1524
-946.3006774887896,1573
-943.5687653473143,1592
-940.837602591253,1662
-938.1071890529199,1575
-935.3775245645503,1595
-932.6486089583007,1610
-929.9204420662485,1656
-927.1930237203925,1690
-924.4663537526524,1667
-921.7404319948689,1668
-919.0152582788041,1677
-916.2908324361409,1781
-913.5671542984834,1760
-910.8442236973568,1748
-908.1220404642074,1713
-905.4006044304027,1702
-902.679915427231,1633
-899.959973285902,1728
-897.2407778375464,1606
-894.5223289132158,1585
-891.8046263438832,1555
-889.0876699604426,1628
-886.3714595937089,1565
-883.6559950744183,1648
-880.9412762332282,1794
-878.2273029007168,1683
-875.5140749073835,1639
-872.8015920836489,1588
-870.0898542598545,1545
-867.3788612662631,1596
-864.6686129330585,1538
-861.9591090903457,1512
-859.2503495681506,1529
-856.5423341964203,1592
-853.8350628050229,1707
-851.1285352237478,1624
-848.4227512823054,1628
-845.7177108103272,1701
-843.0134136373656,1787
-840.3098595928943,1746
-837.6070485063082,1801
-834.9049802069229,1673
-832.2036545239757,1620
-829.5030712866244,1779
-826.8032303239481,1741
-824.1041314649472,1679
-821.4057745385428,1610
-818.7081593735775,1588
-816.0112857988148,1618
-813.3151536429393,1686
-810.6197627345566,1653
-807.9251129021936,1684
-805.2312039742981,1656
-802.5380357792392,1549
-799.8456081453069,1708
-797.1539209007124,1642
-794.462973873588,1606
-791.772766891987,1651
-789.083299783884,1680
-786.3945723771743,1672
-783.7065844996748,1785
-781.0193359791231,1699
-778.3328266431781,1675
-775.6470563194197,1649
-772.9620248353489,1792
-770.2777320183878,1727
-767.5941776958798,1643
-764.9113616950891,1540
-762.2292838432011,1605
-759.5479439673222,1644
-756.8673418944801,1692
-754.1874774516235,1699
-751.5083504656222,1677
-748.8299607632671,1676
-746.15230817127,1812
-743.475392516264,1812
-740.7992136248035,1656
-738.1237713233636,1690
-735.4490654383407,1856
-732.7750957960521,1693
-730.1018622227365,1712
-727.4293645445534,1717
-724.7576025875837,1787
-722.0865761778291,1785
-719.4162851412126,1760
-716.7467293035781,1833
-714.0779084906909,1928
-711.409822528237,1751
-708.7424712418238,1836
-706.0758544569796,1772
-703.4099719991541,1813
-700.7448236937178,1813
-698.0804093659622,1841
-695.4167288411002,1818
-692.7537819442656,1821
-690.0915685005134,1828
-687.4300883348199,1847
-684.7693412720819,1950
-682.1093271371178,1790
-679.4500457546669,1781
-676.7914969493897,1824
-674.1336805458676,1829
-671.4765963686034,1872
-668.8202442420206,1887
-666.1646239904642,1850
-663.5097354382001,1786
-660.8555784094151,1797
-658.2021527282176,1781
-655.5494582186366,1819
-652.8974947046223,1921
-650.2462620100463,1872
-647.5957599587009,1932
-644.9459883742998,2021
-642.2969470804776,2053
-639.6486359007902,2076
-637.0010546587141,1914
-634.3542031776476,1883
-631.7080812809096,1781
-629.0626887917401,2132
-626.4180255333008,2470
-623.7740913286734,2173
-621.1308860008619,1849
-618.4884093727904,1926
-615.8466612673046,2000
-613.2056415071715,1981
-610.5653499150785,1882
-607.9257863136347,2072
-605.28695052537,1884
-602.6488423727357,1951
-600.0114616781036,2093
-597.3748082637674,2533
-594.7388819519412,2450
-592.1036825647604,2149
-589.4692099242818,2243
-586.8354638524829,2428
-584.2024441712624,2277
-581.5701507024403,2064
-578.9385832677575,1963
-576.3077416888759,2072
-573.6776257873787,2325
-571.0482353847704,2308
-568.4195703024757,2215
-565.7916303618415,1943
-563.164415384135,1896
-560.5379251905453,2068
-557.9121596021815,2109
-555.2871184400748,2060
-552.6628015251767,2017
-550.0392086783606,2272
-547.4163397204204,2217
-544.794194472071,2269
-542.1727727539491,2176
-539.5520743866118,2234
-536.9320991905377,2250
-534.3128469861261,2265
-531.6943175936979,2361
-529.0765108334947,2437
-526.4594265256793,2554
-523.8430644903358,2690
-521.2274245474689,2713
-518.612506517005,2713
-515.9983102187913,2669
-513.3848354725959,2846
-510.77208209810846,2983
-508.16004991493924,3043
-505.5487387426199,3102
-502.9381484006032,3008
-500.3282787082628,2928
-497.71912948489364,2991
-495.1107005497117,2740
-492.5029917218539,2633
-489.8960028203786,2483
-487.28973366426493,2201
-484.68418407241325,2344
-482.07935386364494,2410
-479.47524285670266,2278
-476.87185087025,2291
-474.2691777228715,2272
-471.66722323307334,2276
-469.0659872192821,2278
-466.4654694998459,2344
-463.86566989303384,2256
-461.26658821703614,2462
-458.66822428996414,2497
-456.07057792985,2337
-453.4736489546475,2475
-450.877437182231,2279
-448.28194243039627,2222
-445.68716451686,2223
-443.09310325926003,2381
-440.49975847515555,2261
-437.9071299820263,2320
-435.31521759727354,2280
-432.72402113821954,2719
-430.13354042210767,2545
-427.5437752661022,2298
-424.95472548728867,2488
-422.36639090267386,2499
-419.7787713291855,2699
-417.1918665836721,2855
-414.60567648290385,2703
-412.0202008435715,2517
-409.4354394822874,2648
-406.8513922155845,2730
-404.26805885991723,2609
-401.685439231661,2392
-399.103533147112,2336
-396.522340422488,2400
-393.9418608739278,2486
-391.3620943174908,2438
-388.7830405691583,2300
-386.2046994448317,2285
-383.6270707603344,2303
-381.05015433141045,2282
-378.473949973725,1894
-375.8984575028645,1765
-373.32367673433623,1482
-370.74960748356875,1383
-368.1762495659117,1270
-365.60360279663576,1301
-363.03166699093265,1282
-360.4604419639154,1143
-357.8899275306178,969
-355.32012350599507,862
-352.7510297049233,865
-350.1826459421999,883
-347.61497203254316,870
-345.04800779059235,972
-342.4817530309082,1317
-339.91620756797226,1434
-337.35137121618743,1402
-334.7872437898774,1356
-332.22382510328725,1734
-329.66111497058273,1640
-327.09911320585127,1032
-324.53781962310075,986
-321.9772340362607,945
-319.4173562591816,1021
-316.8581861056348,886
-314.2997233893127,843
-311.7419679238294,1096
-309.1849195227194,1106
-306.62857799943856,1217
-304.0729431673641,1215
-301.51801483979375,1313
-298.963792829947,1403
-296.41027695096386,1454
-293.85746701590574,1634
-291.3053628377552,1589
-288.7539642294155,1522
-286.2032710037115,1739
-283.65328297338897,2403
-281.1039999511146,3020
-278.5554217494762,3142
-276.007548180983,2128
-273.4603790580651,1306
-270.9139141930734,1472
-268.3681533982807,2010
-265.8230964858798,2210
-263.27874326798565,1797
-260.7350935566336,1419
-258.1921471637804,1742
-255.6499039013039,2369
-253.10836358100266,1867
-250.56752601459698,1817
-248.02739101372765,2236
-245.48795838995704,2469
-242.94922795476816,2117
-240.41119951956557,1573
-237.8738728956746,1755
-235.33724789434166,2011
-232.80132432673452,1980
-230.2661020039418,2026
-227.73158073697357,2071
-225.19776033676033,2335
-222.66464061415422,2275
-220.1322213799284,1969
-217.60050244477725,1765
-215.06948361931552,2346
-212.53916471408013,3316
-210.00954553952818,3586
-207.48062590603843,2317
-204.9524056239104,1768
-202.4248845033651,2187
-199.8980623545441,2877
-197.37193898751036,3196
-194.84651421224817,2287
-192.32178783866232,2075
-189.79775967657952,2736
-187.27442953574644,3648
-184.7517972258321,4199
-182.2298625564256,3390
-179.7086253370378,2896
-177.18808537710026,3045
-174.66824248596583,3949
-172.14909647290835,4458
-169.6306471471229,3626
-167.11289431772548,2920
-164.59583779375328,2623
-162.07947738416453,3407
-159.5638128978386,4698
-157.04884414357605,4536
-154.53457093009854,4134
-152.02099306604828,3938
-149.50811035998936,3184
-146.99592262040665,3749
-144.48442965570587,5487
-141.97363127421409,7210
-139.46352728417958,6971
-136.95411749377126,5378
-134.44540171107985,4293
-131.93737974411636,3208
-129.43005140081357,4167
-126.92341648902493,6998
-124.41747481652521,11635
-121.91222619101006,13456
-119.40767042009657,11766
-116.90380731132257,8912
-114.40063667214702,5583
-111.8981583099503,4309
-109.3963720320337,8304
-106.89527764561933,16632
-104.39487495785067,29350
-101.89516377579241,37036
-99.39614390642998,33055
-96.89781515667039,31068
-94.40017733334128,29933
-91.90323024319173,26407
-89.40697369289148,21383
-86.91140748903172,19003
-84.41653143812482,28575
-81.92234534660395,50537
-79.42884902082358,65025
-76.93604226705907,65025
-74.4439248915071,65025
-71.95249670028534,65025
-69.46175749943245,65025
-66.97170709490854,65025
-64.48234529259423,65025
-61.99367189829195,65025
-59.50568671772464,65025
-57.01838955653636,65025
-54.53178022029283,65025
-52.045858514480074,65025
-49.560624244506016,65025
-47.07607721569923,65025
-44.59221723330904,48518
-42.10904410250669,37898
-39.62655762838392,31291
-37.14475761595372,34530
-34.66364387015028,41460
-32.18321619582866,54531
-29.70347439776515,65025
-27.224418280657005,65025
-24.74604764912317,65025
-22.26836230770266,65025
-19.7913620608565,65025
-17.315046712966478,65025
-14.83941606833514,65025
-12.36446993118659,65025
-9.89020810566592,65025
-7.416630395839093,65025
-4.94373660569363,65025
-2.471526539137585,65025
-6.821210263296962E-13,65025
2.47084320796705,65025
4.941003281093458,65025
7.410480415786196,65025
9.879274808531363,65025
12.347386655893956,65025
14.814816154518212,65025
17.28156350112681,65025
19.74762889252179,65025
22.21301252558385,29464
24.67771459727237,12384
27.141735304626195,16255
29.605074844762612,15479
32.06773341487792,12463
34.52971121224755,11738
36.99100843422559,14583
39.45162527824516,13250
41.91156194181792,12916
44.370818622535126,10351
46.82939551806646,11861
49.287292826160524,12676
51.74451074464503,10892
54.201049471426245,8444
56.65690920448981,8640
59.112090141899785,7888
61.56659248179983,6771
64.02041642241159,6259
66.4735621620365,6622
68.92602989905402,8173
71.37781983192338,7554
73.82893215918205,7798
76.27936707944684,7989
78.72912479141326,7908
81.17820549385567,9362
83.62660938562783,9250
86.07433666566146,8448
88.5213875329681,5657
90.96776218663751,5134
93.41346082583925,4914
95.85848364982041,5125
98.30283085790859,8204
100.7465026495089,9019
103.18949922410604,6762
105.63182078126385,4618
108.07346752062438,4393
110.51443964190923,3473
112.95473734491827,3761
115.39436082953114,4725
117.83331029570547,5778
120.27158594347827,4382
122.7091879729652,3687
125.1461165843615,3994
127.58237197794062,5353
130.01795435405518,4485
132.4528639131364,3930
134.88710085569494,5043
137.32066538231982,5286
139.75355769367923,4136
142.1857779905207,3870
144.61732647366978,4024
147.04820334403132,3755
149.47840880258934,2911
151.90794305040674,3323
154.33680628862487,3099
156.76499871846443,3021
159.19252054122433,3408
161.61937195828352,3920
164.04555317109896,4394
166.47106438120693,4317
168.89590579022217,4345
171.320077599839,4915
173.7435800118302,5053
176.16641322804742,5148
178.58857745042144,5271
181.01007288096173,5203
183.43089972175687,5450
185.85105817497413,5029
188.27054844285988,4585
190.6893707277394,4800
193.10752523201643,4944
195.5250121581745,4851
197.9418317087751,4599
200.3579840864594,5023
202.7734694939469,5220
205.18828813403627,4916
207.6024402096051,4756
210.01592592360964,4906
212.42874547908548,4878
214.84089907914665,5054
217.2523869269868,5375
219.66320922587727,4911
222.0733661791695,4700
224.48285799029293,4957
226.8916848627572,5259
229.29984700014882,4796
231.7073446061355,5017
234.11417788446204,5260
236.520347038953,5535
238.92585227351185,5586
241.33069379212054,5184
243.73487179884035,5023
246.1383864978112,5436
248.541238093252,5692
250.9434267894609,5633
253.34495279081432,5312
255.74581630176783,4879
258.1460175268563,4997
260.54555667069314,4967
262.9444339379703,5445
265.3426495334594,5835
267.7402036620107,5383
270.1370965285529,5057
272.53332833809407,4769
274.9288992957214,5138
277.32380960660055,5182
279.718059475976,4937
282.1116491091717,4548
284.5045787115897,4402
286.89684848871195,4434
289.2884586460981,4433
291.67940938938807,4734
294.0697009242996,4676
296.4593334566299,4761
298.84830719225477,4861
301.23662233712923,4650
303.6242790972866,4443
306.01127767884,4385
308.39761828798066,4319
310.78330113097934,4092
313.16832641418534,4064
315.5526943440269,4144
317.9364051270112,4307
320.3194589697242,4270
322.70185607883093,4216
325.0835966610754,4025
327.4646809232805,4017
329.8451090723478,4089
332.2248813152577,3999
334.6039978590701,3932
336.9824589109231,3836
339.36026467803447,3843
341.7374153677,3802
344.113911187295,3840
346.48975234427337,3802
348.8649390461686,3736
351.2394715005918,3648
353.61334991523415,3674
355.9865744978655,3555
358.35914545633375,3664
360.73106299856715,3767
363.10232733257146,3866
365.47293866643247,3935
367.84289720831396,3816
370.2122031664593,3642
372.5808567491905,3739
374.9488581649083,3585
377.31620762209275,3571
379.6829053293021,3484
382.0489514951745,3652
384.4143463284262,3836
386.7790900378528,3763
389.14318283232853,3817
391.50662492080653,3780
393.86941651231916,4092
396.23155781597745,4344
398.5930490409713,4139
400.9538903965696,3753
403.3140820921202,3845
405.6736243370498,3536
408.03251734086336,3681
410.3907613131465,3549
412.74835646356166,3595
415.10530300185144,3531
417.4616011378372,3539
419.81725108141893,3551
422.1722530425758,3393
424.5266072313656,3736
426.880313857925,3427
429.2333731324701,3389
431.58578526529516,3424
433.9375504667738,3407
436.2886689473588,3438
438.63914091758113,3469
440.9889665880513,3326
443.33814616945835,3345
445.68667987257015,3457
448.03456790823395,3546
450.3818104873759,3468
452.72840782100013,3448
455.07436012019105,3318
457.41966759611057,3389
459.7643304600007,3348
462.10834892318155,3307
464.4517231970525,3449
466.79445349309174,3422
469.1365400228566,3391
471.4779829979826,3517
473.81878263018564,3390
476.15893913125876,3345
478.4984527130747,3637
480.8373235875855,3679
483.17555196682144,3537
485.5131380628919,3560
487.8500820879857,3740
490.1863842543697,3753
492.52204477439034,4206
494.8570638604725,4624
497.1914417251204,5023
499.52517858091653,5207
501.85827464052306,5333
504.19073011668036,5386
506.5225452222086,5388
508.85372017000566,5690
511.18425517304956,6366
513.514150444396,7549
515.8434061971808,9490
518.1720226446176,9906
520.4999999999999,9830
522.8273384766991,9129
525.1540382881666,8317
527.480099647932,6905
529.8055227696037,5270
532.1303078668694,4239
534.454455153496,3934
536.777964843328,3650
539.1008371502907,3584
541.4230722883866,3609
543.744670471698,3596
546.0656319143858,3625
548.3859568306899,3767
550.7056454349294,4160
553.0246979415016,4023
555.3431145648834,3832
557.6608955196306,3530
559.978041020377,3607
562.2945512818363,3617
564.6104265188006,3509
566.9256669461412,3371
569.2402727788082,3568
571.5542442318302,3661
573.8675815203156,3425
576.1802848594508,3470
578.4923544645015,3560
580.8037905508126,3568
583.114593333807,3432
585.4247630289875,3508
587.7342998519354,3683
590.0432040183106,3721
592.3514757438526,3516
594.6591152443794,3447
596.9661227357875,3689
599.2724984340531,3469
601.578242555231,3420
603.8833553154542,3349
606.1878369309362,3325
608.4916876179676,3351
610.7949075929192,3418
613.0974970722403,3622
615.3994562724587,3416
617.7007854101818,3332
620.0014847020951,3388
622.3015543649641,3445
624.6009946156324,3481
626.8998056710224,3321
629.1979877481361,3373
631.4955410640538,3258
633.7924658359349,3352
636.0887622810175,3402
638.3844306166192,3368
640.6794710601358,3356
642.9738838290426,3635
645.2676691408932,3485
647.5608272133207,3511
649.853358264037,3609
652.1452625108324,3484
654.4365401715764,3384
656.7271914642178,3622
659.0172166067838,3534
661.3066158173809,3444
663.5953893141935,3468
665.8835373154867,3449
668.1710600396028,3650
670.4579577049639,3598
672.7442305300709,3455
675.0298787335033,3412
677.3149025339197,3399
679.599302150058,3537
681.8830778007342,3557
684.1662297048437,3490
686.4487580813608,3434
688.7306631493387,3489
691.0119451279091,3545
693.2926042362834,3375
695.5726406937516,3463
697.8520547196814,3639
700.1308465335215,3465
702.4090163547982,3486
704.6865644031171,3387
706.9634908981619,3464
709.2397960596965,3405
711.5154801075631,3427
713.7905432616823,3548
716.0649857420548,3404
718.3388077687592,3439
720.612009561953,3485
722.8845913418733,3379
725.1565533288352,3385
727.427895743234,3459
729.6986188055427,3338
731.9687227363137,3458
734.238207756178,3445
736.5070740858458,3378
738.7753219461066,3380
741.0429515578281,3430
743.3099631419569,3516
745.5763569195191,3544
747.8421331116193,3421
750.1072919394409,3433
752.3718336242467,3492
754.6357583873777,3516
756.8990664502545,3582
759.1617580343765,3448
761.423833361321,3409
763.6852926527457,3350
765.9461361303862,3392
768.206364016058,3507
770.4659765316536,3606
772.7249738991469,3588
774.9833563405886,3544
777.2411240781092,3512
779.4982773339183,3477
781.7548163303044,3433
784.010741289634,3578
786.2660524343538,3656
788.5207499869881,3701
790.7748341701416,3626
793.0283052064964,3618
795.2811633188143,3434
797.5334087299362,3514
799.7850416627813,3481
802.0360623403484,3663
804.2864709857143,3855
806.5362678220353,3655
808.7854530725468,3554
811.0340269605625,3620
813.2819897094754,3756
815.5293415427581,3645
817.77608268396,3636
820.0222133567116,3597
822.2677337847211,3828
824.5126441917765,3996
826.7569448017433,3588
829.0006358385675,3460
831.2437175262731,3592
833.4861900889629,3567
835.7280537508192,3562
837.9693087361026,3478
840.2099552691533,3445
842.4499935743896,3434
844.689423876309,3571
846.9282463994886,3538
849.1664613685833,3538
851.4040690083276,3473
853.6410695435349,3524
855.877463199097,3655
858.1132501999847,3684
860.3484307712487,3683
862.5830051380175,3523
864.8169735254988,3451
867.0503361589791,3524
869.2830932638243,3590
871.5152450654786,3633
873.7467917894654,3635
875.9777336613873,3751
878.2080709069252,3562
880.4378037518389,3583
882.666932421968,3673
884.8954571432301,3834
887.1233781416219,3848
889.3506956432192,3771
891.5774098741766,3586
893.803521060728,3666
896.0290294291852,3617
898.2539352059397,3724
900.4782386174619,3920
902.7019398903011,3918
904.925039251085,3619
907.147536926521,3552
909.3694331433943,3616
911.59072812857,3502
913.8114221089921,3518
916.0315153116827,3507
918.2510079637437,3516
920.4699002923547,3584
922.6881925247761,3641
924.905884888345,3691
927.1229776104793,3591
929.3394709186747,3539
931.555365040506,3549
933.7706602036275,3517
935.9853566357709,3700
938.1994545647489,3824
940.4129542184515,3657
942.6258558248488,3733
944.8381596119883,3834
947.0498658079974,3978
949.2609746410825,3717
951.4714863395287,3652
953.6814011316998,3659
955.8907192460387,3734
958.0994409110671,3777
960.3075663553858,3962
962.5150958076741,3986
964.7220294966913,3851
966.928367651274,3763
969.1341105003388,3758
971.3392582728806,3706
973.5438111979742,3703
975.747769504772,3654
977.9511334225061,3628
980.153903180487,3696
982.3560790081052,3756
984.5576611348289,3629
986.7586497902058,3519
988.9590452038618,3607
991.158847605503,3630
993.3580572249133,3784
995.5566742919558,3518
997.7546990365728,3452
999.952131688785,3530
1002.1489724786926,3375
1004.3452216364743,3326
1006.5408793923874,3346
1008.7359459767691,3302
1010.9304216200343,3306
1013.1243065526781,3319
1015.3176010052733,3347
1017.510305208472,3287
1019.7024193930064,3570
1021.8939437896848,3422
1024.0848786293977,3312
1026.2752241431122,3300
1028.4649805618747,3325
1030.6541481168115,3206
1032.842727039127,3213
1035.0307175601051,3228
1037.2181199111074,3169
1039.4049343235752,3276
1041.591161029029,3187
1043.7768002590683,3222
1045.9618522453698,3205
1048.1463172196918,3307
1050.3301954138697,3309
1052.513487059818,3160
1054.69619238953,3183
1056.8783116350783,3186
1059.0598450286152,3431
1061.2407928023704,3183
1063.4211551886528,3253
1065.6009324198508,3269
1067.780124728432,3154
1069.9587323469414,3159
1072.1367555080046,3250
1074.314194444325,3175
1076.4910493886855,3158
1078.667320573947,3203
1080.843008233051,3182
1083.0181125990161,3142
1085.1926339049414,3116
1087.3665723840027,3120
1089.5399282694575,3118
1091.7127017946405,3163
1093.8848931929647,3266
1096.0565026979243,3145
1098.2275305430899,3088
1100.3979769621128,3279
1102.567842188722,3233
1104.737126456726,3170
1106.9058300000124,3167
1109.0739530525475,3141
1111.2414958483764,3192
1113.4084586216231,3073
1115.5748416064907,3153
1117.7406450372605,3218
1119.9058691482942,3251
1122.0705141740304,3202
1124.2345803489884,3139
1126.3980679077658,3174
1128.5609770850388,3203
1130.7233081155623,3072
1132.8850612341707,3004
1135.0462366757774,3119
1137.2068346753745,3052
1139.3668554680326,3116
1141.526299288901,3240
1143.68516637321,3121
1145.8434569562655,3228
1148.001171273455,3200
1150.158309560244,3079
1152.3148720521767,3007
1154.470858984876,3121
1156.626270594044,3176
1158.7811071154629,3142
1160.9353687849912,3162
1163.089055838569,3233
1165.242168512213,3117
1167.3947070420209,3079
1169.5466716641677,3117
1171.6980626149075,3274
1173.8488801305748,3350
1175.9991244475814,3223
1178.1487958024186,3119
1180.2978944316555,3188
1182.4464205719428,3115
1184.5943744600072,3070
1186.7417563326567,3116
1188.8885664267755,3088
1191.0348049793297,3023
1193.1804722273619,3096
1195.325568407995,3160
1197.4700937584303,3090
1199.614048515948,3132
1201.7574329179074,3144
1203.900247201746,3189
1206.042491604982,3119
1208.1841663652099,3202
1210.3252717201053,3122
1212.465807907422,3150
1214.6057751649923,3168
1216.7451737307279,3086
1218.8840038426192,3318
1221.0222657387353,3251
1223.1599596572241,3224
1225.2970858363137,3167
1227.4336445143094,3206
1229.5696359295966,3229
1231.705060320639,3276
1233.8399179259786,3211
1235.9742089842384,3228
1238.107933734118,3382
1240.2410924143974,3290
1242.373685263935,3358
1244.5057125216676,3435
1246.6371744266116,3361
1248.7680712178621,3273
1250.898403134593,3428
1253.028170416058,3434
1255.1573733015875,3327
1257.2860120305932,3283
1259.4140868425648,3443
1261.54159797707,3412
1263.6685456737569,3401
1265.7949301723515,3344
1267.9207517126597,3341
1270.046010534565,3357
1272.1707068780306,3435
1274.2948409830983,3367
1276.4184130898889,3357
1278.541423438603,3345
1280.6638722695184,3293
1282.785759822993,3234
1284.9070863394636,3333
1287.0278520594447,3393
1289.1480572235314,3412
1291.2677020723963,3524
1293.3867868467923,3542
1295.5053117875495,3544
1297.623277135579,3362
1299.740683131868,3514
1301.8575300174857,3709
1303.973818033578,3557
1306.0895474213703,3558
1308.2047184221678,3593
1310.3193312773528,3698
1312.4333862283888,3635
1314.5468835168163,3568
1316.659823384255,3511
1318.7722060724045,3559
1320.8840318230418,3556
1322.9953008780249,3365
1325.1060134792888,3643
1327.2161698688478,3641
1329.3257702887959,3531
1331.4348149813054,3548
1333.5433041886276,3437
1335.6512381530933,3403
1337.7586171171101,3505
1339.8654413231675,3551
1341.9717110138317,3397
1344.0774264317488,3398
1346.1825878196432,3451
1348.2871954203192,3465
1350.3912494766587,3454
1352.4947502316231,3407
1354.5976979282532,3494
1356.7000928096686,3347
1358.8019351190665,3314
1360.9032250997243,3426
1363.0039629949988,3441
1365.1041490483235,3406
1367.2037835032133,3404
1369.3028666032606,3353
1371.401398592137,3347
1373.4993797135926,3380
1375.5968102114575,3411
1377.6936903296396,3380
1379.7900203121262,3448
1381.8858004029835,3485
1383.9810308463561,3350
1386.075711886469,3399
1388.1698437676241,3369
1390.2634267342032,3540
1392.356461030667,3566
1394.4489469015557,3449
1396.5408845914872,3476
1398.6322743451592,3457
1400.7231164073469,3427
1402.813411022907,3472
1404.903158436773,3563
1406.9923588939578,3549
1409.0810126395531,3412
1411.1691199187303,3525
1413.2566809767386,3417
1415.343696058907,3457
1417.4301654106425,3569
1419.5160892774315,3552
1421.6014679048399,3488
1423.6863015385125,3392
1425.7705904241707,3606
1427.8543348076178,3457
1429.9375349347342,3576
1432.0201910514802,3499
1434.102303403894,3490
1436.1838722380944,3614
1438.2648978002767,3696
1440.3453803367174,3647
1442.4253200937692,3683
1444.5047173178677,3661
1446.5835722555234,3745
1448.6618851533285,3693
1450.739656257952,3843
1452.8168858161434,3762
1454.8935740747306,3845
1456.96972128062,3807
1459.045327680797,3920
1461.120393522327,3870
1463.1949190523528,3939
1465.2689045180973,3941
1467.3423501668608,3881
1469.415256246024,4031
1471.4876230030463,4077
1473.559450685465,4128
1475.6307395408976,4189
1477.7014898170391,4345
1479.771701761665,4365
1481.8413756226287,4278
1483.9105116478618,4218
1485.9791100853772,4255
1488.0471711832643,4323
1490.1146951896926,4409
1492.1816823529098,4470
1494.2481329212433,4473
1496.3140471430984,4460
1498.3794252669609,4443
1500.4442675413939,4501
1502.5085742150404,4537
1504.572345536622,4718
1506.6355817549388,4557
1508.6982831188702,4585
1510.7604498773744,4610
1512.8220822794883,4649
1514.8831805743293,4774
1516.9437450110909,4649
1519.003775839048,4692
1521.0632733075522,4673
1523.1222376660367,4693
1525.1806691640113,4799
1527.2385680510652,4710
1529.2959345768668,4795
1531.3527689911643,4930
1533.4090715437833,4835
1535.4648424846291,4870
1537.5200820636855,4944
1539.5747905310159,5031
1541.6289681367616,5082
1543.6826151311434,5099
1545.7357317644614,5252
1547.7883182870937,5102
1549.8403749494987,5285
1551.8919020022113,5234
1553.9428996958477,5424
1555.9933682811015,5451
1558.0433080087469,5431
1560.0927191296346,5455
1562.1416018946961,5450
1564.1899565549415,5376
1566.2377833614592,5523
1568.2850825654164,5358
1570.3318544180606,5247
1572.3780991707158,5179
1574.423817074788,4869
1576.4690083817595,4792
1578.5136733431923,4594
1580.5578122107272,4580
1582.601425236085,4584
1584.6445126710646,4535
1586.6870747675434,4341
1588.7291117774776,4233
1590.7706239529034,4101
1592.8116115459347,4069
1594.8520748087658,4004
1596.8920139936686,3864
1598.9314293529933,3869
1600.9703211391711,3659
1603.008689604711,3776
1605.0465350022005,3781
1607.0838575843068,3728
1609.1206576037753,3596
1611.1569353134305,3593
1613.1926909661765,3529
1615.2279248149953,3497
1617.2626371129481,3387
1619.2968281131757,3465
1621.3304980688963,3376
1623.3636472334088,3419
1625.39627586009,3402
1627.428384202396,3326
1629.459972513861,3306
1631.4910410480993,3353
1633.5215900588028,3423
1635.551619799744,3337
1637.5811305247717,3435
1639.6101224878166,3337
1641.6385959428862,3383
1643.6665511440683,3294
1645.693988345528,3340
1647.7209078015112,3287
1649.7473097663405,3220
1651.7731944944203,3245
1653.7985622402307,3383
1655.823413258333,3166
1657.847747803366,3229
1659.8715661300494,3237
1661.8948684931793,3254
1663.9176551476316,3165
1665.9399263483624,3202
1667.9616823504057,3105
1669.982923408873,3176
1672.0036497789574,3119
1674.0238617159293,3147
1676.043559475138,3099
1678.0627433120121,3190
1680.081413482059,3130
1682.0995702408654,3180
1684.117213844096,3129
1686.134344547495,3240
1688.1509626068864,3194
1690.1670682781705,3077
1692.182661817329,3151
1694.1977434804217,3262
1696.2123135235875,3204
1698.226372203043,3267
1700.2399197750851,3249
1702.2529564960905,3161
1704.2654826225112,3194
1706.277498410882,3062
1708.2890041178139,2988
1710.2999999999988,3170
1712.3104863142066,3091
1714.3204633172854,3056
1716.329931266163,3160
1718.3388904178469,3085
1720.3473410294214,3118
1722.3552833580516,3181
1724.3627176609807,3087
1726.3696441955308,3028
1728.3760632191033,3031
1730.3819749891782,3123
1732.3873797633146,3015
1734.3922777991502,3093
1736.3966693544012,3041
1738.4005546868639,3048
1740.4039340544127,3069
1742.406807715001,3005
1744.4091759266616,3012
1746.4110389475054,3201
1748.4123970357223,3064
1750.413250449582,2966
1752.4135994474318,3012
1754.4134442876993,2963
1756.4127852288902,2978
1758.4116225295893,2923
1760.4099564484595,3044
1762.407787244244,3057
1764.405115175764,3051
1766.4019405019203,2954
1768.3982634816916,2956
1770.3940843741357,2970
1772.3894034383907,3103
1774.3842209336717,2986
1776.378537119274,2965
1778.372352254571,3015
1780.3656665990156,2963
1782.3584804121397,2935
1784.3507939535534,2946
1786.3426074829463,2896
1788.3339212600863,3051
1790.3247355448211,2853
1792.3150505970766,2906
1794.3048666768573,2861
1796.2941840442477,2891
1798.2830029594106,2991
1800.2713236825884,2889
1802.2591464741004,2992
1804.2464715943465,2945
1806.2332993038058,2939
1808.2196298630352,2937
1810.2054635326708,2868
1812.190800573428,2885
1814.175641246101,2886
1816.1599858115628,2946
1818.1438345307652,2909
1820.127187664738,2945
1822.1100454745924,2862
1824.092408221516,2898
1826.0742761667766,2939
1828.055649571721,2909
1830.0365286977735,2889
1832.0169138064398,2956
1833.9968051593014,2875
1835.9762030180214,2976
1837.9551076443408,2943
1839.9335193000788,2907
1841.9114382471344,2856
1843.888864747485,2912
1845.8657990631878,2953
1847.842241456378,2973
1849.8181921892697,2890
1851.7936515241558,2910
1853.7686197234098,2838
1855.7430970494815,2941
1857.7170837649014,2856
1859.6905801322787,2874
1861.6635864143004,3003
1863.6361028737338,2873
1865.608129773424,3007
1867.5796673762961,2859
1869.5507159453537,2830
1871.521275743678,3018
1873.4913470344313,2928
1875.4609300808534,2960
1877.4300251462632,2914
1879.3986324940588,2951
1881.366752387717,2955
1883.3343850907936,2922
1885.3015308669228,2957
1887.268189979819,2925
1889.2343626932739,2927
1891.2000492711595,2904
1893.1652499774254,2989
1895.1299650761011,2990
1897.0941948312952,2872
1899.0579395071945,2917
1901.0211993680641,2933
1902.98397467825,2907
1904.9462657021745,3024
1906.9080727043415,2933
1908.869395949332,2976
1910.8302357018065,2939
1912.790592226504,2997
1914.7504657882428,2828
1916.7098566519212,2894
1918.6687650825133,2906
1920.6271913450764,2814
1922.5851357047422,2959
1924.5425984267245,2817
1926.499579776314,2906
1928.4560800188833,3005
1930.4120994198802,2918
1932.367638244833,2999
1934.32269675935,2859
1936.2772752291175,2839
1938.231373919899,2872
1940.1849930975404,3008
1942.1381330279637,2949
1944.0907939771696,2944
1946.0429762112412,2833
1947.9946799963363,2867
1949.9459055986945,2826
1951.896653284633,2882
1953.8469233205478,2930
1955.7967159729142,2917
1957.7460315082863,2883
1959.6948701932974,2837
1961.6432322946594,2820
1963.5911180791632,2777
1965.5385278136787,2894
1967.4854617651545,2949
1969.4319202006182,2836
1971.377903387176,2872
1973.3234115920136,2881
1975.268445082395,2786
1977.2130041256642,2809
1979.1570889892423,2814
1981.1006999406304,2829
1983.04383724741,2847
1984.986501177238,2840
1986.928691997853,2901
1988.8704099770712,2901
1990.811655382789,2877
1992.7524284829801,2811
1994.692729545698,2767
1996.6325588390755,2770
1998.5719166313224,2772
2000.5108031907307,2893
2002.4492187856677,2786
2004.387163684583,2853
2006.3246381560011,2837
2008.2616424685298,2807
2010.1981768908527,2834
2012.1342416917332,2916
2014.069837140014,2795
2016.0049635046162,2880
2017.9396210545406,2844
2019.8738100588666,2869
2021.8075307867502,2818
2023.740783507431,2749
2025.6735684902228,2721
2027.6058860045214,2757
2029.5377363198004,2856
2031.4691197056118,2829
2033.4000364315875,2794
2035.3304867674374,2784
2037.260470982952,2772
2039.189989347998,2874
2041.1190421325232,2821
2043.047629606554,2704
2044.9757520401945,2780
2046.9034097036288,2755
2048.8306028671195,2825
2050.7573318010086,2736
2052.683596775716,2759
2054.609398061742,2823
2056.5347359296647,2785
2058.4596106501403,2816
2060.384022493906,2734
2062.3079717317764,2768
2064.231458634646,2736
2066.1544834734873,2824
2068.077046519352,2686
2069.99914804337,2762
2071.9207883167524,2797
2073.8419676107865,2767
2075.7626861968406,2781
2077.6829443463607,2720
2079.6027423308715,2761
2081.522080421977,2775
2083.440958891362,2828
2085.359378010786,2778
2087.2773380520907,2694
2089.194839287196,2779
2091.111881988101,2726
2093.0284664268825,2688
2094.9445928756973,2707
2096.86026160678,2742
2098.775472892446,2713
2100.690227005088,2670
2102.604524217178,2755
2104.5183648012676,2749
2106.431749029985,2689
2108.34467717604,2842
2110.2571495122206,2751
2112.169166311393,2787
2114.080727846503,2781
2115.9918343905747,2697
2117.902486216711,2811
2119.8126835980956,2687
2121.722426807987,2713
2123.6317161197285,2640
2125.5405518067364,2747
2127.448934142509,2704
2129.356863400624,2712
2131.264339854737,2725
2133.1713637785815,2655
2135.077935445972,2782
2136.9840551308002,2753
2138.889723107037,2721
2140.7949396487334,2765
2142.699705030018,2826
2144.6040195250994,2798
2146.507883408264,2725
2148.4112969538774,2746
2150.3142604363848,2717
2152.2167741303097,2777
2154.1188383102535,2799
2156.0204532508997,2701
2157.9216192270064,2731
2159.822336513414,2820
2161.7226053850413,2756
2163.622426116884,2683
2165.5217989840185,2720
2167.4207242616,2746
2169.319202224862,2755
2171.2172331491165,2671
2173.1148173097563,2718
2175.0119549822507,2816
2176.90864644215,2804
2178.8048919650823,2746
2180.7006918267534,2728
2182.596046302952,2781
2184.4909556695407,2740
2186.3854202024645,2697
2188.279440177746,2755
2190.173015871487,2781
2192.066147559868,2841
2193.958835519149,2721
2195.851080025667,2771
2197.7428813558417,2761
2199.6342397861667,2693
2201.5251555932186,2740
2203.415629053651,2719
2205.3056604441986,2751
2207.19525004167,2765
2209.084398122958,2738
2210.9731049650327,2803
2212.861370844941,2765
2214.749196039812,2774
2216.636580826851,2824
2218.523525483344,2815
2220.410030286655,2782
2222.296095514226,2841
2224.1817214435805,2671
2226.066908352319,2754
2227.951656518121,2744
2229.835966218746,2766
2231.71983773203,2744
2233.6032713358913,2740
2235.486267308324,2759
2237.3688259274036,2746
2239.2509474712824,2785
2241.132632218193,2871
2243.013880446447,2753
2244.8946924344323,2847
2246.7750684606203,2745
2248.6550088035574,2737
2250.534513741871,2735
2252.413583554265,2799
2254.292218519526,2765
2256.170418916517,2768
2258.0481850241786,2717
2259.925517121534,2720
2261.8024154876825,2787
2263.678880401803,2756
2265.5549121431536,2772
2267.430510991071,2623
2269.305677224971,2773
2271.180411124348,2714
2273.0547129687766,2737
2274.9285830379076,2753
2276.8020216114737,2760
2278.6750289692845,2726
2280.5476053912294,2757
2282.4197511572766,2797
2284.2914665474727,2741
2286.162751841943,2777
2288.0336073208937,2803
2289.904033264608,2847
2291.774029953448,2806
2293.6435976678554,2829
2295.5127366883517,2807
2297.381447295534,2748
2299.2497297700825,2698
2301.1175843927526,2712
2302.9850114443825,2672
2304.852011205885,2662
2306.7185839582553,2725
2308.5847299825664,2608
2310.4504495599676,2611
2312.3157429716925,2583
2314.1806104990483,2612
2316.0450524234247,2635
2317.9090690262888,2674
2319.772660589186,2668
2321.635827393742,2656
2323.498569721661,2627
2325.3608878547248,2617
2327.2227820747967,2556
2329.0842526638157,2591
2330.945299903803,2498
2332.805924076857,2687
2334.6661254651535,2625
2336.525904350951,2609
2338.3852610165827,2677
2340.244195744464,2604
2342.102708817088,2613
2343.9608005170253,2551
2345.8184711269287,2715
2347.675720929526,2658
2349.532550207628,2553
2351.38895924412,2647
2353.24494832197,2659
2355.100517724223,2710
2356.955667734004,2745
2358.810398634514,2618
2360.664710709037,2665
2362.5186042409337,2653
2364.3720795136437,2631
2366.225136810686,2680
2368.0777764156583,2610
2369.929998612237,2539
2371.7818036841777,2617
2373.633191915315,2685
2375.484163589562,2618
2377.3347189909114,2645
2379.184858403434,2657
2381.03458211128,2627
2382.8838903986775,2690
2384.732783549936,2595
2386.5812618494406,2601
2388.4293255816588,2629
2390.2769750311327,2575
2392.1242104824883,2631
2393.971032220427,2635
2395.8174405297295,2573
2397.6634356952563,2579
2399.509018001947,2575
2401.3541877348193,2606
2403.1989451789705,2655
2405.043290619576,2689
2406.8872243418905,2600
2408.730746631247,2723
2410.5738577730594,2669
2412.4165580528183,2640
2414.258847756095,2567
2416.100727168537,2637
2417.9421965758734,2668
2419.783256263912,2683
2421.623906518538,2661
2423.4641476257157,2671
2425.303979871491,2644
2427.143403541984,2658
2428.9824189233977,2774
2430.821026302012,2589
2432.6592259641866,2632
2434.497018196361,2597
2436.33440328505,2723
2438.171381516851,2647
2440.00795317844,2691
2441.844118556569,2673
2443.6798779380724,2607
2445.5152316098606,2673
2447.3501798589255,2661
2449.1847229723357,2706
2451.0188612372403,2606
2452.8525949408663,2593
2454.6859243705203,2691
2456.518849813587,2725
2458.3513715575314,2721
2460.183489889895,2638
2462.015205098301,2676
2463.8465174704493,2647
2465.67742729412,2702
2467.5079348571717,2745
2469.338040447542,2697
2471.1677443532476,2610
2472.9970468623833,2649
2474.825948263123,2646
2476.6544488437207,2656
2478.482548892508,2702
2480.310248697896,2698
2482.137548548374,2642
2483.9644487325118,2682
2485.790949538956,2693
2487.617051256433,2632
2489.44275417375,2687
2491.26805857979,2644
2493.0929647635157,2702
2494.917473013971,2670
2496.741583620276,2764
2498.5652968716304,2745
2500.3886130573137,2704
2502.2115324666834,2627
2504.0340553891765,2637
2505.856182114308,2779
2507.6779129316733,2758
2509.499248130945,2730
2511.3201880018764,2806
2513.140732834298,2798
2514.9608829181198,2765
2516.780638543331,2760
2518.6,2678
2520.418967578273,2763
2522.237541568376,2786
2524.0557222606144,2680
2525.8735099453706,2742
2527.6909049131086,2721
2529.507907454368,2721
2531.32451785977,2744
2533.140736420014,2753
2534.9565634258774,2755
2536.771999168218,2789
2538.5870439379714,2804
2540.4016980261526,2816
2542.2159617238544,2864
2544.02983532225,2920
2545.8433191125914,2917
2547.656413386209,2901
2549.4691184345115,2870
2551.2814345489874,2880
2553.093362021204,2823
2554.904901142808,2926
2556.716052205523,2929
2558.526815501153,2829
2560.3371913215824,2868
2562.147179958771,2843
2563.956781704761,2867
2565.7659968516705,2894
2567.5748256916986,2930
2569.3832685171224,2964
2571.1913256202984,2981
2572.9989972936614,2920
2574.806283829725,2927
2576.613185521084,3052
2578.4197026604074,2925
2580.2258355404483,3002
2582.031584454035,3070
2583.836949694077,3024
2585.6419315535613,2980
2587.4465303255533,2951
2589.2507463032002,3001
2591.0545797797245,3004
2592.8580310484303,2941
2594.6611004026995,2982
2596.463788135992,2999
2598.266094541849,3005
2600.0680199138874,3047
2601.869564545807,2989
2603.670728731383,2972
2605.4715127644704,2967
2607.2719169390048,2903
2609.071941548998,3032
2610.8715868885433,2967
2612.670853251811,2977
2614.469740933052,3028
2616.268250226594,3064
2618.0663814268455,2961
2619.864134828292,2968
2621.6615107255006,3053
2623.458509413115,2963
2625.2551311858597,2948
2627.0513763385347,2952
2628.8472451660223,2979
2630.6427379632833,2911
2632.4378550253564,2910
2634.232596647359,2933
2636.026963124488,2940
2637.8209547520187,2919
2639.6145718253065,2926
2641.407814639785,2971
2643.200683490966,2938
2644.9931786744414,2979
2646.7853004858807,2924
2648.577049221034,2933
2650.3684251757277,2897
2652.1594286458712,2908
2653.9500599274484,2847
2655.740319316525,2856
2657.5302071092437,2757
2659.3197236018286,2821
2661.10886909058,2797
2662.8976438718782,2925
2664.686048242183,2751
2666.4740824980327,2851
2668.2617469360443,2870
2670.0490418529134,2775
2671.8359675454153,2815
2673.622524310403,2793
2675.408712444811,2843
2677.1945322456495,2791
2678.979984010009,2693
2680.76506803506,2710
2682.5497846180497,2718
2684.334134056306,2635
2686.1181166472343,2753
2687.9017326883213,2747
2689.6849824771293,2784
2691.4678663113013,2765
2693.2503844885596,2789
2695.032537306705,2796
2696.8143250636167,2757
2698.5957480572542,2728
2700.3768065856534,2715
2702.1575009469316,2701
2703.937831439283,2766
2705.717798360982,2674
2707.4974020103837,2712
2709.276642685917,2743
2711.055520686095,2613
2712.834036309506,2654
2714.612189854819,2655
2716.389981620782,2617
2718.1674119062204,2646
2719.944481010041,2646
2721.721189231226,2688
2723.4975368688415,2742
2725.273524222027,2587
2727.0491515900053,2553
2728.824419272075,2605
2730.5993275676146,2638
2732.3738767760838,2700
2734.148067197016,2638
2735.921899130031,2613
2737.6953728748194,2683
2739.468488731156,2614
2741.2412469988926,2674
2743.0136479779617,2617
2744.785691968372,2691
2746.5573792702116,2645
2748.3287101836504,2690
2750.099685008934,2627
2751.870304046388,2739
2753.640567596418,2622
2755.4104759595057,2616
2757.1800294362156,2585
2758.949228327187,2554
2760.7180729331412,2697
2762.486563554877,2521
2764.254700493272,2652
2766.022484049284,2633
2767.789914523947,2653
2769.5569922183786,2600
2771.3237174337705,2607
2773.090090471394,2661
2774.8561116326036,2628
2776.6217812188274,2625
2778.3870995315756,2630
2780.1520668724356,2593
2781.9166835430747,2618
2783.6809498452394,2615
2785.444866080754,2707
2787.2084325515225,2605
2788.971649559527,2624
2790.73451740683,2710
2792.4970363955713,2534
2794.2592068279705,2550
2796.0210290063264,2661
2797.7825032330147,2706
2799.543629810493,2649
2801.304409041296,2626
2803.0648412280366,2597
2804.8249266734088,2644
2806.5846656801846,2608
2808.344058551212,2653
2810.1031055894246,2644
2811.8618070978273,2589
2813.6201633795085,2658
2815.378174737636,2645
2817.1358414754536,2690
2818.893163896285,2580
2820.6501423035334,2636
2822.4067770006814,2641
2824.1630682912883,2629
2825.9190164789957,2682
2827.6746218675207,2655
2829.429884760661,2744
2831.184805462294,2638
2832.9393842763743,2770
2834.693621506936,2655
2836.4475174580916,2661
2838.201072434034,2734
2839.954286739034,2639
2841.707160677441,2597
2843.459694553685,2542
2845.2118886722724,2642
2846.96374333779,2664
2848.7152588549034,2532
2850.4664355283567,2606
2852.217273662973,2650
2853.9677735636546,2600
2855.7179355353833,2628
2857.4677598832186,2573
2859.217246912299,2561
2860.9663969278427,2575
2862.715210235146,2627
2864.4636871395846,2613
2866.211827946614,2622
2867.9596329617652,2621
2869.7071024906536,2627
2871.4542368389684,2636
2873.20103631248,2547
2874.947501217038,2638
2876.6936318585695,2570
2878.4394285430812,2679
2880.1848915766604,2599
2881.9300212654707,2646
2883.6748179157553,2691
2885.4192818338374,2658
2887.1634133261173,2577
2888.907212699077,2613
2890.6506802592744,2558
2892.393816313348,2619
2894.1366211680142,2614
2895.8790951300693,2596
2897.621238506388,2582
2899.363051603925,2594
2901.1045347297118,2690
2902.8456881908596,2594
2904.58651229456,2626
2906.327007348081,2605
2908.067173658772,2602
2909.8070115340597,2671
2911.5465212814497,2611
2913.285703208527,2688
2915.0245576229563,2622
2916.7630848324807,2606
2918.5012851449196,2608
2920.2391588681758,2592
2921.976706310227,2532
2923.7139277791334,2572
2925.4508235830313,2627
2927.187394030137,2636
2928.923639428745,2630
2930.6595600872306,2685
2932.395156314046,2688
2934.1304284177218,2671
2935.8653767068713,2560
2937.6000014901815,2587
2939.3343030764227,2570
2941.068281774442,2688
2942.8019378931644,2653
2944.5352717415976,2534
2946.2682836288236,2693
2948.0009738640065,2631
2949.7333427563885,2584
2951.465390615289,2685
2953.1971177501086,2568
2954.9285244703265,2628
2956.6596110855,2603
2958.3903779052657,2662
2960.1208252393385,2591
2961.8509533975125,2575
2963.5807626896617,2565
2965.3102534257378,2601
2967.0394259157715,2586
2968.768280469873,2651
2970.496817398232,2614
2972.2250370111146,2537
2973.952939618869,2646
2975.6805255319196,2729
2977.4077950607707,2639
2979.134748516006,2634
2980.861386208289,2649
2982.587708448359,2646
2984.313715547037,2573
2986.039407815222,2650
2987.764785563891,2716
2989.489849104102,2649
2991.2145987469908,2670
2992.9390348037705,2713
2994.6631575857346,2703
2996.3869674042576,2687
2998.1104645707887,2610
2999.83364939686,2578
3001.5565221940783,2573
3003.2790832741334,2675
3005.0013329487924,2660
3006.7232715298996,2516
3008.4448993293804,2611
3010.166216659239,2549
3011.887223831558,2639
3013.607921158498,2589
3015.3283089522993,2576
3017.0483875252826,2620
3018.7681571898443,2570
3020.4876182584626,2665
3022.2067710436927,2653
3023.9256158581707,2596
3025.644153014609,2614
3027.362382825801,2696
3029.0803056046193,2606
3030.797921664012,2542
3032.5152313170106,2624
3034.2322348767225,2688
3035.9489326563353,2638
3037.665324969115,2708
3039.3814121284063,2655
3041.097194447633,2590
3042.812672240299,2537
3044.5278458199855,2573
3046.2427155003525,2585
3047.9572815951406,2616
3049.671544418167,2693
3051.38550428333,2668
3053.0991615046073,2702
3054.812516396051,2596
3056.5255692717974,2681
3058.2383204460575,2662
3059.9507702331257,2725
3061.662918947372,2638
3063.3747669032446,2606
3065.0863144152736,2542
3066.7975617980674,2594
3068.508509366309,2637
3070.219157434767,2544
3071.9295063182844,2662
3073.639556331785,2683
3075.3493077902704,2679
3077.058761008821,2549
3078.7679163025964,2599
3080.476773986837,2646
3082.1853343768594,2645
3083.89359778806,2681
3085.6015645359153,2566
3087.3092349359786,2596
3089.016609303884,2561
3090.7236879553434,2641
3092.4304712061476,2663
3094.136959372166,2630
3095.843152769349,2589
3097.5490517137237,2642
3099.2546565213966,2587
3100.959967508554,2590
3102.66498499146,2645
3104.3697092864577,2663
3106.0741407099695,2602
3107.778279578498,2633
3109.482126208622,2683
3111.1856809170004,2695
3112.8889440203716,2570
3114.5919158355528,2651
3116.294596679439,2669
3117.996986869006,2606
3119.6990867213062,2684
3121.4008965534726,2635
3123.102416682717,2603
3124.803647426329,2661
3126.5045891016784,2642
3128.205242026213,2663
3129.90560651746,2587
3131.605682893025,2596
3133.3054714705922,2616
3135.0049725679282,2579
3136.7041865028714,2539
3138.4031135933465,2670
3140.101754157353,2617
3141.800108512971,2672
3143.498176978357,2642
3145.1959598717494,2664
3146.8934575114636,2630
3148.5906702158954,2515
3150.2875983035183,2563
3151.9842420928853,2607
3153.680601902627,2652
3155.376678051456,2613
3157.07247085816,2672
3158.767980641609,2550
3160.463207720748,2567
3162.158152414606,2625
3163.8528150422862,2564
3165.5471959229726,2521
3167.2412953759303,2552
3168.9351137204976,2579
3170.628651276098,2654
3172.3219083622307,2672
3174.014885298474,2532
3175.707582404485,2596
3177.4000000000005,2622
3179.092138404835,2651
3180.7839979388846,2653
3182.47557892212,2582
3184.166881674594,2549
3185.8579065164386,2638
3187.5486537678626,2623
3189.2391237491547,2673
3190.9293167806827,2635
3192.6192331828934,2624
3194.3088732763117,2592
3195.998237381542,2606
3197.687325819268,2628
3199.376138910251,2593
3201.064676975334,2591
3202.7529403354347,2543
3204.4409293115523,2549
3206.1286442247647,2549
3207.816085396229,2589
3209.5032531471825,2593
3211.190147798936,2577
3212.8767696728846,2601
3214.5631190905015,2516
3216.2491963733373,2562
3217.9350018430214,2567
3219.6205358212637,2453
3221.305798629851,2517
3222.990790590651,2574
3224.6755120256103,2569
3226.359963256751,2485
3228.0441446061795,2623
3229.7280563960758,2458
3231.411698948703,2548
3233.0950725863995,2602
3234.778177631587,2547
3236.461014406761,2587
3238.1435832345005,2550
3239.8258844374595,2562
3241.507918338374,2597
3243.1896852600576,2617
3244.8711855254023,2533
3246.552419457381,2543
3248.233387379042,2628
3249.914089613516,2604
3251.59452648401,2594
3253.274698313813,2554
3254.95460542629,2492
3256.6342481448855,2604
3258.313626793125,2520
3259.9927416946084,2468
3261.6715931730196,2480
3263.3501815521176,2498
3265.0285071557437,2534
3266.706570307815,2477
3268.3843713323286,2517
3270.0619105533615,2505
3271.739188295068,2570
3273.4162048816834,2561
3275.0929606375184,2561
3276.769455886966,2579
3278.445690954498,2582
3280.1216661646613,2616
3281.797381842087,2602
3283.4728383114807,2540
3285.1480358976296,2627
3286.8229749253996,2447
3288.4976557197333,2537
3290.172078605655,2532
3291.846243908266,2543
3293.5201519527463,2516
3295.193803064357,2492
3296.8671975684374,2512
3298.5403357904024,2555
3300.21321805575,2549
3301.8858446900567,2575
3303.558216018975,2507
3305.23033236824,2589
3306.9021940636603,2485
3308.57380143113,2541
3310.2451547966184,2612
3311.916254486174,2618
3313.5871008259246,2628
3315.2576941420766,2511
3316.9280347609147,2460
3318.5981230088046,2477
3320.2679592121895,2408
3321.9375436975924,2468
3323.606876791612,2423
3325.27595882093,2478
3326.944790112305,2514
3328.6133709925753,2448
3330.2817017886573,2492
3331.949782827547,2488
3333.617614436319,2586
3335.2851969421245,2553
3336.952530672199,2609
3338.619615953853,2502
3340.286453114475,2513
3341.9530424815357,2468
3343.619384382583,2487
3345.2854791452437,2626
3346.951327097224,2643
3348.6169285663073,2585
3350.2822838803577,2528
3351.947393367319,2512
3353.61225735521,2535
3355.2768761721345,2546
3356.9412501462693,2521
3358.605379605873,2459
3360.2692648792827,2523
3361.9329062949146,2474
3363.596304181263,2428
