CollectionTime,9/26/2024 8:52:07 AM
ExposureUsed,3
CalibratedSpectrum
-962.7078968117929,1814
-959.9714848408522,2002
-957.2358232597828,1916
-954.5009119013725,1963
-951.7667505983302,1920
-949.0333391832855,1913
-946.3006774887896,1914
-943.5687653473143,1987
-940.837602591253,2055
-938.1071890529199,1942
-935.3775245645503,1852
-932.6486089583007,1918
-929.9204420662485,2005
-927.1930237203925,2008
-924.4663537526524,1961
-921.7404319948689,2083
-919.0152582788041,2115
-916.2908324361409,2142
-913.5671542984834,2076
-910.8442236973568,2095
-908.1220404642074,2163
-905.4006044304027,2053
-902.679915427231,1981
-899.959973285902,2039
-897.2407778375464,2010
-894.5223289132158,1954
-891.8046263438832,1922
-889.0876699604426,1950
-886.3714595937089,2012
-883.6559950744183,2174
-880.9412762332282,2116
-878.2273029007168,1975
-875.5140749073835,1971
-872.8015920836489,1972
-870.0898542598545,1940
-867.3788612662631,1916
-864.6686129330585,1916
-861.9591090903457,1893
-859.2503495681506,1794
-856.5423341964203,1917
-853.8350628050229,1936
-851.1285352237478,1958
-848.4227512823054,1940
-845.7177108103272,1987
-843.0134136373656,2093
-840.3098595928943,2086
-837.6070485063082,2008
-834.9049802069229,2043
-832.2036545239757,2012
-829.5030712866244,2103
-826.8032303239481,2232
-824.1041314649472,2062
-821.4057745385428,1926
-818.7081593735775,1994
-816.0112857988148,2081
-813.3151536429393,2017
-810.6197627345566,2146
-807.9251129021936,2110
-805.2312039742981,1965
-802.5380357792392,1972
-799.8456081453069,2048
-797.1539209007124,2068
-794.462973873588,2072
-791.772766891987,2047
-789.083299783884,2074
-786.3945723771743,2100
-783.7065844996748,2041
-781.0193359791231,2098
-778.3328266431781,2065
-775.6470563194197,2015
-772.9620248353489,2085
-770.2777320183878,2092
-767.5941776958798,2049
-764.9113616950891,1942
-762.2292838432011,2042
-759.5479439673222,2069
-756.8673418944801,2011
-754.1874774516235,2067
-751.5083504656222,2197
-748.8299607632671,2125
-746.15230817127,2202
-743.475392516264,2224
-740.7992136248035,2115
-738.1237713233636,2055
-735.4490654383407,2149
-732.7750957960521,2220
-730.1018622227365,2164
-727.4293645445534,2060
-724.7576025875837,2187
-722.0865761778291,2162
-719.4162851412126,2234
-716.7467293035781,2247
-714.0779084906909,2360
-711.409822528237,2191
-708.7424712418238,2198
-706.0758544569796,2286
-703.4099719991541,2191
-700.7448236937178,2290
-698.0804093659622,2192
-695.4167288411002,2248
-692.7537819442656,2285
-690.0915685005134,2237
-687.4300883348199,2213
-684.7693412720819,2216
-682.1093271371178,2168
-679.4500457546669,2210
-676.7914969493897,2284
-674.1336805458676,2252
-671.4765963686034,2188
-668.8202442420206,2259
-666.1646239904642,2240
-663.5097354382001,2321
-660.8555784094151,2162
-658.2021527282176,2310
-655.5494582186366,2216
-652.8974947046223,2234
-650.2462620100463,2341
-647.5957599587009,2368
-644.9459883742998,2329
-642.2969470804776,2396
-639.6486359007902,2498
-637.0010546587141,2385
-634.3542031776476,2302
-631.7080812809096,2289
-629.0626887917401,2440
-626.4180255333008,2855
-623.7740913286734,2641
-621.1308860008619,2394
-618.4884093727904,2408
-615.8466612673046,2520
-613.2056415071715,2412
-610.5653499150785,2571
-607.9257863136347,2421
-605.28695052537,2424
-602.6488423727357,2391
-600.0114616781036,2605
-597.3748082637674,3112
-594.7388819519412,2928
-592.1036825647604,2629
-589.4692099242818,2785
-586.8354638524829,2909
-584.2024441712624,2782
-581.5701507024403,2582
-578.9385832677575,2525
-576.3077416888759,2592
-573.6776257873787,2787
-571.0482353847704,2716
-568.4195703024757,2597
-565.7916303618415,2431
-563.164415384135,2396
-560.5379251905453,2511
-557.9121596021815,2647
-555.2871184400748,2530
-552.6628015251767,2583
-550.0392086783606,2705
-547.4163397204204,2620
-544.794194472071,2686
-542.1727727539491,2747
-539.5520743866118,2619
-536.9320991905377,2669
-534.3128469861261,2804
-531.6943175936979,2811
-529.0765108334947,2913
-526.4594265256793,3061
-523.8430644903358,3127
-521.2274245474689,3309
-518.612506517005,3294
-515.9983102187913,3377
-513.3848354725959,3429
-510.77208209810846,3358
-508.16004991493924,3590
-505.5487387426199,3755
-502.9381484006032,3537
-500.3282787082628,3423
-497.71912948489364,3434
-495.1107005497117,3223
-492.5029917218539,3092
-489.8960028203786,2902
-487.28973366426493,2870
-484.68418407241325,2776
-482.07935386364494,2885
-479.47524285670266,2853
-476.87185087025,2828
-474.2691777228715,2757
-471.66722323307334,2801
-469.0659872192821,2867
-466.4654694998459,2883
-463.86566989303384,2797
-461.26658821703614,2934
-458.66822428996414,3039
-456.07057792985,3004
-453.4736489546475,3018
-450.877437182231,2804
-448.28194243039627,2713
-445.68716451686,2733
-443.09310325926003,2787
-440.49975847515555,2792
-437.9071299820263,2794
-435.31521759727354,2899
-432.72402113821954,3227
-430.13354042210767,3003
-427.5437752661022,2944
-424.95472548728867,3059
-422.36639090267386,3113
-419.7787713291855,3305
-417.1918665836721,3287
-414.60567648290385,3217
-412.0202008435715,3026
-409.4354394822874,3274
-406.8513922155845,3303
-404.26805885991723,3144
-401.685439231661,3018
-399.103533147112,2921
-396.522340422488,3017
-393.9418608739278,2949
-391.3620943174908,2916
-388.7830405691583,2910
-386.2046994448317,2677
-383.6270707603344,2652
-381.05015433141045,2550
-378.473949973725,2231
-375.8984575028645,1949
-373.32367673433623,1849
-370.74960748356875,1621
-368.1762495659117,1482
-365.60360279663576,1310
-363.03166699093265,1253
-360.4604419639154,1133
-357.8899275306178,997
-355.32012350599507,879
-352.7510297049233,928
-350.1826459421999,880
-347.61497203254316,793
-345.04800779059235,970
-342.4817530309082,1416
-339.91620756797226,1501
-337.35137121618743,1370
-334.7872437898774,1377
-332.22382510328725,1592
-329.66111497058273,1395
-327.09911320585127,1002
-324.53781962310075,933
-321.9772340362607,879
-319.4173562591816,891
-316.8581861056348,877
-314.2997233893127,885
-311.7419679238294,970
-309.1849195227194,1028
-306.62857799943856,1123
-304.0729431673641,1012
-301.51801483979375,1082
-298.963792829947,1236
-296.41027695096386,1409
-293.85746701590574,1590
-291.3053628377552,1594
-288.7539642294155,1547
-286.2032710037115,1753
-283.65328297338897,2376
-281.1039999511146,2574
-278.5554217494762,2760
-276.007548180983,1895
-273.4603790580651,1271
-270.9139141930734,1415
-268.3681533982807,1700
-265.8230964858798,2005
-263.27874326798565,1695
-260.7350935566336,1587
-258.1921471637804,1962
-255.6499039013039,2366
-253.10836358100266,1646
-250.56752601459698,1706
-248.02739101372765,2080
-245.48795838995704,2377
-242.94922795476816,2041
-240.41119951956557,1416
-237.8738728956746,1769
-235.33724789434166,2084
-232.80132432673452,1968
-230.2661020039418,1784
-227.73158073697357,1878
-225.19776033676033,2267
-222.66464061415422,2317
-220.1322213799284,1988
-217.60050244477725,1675
-215.06948361931552,2282
-212.53916471408013,3446
-210.00954553952818,4001
-207.48062590603843,2693
-204.9524056239104,1940
-202.4248845033651,2187
-199.8980623545441,2821
-197.37193898751036,3132
-194.84651421224817,2215
-192.32178783866232,1997
-189.79775967657952,2627
-187.27442953574644,3565
-184.7517972258321,4026
-182.2298625564256,2920
-179.7086253370378,2678
-177.18808537710026,3374
-174.66824248596583,3965
-172.14909647290835,4095
-169.6306471471229,3253
-167.11289431772548,2619
-164.59583779375328,2440
-162.07947738416453,3210
-159.5638128978386,4351
-157.04884414357605,4127
-154.53457093009854,3705
-152.02099306604828,3330
-149.50811035998936,3069
-146.99592262040665,3559
-144.48442965570587,4939
-141.97363127421409,6910
-139.46352728417958,6914
-136.95411749377126,5357
-134.44540171107985,3861
-131.93737974411636,3040
-129.43005140081357,4168
-126.92341648902493,7617
-124.41747481652521,11805
-121.91222619101006,13206
-119.40767042009657,11196
-116.90380731132257,8240
-114.40063667214702,5562
-111.8981583099503,4493
-109.3963720320337,8917
-106.89527764561933,18936
-104.39487495785067,33115
-101.89516377579241,40060
-99.39614390642998,36577
-96.89781515667039,35028
-94.40017733334128,37665
-91.90323024319173,35860
-89.40697369289148,30739
-86.91140748903172,26158
-84.41653143812482,31358
-81.92234534660395,51393
-79.42884902082358,65025
-76.93604226705907,65025
-74.4439248915071,65025
-71.95249670028534,65025
-69.46175749943245,65025
-66.97170709490854,65025
-64.48234529259423,65025
-61.99367189829195,65025
-59.50568671772464,65025
-57.01838955653636,65025
-54.53178022029283,65025
-52.045858514480074,65025
-49.560624244506016,65025
-47.07607721569923,65025
-44.59221723330904,65025
-42.10904410250669,43961
-39.62655762838392,31267
-37.14475761595372,33015
-34.66364387015028,37646
-32.18321619582866,50267
-29.70347439776515,65025
-27.224418280657005,65025
-24.74604764912317,65025
-22.26836230770266,65025
-19.7913620608565,65025
-17.315046712966478,65025
-14.83941606833514,65025
-12.36446993118659,65025
-9.89020810566592,65025
-7.416630395839093,65025
-4.94373660569363,65025
-2.471526539137585,65025
-6.821210263296962E-13,65025
2.47084320796705,65025
4.941003281093458,65025
7.410480415786196,65025
9.879274808531363,65025
12.347386655893956,65025
14.814816154518212,65025
17.28156350112681,65025
19.74762889252179,65025
22.21301252558385,31682
24.67771459727237,14050
27.141735304626195,17352
29.605074844762612,18133
32.06773341487792,13865
34.52971121224755,12451
36.99100843422559,15710
39.45162527824516,15646
41.91156194181792,12871
44.370818622535126,10268
46.82939551806646,10677
49.287292826160524,11872
51.74451074464503,11634
54.201049471426245,9265
56.65690920448981,7304
59.112090141899785,7330
61.56659248179983,6490
64.02041642241159,5748
66.4735621620365,6852
68.92602989905402,7772
71.37781983192338,8304
73.82893215918205,8213
76.27936707944684,7652
78.72912479141326,7521
81.17820549385567,8241
83.62660938562783,8150
86.07433666566146,7753
88.5213875329681,5188
90.96776218663751,4515
93.41346082583925,4504
95.85848364982041,4887
98.30283085790859,7412
100.7465026495089,7842
103.18949922410604,6339
105.63182078126385,4881
108.07346752062438,4470
110.51443964190923,3288
112.95473734491827,3677
115.39436082953114,4250
117.83331029570547,5182
120.27158594347827,4168
122.7091879729652,3428
125.1461165843615,3627
127.58237197794062,4650
130.01795435405518,4657
132.4528639131364,4050
134.88710085569494,4590
137.32066538231982,4711
139.75355769367923,3853
142.1857779905207,3319
144.61732647366978,3691
147.04820334403132,3403
149.47840880258934,2641
151.90794305040674,3336
154.33680628862487,3581
156.76499871846443,3234
159.19252054122433,3310
161.61937195828352,3654
164.04555317109896,4285
166.47106438120693,4385
168.89590579022217,4419
171.320077599839,4792
173.7435800118302,5537
176.16641322804742,5752
178.58857745042144,5341
181.01007288096173,5726
183.43089972175687,6223
185.85105817497413,5553
188.27054844285988,5267
190.6893707277394,5579
193.10752523201643,5884
195.5250121581745,5893
197.9418317087751,5405
200.3579840864594,5837
202.7734694939469,6258
205.18828813403627,5846
207.6024402096051,5827
210.01592592360964,5863
212.42874547908548,5730
214.84089907914665,5897
217.2523869269868,6141
219.66320922587727,5708
222.0733661791695,5539
224.48285799029293,5599
226.8916848627572,5855
229.29984700014882,5803
231.7073446061355,5891
234.11417788446204,5886
236.520347038953,6211
238.92585227351185,6249
241.33069379212054,6030
243.73487179884035,5980
246.1383864978112,6286
248.541238093252,6593
250.9434267894609,6448
253.34495279081432,6143
255.74581630176783,5797
258.1460175268563,5618
260.54555667069314,5892
262.9444339379703,6404
265.3426495334594,6519
267.7402036620107,6554
270.1370965285529,6060
272.53332833809407,5880
274.9288992957214,5979
277.32380960660055,6236
279.718059475976,5956
282.1116491091717,5341
284.5045787115897,5323
286.89684848871195,5230
289.2884586460981,5403
291.67940938938807,5724
294.0697009242996,5581
296.4593334566299,5488
298.84830719225477,5681
301.23662233712923,5605
303.6242790972866,5495
306.01127767884,5447
308.39761828798066,5521
310.78330113097934,5321
313.16832641418534,4996
315.5526943440269,5130
317.9364051270112,5407
320.3194589697242,5439
322.70185607883093,5183
325.0835966610754,5198
327.4646809232805,5105
329.8451090723478,5192
332.2248813152577,5020
334.6039978590701,5016
336.9824589109231,4848
339.36026467803447,4827
341.7374153677,4900
344.113911187295,5013
346.48975234427337,4900
348.8649390461686,4894
351.2394715005918,4883
353.61334991523415,4791
355.9865744978655,4799
358.35914545633375,4807
360.73106299856715,4810
363.10232733257146,5062
365.47293866643247,5001
367.84289720831396,4837
370.2122031664593,4856
372.5808567491905,4833
374.9488581649083,4747
377.31620762209275,4627
379.6829053293021,4781
382.0489514951745,4799
384.4143463284262,4859
386.7790900378528,4743
389.14318283232853,4738
391.50662492080653,4890
393.86941651231916,5129
396.23155781597745,5497
398.5930490409713,5233
400.9538903965696,4941
403.3140820921202,4910
405.6736243370498,4814
408.03251734086336,4745
410.3907613131465,4636
412.74835646356166,4650
415.10530300185144,4735
417.4616011378372,4835
419.81725108141893,4645
422.1722530425758,4594
424.5266072313656,4805
426.880313857925,4697
429.2333731324701,4587
431.58578526529516,4608
433.9375504667738,4582
436.2886689473588,4622
438.63914091758113,4563
440.9889665880513,4517
443.33814616945835,4452
445.68667987257015,4613
448.03456790823395,4605
450.3818104873759,4474
452.72840782100013,4562
455.07436012019105,4557
457.41966759611057,4501
459.7643304600007,4547
462.10834892318155,4474
464.4517231970525,4642
466.79445349309174,4543
469.1365400228566,4478
471.4779829979826,4494
473.81878263018564,4568
476.15893913125876,4692
478.4984527130747,5019
480.8373235875855,4693
483.17555196682144,4735
485.5131380628919,4841
487.8500820879857,4851
490.1863842543697,4959
492.52204477439034,5374
494.8570638604725,5655
497.1914417251204,6047
499.52517858091653,6301
501.85827464052306,6427
504.19073011668036,6487
506.5225452222086,6402
508.85372017000566,6999
511.18425517304956,7272
513.514150444396,8730
515.8434061971808,10596
518.1720226446176,11092
520.4999999999999,10887
522.8273384766991,10118
525.1540382881666,9150
527.480099647932,7879
529.8055227696037,6247
532.1303078668694,5325
534.454455153496,5082
536.777964843328,4859
539.1008371502907,4771
541.4230722883866,4879
543.744670471698,4814
546.0656319143858,4713
548.3859568306899,4784
550.7056454349294,4988
553.0246979415016,5186
555.3431145648834,4980
557.6608955196306,4670
559.978041020377,4665
562.2945512818363,4694
564.6104265188006,4573
566.9256669461412,4480
569.2402727788082,4693
571.5542442318302,4815
573.8675815203156,4622
576.1802848594508,4586
578.4923544645015,4647
580.8037905508126,4587
583.114593333807,4518
585.4247630289875,4594
587.7342998519354,4758
590.0432040183106,4803
592.3514757438526,4552
594.6591152443794,4597
596.9661227357875,4686
599.2724984340531,4693
601.578242555231,4537
603.8833553154542,4502
606.1878369309362,4558
608.4916876179676,4444
610.7949075929192,4572
613.0974970722403,4565
615.3994562724587,4358
617.7007854101818,4440
620.0014847020951,4366
622.3015543649641,4523
624.6009946156324,4567
626.8998056710224,4483
629.1979877481361,4446
631.4955410640538,4401
633.7924658359349,4478
636.0887622810175,4507
638.3844306166192,4412
640.6794710601358,4514
642.9738838290426,4495
645.2676691408932,4653
647.5608272133207,4681
649.853358264037,4615
652.1452625108324,4562
654.4365401715764,4648
656.7271914642178,4751
659.0172166067838,4729
661.3066158173809,4563
663.5953893141935,4485
665.8835373154867,4530
668.1710600396028,4707
670.4579577049639,4708
672.7442305300709,4510
675.0298787335033,4520
677.3149025339197,4493
679.599302150058,4590
681.8830778007342,4697
684.1662297048437,4610
686.4487580813608,4567
688.7306631493387,4624
691.0119451279091,4665
693.2926042362834,4571
695.5726406937516,4497
697.8520547196814,4566
700.1308465335215,4666
702.4090163547982,4649
704.6865644031171,4564
706.9634908981619,4577
709.2397960596965,4527
711.5154801075631,4461
713.7905432616823,4531
716.0649857420548,4596
718.3388077687592,4442
720.612009561953,4563
722.8845913418733,4356
725.1565533288352,4460
727.427895743234,4435
729.6986188055427,4526
731.9687227363137,4581
734.238207756178,4508
736.5070740858458,4475
738.7753219461066,4495
741.0429515578281,4584
743.3099631419569,4625
745.5763569195191,4459
747.8421331116193,4321
750.1072919394409,4564
752.3718336242467,4568
754.6357583873777,4585
756.8990664502545,4479
759.1617580343765,4505
761.423833361321,4513
763.6852926527457,4571
765.9461361303862,4533
768.206364016058,4492
770.4659765316536,4594
772.7249738991469,4632
774.9833563405886,4468
777.2411240781092,4469
779.4982773339183,4496
781.7548163303044,4590
784.010741289634,4653
786.2660524343538,4709
788.5207499869881,4911
790.7748341701416,4677
793.0283052064964,4746
795.2811633188143,4610
797.5334087299362,4575
799.7850416627813,4525
802.0360623403484,4675
804.2864709857143,4899
806.5362678220353,4831
808.7854530725468,4698
811.0340269605625,4725
813.2819897094754,4801
815.5293415427581,4741
817.77608268396,4652
820.0222133567116,4598
822.2677337847211,4913
824.5126441917765,5000
826.7569448017433,4706
829.0006358385675,4535
831.2437175262731,4576
833.4861900889629,4464
835.7280537508192,4553
837.9693087361026,4547
840.2099552691533,4557
842.4499935743896,4475
844.689423876309,4574
846.9282463994886,4523
849.1664613685833,4476
851.4040690083276,4396
853.6410695435349,4470
855.877463199097,4560
858.1132501999847,4611
860.3484307712487,4536
862.5830051380175,4628
864.8169735254988,4599
867.0503361589791,4671
869.2830932638243,4659
871.5152450654786,4480
873.7467917894654,4708
875.9777336613873,4731
878.2080709069252,4715
880.4378037518389,4599
882.666932421968,4715
884.8954571432301,4939
887.1233781416219,4841
889.3506956432192,4716
891.5774098741766,4549
893.803521060728,4582
896.0290294291852,4694
898.2539352059397,4676
900.4782386174619,4763
902.7019398903011,4731
904.925039251085,4597
907.147536926521,4522
909.3694331433943,4599
911.59072812857,4687
913.8114221089921,4633
916.0315153116827,4622
918.2510079637437,4567
920.4699002923547,4649
922.6881925247761,4698
924.905884888345,4453
927.1229776104793,4551
929.3394709186747,4571
931.555365040506,4485
933.7706602036275,4529
935.9853566357709,4725
938.1994545647489,4904
940.4129542184515,4701
942.6258558248488,4557
944.8381596119883,4868
947.0498658079974,4838
949.2609746410825,4781
951.4714863395287,4687
953.6814011316998,4712
955.8907192460387,4665
958.0994409110671,4704
960.3075663553858,4897
962.5150958076741,4943
964.7220294966913,4613
966.928367651274,4631
969.1341105003388,4772
971.3392582728806,4658
973.5438111979742,4723
975.747769504772,4645
977.9511334225061,4750
980.153903180487,4705
982.3560790081052,4602
984.5576611348289,4487
986.7586497902058,4530
988.9590452038618,4569
991.158847605503,4709
993.3580572249133,4850
995.5566742919558,4642
997.7546990365728,4429
999.952131688785,4423
1002.1489724786926,4386
1004.3452216364743,4446
1006.5408793923874,4233
1008.7359459767691,4184
1010.9304216200343,4306
1013.1243065526781,4358
1015.3176010052733,4168
1017.510305208472,4357
1019.7024193930064,4580
1021.8939437896848,4654
1024.0848786293977,4315
1026.2752241431122,4207
1028.4649805618747,4303
1030.6541481168115,4249
1032.842727039127,4177
1035.0307175601051,4218
1037.2181199111074,4153
1039.4049343235752,4182
1041.591161029029,4289
1043.7768002590683,4210
1045.9618522453698,4211
1048.1463172196918,4229
1050.3301954138697,4265
1052.513487059818,4202
1054.69619238953,4131
1056.8783116350783,4260
1059.0598450286152,4399
1061.2407928023704,4233
1063.4211551886528,4240
1065.6009324198508,4257
1067.780124728432,4198
1069.9587323469414,4207
1072.1367555080046,4220
1074.314194444325,4107
1076.4910493886855,4284
1078.667320573947,4090
1080.843008233051,4206
1083.0181125990161,4211
1085.1926339049414,4068
1087.3665723840027,4225
1089.5399282694575,4125
1091.7127017946405,4148
1093.8848931929647,4129
1096.0565026979243,4226
1098.2275305430899,4036
1100.3979769621128,4069
1102.567842188722,4201
1104.737126456726,4169
1106.9058300000124,4204
1109.0739530525475,4196
1111.2414958483764,4159
1113.4084586216231,4137
1115.5748416064907,4082
1117.7406450372605,4167
1119.9058691482942,4129
1122.0705141740304,4170
1124.2345803489884,4171
1126.3980679077658,4137
1128.5609770850388,4267
1130.7233081155623,4141
1132.8850612341707,4118
1135.0462366757774,4053
1137.2068346753745,4274
1139.3668554680326,4208
1141.526299288901,4127
1143.68516637321,4166
1145.8434569562655,4175
1148.001171273455,4131
1150.158309560244,4159
1152.3148720521767,4178
1154.470858984876,4217
1156.626270594044,4262
1158.7811071154629,4093
1160.9353687849912,4196
1163.089055838569,4275
1165.242168512213,4319
1167.3947070420209,4225
1169.5466716641677,4144
1171.6980626149075,4277
1173.8488801305748,4277
1175.9991244475814,4227
1178.1487958024186,4219
1180.2978944316555,4212
1182.4464205719428,4136
1184.5943744600072,4044
1186.7417563326567,4083
1188.8885664267755,4149
1191.0348049793297,4042
1193.1804722273619,4094
1195.325568407995,4149
1197.4700937584303,4187
1199.614048515948,4101
1201.7574329179074,4079
1203.900247201746,4040
1206.042491604982,4113
1208.1841663652099,4097
1210.3252717201053,4047
1212.465807907422,4237
1214.6057751649923,4233
1216.7451737307279,4190
1218.8840038426192,4245
1221.0222657387353,4234
1223.1599596572241,4306
1225.2970858363137,4284
1227.4336445143094,4327
1229.5696359295966,4241
1231.705060320639,4231
1233.8399179259786,4314
1235.9742089842384,4333
1238.107933734118,4246
1240.2410924143974,4191
1242.373685263935,4254
1244.5057125216676,4344
1246.6371744266116,4356
1248.7680712178621,4364
1250.898403134593,4424
1253.028170416058,4368
1255.1573733015875,4198
1257.2860120305932,4215
1259.4140868425648,4340
1261.54159797707,4264
1263.6685456737569,4463
1265.7949301723515,4425
1267.9207517126597,4235
1270.046010534565,4459
1272.1707068780306,4434
1274.2948409830983,4380
1276.4184130898889,4339
1278.541423438603,4261
1280.6638722695184,4383
1282.785759822993,4397
1284.9070863394636,4417
1287.0278520594447,4408
1289.1480572235314,4565
1291.2677020723963,4432
1293.3867868467923,4567
1295.5053117875495,4486
1297.623277135579,4607
1299.740683131868,4612
1301.8575300174857,4559
1303.973818033578,4743
1306.0895474213703,4724
1308.2047184221678,4673
1310.3193312773528,4780
1312.4333862283888,4687
1314.5468835168163,4594
1316.659823384255,4637
1318.7722060724045,4580
1320.8840318230418,4488
1322.9953008780249,4632
1325.1060134792888,4674
1327.2161698688478,4681
1329.3257702887959,4679
1331.4348149813054,4538
1333.5433041886276,4562
1335.6512381530933,4596
1337.7586171171101,4479
1339.8654413231675,4653
1341.9717110138317,4636
1344.0774264317488,4406
1346.1825878196432,4386
1348.2871954203192,4650
1350.3912494766587,4471
1352.4947502316231,4511
1354.5976979282532,4517
1356.7000928096686,4500
1358.8019351190665,4489
1360.9032250997243,4466
1363.0039629949988,4402
1365.1041490483235,4475
1367.2037835032133,4502
1369.3028666032606,4459
1371.401398592137,4538
1373.4993797135926,4552
1375.5968102114575,4523
1377.6936903296396,4517
1379.7900203121262,4566
1381.8858004029835,4544
1383.9810308463561,4532
1386.075711886469,4523
1388.1698437676241,4568
1390.2634267342032,4687
1392.356461030667,4651
1394.4489469015557,4532
1396.5408845914872,4566
1398.6322743451592,4602
1400.7231164073469,4517
1402.813411022907,4477
1404.903158436773,4613
1406.9923588939578,4669
1409.0810126395531,4694
1411.1691199187303,4554
1413.2566809767386,4575
1415.343696058907,4767
1417.4301654106425,4590
1419.5160892774315,4623
1421.6014679048399,4642
1423.6863015385125,4589
1425.7705904241707,4512
1427.8543348076178,4721
1429.9375349347342,4563
1432.0201910514802,4564
1434.102303403894,4702
1436.1838722380944,4699
1438.2648978002767,4607
1440.3453803367174,4761
1442.4253200937692,4697
1444.5047173178677,4912
1446.5835722555234,4871
1448.6618851533285,4805
1450.739656257952,4866
1452.8168858161434,4863
1454.8935740747306,4868
1456.96972128062,4869
1459.045327680797,5021
1461.120393522327,5127
1463.1949190523528,5041
1465.2689045180973,4956
1467.3423501668608,5103
1469.415256246024,5159
1471.4876230030463,5099
1473.559450685465,5190
1475.6307395408976,5318
1477.7014898170391,5459
1479.771701761665,5384
1481.8413756226287,5421
1483.9105116478618,5365
1485.9791100853772,5388
1488.0471711832643,5482
1490.1146951896926,5486
1492.1816823529098,5518
1494.2481329212433,5530
1496.3140471430984,5568
1498.3794252669609,5511
1500.4442675413939,5617
1502.5085742150404,5610
1504.572345536622,5774
1506.6355817549388,5700
1508.6982831188702,5794
1510.7604498773744,5743
1512.8220822794883,5799
1514.8831805743293,5678
1516.9437450110909,5833
1519.003775839048,5906
1521.0632733075522,5739
1523.1222376660367,5890
1525.1806691640113,5905
1527.2385680510652,5947
1529.2959345768668,5930
1531.3527689911643,6079
1533.4090715437833,6114
1535.4648424846291,6142
1537.5200820636855,6108
1539.5747905310159,6290
1541.6289681367616,6188
1543.6826151311434,6304
1545.7357317644614,6394
1547.7883182870937,6474
1549.8403749494987,6530
1551.8919020022113,6513
1553.9428996958477,6504
1555.9933682811015,6705
1558.0433080087469,6713
1560.0927191296346,6775
1562.1416018946961,6615
1564.1899565549415,6685
1566.2377833614592,6649
1568.2850825654164,6642
1570.3318544180606,6570
1572.3780991707158,6409
1574.423817074788,6233
1576.4690083817595,6182
1578.5136733431923,5913
1580.5578122107272,5899
1582.601425236085,5894
1584.6445126710646,5750
1586.6870747675434,5620
1588.7291117774776,5477
1590.7706239529034,5382
1592.8116115459347,5351
1594.8520748087658,5241
1596.8920139936686,5218
1598.9314293529933,5164
1600.9703211391711,5090
1603.008689604711,5066
1605.0465350022005,4940
1607.0838575843068,4863
1609.1206576037753,4862
1611.1569353134305,4866
1613.1926909661765,4842
1615.2279248149953,4919
1617.2626371129481,4807
1619.2968281131757,4738
1621.3304980688963,4798
1623.3636472334088,4745
1625.39627586009,4783
1627.428384202396,4672
1629.459972513861,4706
1631.4910410480993,4723
1633.5215900588028,4651
1635.551619799744,4614
1637.5811305247717,4784
1639.6101224878166,4697
1641.6385959428862,4597
1643.6665511440683,4557
1645.693988345528,4537
1647.7209078015112,4657
1649.7473097663405,4642
1651.7731944944203,4673
1653.7985622402307,4834
1655.823413258333,4689
1657.847747803366,4569
1659.8715661300494,4590
1661.8948684931793,4610
1663.9176551476316,4594
1665.9399263483624,4574
1667.9616823504057,4646
1669.982923408873,4531
1672.0036497789574,4513
1674.0238617159293,4674
1676.043559475138,4532
1678.0627433120121,4641
1680.081413482059,4387
1682.0995702408654,4457
1684.117213844096,4541
1686.134344547495,4475
1688.1509626068864,4549
1690.1670682781705,4527
1692.182661817329,4479
1694.1977434804217,4634
1696.2123135235875,4667
1698.226372203043,4626
1700.2399197750851,4642
1702.2529564960905,4737
1704.2654826225112,4590
1706.277498410882,4550
1708.2890041178139,4486
1710.2999999999988,4538
1712.3104863142066,4612
1714.3204633172854,4605
1716.329931266163,4625
1718.3388904178469,4585
1720.3473410294214,4635
1722.3552833580516,4550
1724.3627176609807,4559
1726.3696441955308,4512
1728.3760632191033,4469
1730.3819749891782,4545
1732.3873797633146,4519
1734.3922777991502,4524
1736.3966693544012,4505
1738.4005546868639,4381
1740.4039340544127,4501
1742.406807715001,4551
1744.4091759266616,4614
1746.4110389475054,4491
1748.4123970357223,4507
1750.413250449582,4593
1752.4135994474318,4402
1754.4134442876993,4495
1756.4127852288902,4495
1758.4116225295893,4581
1760.4099564484595,4400
1762.407787244244,4477
1764.405115175764,4493
1766.4019405019203,4517
1768.3982634816916,4551
1770.3940843741357,4595
1772.3894034383907,4446
1774.3842209336717,4396
1776.378537119274,4501
1778.372352254571,4408
1780.3656665990156,4437
1782.3584804121397,4451
1784.3507939535534,4488
1786.3426074829463,4491
1788.3339212600863,4444
1790.3247355448211,4500
1792.3150505970766,4403
1794.3048666768573,4349
1796.2941840442477,4456
1798.2830029594106,4450
1800.2713236825884,4522
1802.2591464741004,4455
1804.2464715943465,4449
1806.2332993038058,4449
1808.2196298630352,4445
1810.2054635326708,4501
1812.190800573428,4471
1814.175641246101,4555
1816.1599858115628,4408
1818.1438345307652,4533
1820.127187664738,4427
1822.1100454745924,4542
1824.092408221516,4559
1826.0742761667766,4559
1828.055649571721,4513
1830.0365286977735,4448
1832.0169138064398,4532
1833.9968051593014,4496
1835.9762030180214,4480
1837.9551076443408,4453
1839.9335193000788,4520
1841.9114382471344,4419
1843.888864747485,4511
1845.8657990631878,4543
1847.842241456378,4488
1849.8181921892697,4479
1851.7936515241558,4533
1853.7686197234098,4451
1855.7430970494815,4460
1857.7170837649014,4525
1859.6905801322787,4466
1861.6635864143004,4441
1863.6361028737338,4530
1865.608129773424,4574
1867.5796673762961,4507
1869.5507159453537,4564
1871.521275743678,4557
1873.4913470344313,4580
1875.4609300808534,4485
1877.4300251462632,4621
1879.3986324940588,4631
1881.366752387717,4509
1883.3343850907936,4600
1885.3015308669228,4474
1887.268189979819,4459
1889.2343626932739,4524
1891.2000492711595,4392
1893.1652499774254,4412
1895.1299650761011,4495
1897.0941948312952,4577
1899.0579395071945,4505
1901.0211993680641,4505
1902.98397467825,4587
1904.9462657021745,4549
1906.9080727043415,4438
1908.869395949332,4653
1910.8302357018065,4566
1912.790592226504,4519
1914.7504657882428,4460
1916.7098566519212,4621
1918.6687650825133,4385
1920.6271913450764,4525
1922.5851357047422,4540
1924.5425984267245,4482
1926.499579776314,4509
1928.4560800188833,4570
1930.4120994198802,4563
1932.367638244833,4585
1934.32269675935,4538
1936.2772752291175,4552
1938.231373919899,4562
1940.1849930975404,4661
1942.1381330279637,4611
1944.0907939771696,4631
1946.0429762112412,4478
1947.9946799963363,4562
1949.9459055986945,4494
1951.896653284633,4506
1953.8469233205478,4505
1955.7967159729142,4532
1957.7460315082863,4553
1959.6948701932974,4499
1961.6432322946594,4622
1963.5911180791632,4609
1965.5385278136787,4590
1967.4854617651545,4518
1969.4319202006182,4510
1971.377903387176,4543
1973.3234115920136,4604
1975.268445082395,4462
1977.2130041256642,4583
1979.1570889892423,4535
1981.1006999406304,4556
1983.04383724741,4474
1984.986501177238,4607
1986.928691997853,4522
1988.8704099770712,4555
1990.811655382789,4635
1992.7524284829801,4573
1994.692729545698,4546
1996.6325588390755,4547
1998.5719166313224,4540
2000.5108031907307,4542
2002.4492187856677,4446
2004.387163684583,4552
2006.3246381560011,4554
2008.2616424685298,4425
2010.1981768908527,4527
2012.1342416917332,4564
2014.069837140014,4513
2016.0049635046162,4513
2017.9396210545406,4385
2019.8738100588666,4500
2021.8075307867502,4480
2023.740783507431,4594
2025.6735684902228,4493
2027.6058860045214,4514
2029.5377363198004,4677
2031.4691197056118,4528
2033.4000364315875,4346
2035.3304867674374,4578
2037.260470982952,4466
2039.189989347998,4383
2041.1190421325232,4573
2043.047629606554,4436
2044.9757520401945,4446
2046.9034097036288,4555
2048.8306028671195,4572
2050.7573318010086,4501
2052.683596775716,4526
2054.609398061742,4499
2056.5347359296647,4432
2058.4596106501403,4431
2060.384022493906,4523
2062.3079717317764,4556
2064.231458634646,4515
2066.1544834734873,4575
2068.077046519352,4415
2069.99914804337,4576
2071.9207883167524,4534
2073.8419676107865,4616
2075.7626861968406,4450
2077.6829443463607,4546
2079.6027423308715,4570
2081.522080421977,4463
2083.440958891362,4476
2085.359378010786,4504
2087.2773380520907,4575
2089.194839287196,4530
2091.111881988101,4450
2093.0284664268825,4454
2094.9445928756973,4540
2096.86026160678,4620
2098.775472892446,4556
2100.690227005088,4486
2102.604524217178,4561
2104.5183648012676,4615
2106.431749029985,4569
2108.34467717604,4563
2110.2571495122206,4575
2112.169166311393,4576
2114.080727846503,4578
2115.9918343905747,4502
2117.902486216711,4453
2119.8126835980956,4490
2121.722426807987,4456
2123.6317161197285,4462
2125.5405518067364,4630
2127.448934142509,4571
2129.356863400624,4518
2131.264339854737,4491
2133.1713637785815,4567
2135.077935445972,4507
2136.9840551308002,4459
2138.889723107037,4538
2140.7949396487334,4545
2142.699705030018,4453
2144.6040195250994,4621
2146.507883408264,4537
2148.4112969538774,4469
2150.3142604363848,4567
2152.2167741303097,4527
2154.1188383102535,4475
2156.0204532508997,4456
2157.9216192270064,4429
2159.822336513414,4567
2161.7226053850413,4508
2163.622426116884,4508
2165.5217989840185,4546
2167.4207242616,4665
2169.319202224862,4522
2171.2172331491165,4543
2173.1148173097563,4586
2175.0119549822507,4578
2176.90864644215,4490
2178.8048919650823,4550
2180.7006918267534,4589
2182.596046302952,4484
2184.4909556695407,4457
2186.3854202024645,4408
2188.279440177746,4474
2190.173015871487,4598
2192.066147559868,4489
2193.958835519149,4516
2195.851080025667,4368
2197.7428813558417,4607
2199.6342397861667,4532
2201.5251555932186,4560
2203.415629053651,4513
2205.3056604441986,4459
2207.19525004167,4619
2209.084398122958,4531
2210.9731049650327,4555
2212.861370844941,4565
2214.749196039812,4541
2216.636580826851,4542
2218.523525483344,4665
2220.410030286655,4651
2222.296095514226,4610
2224.1817214435805,4608
2226.066908352319,4609
2227.951656518121,4492
2229.835966218746,4498
2231.71983773203,4480
2233.6032713358913,4569
2235.486267308324,4557
2237.3688259274036,4609
2239.2509474712824,4618
2241.132632218193,4576
2243.013880446447,4681
2244.8946924344323,4661
2246.7750684606203,4588
2248.6550088035574,4566
2250.534513741871,4581
2252.413583554265,4550
2254.292218519526,4617
2256.170418916517,4484
2258.0481850241786,4651
2259.925517121534,4471
2261.8024154876825,4477
2263.678880401803,4448
2265.5549121431536,4655
2267.430510991071,4608
2269.305677224971,4592
2271.180411124348,4466
2273.0547129687766,4459
2274.9285830379076,4516
2276.8020216114737,4418
2278.6750289692845,4554
2280.5476053912294,4610
2282.4197511572766,4645
2284.2914665474727,4565
2286.162751841943,4560
2288.0336073208937,4535
2289.904033264608,4597
2291.774029953448,4608
2293.6435976678554,4547
2295.5127366883517,4497
2297.381447295534,4594
2299.2497297700825,4486
2301.1175843927526,4548
2302.9850114443825,4482
2304.852011205885,4508
2306.7185839582553,4369
2308.5847299825664,4539
2310.4504495599676,4578
2312.3157429716925,4416
2314.1806104990483,4477
2316.0450524234247,4479
2317.9090690262888,4454
2319.772660589186,4411
2321.635827393742,4367
2323.498569721661,4451
2325.3608878547248,4549
2327.2227820747967,4508
2329.0842526638157,4471
2330.945299903803,4571
2332.805924076857,4392
2334.6661254651535,4523
2336.525904350951,4359
2338.3852610165827,4341
2340.244195744464,4437
2342.102708817088,4393
2343.9608005170253,4450
2345.8184711269287,4400
2347.675720929526,4497
2349.532550207628,4519
2351.38895924412,4546
2353.24494832197,4493
2355.100517724223,4469
2356.955667734004,4464
2358.810398634514,4343
2360.664710709037,4592
2362.5186042409337,4545
2364.3720795136437,4399
2366.225136810686,4445
2368.0777764156583,4458
2369.929998612237,4422
2371.7818036841777,4294
2373.633191915315,4385
2375.484163589562,4421
2377.3347189909114,4373
2379.184858403434,4485
2381.03458211128,4565
2382.8838903986775,4434
2384.732783549936,4427
2386.5812618494406,4451
2388.4293255816588,4435
2390.2769750311327,4412
2392.1242104824883,4359
2393.971032220427,4470
2395.8174405297295,4490
2397.6634356952563,4424
2399.509018001947,4368
2401.3541877348193,4439
2403.1989451789705,4387
2405.043290619576,4394
2406.8872243418905,4338
2408.730746631247,4433
2410.5738577730594,4455
2412.4165580528183,4386
2414.258847756095,4400
2416.100727168537,4328
2417.9421965758734,4446
2419.783256263912,4439
2421.623906518538,4417
2423.4641476257157,4335
2425.303979871491,4282
2427.143403541984,4472
2428.9824189233977,4535
2430.821026302012,4378
2432.6592259641866,4494
2434.497018196361,4474
2436.33440328505,4342
2438.171381516851,4328
2440.00795317844,4355
2441.844118556569,4416
2443.6798779380724,4277
2445.5152316098606,4309
2447.3501798589255,4406
2449.1847229723357,4402
2451.0188612372403,4437
2452.8525949408663,4342
2454.6859243705203,4365
2456.518849813587,4292
2458.3513715575314,4539
2460.183489889895,4402
2462.015205098301,4344
2463.8465174704493,4343
2465.67742729412,4352
2467.5079348571717,4546
2469.338040447542,4437
2471.1677443532476,4457
2472.9970468623833,4450
2474.825948263123,4257
2476.6544488437207,4431
2478.482548892508,4356
2480.310248697896,4472
2482.137548548374,4438
2483.9644487325118,4339
2485.790949538956,4442
2487.617051256433,4415
2489.44275417375,4388
2491.26805857979,4518
2493.0929647635157,4456
2494.917473013971,4379
2496.741583620276,4333
2498.5652968716304,4390
2500.3886130573137,4466
2502.2115324666834,4432
2504.0340553891765,4388
2505.856182114308,4461
2507.6779129316733,4435
2509.499248130945,4501
2511.3201880018764,4536
2513.140732834298,4451
2514.9608829181198,4395
2516.780638543331,4406
2518.6,4361
2520.418967578273,4266
2522.237541568376,4346
2524.0557222606144,4427
2525.8735099453706,4434
2527.6909049131086,4450
2529.507907454368,4423
2531.32451785977,4484
2533.140736420014,4407
2534.9565634258774,4437
2536.771999168218,4497
2538.5870439379714,4410
2540.4016980261526,4481
2542.2159617238544,4474
2544.02983532225,4507
2545.8433191125914,4565
2547.656413386209,4577
2549.4691184345115,4436
2551.2814345489874,4647
2553.093362021204,4565
2554.904901142808,4457
2556.716052205523,4495
2558.526815501153,4543
2560.3371913215824,4570
2562.147179958771,4593
2563.956781704761,4489
2565.7659968516705,4574
2567.5748256916986,4548
2569.3832685171224,4571
2571.1913256202984,4548
2572.9989972936614,4654
2574.806283829725,4550
2576.613185521084,4684
2578.4197026604074,4655
2580.2258355404483,4628
2582.031584454035,4683
2583.836949694077,4657
2585.6419315535613,4627
2587.4465303255533,4662
2589.2507463032002,4605
2591.0545797797245,4486
2592.8580310484303,4532
2594.6611004026995,4604
2596.463788135992,4696
2598.266094541849,4713
2600.0680199138874,4692
2601.869564545807,4645
2603.670728731383,4642
2605.4715127644704,4669
2607.2719169390048,4631
2609.071941548998,4578
2610.8715868885433,4591
2612.670853251811,4673
2614.469740933052,4652
2616.268250226594,4611
2618.0663814268455,4625
2619.864134828292,4687
2621.6615107255006,4677
2623.458509413115,4481
2625.2551311858597,4612
2627.0513763385347,4498
2628.8472451660223,4591
2630.6427379632833,4414
2632.4378550253564,4533
2634.232596647359,4524
2636.026963124488,4475
2637.8209547520187,4524
2639.6145718253065,4549
2641.407814639785,4571
2643.200683490966,4524
2644.9931786744414,4446
2646.7853004858807,4462
2648.577049221034,4484
2650.3684251757277,4386
2652.1594286458712,4476
2653.9500599274484,4507
2655.740319316525,4449
2657.5302071092437,4334
2659.3197236018286,4377
2661.10886909058,4389
2662.8976438718782,4408
2664.686048242183,4527
2666.4740824980327,4404
2668.2617469360443,4435
2670.0490418529134,4460
2671.8359675454153,4359
2673.622524310403,4352
2675.408712444811,4387
2677.1945322456495,4477
2678.979984010009,4314
2680.76506803506,4393
2682.5497846180497,4279
2684.334134056306,4389
2686.1181166472343,4253
2687.9017326883213,4223
2689.6849824771293,4338
2691.4678663113013,4266
2693.2503844885596,4260
2695.032537306705,4329
2696.8143250636167,4380
2698.5957480572542,4271
2700.3768065856534,4325
2702.1575009469316,4230
2703.937831439283,4266
2705.717798360982,4200
2707.4974020103837,4214
2709.276642685917,4174
2711.055520686095,4296
2712.834036309506,4226
2714.612189854819,4132
2716.389981620782,4169
2718.1674119062204,4221
2719.944481010041,4035
2721.721189231226,4318
2723.4975368688415,4245
2725.273524222027,4263
2727.0491515900053,4157
2728.824419272075,4084
2730.5993275676146,4126
2732.3738767760838,4260
2734.148067197016,4210
2735.921899130031,4113
2737.6953728748194,4201
2739.468488731156,4037
2741.2412469988926,4098
2743.0136479779617,4163
2744.785691968372,4317
2746.5573792702116,4201
2748.3287101836504,4187
2750.099685008934,4173
2751.870304046388,4178
2753.640567596418,4165
2755.4104759595057,4145
2757.1800294362156,4190
2758.949228327187,4241
2760.7180729331412,4188
2762.486563554877,4129
2764.254700493272,4112
2766.022484049284,4180
2767.789914523947,4072
2769.5569922183786,4045
2771.3237174337705,4084
2773.090090471394,4099
2774.8561116326036,4136
2776.6217812188274,4095
2778.3870995315756,4110
2780.1520668724356,4013
2781.9166835430747,4067
2783.6809498452394,4102
2785.444866080754,4204
2787.2084325515225,4138
2788.971649559527,4120
2790.73451740683,4013
2792.4970363955713,4006
2794.2592068279705,4077
2796.0210290063264,4112
2797.7825032330147,4040
2799.543629810493,4181
2801.304409041296,4105
2803.0648412280366,4109
2804.8249266734088,4087
2806.5846656801846,4076
2808.344058551212,4049
2810.1031055894246,4147
2811.8618070978273,4219
2813.6201633795085,4192
2815.378174737636,4190
2817.1358414754536,4177
2818.893163896285,4065
2820.6501423035334,4064
2822.4067770006814,4104
2824.1630682912883,4048
2825.9190164789957,4152
2827.6746218675207,4219
2829.429884760661,4057
2831.184805462294,4179
2832.9393842763743,4138
2834.693621506936,4152
2836.4475174580916,4076
2838.201072434034,4027
2839.954286739034,4157
2841.707160677441,4141
2843.459694553685,4008
2845.2118886722724,4193
2846.96374333779,4170
2848.7152588549034,4188
2850.4664355283567,4025
2852.217273662973,4225
2853.9677735636546,4171
2855.7179355353833,4053
2857.4677598832186,4056
2859.217246912299,4079
2860.9663969278427,4076
2862.715210235146,4012
2864.4636871395846,4079
2866.211827946614,4033
2867.9596329617652,4054
2869.7071024906536,4040
2871.4542368389684,4035
2873.20103631248,4064
2874.947501217038,4078
2876.6936318585695,4160
2878.4394285430812,4055
2880.1848915766604,4047
2881.9300212654707,4196
2883.6748179157553,4043
2885.4192818338374,4083
2887.1634133261173,3970
2888.907212699077,4052
2890.6506802592744,3999
2892.393816313348,4037
2894.1366211680142,4123
2895.8790951300693,3998
2897.621238506388,3956
2899.363051603925,3969
2901.1045347297118,4027
2902.8456881908596,4013
2904.58651229456,3939
2906.327007348081,4059
2908.067173658772,3996
2909.8070115340597,4063
2911.5465212814497,4010
2913.285703208527,4090
2915.0245576229563,3968
2916.7630848324807,4034
2918.5012851449196,3934
2920.2391588681758,4042
2921.976706310227,3940
2923.7139277791334,3943
2925.4508235830313,4136
2927.187394030137,3947
2928.923639428745,3975
2930.6595600872306,4098
2932.395156314046,4123
2934.1304284177218,4141
2935.8653767068713,4009
2937.6000014901815,4095
2939.3343030764227,4074
2941.068281774442,4165
2942.8019378931644,4064
2944.5352717415976,4110
2946.2682836288236,4130
2948.0009738640065,4024
2949.7333427563885,4065
2951.465390615289,4116
2953.1971177501086,3962
2954.9285244703265,4065
2956.6596110855,4105
2958.3903779052657,4038
2960.1208252393385,4137
2961.8509533975125,4076
2963.5807626896617,4063
2965.3102534257378,4058
2967.0394259157715,4018
2968.768280469873,3914
2970.496817398232,4116
2972.2250370111146,4065
2973.952939618869,3975
2975.6805255319196,4137
2977.4077950607707,4024
2979.134748516006,4016
2980.861386208289,4105
2982.587708448359,3979
2984.313715547037,3972
2986.039407815222,3994
2987.764785563891,4184
2989.489849104102,4191
2991.2145987469908,3975
2992.9390348037705,4107
2994.6631575857346,4104
2996.3869674042576,4093
2998.1104645707887,3984
2999.83364939686,4035
3001.5565221940783,3990
3003.2790832741334,3931
3005.0013329487924,3945
3006.7232715298996,3868
3008.4448993293804,4066
3010.166216659239,3976
3011.887223831558,3987
3013.607921158498,3947
3015.3283089522993,3994
3017.0483875252826,3981
3018.7681571898443,4064
3020.4876182584626,3977
3022.2067710436927,4014
3023.9256158581707,4044
3025.644153014609,4090
3027.362382825801,4023
3029.0803056046193,3995
3030.797921664012,3947
3032.5152313170106,3898
3034.2322348767225,3990
3035.9489326563353,3999
3037.665324969115,4020
3039.3814121284063,4058
3041.097194447633,4045
3042.812672240299,3955
3044.5278458199855,4001
3046.2427155003525,3907
3047.9572815951406,3986
3049.671544418167,3978
3051.38550428333,3982
3053.0991615046073,4020
3054.812516396051,4155
3056.5255692717974,4086
3058.2383204460575,4114
3059.9507702331257,3943
3061.662918947372,4101
3063.3747669032446,3936
3065.0863144152736,3943
3066.7975617980674,3968
3068.508509366309,3855
3070.219157434767,4044
3071.9295063182844,4035
3073.639556331785,3988
3075.3493077902704,3983
3077.058761008821,4024
3078.7679163025964,3977
3080.476773986837,3942
3082.1853343768594,3913
3083.89359778806,3961
3085.6015645359153,3900
3087.3092349359786,4013
3089.016609303884,3935
3090.7236879553434,4014
3092.4304712061476,4045
3094.136959372166,3936
3095.843152769349,3999
3097.5490517137237,3936
3099.2546565213966,3968
3100.959967508554,3973
3102.66498499146,3946
3104.3697092864577,4105
3106.0741407099695,3948
3107.778279578498,4014
3109.482126208622,3950
3111.1856809170004,3994
3112.8889440203716,4005
3114.5919158355528,4033
3116.294596679439,4009
3117.996986869006,4026
3119.6990867213062,4143
3121.4008965534726,4001
3123.102416682717,4151
3124.803647426329,4033
3126.5045891016784,4109
3128.205242026213,4006
3129.90560651746,4179
3131.605682893025,4024
3133.3054714705922,4032
3135.0049725679282,4050
3136.7041865028714,3984
3138.4031135933465,4024
3140.101754157353,4065
3141.800108512971,4077
3143.498176978357,4018
3145.1959598717494,3971
3146.8934575114636,3932
3148.5906702158954,3987
3150.2875983035183,3923
3151.9842420928853,3916
3153.680601902627,3972
3155.376678051456,4039
3157.07247085816,4019
3158.767980641609,3986
3160.463207720748,3980
3162.158152414606,3945
3163.8528150422862,4004
3165.5471959229726,3940
3167.2412953759303,4037
3168.9351137204976,4059
3170.628651276098,4038
3172.3219083622307,4009
3174.014885298474,4049
3175.707582404485,3908
3177.4000000000005,4054
3179.092138404835,3921
3180.7839979388846,4077
3182.47557892212,4111
3184.166881674594,3945
3185.8579065164386,3989
3187.5486537678626,4035
3189.2391237491547,4000
3190.9293167806827,3906
3192.6192331828934,3976
3194.3088732763117,3969
3195.998237381542,3913
3197.687325819268,3915
3199.376138910251,4008
3201.064676975334,3931
3202.7529403354347,4010
3204.4409293115523,4032
3206.1286442247647,3993
3207.816085396229,4013
3209.5032531471825,3947
3211.190147798936,3986
3212.8767696728846,3891
3214.5631190905015,3945
3216.2491963733373,3819
3217.9350018430214,3847
3219.6205358212637,3926
3221.305798629851,3893
3222.990790590651,3889
3224.6755120256103,3965
3226.359963256751,3955
3228.0441446061795,3956
3229.7280563960758,4003
3231.411698948703,4010
3233.0950725863995,3944
3234.778177631587,3861
3236.461014406761,4027
3238.1435832345005,4123
3239.8258844374595,4044
3241.507918338374,4025
3243.1896852600576,3971
3244.8711855254023,4001
3246.552419457381,3879
3248.233387379042,3994
3249.914089613516,3979
3251.59452648401,3934
3253.274698313813,3874
3254.95460542629,3990
3256.6342481448855,3912
3258.313626793125,3888
3259.9927416946084,3935
3261.6715931730196,4002
3263.3501815521176,3958
3265.0285071557437,3864
3266.706570307815,3977
3268.3843713323286,3848
3270.0619105533615,3910
3271.739188295068,3955
3273.4162048816834,4012
3275.0929606375184,3976
3276.769455886966,4027
3278.445690954498,4073
3280.1216661646613,4024
3281.797381842087,3954
3283.4728383114807,3893
3285.1480358976296,3886
3286.8229749253996,3966
3288.4976557197333,3823
3290.172078605655,3962
3291.846243908266,3919
3293.5201519527463,3847
3295.193803064357,3877
3296.8671975684374,3913
3298.5403357904024,3875
3300.21321805575,3842
3301.8858446900567,3928
3303.558216018975,3865
3305.23033236824,3987
3306.9021940636603,3951
3308.57380143113,3997
3310.2451547966184,4063
3311.916254486174,3930
3313.5871008259246,3914
3315.2576941420766,3946
3316.9280347609147,4031
3318.5981230088046,3918
3320.2679592121895,3844
3321.9375436975924,3839
3323.606876791612,3824
3325.27595882093,3926
3326.944790112305,3849
3328.6133709925753,3831
3330.2817017886573,3919
3331.949782827547,3891
3333.617614436319,3889
3335.2851969421245,3963
3336.952530672199,4016
3338.619615953853,4016
3340.286453114475,4028
3341.9530424815357,4002
3343.619384382583,4057
3345.2854791452437,4017
3346.951327097224,4027
3348.6169285663073,3877
3350.2822838803577,3965
3351.947393367319,3949
3353.61225735521,3926
3355.2768761721345,3912
3356.9412501462693,3933
3358.605379605873,3980
3360.2692648792827,3891
3361.9329062949146,3979
3363.596304181263,3830
