CollectionTime,7/10/2024 4:50:56 PM
ExposureUsed,3
CalibratedSpectrum
-962.7078968117929,529
-959.9714848408522,559
-957.2358232597828,568
-954.5009119013725,564
-951.7667505983302,561
-949.0333391832855,635
-946.3006774887896,602
-943.5687653473143,633
-940.837602591253,610
-938.1071890529199,597
-935.3775245645503,586
-932.6486089583007,609
-929.9204420662485,641
-927.1930237203925,629
-924.4663537526524,625
-921.7404319948689,602
-919.0152582788041,586
-916.2908324361409,648
-913.5671542984834,638
-910.8442236973568,590
-908.1220404642074,621
-905.4006044304027,618
-902.679915427231,635
-899.959973285902,569
-897.2407778375464,566
-894.5223289132158,581
-891.8046263438832,567
-889.0876699604426,602
-886.3714595937089,561
-883.6559950744183,627
-880.9412762332282,549
-878.2273029007168,579
-875.5140749073835,594
-872.8015920836489,578
-870.0898542598545,568
-867.3788612662631,552
-864.6686129330585,573
-861.9591090903457,595
-859.2503495681506,590
-856.5423341964203,594
-853.8350628050229,602
-851.1285352237478,617
-848.4227512823054,562
-845.7177108103272,599
-843.0134136373656,587
-840.3098595928943,591
-837.6070485063082,573
-834.9049802069229,601
-832.2036545239757,623
-829.5030712866244,602
-826.8032303239481,602
-824.1041314649472,594
-821.4057745385428,581
-818.7081593735775,580
-816.0112857988148,601
-813.3151536429393,586
-810.6197627345566,610
-807.9251129021936,603
-805.2312039742981,579
-802.5380357792392,594
-799.8456081453069,584
-797.1539209007124,576
-794.462973873588,592
-791.772766891987,602
-789.083299783884,604
-786.3945723771743,579
-783.7065844996748,586
-781.0193359791231,606
-778.3328266431781,600
-775.6470563194197,595
-772.9620248353489,550
-770.2777320183878,585
-767.5941776958798,575
-764.9113616950891,615
-762.2292838432011,609
-759.5479439673222,616
-756.8673418944801,633
-754.1874774516235,617
-751.5083504656222,607
-748.8299607632671,642
-746.15230817127,601
-743.475392516264,596
-740.7992136248035,644
-738.1237713233636,642
-735.4490654383407,682
-732.7750957960521,643
-730.1018622227365,632
-727.4293645445534,636
-724.7576025875837,608
-722.0865761778291,619
-719.4162851412126,638
-716.7467293035781,633
-714.0779084906909,652
-711.409822528237,640
-708.7424712418238,607
-706.0758544569796,640
-703.4099719991541,659
-700.7448236937178,636
-698.0804093659622,684
-695.4167288411002,660
-692.7537819442656,658
-690.0915685005134,638
-687.4300883348199,652
-684.7693412720819,640
-682.1093271371178,646
-679.4500457546669,674
-676.7914969493897,657
-674.1336805458676,628
-671.4765963686034,693
-668.8202442420206,681
-666.1646239904642,639
-663.5097354382001,637
-660.8555784094151,677
-658.2021527282176,667
-655.5494582186366,676
-652.8974947046223,679
-650.2462620100463,707
-647.5957599587009,697
-644.9459883742998,687
-642.2969470804776,699
-639.6486359007902,707
-637.0010546587141,718
-634.3542031776476,694
-631.7080812809096,665
-629.0626887917401,714
-626.4180255333008,709
-623.7740913286734,727
-621.1308860008619,741
-618.4884093727904,682
-615.8466612673046,679
-613.2056415071715,698
-610.5653499150785,661
-607.9257863136347,695
-605.28695052537,668
-602.6488423727357,699
-600.0114616781036,680
-597.3748082637674,713
-594.7388819519412,702
-592.1036825647604,725
-589.4692099242818,776
-586.8354638524829,729
-584.2024441712624,751
-581.5701507024403,740
-578.9385832677575,731
-576.3077416888759,768
-573.6776257873787,758
-571.0482353847704,714
-568.4195703024757,736
-565.7916303618415,711
-563.164415384135,743
-560.5379251905453,758
-557.9121596021815,763
-555.2871184400748,750
-552.6628015251767,763
-550.0392086783606,728
-547.4163397204204,761
-544.794194472071,757
-542.1727727539491,761
-539.5520743866118,825
-536.9320991905377,842
-534.3128469861261,861
-531.6943175936979,851
-529.0765108334947,842
-526.4594265256793,905
-523.8430644903358,998
-521.2274245474689,1152
-518.612506517005,1214
-515.9983102187913,1189
-513.3848354725959,1177
-510.77208209810846,1241
-508.16004991493924,1324
-505.5487387426199,1405
-502.9381484006032,1545
-500.3282787082628,1593
-497.71912948489364,1623
-495.1107005497117,1554
-492.5029917218539,1451
-489.8960028203786,1317
-487.28973366426493,1147
-484.68418407241325,1105
-482.07935386364494,1024
-479.47524285670266,995
-476.87185087025,1005
-474.2691777228715,1000
-471.66722323307334,1011
-469.0659872192821,945
-466.4654694998459,987
-463.86566989303384,935
-461.26658821703614,907
-458.66822428996414,859
-456.07057792985,946
-453.4736489546475,932
-450.877437182231,920
-448.28194243039627,904
-445.68716451686,863
-443.09310325926003,892
-440.49975847515555,895
-437.9071299820263,901
-435.31521759727354,880
-432.72402113821954,962
-430.13354042210767,964
-427.5437752661022,1019
-424.95472548728867,956
-422.36639090267386,959
-419.7787713291855,955
-417.1918665836721,996
-414.60567648290385,1045
-412.0202008435715,1025
-409.4354394822874,991
-406.8513922155845,992
-404.26805885991723,982
-401.685439231661,1009
-399.103533147112,987
-396.522340422488,1003
-393.9418608739278,1002
-391.3620943174908,1012
-388.7830405691583,999
-386.2046994448317,935
-383.6270707603344,961
-381.05015433141045,913
-378.473949973725,816
-375.8984575028645,810
-373.32367673433623,737
-370.74960748356875,674
-368.1762495659117,669
-365.60360279663576,679
-363.03166699093265,565
-360.4604419639154,536
-357.8899275306178,553
-355.32012350599507,525
-352.7510297049233,500
-350.1826459421999,514
-347.61497203254316,476
-345.04800779059235,486
-342.4817530309082,534
-339.91620756797226,528
-337.35137121618743,515
-334.7872437898774,545
-332.22382510328725,513
-329.66111497058273,533
-327.09911320585127,536
-324.53781962310075,584
-321.9772340362607,535
-319.4173562591816,485
-316.8581861056348,481
-314.2997233893127,495
-311.7419679238294,494
-309.1849195227194,516
-306.62857799943856,537
-304.0729431673641,533
-301.51801483979375,538
-298.963792829947,534
-296.41027695096386,565
-293.85746701590574,704
-291.3053628377552,685
-288.7539642294155,641
-286.2032710037115,591
-283.65328297338897,607
-281.1039999511146,585
-278.5554217494762,680
-276.007548180983,647
-273.4603790580651,628
-270.9139141930734,667
-268.3681533982807,697
-265.8230964858798,661
-263.27874326798565,670
-260.7350935566336,666
-258.1921471637804,659
-255.6499039013039,683
-253.10836358100266,742
-250.56752601459698,722
-248.02739101372765,663
-245.48795838995704,673
-242.94922795476816,713
-240.41119951956557,694
-237.8738728956746,735
-235.33724789434166,766
-232.80132432673452,718
-230.2661020039418,611
-227.73158073697357,640
-225.19776033676033,684
-222.66464061415422,741
-220.1322213799284,735
-217.60050244477725,665
-215.06948361931552,656
-212.53916471408013,707
-210.00954553952818,723
-207.48062590603843,739
-204.9524056239104,786
-202.4248845033651,892
-199.8980623545441,814
-197.37193898751036,869
-194.84651421224817,848
-192.32178783866232,844
-189.79775967657952,801
-187.27442953574644,952
-184.7517972258321,951
-182.2298625564256,925
-179.7086253370378,819
-177.18808537710026,811
-174.66824248596583,805
-172.14909647290835,879
-169.6306471471229,854
-167.11289431772548,894
-164.59583779375328,1017
-162.07947738416453,1055
-159.5638128978386,978
-157.04884414357605,989
-154.53457093009854,1046
-152.02099306604828,970
-149.50811035998936,970
-146.99592262040665,1036
-144.48442965570587,937
-141.97363127421409,887
-139.46352728417958,1028
-136.95411749377126,1039
-134.44540171107985,1044
-131.93737974411636,1115
-129.43005140081357,991
-126.92341648902493,1169
-124.41747481652521,1537
-121.91222619101006,1786
-119.40767042009657,2018
-116.90380731132257,2219
-114.40063667214702,2388
-111.8981583099503,2786
-109.3963720320337,2652
-106.89527764561933,2178
-104.39487495785067,1761
-101.89516377579241,1936
-99.39614390642998,3330
-96.89781515667039,4291
-94.40017733334128,4256
-91.90323024319173,3447
-89.40697369289148,3556
-86.91140748903172,4841
-84.41653143812482,5860
-81.92234534660395,6449
-79.42884902082358,6204
-76.93604226705907,7747
-74.4439248915071,14720
-71.95249670028534,23484
-69.46175749943245,28832
-66.97170709490854,28557
-64.48234529259423,25318
-61.99367189829195,19962
-59.50568671772464,13643
-57.01838955653636,9121
-54.53178022029283,9790
-52.045858514480074,13337
-49.560624244506016,16456
-47.07607721569923,18750
-44.59221723330904,20842
-42.10904410250669,21436
-39.62655762838392,19126
-37.14475761595372,17078
-34.66364387015028,16878
-32.18321619582866,16070
-29.70347439776515,15615
-27.224418280657005,15102
-24.74604764912317,14462
-22.26836230770266,15453
-19.7913620608565,25262
-17.315046712966478,43220
-14.83941606833514,59060
-12.36446993118659,65037
-9.89020810566592,65037
-7.416630395839093,65037
-4.94373660569363,65037
-2.471526539137585,65037
-6.821210263296962E-13,65037
2.47084320796705,65037
4.941003281093458,65037
7.410480415786196,65037
9.879274808531363,65037
12.347386655893956,65037
14.814816154518212,65037
17.28156350112681,65037
19.74762889252179,65037
22.21301252558385,65037
24.67771459727237,21012
27.141735304626195,4348
29.605074844762612,3258
32.06773341487792,3106
34.52971121224755,2813
36.99100843422559,2727
39.45162527824516,2649
41.91156194181792,2202
44.370818622535126,1800
46.82939551806646,1579
49.287292826160524,1687
51.74451074464503,2404
54.201049471426245,2870
56.65690920448981,2429
59.112090141899785,1996
61.56659248179983,2107
64.02041642241159,1600
66.4735621620365,1360
68.92602989905402,1281
71.37781983192338,1445
73.82893215918205,1643
76.27936707944684,1710
78.72912479141326,1541
81.17820549385567,1333
83.62660938562783,1389
86.07433666566146,1374
88.5213875329681,1172
90.96776218663751,1175
93.41346082583925,1359
95.85848364982041,1416
98.30283085790859,1525
100.7465026495089,1427
103.18949922410604,1299
105.63182078126385,1258
108.07346752062438,1269
110.51443964190923,1402
112.95473734491827,1359
115.39436082953114,1036
117.83331029570547,1093
120.27158594347827,1434
122.7091879729652,1745
125.1461165843615,1557
127.58237197794062,1295
130.01795435405518,1099
132.4528639131364,1011
134.88710085569494,1016
137.32066538231982,1052
139.75355769367923,1061
142.1857779905207,1004
144.61732647366978,959
147.04820334403132,997
149.47840880258934,960
151.90794305040674,1064
154.33680628862487,1188
156.76499871846443,1428
159.19252054122433,1598
161.61937195828352,1749
164.04555317109896,1679
166.47106438120693,1846
168.89590579022217,2141
171.320077599839,2209
173.7435800118302,2352
176.16641322804742,2464
178.58857745042144,2561
181.01007288096173,2726
183.43089972175687,2700
185.85105817497413,2661
188.27054844285988,2671
190.6893707277394,2597
193.10752523201643,2690
195.5250121581745,2738
197.9418317087751,2766
200.3579840864594,2766
202.7734694939469,2792
205.18828813403627,2892
207.6024402096051,2963
210.01592592360964,3037
212.42874547908548,2946
214.84089907914665,3049
217.2523869269868,2823
219.66320922587727,2846
222.0733661791695,2783
224.48285799029293,2918
226.8916848627572,2906
229.29984700014882,2892
231.7073446061355,2878
234.11417788446204,2842
236.520347038953,2878
238.92585227351185,2972
241.33069379212054,3075
243.73487179884035,3090
246.1383864978112,3166
248.541238093252,3066
250.9434267894609,3022
253.34495279081432,3072
255.74581630176783,3110
258.1460175268563,3185
260.54555667069314,3102
262.9444339379703,3078
265.3426495334594,3036
267.7402036620107,2924
270.1370965285529,2910
272.53332833809407,2997
274.9288992957214,2838
277.32380960660055,2850
279.718059475976,2825
282.1116491091717,2816
284.5045787115897,2755
286.89684848871195,2744
289.2884586460981,2738
291.67940938938807,2815
294.0697009242996,2711
296.4593334566299,2756
298.84830719225477,2657
301.23662233712923,2694
303.6242790972866,2589
306.01127767884,2583
308.39761828798066,2536
310.78330113097934,2542
313.16832641418534,2539
315.5526943440269,2552
317.9364051270112,2473
320.3194589697242,2431
322.70185607883093,2550
325.0835966610754,2483
327.4646809232805,2431
329.8451090723478,2434
332.2248813152577,2380
334.6039978590701,2344
336.9824589109231,2384
339.36026467803447,2382
341.7374153677,2343
344.113911187295,2302
346.48975234427337,2287
348.8649390461686,2303
351.2394715005918,2226
353.61334991523415,2267
355.9865744978655,2265
358.35914545633375,2318
360.73106299856715,2228
363.10232733257146,2212
365.47293866643247,2280
367.84289720831396,2244
370.2122031664593,2204
372.5808567491905,2266
374.9488581649083,2141
377.31620762209275,2148
379.6829053293021,2144
382.0489514951745,2187
384.4143463284262,2058
386.7790900378528,2095
389.14318283232853,2110
391.50662492080653,2173
393.86941651231916,2138
396.23155781597745,2181
398.5930490409713,2151
400.9538903965696,2145
403.3140820921202,2117
405.6736243370498,2146
408.03251734086336,2206
410.3907613131465,2137
412.74835646356166,2052
415.10530300185144,2089
417.4616011378372,2085
419.81725108141893,2126
422.1722530425758,2103
424.5266072313656,2123
426.880313857925,2041
429.2333731324701,2064
431.58578526529516,2041
433.9375504667738,2116
436.2886689473588,2047
438.63914091758113,2014
440.9889665880513,1949
443.33814616945835,2069
445.68667987257015,2062
448.03456790823395,1963
450.3818104873759,2096
452.72840782100013,1998
455.07436012019105,1964
457.41966759611057,2033
459.7643304600007,1977
462.10834892318155,2002
464.4517231970525,2065
466.79445349309174,2035
469.1365400228566,2003
471.4779829979826,1970
473.81878263018564,1988
476.15893913125876,2025
478.4984527130747,2043
480.8373235875855,2131
483.17555196682144,2170
485.5131380628919,2152
487.8500820879857,2269
490.1863842543697,2416
492.52204477439034,2497
494.8570638604725,2705
497.1914417251204,3049
499.52517858091653,3422
501.85827464052306,3544
504.19073011668036,3530
506.5225452222086,3605
508.85372017000566,3467
511.18425517304956,3421
513.514150444396,3639
515.8434061971808,4283
518.1720226446176,5133
520.4999999999999,5558
522.8273384766991,5328
525.1540382881666,4792
527.480099647932,4373
529.8055227696037,3703
532.1303078668694,3032
534.454455153496,2529
536.777964843328,2382
539.1008371502907,2202
541.4230722883866,2195
543.744670471698,2158
546.0656319143858,2136
548.3859568306899,2203
550.7056454349294,2097
553.0246979415016,2063
555.3431145648834,2061
557.6608955196306,2051
559.978041020377,2071
562.2945512818363,2062
564.6104265188006,2078
566.9256669461412,2130
569.2402727788082,2118
571.5542442318302,2152
573.8675815203156,2165
576.1802848594508,2153
578.4923544645015,2194
580.8037905508126,2074
583.114593333807,2082
585.4247630289875,2121
587.7342998519354,2128
590.0432040183106,2134
592.3514757438526,2141
594.6591152443794,2046
596.9661227357875,2071
599.2724984340531,2184
601.578242555231,2061
603.8833553154542,2152
606.1878369309362,2134
608.4916876179676,2108
610.7949075929192,2069
613.0974970722403,2069
615.3994562724587,2114
617.7007854101818,2092
620.0014847020951,2103
622.3015543649641,2133
624.6009946156324,2107
626.8998056710224,2149
629.1979877481361,2032
631.4955410640538,2081
633.7924658359349,2070
636.0887622810175,2146
638.3844306166192,2102
640.6794710601358,2045
642.9738838290426,2113
645.2676691408932,2172
647.5608272133207,2146
649.853358264037,2050
652.1452625108324,2178
654.4365401715764,2089
656.7271914642178,2057
659.0172166067838,2169
661.3066158173809,2060
663.5953893141935,2153
665.8835373154867,2054
668.1710600396028,2124
670.4579577049639,2120
672.7442305300709,2116
675.0298787335033,2061
677.3149025339197,2091
679.599302150058,2162
681.8830778007342,2107
684.1662297048437,2124
686.4487580813608,2166
688.7306631493387,2108
691.0119451279091,2107
693.2926042362834,2173
695.5726406937516,2118
697.8520547196814,2176
700.1308465335215,2128
702.4090163547982,2211
704.6865644031171,2047
706.9634908981619,2137
709.2397960596965,2006
711.5154801075631,2115
713.7905432616823,2140
716.0649857420548,2159
718.3388077687592,2102
720.612009561953,2128
722.8845913418733,2172
725.1565533288352,2108
727.427895743234,2219
729.6986188055427,2168
731.9687227363137,2133
734.238207756178,2149
736.5070740858458,2112
738.7753219461066,2064
741.0429515578281,2108
743.3099631419569,2130
745.5763569195191,2051
747.8421331116193,2166
750.1072919394409,2123
752.3718336242467,2047
754.6357583873777,2051
756.8990664502545,2075
759.1617580343765,2098
761.423833361321,2055
763.6852926527457,2104
765.9461361303862,2105
768.206364016058,2088
770.4659765316536,2132
772.7249738991469,2104
774.9833563405886,2139
777.2411240781092,2056
779.4982773339183,2156
781.7548163303044,2146
784.010741289634,2106
786.2660524343538,2149
788.5207499869881,2132
790.7748341701416,2130
793.0283052064964,2169
795.2811633188143,2160
797.5334087299362,2126
799.7850416627813,2092
802.0360623403484,2193
804.2864709857143,2118
806.5362678220353,2113
808.7854530725468,2176
811.0340269605625,2169
813.2819897094754,2118
815.5293415427581,2158
817.77608268396,2134
820.0222133567116,2234
822.2677337847211,2171
824.5126441917765,2111
826.7569448017433,2174
829.0006358385675,2108
831.2437175262731,2097
833.4861900889629,2130
835.7280537508192,2125
837.9693087361026,2148
840.2099552691533,2126
842.4499935743896,2164
844.689423876309,2130
846.9282463994886,2139
849.1664613685833,2214
851.4040690083276,2269
853.6410695435349,2118
855.877463199097,2116
858.1132501999847,2180
860.3484307712487,2224
862.5830051380175,2199
864.8169735254988,2150
867.0503361589791,2173
869.2830932638243,2111
871.5152450654786,2199
873.7467917894654,2158
875.9777336613873,2147
878.2080709069252,2078
880.4378037518389,2192
882.666932421968,2238
884.8954571432301,2199
887.1233781416219,2131
889.3506956432192,2288
891.5774098741766,2237
893.803521060728,2231
896.0290294291852,2282
898.2539352059397,2238
900.4782386174619,2189
902.7019398903011,2303
904.925039251085,2248
907.147536926521,2186
909.3694331433943,2202
911.59072812857,2185
913.8114221089921,2116
916.0315153116827,2176
918.2510079637437,2073
920.4699002923547,2082
922.6881925247761,2171
924.905884888345,2173
927.1229776104793,2219
929.3394709186747,2075
931.555365040506,2194
933.7706602036275,2116
935.9853566357709,2054
938.1994545647489,2141
940.4129542184515,2139
942.6258558248488,2133
944.8381596119883,2113
947.0498658079974,2162
949.2609746410825,2105
951.4714863395287,2057
953.6814011316998,2035
955.8907192460387,2020
958.0994409110671,2014
960.3075663553858,2022
962.5150958076741,2033
964.7220294966913,2087
966.928367651274,2052
969.1341105003388,2060
971.3392582728806,2069
973.5438111979742,2106
975.747769504772,2030
977.9511334225061,2039
980.153903180487,2042
982.3560790081052,2031
984.5576611348289,1949
986.7586497902058,1962
988.9590452038618,1948
991.158847605503,1979
993.3580572249133,1909
995.5566742919558,1954
997.7546990365728,1952
999.952131688785,1842
1002.1489724786926,1858
1004.3452216364743,1851
1006.5408793923874,1758
1008.7359459767691,1820
1010.9304216200343,1782
1013.1243065526781,1803
1015.3176010052733,1741
1017.510305208472,1737
1019.7024193930064,1793
1021.8939437896848,1710
1024.0848786293977,1754
1026.2752241431122,1736
1028.4649805618747,1767
1030.6541481168115,1749
1032.842727039127,1721
1035.0307175601051,1769
1037.2181199111074,1740
1039.4049343235752,1653
1041.591161029029,1675
1043.7768002590683,1697
1045.9618522453698,1732
1048.1463172196918,1735
1050.3301954138697,1749
1052.513487059818,1755
1054.69619238953,1728
1056.8783116350783,1758
1059.0598450286152,1639
1061.2407928023704,1734
1063.4211551886528,1743
1065.6009324198508,1706
1067.780124728432,1690
1069.9587323469414,1655
1072.1367555080046,1734
1074.314194444325,1670
1076.4910493886855,1647
1078.667320573947,1723
1080.843008233051,1665
1083.0181125990161,1660
1085.1926339049414,1650
1087.3665723840027,1636
1089.5399282694575,1692
1091.7127017946405,1657
1093.8848931929647,1623
1096.0565026979243,1601
1098.2275305430899,1633
1100.3979769621128,1661
1102.567842188722,1637
1104.737126456726,1618
1106.9058300000124,1634
1109.0739530525475,1529
1111.2414958483764,1611
1113.4084586216231,1629
1115.5748416064907,1598
1117.7406450372605,1601
1119.9058691482942,1593
1122.0705141740304,1642
1124.2345803489884,1589
1126.3980679077658,1619
1128.5609770850388,1567
1130.7233081155623,1573
1132.8850612341707,1562
1135.0462366757774,1622
1137.2068346753745,1527
1139.3668554680326,1509
1141.526299288901,1568
1143.68516637321,1555
1145.8434569562655,1590
1148.001171273455,1523
1150.158309560244,1559
1152.3148720521767,1647
1154.470858984876,1536
1156.626270594044,1549
1158.7811071154629,1536
1160.9353687849912,1518
1163.089055838569,1581
1165.242168512213,1570
1167.3947070420209,1610
1169.5466716641677,1571
1171.6980626149075,1538
1173.8488801305748,1573
1175.9991244475814,1543
1178.1487958024186,1574
1180.2978944316555,1529
1182.4464205719428,1530
1184.5943744600072,1530
1186.7417563326567,1540
1188.8885664267755,1592
1191.0348049793297,1488
1193.1804722273619,1530
1195.325568407995,1505
1197.4700937584303,1486
1199.614048515948,1543
1201.7574329179074,1544
1203.900247201746,1519
1206.042491604982,1515
1208.1841663652099,1503
1210.3252717201053,1490
1212.465807907422,1575
1214.6057751649923,1535
1216.7451737307279,1539
1218.8840038426192,1560
1221.0222657387353,1538
1223.1599596572241,1493
1225.2970858363137,1557
1227.4336445143094,1593
1229.5696359295966,1588
1231.705060320639,1506
1233.8399179259786,1622
1235.9742089842384,1575
1238.107933734118,1551
1240.2410924143974,1553
1242.373685263935,1552
1244.5057125216676,1536
1246.6371744266116,1580
1248.7680712178621,1580
1250.898403134593,1511
1253.028170416058,1569
1255.1573733015875,1577
1257.2860120305932,1610
1259.4140868425648,1556
1261.54159797707,1525
1263.6685456737569,1565
1265.7949301723515,1580
1267.9207517126597,1607
1270.046010534565,1579
1272.1707068780306,1611
1274.2948409830983,1535
1276.4184130898889,1656
1278.541423438603,1511
1280.6638722695184,1596
1282.785759822993,1601
1284.9070863394636,1633
1287.0278520594447,1559
1289.1480572235314,1601
1291.2677020723963,1540
1293.3867868467923,1642
1295.5053117875495,1658
1297.623277135579,1662
1299.740683131868,1639
1301.8575300174857,1661
1303.973818033578,1662
1306.0895474213703,1655
1308.2047184221678,1680
1310.3193312773528,1679
1312.4333862283888,1671
1314.5468835168163,1700
1316.659823384255,1671
1318.7722060724045,1634
1320.8840318230418,1737
1322.9953008780249,1660
1325.1060134792888,1601
1327.2161698688478,1688
1329.3257702887959,1708
1331.4348149813054,1750
1333.5433041886276,1712
1335.6512381530933,1653
1337.7586171171101,1636
1339.8654413231675,1668
1341.9717110138317,1584
1344.0774264317488,1665
1346.1825878196432,1639
1348.2871954203192,1632
1350.3912494766587,1704
1352.4947502316231,1653
1354.5976979282532,1643
1356.7000928096686,1629
1358.8019351190665,1597
1360.9032250997243,1670
1363.0039629949988,1687
1365.1041490483235,1682
1367.2037835032133,1599
1369.3028666032606,1593
1371.401398592137,1621
1373.4993797135926,1610
1375.5968102114575,1679
1377.6936903296396,1704
1379.7900203121262,1608
1381.8858004029835,1665
1383.9810308463561,1643
1386.075711886469,1738
1388.1698437676241,1680
1390.2634267342032,1615
1392.356461030667,1630
1394.4489469015557,1690
1396.5408845914872,1756
1398.6322743451592,1726
1400.7231164073469,1736
1402.813411022907,1682
1404.903158436773,1628
1406.9923588939578,1649
1409.0810126395531,1805
1411.1691199187303,1752
1413.2566809767386,1742
1415.343696058907,1780
1417.4301654106425,1754
1419.5160892774315,1742
1421.6014679048399,1728
1423.6863015385125,1796
1425.7705904241707,1737
1427.8543348076178,1737
1429.9375349347342,1854
1432.0201910514802,1810
1434.102303403894,1801
1436.1838722380944,1813
1438.2648978002767,1834
1440.3453803367174,1925
1442.4253200937692,1853
1444.5047173178677,1903
1446.5835722555234,1872
1448.6618851533285,1913
1450.739656257952,1922
1452.8168858161434,1922
1454.8935740747306,1945
1456.96972128062,2003
1459.045327680797,1960
1461.120393522327,2056
1463.1949190523528,2036
1465.2689045180973,2091
1467.3423501668608,2058
1469.415256246024,2077
1471.4876230030463,2099
1473.559450685465,2068
1475.6307395408976,2161
1477.7014898170391,2182
1479.771701761665,2182
1481.8413756226287,2207
1483.9105116478618,2245
1485.9791100853772,2203
1488.0471711832643,2260
1490.1146951896926,2212
1492.1816823529098,2279
1494.2481329212433,2314
1496.3140471430984,2333
1498.3794252669609,2389
1500.4442675413939,2465
1502.5085742150404,2459
1504.572345536622,2434
1506.6355817549388,2523
1508.6982831188702,2459
1510.7604498773744,2471
1512.8220822794883,2549
1514.8831805743293,2624
1516.9437450110909,2528
1519.003775839048,2520
1521.0632733075522,2616
1523.1222376660367,2568
1525.1806691640113,2554
1527.2385680510652,2599
1529.2959345768668,2705
1531.3527689911643,2759
1533.4090715437833,2693
1535.4648424846291,2787
1537.5200820636855,2807
1539.5747905310159,2882
1541.6289681367616,2848
1543.6826151311434,2870
1545.7357317644614,2864
1547.7883182870937,2975
1549.8403749494987,2891
1551.8919020022113,2935
1553.9428996958477,2966
1555.9933682811015,3057
1558.0433080087469,3116
1560.0927191296346,3221
1562.1416018946961,3127
1564.1899565549415,3174
1566.2377833614592,3124
1568.2850825654164,3151
1570.3318544180606,3023
1572.3780991707158,2944
1574.423817074788,2940
1576.4690083817595,2864
1578.5136733431923,2760
1580.5578122107272,2602
1582.601425236085,2626
1584.6445126710646,2504
1586.6870747675434,2356
1588.7291117774776,2420
1590.7706239529034,2267
1592.8116115459347,2164
1594.8520748087658,2112
1596.8920139936686,2116
1598.9314293529933,2100
1600.9703211391711,1991
1603.008689604711,1949
1605.0465350022005,1974
1607.0838575843068,1858
1609.1206576037753,1878
1611.1569353134305,1865
1613.1926909661765,1766
1615.2279248149953,1820
1617.2626371129481,1779
1619.2968281131757,1765
1621.3304980688963,1788
1623.3636472334088,1740
1625.39627586009,1691
1627.428384202396,1749
1629.459972513861,1718
1631.4910410480993,1722
1633.5215900588028,1700
1635.551619799744,1628
1637.5811305247717,1638
1639.6101224878166,1673
1641.6385959428862,1610
1643.6665511440683,1628
1645.693988345528,1662
1647.7209078015112,1680
1649.7473097663405,1610
1651.7731944944203,1635
1653.7985622402307,1618
1655.823413258333,1650
1657.847747803366,1634
1659.8715661300494,1626
1661.8948684931793,1650
1663.9176551476316,1584
1665.9399263483624,1620
1667.9616823504057,1648
1669.982923408873,1644
1672.0036497789574,1672
1674.0238617159293,1617
1676.043559475138,1646
1678.0627433120121,1572
1680.081413482059,1643
1682.0995702408654,1696
1684.117213844096,1687
1686.134344547495,1632
1688.1509626068864,1618
1690.1670682781705,1621
1692.182661817329,1661
1694.1977434804217,1591
1696.2123135235875,1640
1698.226372203043,1618
1700.2399197750851,1590
1702.2529564960905,1648
1704.2654826225112,1611
1706.277498410882,1626
1708.2890041178139,1580
1710.2999999999988,1565
1712.3104863142066,1596
1714.3204633172854,1593
1716.329931266163,1615
1718.3388904178469,1583
1720.3473410294214,1585
1722.3552833580516,1535
1724.3627176609807,1579
1726.3696441955308,1537
1728.3760632191033,1594
1730.3819749891782,1591
1732.3873797633146,1640
1734.3922777991502,1535
1736.3966693544012,1578
1738.4005546868639,1576
1740.4039340544127,1531
1742.406807715001,1567
1744.4091759266616,1539
1746.4110389475054,1582
1748.4123970357223,1548
1750.413250449582,1558
1752.4135994474318,1595
1754.4134442876993,1506
1756.4127852288902,1551
1758.4116225295893,1557
1760.4099564484595,1561
1762.407787244244,1566
1764.405115175764,1515
1766.4019405019203,1568
1768.3982634816916,1516
1770.3940843741357,1535
1772.3894034383907,1577
1774.3842209336717,1550
1776.378537119274,1470
1778.372352254571,1536
1780.3656665990156,1518
1782.3584804121397,1511
1784.3507939535534,1449
1786.3426074829463,1493
1788.3339212600863,1441
1790.3247355448211,1529
1792.3150505970766,1523
1794.3048666768573,1603
1796.2941840442477,1541
1798.2830029594106,1582
1800.2713236825884,1531
1802.2591464741004,1486
1804.2464715943465,1528
1806.2332993038058,1529
1808.2196298630352,1554
1810.2054635326708,1531
1812.190800573428,1546
1814.175641246101,1544
1816.1599858115628,1534
1818.1438345307652,1560
1820.127187664738,1562
1822.1100454745924,1564
1824.092408221516,1529
1826.0742761667766,1489
1828.055649571721,1513
1830.0365286977735,1524
1832.0169138064398,1568
1833.9968051593014,1569
1835.9762030180214,1565
1837.9551076443408,1579
1839.9335193000788,1499
1841.9114382471344,1511
1843.888864747485,1530
1845.8657990631878,1512
1847.842241456378,1534
1849.8181921892697,1500
1851.7936515241558,1517
1853.7686197234098,1504
1855.7430970494815,1489
1857.7170837649014,1489
1859.6905801322787,1548
1861.6635864143004,1526
1863.6361028737338,1513
1865.608129773424,1522
1867.5796673762961,1524
1869.5507159453537,1543
1871.521275743678,1478
1873.4913470344313,1543
1875.4609300808534,1548
1877.4300251462632,1502
1879.3986324940588,1579
1881.366752387717,1545
1883.3343850907936,1520
1885.3015308669228,1458
1887.268189979819,1530
1889.2343626932739,1560
1891.2000492711595,1575
1893.1652499774254,1521
1895.1299650761011,1535
1897.0941948312952,1491
1899.0579395071945,1542
1901.0211993680641,1469
1902.98397467825,1523
1904.9462657021745,1547
1906.9080727043415,1518
1908.869395949332,1554
1910.8302357018065,1541
1912.790592226504,1494
1914.7504657882428,1495
1916.7098566519212,1566
1918.6687650825133,1515
1920.6271913450764,1449
1922.5851357047422,1505
1924.5425984267245,1527
1926.499579776314,1502
1928.4560800188833,1558
1930.4120994198802,1502
1932.367638244833,1505
1934.32269675935,1582
1936.2772752291175,1559
1938.231373919899,1537
1940.1849930975404,1528
1942.1381330279637,1514
1944.0907939771696,1551
1946.0429762112412,1501
1947.9946799963363,1536
1949.9459055986945,1520
1951.896653284633,1533
1953.8469233205478,1475
1955.7967159729142,1461
1957.7460315082863,1554
1959.6948701932974,1509
1961.6432322946594,1527
1963.5911180791632,1507
1965.5385278136787,1505
1967.4854617651545,1543
1969.4319202006182,1516
1971.377903387176,1476
1973.3234115920136,1520
1975.268445082395,1477
1977.2130041256642,1497
1979.1570889892423,1445
1981.1006999406304,1480
1983.04383724741,1419
1984.986501177238,1446
1986.928691997853,1492
1988.8704099770712,1457
1990.811655382789,1474
1992.7524284829801,1478
1994.692729545698,1569
1996.6325588390755,1522
1998.5719166313224,1497
2000.5108031907307,1455
2002.4492187856677,1459
2004.387163684583,1463
2006.3246381560011,1483
2008.2616424685298,1439
2010.1981768908527,1529
2012.1342416917332,1501
2014.069837140014,1441
2016.0049635046162,1480
2017.9396210545406,1479
2019.8738100588666,1427
2021.8075307867502,1448
2023.740783507431,1525
2025.6735684902228,1483
2027.6058860045214,1455
2029.5377363198004,1477
2031.4691197056118,1462
2033.4000364315875,1513
2035.3304867674374,1459
2037.260470982952,1506
2039.189989347998,1469
2041.1190421325232,1463
2043.047629606554,1456
2044.9757520401945,1461
2046.9034097036288,1423
2048.8306028671195,1442
2050.7573318010086,1480
2052.683596775716,1461
2054.609398061742,1454
2056.5347359296647,1432
2058.4596106501403,1466
2060.384022493906,1480
2062.3079717317764,1465
2064.231458634646,1445
2066.1544834734873,1430
2068.077046519352,1475
2069.99914804337,1455
2071.9207883167524,1433
2073.8419676107865,1459
2075.7626861968406,1436
2077.6829443463607,1430
2079.6027423308715,1460
2081.522080421977,1479
2083.440958891362,1508
2085.359378010786,1409
2087.2773380520907,1456
2089.194839287196,1399
2091.111881988101,1491
2093.0284664268825,1430
2094.9445928756973,1499
2096.86026160678,1487
2098.775472892446,1455
2100.690227005088,1505
2102.604524217178,1437
2104.5183648012676,1467
2106.431749029985,1478
2108.34467717604,1518
2110.2571495122206,1505
2112.169166311393,1507
2114.080727846503,1436
2115.9918343905747,1496
2117.902486216711,1413
2119.8126835980956,1434
2121.722426807987,1488
2123.6317161197285,1475
2125.5405518067364,1520
2127.448934142509,1412
2129.356863400624,1515
2131.264339854737,1469
2133.1713637785815,1472
2135.077935445972,1411
2136.9840551308002,1481
2138.889723107037,1506
2140.7949396487334,1494
2142.699705030018,1553
2144.6040195250994,1487
2146.507883408264,1476
2148.4112969538774,1515
2150.3142604363848,1476
2152.2167741303097,1455
2154.1188383102535,1504
2156.0204532508997,1508
2157.9216192270064,1442
2159.822336513414,1530
2161.7226053850413,1542
2163.622426116884,1509
2165.5217989840185,1600
2167.4207242616,1594
2169.319202224862,1555
2171.2172331491165,1561
2173.1148173097563,1520
2175.0119549822507,1566
2176.90864644215,1611
2178.8048919650823,1567
2180.7006918267534,1497
2182.596046302952,1557
2184.4909556695407,1605
2186.3854202024645,1555
2188.279440177746,1584
2190.173015871487,1529
2192.066147559868,1583
2193.958835519149,1610
2195.851080025667,1561
2197.7428813558417,1554
2199.6342397861667,1546
2201.5251555932186,1613
2203.415629053651,1607
2205.3056604441986,1562
2207.19525004167,1625
2209.084398122958,1601
2210.9731049650327,1544
2212.861370844941,1607
2214.749196039812,1656
2216.636580826851,1600
2218.523525483344,1580
2220.410030286655,1569
2222.296095514226,1586
2224.1817214435805,1575
2226.066908352319,1612
2227.951656518121,1571
2229.835966218746,1549
2231.71983773203,1584
2233.6032713358913,1542
2235.486267308324,1557
2237.3688259274036,1518
2239.2509474712824,1538
2241.132632218193,1612
2243.013880446447,1603
2244.8946924344323,1604
2246.7750684606203,1585
2248.6550088035574,1573
2250.534513741871,1619
2252.413583554265,1613
2254.292218519526,1567
2256.170418916517,1558
2258.0481850241786,1545
2259.925517121534,1526
2261.8024154876825,1598
2263.678880401803,1630
2265.5549121431536,1597
2267.430510991071,1594
2269.305677224971,1556
2271.180411124348,1570
2273.0547129687766,1608
2274.9285830379076,1608
2276.8020216114737,1582
2278.6750289692845,1468
2280.5476053912294,1537
2282.4197511572766,1597
2284.2914665474727,1594
2286.162751841943,1552
2288.0336073208937,1594
2289.904033264608,1556
2291.774029953448,1592
2293.6435976678554,1578
2295.5127366883517,1532
2297.381447295534,1586
2299.2497297700825,1492
2301.1175843927526,1501
2302.9850114443825,1437
2304.852011205885,1439
2306.7185839582553,1413
2308.5847299825664,1408
2310.4504495599676,1372
2312.3157429716925,1338
2314.1806104990483,1331
2316.0450524234247,1326
2317.9090690262888,1292
2319.772660589186,1342
2321.635827393742,1350
2323.498569721661,1347
2325.3608878547248,1322
2327.2227820747967,1314
2329.0842526638157,1322
2330.945299903803,1312
2332.805924076857,1370
2334.6661254651535,1296
2336.525904350951,1318
2338.3852610165827,1335
2340.244195744464,1313
2342.102708817088,1370
2343.9608005170253,1361
2345.8184711269287,1344
2347.675720929526,1348
2349.532550207628,1374
2351.38895924412,1347
2353.24494832197,1367
2355.100517724223,1334
2356.955667734004,1362
2358.810398634514,1318
2360.664710709037,1337
2362.5186042409337,1352
2364.3720795136437,1331
2366.225136810686,1275
2368.0777764156583,1342
2369.929998612237,1340
2371.7818036841777,1361
2373.633191915315,1319
2375.484163589562,1331
2377.3347189909114,1392
2379.184858403434,1348
2381.03458211128,1340
2382.8838903986775,1326
2384.732783549936,1393
2386.5812618494406,1358
2388.4293255816588,1297
2390.2769750311327,1390
2392.1242104824883,1349
2393.971032220427,1357
2395.8174405297295,1322
2397.6634356952563,1337
2399.509018001947,1352
2401.3541877348193,1342
2403.1989451789705,1377
2405.043290619576,1424
2406.8872243418905,1320
2408.730746631247,1343
2410.5738577730594,1354
2412.4165580528183,1324
2414.258847756095,1272
2416.100727168537,1352
2417.9421965758734,1324
2419.783256263912,1361
2421.623906518538,1367
2423.4641476257157,1357
2425.303979871491,1359
2427.143403541984,1337
2428.9824189233977,1368
2430.821026302012,1345
2432.6592259641866,1318
2434.497018196361,1342
2436.33440328505,1361
2438.171381516851,1358
2440.00795317844,1356
2441.844118556569,1373
2443.6798779380724,1333
2445.5152316098606,1329
2447.3501798589255,1387
2449.1847229723357,1358
2451.0188612372403,1401
2452.8525949408663,1343
2454.6859243705203,1356
2456.518849813587,1326
2458.3513715575314,1398
2460.183489889895,1376
2462.015205098301,1354
2463.8465174704493,1437
2465.67742729412,1341
2467.5079348571717,1416
2469.338040447542,1376
2471.1677443532476,1388
2472.9970468623833,1386
2474.825948263123,1383
2476.6544488437207,1381
2478.482548892508,1397
2480.310248697896,1374
2482.137548548374,1380
2483.9644487325118,1381
2485.790949538956,1359
2487.617051256433,1409
2489.44275417375,1359
2491.26805857979,1327
2493.0929647635157,1395
2494.917473013971,1396
2496.741583620276,1433
2498.5652968716304,1390
2500.3886130573137,1363
2502.2115324666834,1431
2504.0340553891765,1449
2505.856182114308,1377
2507.6779129316733,1374
2509.499248130945,1420
2511.3201880018764,1407
2513.140732834298,1372
2514.9608829181198,1386
2516.780638543331,1427
2518.6,1369
2520.418967578273,1386
2522.237541568376,1454
2524.0557222606144,1378
2525.8735099453706,1404
2527.6909049131086,1490
2529.507907454368,1451
2531.32451785977,1494
2533.140736420014,1438
2534.9565634258774,1476
2536.771999168218,1498
2538.5870439379714,1470
2540.4016980261526,1530
2542.2159617238544,1526
2544.02983532225,1540
2545.8433191125914,1506
2547.656413386209,1557
2549.4691184345115,1552
2551.2814345489874,1499
2553.093362021204,1522
2554.904901142808,1569
2556.716052205523,1527
2558.526815501153,1505
2560.3371913215824,1565
2562.147179958771,1589
2563.956781704761,1501
2565.7659968516705,1616
2567.5748256916986,1599
2569.3832685171224,1612
2571.1913256202984,1563
2572.9989972936614,1583
2574.806283829725,1663
2576.613185521084,1640
2578.4197026604074,1613
2580.2258355404483,1607
2582.031584454035,1633
2583.836949694077,1644
2585.6419315535613,1670
2587.4465303255533,1688
2589.2507463032002,1592
2591.0545797797245,1616
2592.8580310484303,1623
2594.6611004026995,1607
2596.463788135992,1701
2598.266094541849,1640
2600.0680199138874,1618
2601.869564545807,1669
2603.670728731383,1661
2605.4715127644704,1667
2607.2719169390048,1667
2609.071941548998,1725
2610.8715868885433,1587
2612.670853251811,1630
2614.469740933052,1656
2616.268250226594,1651
2618.0663814268455,1608
2619.864134828292,1633
2621.6615107255006,1706
2623.458509413115,1637
2625.2551311858597,1643
2627.0513763385347,1634
2628.8472451660223,1598
2630.6427379632833,1621
2632.4378550253564,1571
2634.232596647359,1637
2636.026963124488,1567
2637.8209547520187,1625
2639.6145718253065,1612
2641.407814639785,1542
2643.200683490966,1561
2644.9931786744414,1508
2646.7853004858807,1554
2648.577049221034,1523
2650.3684251757277,1587
2652.1594286458712,1529
2653.9500599274484,1512
2655.740319316525,1473
2657.5302071092437,1474
2659.3197236018286,1471
2661.10886909058,1491
2662.8976438718782,1501
2664.686048242183,1489
2666.4740824980327,1498
2668.2617469360443,1452
2670.0490418529134,1489
2671.8359675454153,1476
2673.622524310403,1480
2675.408712444811,1433
2677.1945322456495,1440
2678.979984010009,1433
2680.76506803506,1472
2682.5497846180497,1354
2684.334134056306,1405
2686.1181166472343,1400
2687.9017326883213,1419
2689.6849824771293,1394
2691.4678663113013,1427
2693.2503844885596,1403
2695.032537306705,1406
2696.8143250636167,1406
2698.5957480572542,1399
2700.3768065856534,1392
2702.1575009469316,1462
2703.937831439283,1408
2705.717798360982,1405
2707.4974020103837,1409
2709.276642685917,1387
2711.055520686095,1384
2712.834036309506,1359
2714.612189854819,1371
2716.389981620782,1333
2718.1674119062204,1353
2719.944481010041,1260
2721.721189231226,1328
2723.4975368688415,1293
2725.273524222027,1360
2727.0491515900053,1352
2728.824419272075,1385
2730.5993275676146,1392
2732.3738767760838,1294
2734.148067197016,1367
2735.921899130031,1281
2737.6953728748194,1304
2739.468488731156,1351
2741.2412469988926,1290
2743.0136479779617,1300
2744.785691968372,1314
2746.5573792702116,1321
2748.3287101836504,1365
2750.099685008934,1308
2751.870304046388,1360
2753.640567596418,1371
2755.4104759595057,1379
2757.1800294362156,1331
2758.949228327187,1327
2760.7180729331412,1377
2762.486563554877,1282
2764.254700493272,1394
2766.022484049284,1365
2767.789914523947,1381
2769.5569922183786,1335
2771.3237174337705,1373
2773.090090471394,1309
2774.8561116326036,1288
2776.6217812188274,1335
2778.3870995315756,1337
2780.1520668724356,1353
2781.9166835430747,1340
2783.6809498452394,1335
2785.444866080754,1410
2787.2084325515225,1305
2788.971649559527,1340
2790.73451740683,1407
2792.4970363955713,1343
2794.2592068279705,1330
2796.0210290063264,1326
2797.7825032330147,1345
2799.543629810493,1330
2801.304409041296,1347
2803.0648412280366,1382
2804.8249266734088,1298
2806.5846656801846,1341
2808.344058551212,1346
2810.1031055894246,1305
2811.8618070978273,1323
2813.6201633795085,1320
2815.378174737636,1306
2817.1358414754536,1400
2818.893163896285,1323
2820.6501423035334,1370
2822.4067770006814,1327
2824.1630682912883,1397
2825.9190164789957,1333
2827.6746218675207,1382
2829.429884760661,1352
2831.184805462294,1292
2832.9393842763743,1384
2834.693621506936,1315
2836.4475174580916,1324
2838.201072434034,1304
2839.954286739034,1392
2841.707160677441,1381
2843.459694553685,1365
2845.2118886722724,1329
2846.96374333779,1345
2848.7152588549034,1281
2850.4664355283567,1331
2852.217273662973,1368
2853.9677735636546,1338
2855.7179355353833,1341
2857.4677598832186,1380
2859.217246912299,1353
2860.9663969278427,1366
2862.715210235146,1418
2864.4636871395846,1362
2866.211827946614,1336
2867.9596329617652,1322
2869.7071024906536,1315
2871.4542368389684,1335
2873.20103631248,1296
2874.947501217038,1307
2876.6936318585695,1298
2878.4394285430812,1304
2880.1848915766604,1319
2881.9300212654707,1349
2883.6748179157553,1363
2885.4192818338374,1371
2887.1634133261173,1305
2888.907212699077,1351
2890.6506802592744,1314
2892.393816313348,1355
2894.1366211680142,1358
2895.8790951300693,1396
2897.621238506388,1359
2899.363051603925,1352
2901.1045347297118,1367
2902.8456881908596,1320
2904.58651229456,1323
2906.327007348081,1304
2908.067173658772,1355
2909.8070115340597,1308
2911.5465212814497,1342
2913.285703208527,1315
2915.0245576229563,1399
2916.7630848324807,1342
2918.5012851449196,1305
2920.2391588681758,1317
2921.976706310227,1346
2923.7139277791334,1328
2925.4508235830313,1347
2927.187394030137,1350
2928.923639428745,1365
2930.6595600872306,1346
2932.395156314046,1335
2934.1304284177218,1386
2935.8653767068713,1390
2937.6000014901815,1377
2939.3343030764227,1339
2941.068281774442,1382
2942.8019378931644,1339
2944.5352717415976,1317
2946.2682836288236,1336
2948.0009738640065,1330
2949.7333427563885,1342
2951.465390615289,1365
2953.1971177501086,1345
2954.9285244703265,1341
2956.6596110855,1372
2958.3903779052657,1373
2960.1208252393385,1345
2961.8509533975125,1281
2963.5807626896617,1295
2965.3102534257378,1323
2967.0394259157715,1344
2968.768280469873,1335
2970.496817398232,1393
2972.2250370111146,1353
2973.952939618869,1359
2975.6805255319196,1384
2977.4077950607707,1319
2979.134748516006,1364
2980.861386208289,1398
2982.587708448359,1366
2984.313715547037,1397
2986.039407815222,1387
2987.764785563891,1306
2989.489849104102,1333
2991.2145987469908,1309
2992.9390348037705,1293
2994.6631575857346,1374
2996.3869674042576,1292
2998.1104645707887,1358
2999.83364939686,1357
3001.5565221940783,1367
3003.2790832741334,1363
3005.0013329487924,1251
3006.7232715298996,1347
3008.4448993293804,1383
3010.166216659239,1306
3011.887223831558,1305
3013.607921158498,1309
3015.3283089522993,1318
3017.0483875252826,1336
3018.7681571898443,1317
3020.4876182584626,1294
3022.2067710436927,1287
3023.9256158581707,1344
3025.644153014609,1326
3027.362382825801,1295
3029.0803056046193,1403
3030.797921664012,1346
3032.5152313170106,1285
3034.2322348767225,1326
3035.9489326563353,1335
3037.665324969115,1256
3039.3814121284063,1321
3041.097194447633,1309
3042.812672240299,1347
3044.5278458199855,1286
3046.2427155003525,1324
3047.9572815951406,1318
3049.671544418167,1321
3051.38550428333,1317
3053.0991615046073,1324
3054.812516396051,1324
3056.5255692717974,1397
3058.2383204460575,1295
3059.9507702331257,1272
3061.662918947372,1309
3063.3747669032446,1352
3065.0863144152736,1289
3066.7975617980674,1365
3068.508509366309,1280
3070.219157434767,1322
3071.9295063182844,1310
3073.639556331785,1344
3075.3493077902704,1328
3077.058761008821,1330
3078.7679163025964,1308
3080.476773986837,1258
3082.1853343768594,1325
3083.89359778806,1302
3085.6015645359153,1314
3087.3092349359786,1307
3089.016609303884,1327
3090.7236879553434,1353
3092.4304712061476,1280
3094.136959372166,1315
3095.843152769349,1383
3097.5490517137237,1382
3099.2546565213966,1353
3100.959967508554,1315
3102.66498499146,1282
3104.3697092864577,1356
3106.0741407099695,1281
3107.778279578498,1340
3109.482126208622,1320
3111.1856809170004,1373
3112.8889440203716,1344
3114.5919158355528,1407
3116.294596679439,1363
3117.996986869006,1388
3119.6990867213062,1345
3121.4008965534726,1349
3123.102416682717,1376
3124.803647426329,1347
3126.5045891016784,1361
3128.205242026213,1332
3129.90560651746,1327
3131.605682893025,1296
3133.3054714705922,1315
3135.0049725679282,1401
3136.7041865028714,1366
3138.4031135933465,1334
3140.101754157353,1398
3141.800108512971,1320
3143.498176978357,1328
3145.1959598717494,1305
3146.8934575114636,1343
3148.5906702158954,1338
3150.2875983035183,1301
3151.9842420928853,1300
3153.680601902627,1301
3155.376678051456,1350
3157.07247085816,1314
3158.767980641609,1320
3160.463207720748,1308
3162.158152414606,1349
3163.8528150422862,1283
3165.5471959229726,1323
3167.2412953759303,1356
3168.9351137204976,1386
3170.628651276098,1348
3172.3219083622307,1347
3174.014885298474,1345
3175.707582404485,1361
3177.4000000000005,1338
3179.092138404835,1347
3180.7839979388846,1330
3182.47557892212,1352
3184.166881674594,1330
3185.8579065164386,1360
3187.5486537678626,1329
3189.2391237491547,1277
3190.9293167806827,1326
3192.6192331828934,1300
3194.3088732763117,1364
3195.998237381542,1324
3197.687325819268,1271
3199.376138910251,1288
3201.064676975334,1320
3202.7529403354347,1322
3204.4409293115523,1285
3206.1286442247647,1288
3207.816085396229,1281
3209.5032531471825,1307
3211.190147798936,1288
3212.8767696728846,1311
3214.5631190905015,1378
3216.2491963733373,1242
3217.9350018430214,1331
3219.6205358212637,1363
3221.305798629851,1345
3222.990790590651,1319
3224.6755120256103,1293
3226.359963256751,1314
3228.0441446061795,1344
3229.7280563960758,1298
3231.411698948703,1312
3233.0950725863995,1308
3234.778177631587,1282
3236.461014406761,1334
3238.1435832345005,1333
3239.8258844374595,1350
3241.507918338374,1291
3243.1896852600576,1303
3244.8711855254023,1366
3246.552419457381,1300
3248.233387379042,1316
3249.914089613516,1334
3251.59452648401,1336
3253.274698313813,1306
3254.95460542629,1298
3256.6342481448855,1387
3258.313626793125,1339
3259.9927416946084,1265
3261.6715931730196,1321
3263.3501815521176,1294
3265.0285071557437,1233
3266.706570307815,1304
3268.3843713323286,1254
3270.0619105533615,1261
3271.739188295068,1274
3273.4162048816834,1332
3275.0929606375184,1297
3276.769455886966,1313
3278.445690954498,1360
3280.1216661646613,1368
3281.797381842087,1309
3283.4728383114807,1342
3285.1480358976296,1326
3286.8229749253996,1316
3288.4976557197333,1280
3290.172078605655,1269
3291.846243908266,1269
3293.5201519527463,1303
3295.193803064357,1223
3296.8671975684374,1304
3298.5403357904024,1269
3300.21321805575,1270
3301.8858446900567,1286
3303.558216018975,1280
3305.23033236824,1260
3306.9021940636603,1340
3308.57380143113,1312
3310.2451547966184,1341
3311.916254486174,1337
3313.5871008259246,1298
3315.2576941420766,1343
3316.9280347609147,1311
3318.5981230088046,1271
3320.2679592121895,1276
3321.9375436975924,1297
3323.606876791612,1278
3325.27595882093,1357
3326.944790112305,1271
3328.6133709925753,1349
3330.2817017886573,1339
3331.949782827547,1290
3333.617614436319,1285
3335.2851969421245,1321
3336.952530672199,1350
3338.619615953853,1320
3340.286453114475,1283
3341.9530424815357,1309
3343.619384382583,1321
3345.2854791452437,1285
3346.951327097224,1308
3348.6169285663073,1319
3350.2822838803577,1330
3351.947393367319,1409
3353.61225735521,1312
3355.2768761721345,1288
3356.9412501462693,1271
3358.605379605873,1304
3360.2692648792827,1289
3361.9329062949146,1300
3363.596304181263,1284
