CollectionTime,7/10/2024 4:54:17 PM
ExposureUsed,3
CalibratedSpectrum
-962.7078968117929,637
-959.9714848408522,640
-957.2358232597828,607
-954.5009119013725,637
-951.7667505983302,619
-949.0333391832855,623
-946.3006774887896,677
-943.5687653473143,655
-940.837602591253,628
-938.1071890529199,673
-935.3775245645503,689
-932.6486089583007,686
-929.9204420662485,696
-927.1930237203925,701
-924.4663537526524,642
-921.7404319948689,663
-919.0152582788041,692
-916.2908324361409,712
-913.5671542984834,681
-910.8442236973568,666
-908.1220404642074,650
-905.4006044304027,669
-902.679915427231,688
-899.959973285902,664
-897.2407778375464,667
-894.5223289132158,655
-891.8046263438832,660
-889.0876699604426,647
-886.3714595937089,688
-883.6559950744183,655
-880.9412762332282,649
-878.2273029007168,646
-875.5140749073835,633
-872.8015920836489,625
-870.0898542598545,657
-867.3788612662631,635
-864.6686129330585,664
-861.9591090903457,634
-859.2503495681506,672
-856.5423341964203,624
-853.8350628050229,667
-851.1285352237478,682
-848.4227512823054,643
-845.7177108103272,668
-843.0134136373656,669
-840.3098595928943,657
-837.6070485063082,676
-834.9049802069229,639
-832.2036545239757,679
-829.5030712866244,674
-826.8032303239481,686
-824.1041314649472,709
-821.4057745385428,658
-818.7081593735775,635
-816.0112857988148,673
-813.3151536429393,669
-810.6197627345566,694
-807.9251129021936,689
-805.2312039742981,670
-802.5380357792392,653
-799.8456081453069,648
-797.1539209007124,697
-794.462973873588,667
-791.772766891987,677
-789.083299783884,685
-786.3945723771743,707
-783.7065844996748,723
-781.0193359791231,713
-778.3328266431781,686
-775.6470563194197,653
-772.9620248353489,705
-770.2777320183878,680
-767.5941776958798,694
-764.9113616950891,676
-762.2292838432011,705
-759.5479439673222,701
-756.8673418944801,649
-754.1874774516235,694
-751.5083504656222,673
-748.8299607632671,703
-746.15230817127,664
-743.475392516264,684
-740.7992136248035,685
-738.1237713233636,718
-735.4490654383407,697
-732.7750957960521,705
-730.1018622227365,719
-727.4293645445534,727
-724.7576025875837,694
-722.0865761778291,713
-719.4162851412126,702
-716.7467293035781,730
-714.0779084906909,727
-711.409822528237,751
-708.7424712418238,713
-706.0758544569796,713
-703.4099719991541,762
-700.7448236937178,744
-698.0804093659622,744
-695.4167288411002,757
-692.7537819442656,761
-690.0915685005134,763
-687.4300883348199,789
-684.7693412720819,747
-682.1093271371178,748
-679.4500457546669,756
-676.7914969493897,729
-674.1336805458676,764
-671.4765963686034,747
-668.8202442420206,773
-666.1646239904642,732
-663.5097354382001,733
-660.8555784094151,724
-658.2021527282176,762
-655.5494582186366,817
-652.8974947046223,774
-650.2462620100463,757
-647.5957599587009,773
-644.9459883742998,754
-642.2969470804776,765
-639.6486359007902,840
-637.0010546587141,812
-634.3542031776476,803
-631.7080812809096,817
-629.0626887917401,764
-626.4180255333008,762
-623.7740913286734,785
-621.1308860008619,783
-618.4884093727904,815
-615.8466612673046,807
-613.2056415071715,785
-610.5653499150785,772
-607.9257863136347,788
-605.28695052537,793
-602.6488423727357,818
-600.0114616781036,820
-597.3748082637674,752
-594.7388819519412,798
-592.1036825647604,834
-589.4692099242818,871
-586.8354638524829,821
-584.2024441712624,841
-581.5701507024403,788
-578.9385832677575,830
-576.3077416888759,828
-573.6776257873787,800
-571.0482353847704,793
-568.4195703024757,791
-565.7916303618415,819
-563.164415384135,847
-560.5379251905453,805
-557.9121596021815,829
-555.2871184400748,850
-552.6628015251767,882
-550.0392086783606,853
-547.4163397204204,822
-544.794194472071,798
-542.1727727539491,857
-539.5520743866118,851
-536.9320991905377,872
-534.3128469861261,912
-531.6943175936979,959
-529.0765108334947,948
-526.4594265256793,980
-523.8430644903358,1104
-521.2274245474689,1268
-518.612506517005,1289
-515.9983102187913,1329
-513.3848354725959,1314
-510.77208209810846,1311
-508.16004991493924,1346
-505.5487387426199,1444
-502.9381484006032,1532
-500.3282787082628,1649
-497.71912948489364,1626
-495.1107005497117,1562
-492.5029917218539,1495
-489.8960028203786,1289
-487.28973366426493,1255
-484.68418407241325,1115
-482.07935386364494,1060
-479.47524285670266,1077
-476.87185087025,1086
-474.2691777228715,1081
-471.66722323307334,1011
-469.0659872192821,1053
-466.4654694998459,1039
-463.86566989303384,1019
-461.26658821703614,974
-458.66822428996414,1052
-456.07057792985,1031
-453.4736489546475,1019
-450.877437182231,1029
-448.28194243039627,1010
-445.68716451686,993
-443.09310325926003,969
-440.49975847515555,985
-437.9071299820263,1013
-435.31521759727354,990
-432.72402113821954,1077
-430.13354042210767,1071
-427.5437752661022,1041
-424.95472548728867,1053
-422.36639090267386,1037
-419.7787713291855,1064
-417.1918665836721,1064
-414.60567648290385,1073
-412.0202008435715,1124
-409.4354394822874,1074
-406.8513922155845,1064
-404.26805885991723,1124
-401.685439231661,1134
-399.103533147112,1104
-396.522340422488,1098
-393.9418608739278,1088
-391.3620943174908,1082
-388.7830405691583,1075
-386.2046994448317,990
-383.6270707603344,1002
-381.05015433141045,928
-378.473949973725,856
-375.8984575028645,817
-373.32367673433623,752
-370.74960748356875,710
-368.1762495659117,679
-365.60360279663576,671
-363.03166699093265,565
-360.4604419639154,526
-357.8899275306178,498
-355.32012350599507,530
-352.7510297049233,505
-350.1826459421999,471
-347.61497203254316,454
-345.04800779059235,455
-342.4817530309082,455
-339.91620756797226,456
-337.35137121618743,471
-334.7872437898774,491
-332.22382510328725,497
-329.66111497058273,525
-327.09911320585127,550
-324.53781962310075,560
-321.9772340362607,510
-319.4173562591816,475
-316.8581861056348,463
-314.2997233893127,456
-311.7419679238294,476
-309.1849195227194,486
-306.62857799943856,534
-304.0729431673641,512
-301.51801483979375,522
-298.963792829947,519
-296.41027695096386,509
-293.85746701590574,585
-291.3053628377552,553
-288.7539642294155,518
-286.2032710037115,549
-283.65328297338897,551
-281.1039999511146,535
-278.5554217494762,606
-276.007548180983,613
-273.4603790580651,586
-270.9139141930734,586
-268.3681533982807,605
-265.8230964858798,561
-263.27874326798565,562
-260.7350935566336,603
-258.1921471637804,598
-255.6499039013039,591
-253.10836358100266,613
-250.56752601459698,625
-248.02739101372765,613
-245.48795838995704,622
-242.94922795476816,616
-240.41119951956557,617
-237.8738728956746,650
-235.33724789434166,644
-232.80132432673452,667
-230.2661020039418,592
-227.73158073697357,614
-225.19776033676033,606
-222.66464061415422,651
-220.1322213799284,647
-217.60050244477725,669
-215.06948361931552,643
-212.53916471408013,622
-210.00954553952818,669
-207.48062590603843,753
-204.9524056239104,725
-202.4248845033651,719
-199.8980623545441,706
-197.37193898751036,741
-194.84651421224817,810
-192.32178783866232,788
-189.79775967657952,805
-187.27442953574644,874
-184.7517972258321,864
-182.2298625564256,805
-179.7086253370378,776
-177.18808537710026,747
-174.66824248596583,741
-172.14909647290835,793
-169.6306471471229,861
-167.11289431772548,902
-164.59583779375328,990
-162.07947738416453,895
-159.5638128978386,911
-157.04884414357605,993
-154.53457093009854,969
-152.02099306604828,875
-149.50811035998936,856
-146.99592262040665,837
-144.48442965570587,870
-141.97363127421409,863
-139.46352728417958,1006
-136.95411749377126,954
-134.44540171107985,914
-131.93737974411636,879
-129.43005140081357,821
-126.92341648902493,1062
-124.41747481652521,1396
-121.91222619101006,1711
-119.40767042009657,1944
-116.90380731132257,2052
-114.40063667214702,2146
-111.8981583099503,2077
-109.3963720320337,1882
-106.89527764561933,1578
-104.39487495785067,1710
-101.89516377579241,2160
-99.39614390642998,3020
-96.89781515667039,3833
-94.40017733334128,3802
-91.90323024319173,3256
-89.40697369289148,2874
-86.91140748903172,2960
-84.41653143812482,3651
-81.92234534660395,4361
-79.42884902082358,4754
-76.93604226705907,5963
-74.4439248915071,10427
-71.95249670028534,16831
-69.46175749943245,21096
-66.97170709490854,21948
-64.48234529259423,20546
-61.99367189829195,17280
-59.50568671772464,12001
-57.01838955653636,8181
-54.53178022029283,8524
-52.045858514480074,10775
-49.560624244506016,13866
-47.07607721569923,15534
-44.59221723330904,15410
-42.10904410250669,15604
-39.62655762838392,14052
-37.14475761595372,11627
-34.66364387015028,11099
-32.18321619582866,11836
-29.70347439776515,11700
-27.224418280657005,12214
-24.74604764912317,13378
-22.26836230770266,16362
-19.7913620608565,27302
-17.315046712966478,46052
-14.83941606833514,60787
-12.36446993118659,65037
-9.89020810566592,65037
-7.416630395839093,65037
-4.94373660569363,65037
-2.471526539137585,65037
-6.821210263296962E-13,65037
2.47084320796705,65037
4.941003281093458,65037
7.410480415786196,65037
9.879274808531363,65037
12.347386655893956,65037
14.814816154518212,65037
17.28156350112681,65037
19.74762889252179,65037
22.21301252558385,65037
24.67771459727237,20852
27.141735304626195,4371
29.605074844762612,2848
32.06773341487792,2670
34.52971121224755,2444
36.99100843422559,2137
39.45162527824516,1989
41.91156194181792,1934
44.370818622535126,1604
46.82939551806646,1462
49.287292826160524,1465
51.74451074464503,2015
54.201049471426245,2441
56.65690920448981,2058
59.112090141899785,1682
61.56659248179983,1632
64.02041642241159,1292
66.4735621620365,1128
68.92602989905402,1129
71.37781983192338,1212
73.82893215918205,1372
76.27936707944684,1440
78.72912479141326,1319
81.17820549385567,1149
83.62660938562783,1163
86.07433666566146,1190
88.5213875329681,1009
90.96776218663751,1047
93.41346082583925,1178
95.85848364982041,1133
98.30283085790859,1151
100.7465026495089,1196
103.18949922410604,1103
105.63182078126385,1029
108.07346752062438,1006
110.51443964190923,992
112.95473734491827,997
115.39436082953114,911
117.83331029570547,1083
120.27158594347827,1351
122.7091879729652,1391
125.1461165843615,1183
127.58237197794062,1009
130.01795435405518,954
132.4528639131364,922
134.88710085569494,957
137.32066538231982,993
139.75355769367923,966
142.1857779905207,876
144.61732647366978,855
147.04820334403132,900
149.47840880258934,888
151.90794305040674,966
154.33680628862487,1045
156.76499871846443,1231
159.19252054122433,1446
161.61937195828352,1476
164.04555317109896,1645
166.47106438120693,1826
168.89590579022217,2072
171.320077599839,2186
173.7435800118302,2371
176.16641322804742,2477
178.58857745042144,2608
181.01007288096173,2708
183.43089972175687,2743
185.85105817497413,2665
188.27054844285988,2531
190.6893707277394,2685
193.10752523201643,2671
195.5250121581745,2816
197.9418317087751,2794
200.3579840864594,2905
202.7734694939469,2752
205.18828813403627,3082
207.6024402096051,3161
210.01592592360964,3083
212.42874547908548,2911
214.84089907914665,2967
217.2523869269868,2898
219.66320922587727,2931
222.0733661791695,2960
224.48285799029293,2904
226.8916848627572,2975
229.29984700014882,2993
231.7073446061355,2908
234.11417788446204,2897
236.520347038953,2950
238.92585227351185,3005
241.33069379212054,3104
243.73487179884035,3157
246.1383864978112,3159
248.541238093252,3153
250.9434267894609,3084
253.34495279081432,3068
255.74581630176783,3160
258.1460175268563,3104
260.54555667069314,3189
262.9444339379703,3078
265.3426495334594,3126
267.7402036620107,3011
270.1370965285529,2954
272.53332833809407,2963
274.9288992957214,2846
277.32380960660055,2840
279.718059475976,2708
282.1116491091717,2790
284.5045787115897,2781
286.89684848871195,2758
289.2884586460981,2686
291.67940938938807,2843
294.0697009242996,2705
296.4593334566299,2825
298.84830719225477,2748
301.23662233712923,2678
303.6242790972866,2640
306.01127767884,2605
308.39761828798066,2553
310.78330113097934,2566
313.16832641418534,2493
315.5526943440269,2580
317.9364051270112,2450
320.3194589697242,2501
322.70185607883093,2463
325.0835966610754,2590
327.4646809232805,2414
329.8451090723478,2362
332.2248813152577,2366
334.6039978590701,2377
336.9824589109231,2346
339.36026467803447,2311
341.7374153677,2237
344.113911187295,2326
346.48975234427337,2192
348.8649390461686,2291
351.2394715005918,2351
353.61334991523415,2328
355.9865744978655,2210
358.35914545633375,2302
360.73106299856715,2313
363.10232733257146,2234
365.47293866643247,2270
367.84289720831396,2258
370.2122031664593,2164
372.5808567491905,2252
374.9488581649083,2242
377.31620762209275,2246
379.6829053293021,2150
382.0489514951745,2188
384.4143463284262,2186
386.7790900378528,2239
389.14318283232853,2122
391.50662492080653,2138
393.86941651231916,2080
396.23155781597745,2151
398.5930490409713,2161
400.9538903965696,2159
403.3140820921202,2121
405.6736243370498,2244
408.03251734086336,2233
410.3907613131465,2141
412.74835646356166,2060
415.10530300185144,2086
417.4616011378372,2098
419.81725108141893,2114
422.1722530425758,2021
424.5266072313656,2104
426.880313857925,1942
429.2333731324701,2072
431.58578526529516,2129
433.9375504667738,2074
436.2886689473588,2076
438.63914091758113,2061
440.9889665880513,2095
443.33814616945835,2022
445.68667987257015,1979
448.03456790823395,1997
450.3818104873759,2010
452.72840782100013,2036
455.07436012019105,2057
457.41966759611057,1984
459.7643304600007,2024
462.10834892318155,2061
464.4517231970525,2101
466.79445349309174,1991
469.1365400228566,2057
471.4779829979826,2020
473.81878263018564,1960
476.15893913125876,2043
478.4984527130747,2045
480.8373235875855,2097
483.17555196682144,2162
485.5131380628919,2177
487.8500820879857,2262
490.1863842543697,2313
492.52204477439034,2497
494.8570638604725,2720
497.1914417251204,2951
499.52517858091653,3168
501.85827464052306,3364
504.19073011668036,3520
506.5225452222086,3363
508.85372017000566,3298
511.18425517304956,3289
513.514150444396,3439
515.8434061971808,4133
518.1720226446176,5073
520.4999999999999,5308
522.8273384766991,5040
525.1540382881666,4830
527.480099647932,4260
529.8055227696037,3562
532.1303078668694,2962
534.454455153496,2469
536.777964843328,2359
539.1008371502907,2217
541.4230722883866,2242
543.744670471698,2169
546.0656319143858,2152
548.3859568306899,2156
550.7056454349294,2172
553.0246979415016,2013
555.3431145648834,2060
557.6608955196306,2077
559.978041020377,2054
562.2945512818363,2065
564.6104265188006,2202
566.9256669461412,2134
569.2402727788082,2104
571.5542442318302,2153
573.8675815203156,2100
576.1802848594508,2239
578.4923544645015,2171
580.8037905508126,2187
583.114593333807,2223
585.4247630289875,2169
587.7342998519354,2146
590.0432040183106,2224
592.3514757438526,2175
594.6591152443794,2210
596.9661227357875,2111
599.2724984340531,2085
601.578242555231,2177
603.8833553154542,2165
606.1878369309362,2175
608.4916876179676,2150
610.7949075929192,2109
613.0974970722403,2068
615.3994562724587,2146
617.7007854101818,2057
620.0014847020951,2177
622.3015543649641,2173
624.6009946156324,2176
626.8998056710224,2193
629.1979877481361,2180
631.4955410640538,2115
633.7924658359349,2114
636.0887622810175,2158
638.3844306166192,2155
640.6794710601358,2133
642.9738838290426,2117
645.2676691408932,2112
647.5608272133207,2186
649.853358264037,2147
652.1452625108324,2114
654.4365401715764,2109
656.7271914642178,2145
659.0172166067838,2206
661.3066158173809,2167
663.5953893141935,2171
665.8835373154867,2210
668.1710600396028,2151
670.4579577049639,2168
672.7442305300709,2243
675.0298787335033,2148
677.3149025339197,2102
679.599302150058,2170
681.8830778007342,2159
684.1662297048437,2129
686.4487580813608,2147
688.7306631493387,2195
691.0119451279091,2107
693.2926042362834,2139
695.5726406937516,2162
697.8520547196814,2215
700.1308465335215,2161
702.4090163547982,2176
704.6865644031171,2103
706.9634908981619,2213
709.2397960596965,2129
711.5154801075631,2123
713.7905432616823,2132
716.0649857420548,2182
718.3388077687592,2113
720.612009561953,2093
722.8845913418733,2126
725.1565533288352,2190
727.427895743234,2142
729.6986188055427,2170
731.9687227363137,2196
734.238207756178,2169
736.5070740858458,2135
738.7753219461066,2185
741.0429515578281,2209
743.3099631419569,2213
745.5763569195191,2201
747.8421331116193,2222
750.1072919394409,2087
752.3718336242467,2169
754.6357583873777,2159
756.8990664502545,2138
759.1617580343765,2213
761.423833361321,2078
763.6852926527457,2153
765.9461361303862,2242
768.206364016058,2201
770.4659765316536,2210
772.7249738991469,2113
774.9833563405886,2204
777.2411240781092,2184
779.4982773339183,2155
781.7548163303044,2190
784.010741289634,2205
786.2660524343538,2305
788.5207499869881,2150
790.7748341701416,2271
793.0283052064964,2120
795.2811633188143,2262
797.5334087299362,2218
799.7850416627813,2248
802.0360623403484,2174
804.2864709857143,2127
806.5362678220353,2230
808.7854530725468,2249
811.0340269605625,2229
813.2819897094754,2202
815.5293415427581,2215
817.77608268396,2280
820.0222133567116,2146
822.2677337847211,2164
824.5126441917765,2217
826.7569448017433,2172
829.0006358385675,2213
831.2437175262731,2175
833.4861900889629,2232
835.7280537508192,2202
837.9693087361026,2121
840.2099552691533,2146
842.4499935743896,2264
844.689423876309,2178
846.9282463994886,2175
849.1664613685833,2152
851.4040690083276,2236
853.6410695435349,2123
855.877463199097,2173
858.1132501999847,2224
860.3484307712487,2231
862.5830051380175,2233
864.8169735254988,2255
867.0503361589791,2197
869.2830932638243,2179
871.5152450654786,2232
873.7467917894654,2272
875.9777336613873,2287
878.2080709069252,2254
880.4378037518389,2237
882.666932421968,2291
884.8954571432301,2196
887.1233781416219,2232
889.3506956432192,2292
891.5774098741766,2284
893.803521060728,2339
896.0290294291852,2329
898.2539352059397,2284
900.4782386174619,2264
902.7019398903011,2264
904.925039251085,2284
907.147536926521,2323
909.3694331433943,2277
911.59072812857,2209
913.8114221089921,2173
916.0315153116827,2231
918.2510079637437,2197
920.4699002923547,2172
922.6881925247761,2225
924.905884888345,2226
927.1229776104793,2199
929.3394709186747,2192
931.555365040506,2207
933.7706602036275,2237
935.9853566357709,2250
938.1994545647489,2225
940.4129542184515,2186
942.6258558248488,2177
944.8381596119883,2190
947.0498658079974,2137
949.2609746410825,2146
951.4714863395287,2139
953.6814011316998,2161
955.8907192460387,2145
958.0994409110671,2167
960.3075663553858,2105
962.5150958076741,2163
964.7220294966913,2127
966.928367651274,2092
969.1341105003388,2113
971.3392582728806,2203
973.5438111979742,2169
975.747769504772,2164
977.9511334225061,2081
980.153903180487,2089
982.3560790081052,2059
984.5576611348289,2128
986.7586497902058,2080
988.9590452038618,2051
991.158847605503,2050
993.3580572249133,2078
995.5566742919558,1958
997.7546990365728,1970
999.952131688785,1972
1002.1489724786926,1895
1004.3452216364743,1870
1006.5408793923874,1851
1008.7359459767691,1839
1010.9304216200343,1868
1013.1243065526781,1814
1015.3176010052733,1905
1017.510305208472,1917
1019.7024193930064,1886
1021.8939437896848,1868
1024.0848786293977,1897
1026.2752241431122,1801
1028.4649805618747,1808
1030.6541481168115,1792
1032.842727039127,1818
1035.0307175601051,1865
1037.2181199111074,1825
1039.4049343235752,1786
1041.591161029029,1735
1043.7768002590683,1780
1045.9618522453698,1832
1048.1463172196918,1808
1050.3301954138697,1784
1052.513487059818,1783
1054.69619238953,1818
1056.8783116350783,1818
1059.0598450286152,1821
1061.2407928023704,1765
1063.4211551886528,1762
1065.6009324198508,1847
1067.780124728432,1853
1069.9587323469414,1820
1072.1367555080046,1800
1074.314194444325,1755
1076.4910493886855,1731
1078.667320573947,1770
1080.843008233051,1752
1083.0181125990161,1769
1085.1926339049414,1745
1087.3665723840027,1780
1089.5399282694575,1692
1091.7127017946405,1704
1093.8848931929647,1735
1096.0565026979243,1763
1098.2275305430899,1757
1100.3979769621128,1628
1102.567842188722,1697
1104.737126456726,1706
1106.9058300000124,1703
1109.0739530525475,1692
1111.2414958483764,1722
1113.4084586216231,1719
1115.5748416064907,1668
1117.7406450372605,1685
1119.9058691482942,1704
1122.0705141740304,1701
1124.2345803489884,1658
1126.3980679077658,1676
1128.5609770850388,1634
1130.7233081155623,1737
1132.8850612341707,1667
1135.0462366757774,1688
1137.2068346753745,1645
1139.3668554680326,1659
1141.526299288901,1617
1143.68516637321,1664
1145.8434569562655,1659
1148.001171273455,1665
1150.158309560244,1661
1152.3148720521767,1648
1154.470858984876,1683
1156.626270594044,1674
1158.7811071154629,1655
1160.9353687849912,1622
1163.089055838569,1608
1165.242168512213,1609
1167.3947070420209,1713
1169.5466716641677,1669
1171.6980626149075,1654
1173.8488801305748,1660
1175.9991244475814,1609
1178.1487958024186,1623
1180.2978944316555,1609
1182.4464205719428,1665
1184.5943744600072,1630
1186.7417563326567,1597
1188.8885664267755,1603
1191.0348049793297,1639
1193.1804722273619,1670
1195.325568407995,1685
1197.4700937584303,1619
1199.614048515948,1670
1201.7574329179074,1620
1203.900247201746,1629
1206.042491604982,1660
1208.1841663652099,1569
1210.3252717201053,1715
1212.465807907422,1602
1214.6057751649923,1622
1216.7451737307279,1641
1218.8840038426192,1658
1221.0222657387353,1625
1223.1599596572241,1666
1225.2970858363137,1643
1227.4336445143094,1577
1229.5696359295966,1657
1231.705060320639,1593
1233.8399179259786,1694
1235.9742089842384,1697
1238.107933734118,1691
1240.2410924143974,1691
1242.373685263935,1610
1244.5057125216676,1731
1246.6371744266116,1617
1248.7680712178621,1687
1250.898403134593,1743
1253.028170416058,1685
1255.1573733015875,1684
1257.2860120305932,1646
1259.4140868425648,1686
1261.54159797707,1724
1263.6685456737569,1726
1265.7949301723515,1687
1267.9207517126597,1662
1270.046010534565,1675
1272.1707068780306,1625
1274.2948409830983,1670
1276.4184130898889,1678
1278.541423438603,1744
1280.6638722695184,1692
1282.785759822993,1749
1284.9070863394636,1660
1287.0278520594447,1707
1289.1480572235314,1767
1291.2677020723963,1742
1293.3867868467923,1742
1295.5053117875495,1833
1297.623277135579,1765
1299.740683131868,1782
1301.8575300174857,1815
1303.973818033578,1791
1306.0895474213703,1765
1308.2047184221678,1857
1310.3193312773528,1845
1312.4333862283888,1844
1314.5468835168163,1829
1316.659823384255,1819
1318.7722060724045,1763
1320.8840318230418,1861
1322.9953008780249,1813
1325.1060134792888,1790
1327.2161698688478,1833
1329.3257702887959,1799
1331.4348149813054,1863
1333.5433041886276,1795
1335.6512381530933,1758
1337.7586171171101,1745
1339.8654413231675,1767
1341.9717110138317,1816
1344.0774264317488,1814
1346.1825878196432,1718
1348.2871954203192,1783
1350.3912494766587,1744
1352.4947502316231,1789
1354.5976979282532,1765
1356.7000928096686,1752
1358.8019351190665,1718
1360.9032250997243,1842
1363.0039629949988,1737
1365.1041490483235,1749
1367.2037835032133,1761
1369.3028666032606,1830
1371.401398592137,1798
1373.4993797135926,1721
1375.5968102114575,1793
1377.6936903296396,1774
1379.7900203121262,1783
1381.8858004029835,1799
1383.9810308463561,1827
1386.075711886469,1762
1388.1698437676241,1799
1390.2634267342032,1780
1392.356461030667,1760
1394.4489469015557,1827
1396.5408845914872,1843
1398.6322743451592,1870
1400.7231164073469,1843
1402.813411022907,1752
1404.903158436773,1809
1406.9923588939578,1920
1409.0810126395531,1864
1411.1691199187303,1892
1413.2566809767386,1785
1415.343696058907,1892
1417.4301654106425,1917
1419.5160892774315,1837
1421.6014679048399,1916
1423.6863015385125,1887
1425.7705904241707,1981
1427.8543348076178,1915
1429.9375349347342,1897
1432.0201910514802,1936
1434.102303403894,1900
1436.1838722380944,2009
1438.2648978002767,2059
1440.3453803367174,2037
1442.4253200937692,2046
1444.5047173178677,2024
1446.5835722555234,2016
1448.6618851533285,2070
1450.739656257952,2118
1452.8168858161434,2153
1454.8935740747306,2074
1456.96972128062,2237
1459.045327680797,2157
1461.120393522327,2233
1463.1949190523528,2222
1465.2689045180973,2309
1467.3423501668608,2332
1469.415256246024,2362
1471.4876230030463,2326
1473.559450685465,2351
1475.6307395408976,2355
1477.7014898170391,2396
1479.771701761665,2529
1481.8413756226287,2479
1483.9105116478618,2429
1485.9791100853772,2531
1488.0471711832643,2561
1490.1146951896926,2572
1492.1816823529098,2616
1494.2481329212433,2673
1496.3140471430984,2634
1498.3794252669609,2714
1500.4442675413939,2723
1502.5085742150404,2745
1504.572345536622,2766
1506.6355817549388,2853
1508.6982831188702,2863
1510.7604498773744,2902
1512.8220822794883,2825
1514.8831805743293,2825
1516.9437450110909,2918
1519.003775839048,2884
1521.0632733075522,2985
1523.1222376660367,2983
1525.1806691640113,3011
1527.2385680510652,3037
1529.2959345768668,3052
1531.3527689911643,3217
1533.4090715437833,3054
1535.4648424846291,3126
1537.5200820636855,3272
1539.5747905310159,3340
1541.6289681367616,3255
1543.6826151311434,3306
1545.7357317644614,3427
1547.7883182870937,3314
1549.8403749494987,3501
1551.8919020022113,3422
1553.9428996958477,3591
1555.9933682811015,3653
1558.0433080087469,3670
1560.0927191296346,3664
1562.1416018946961,3756
1564.1899565549415,3682
1566.2377833614592,3666
1568.2850825654164,3627
1570.3318544180606,3602
1572.3780991707158,3521
1574.423817074788,3263
1576.4690083817595,3178
1578.5136733431923,3069
1580.5578122107272,3035
1582.601425236085,2877
1584.6445126710646,2777
1586.6870747675434,2633
1588.7291117774776,2616
1590.7706239529034,2578
1592.8116115459347,2404
1594.8520748087658,2323
1596.8920139936686,2285
1598.9314293529933,2172
1600.9703211391711,2174
1603.008689604711,2122
1605.0465350022005,2133
1607.0838575843068,2056
1609.1206576037753,2086
1611.1569353134305,2000
1613.1926909661765,1974
1615.2279248149953,1979
1617.2626371129481,1931
1619.2968281131757,1873
1621.3304980688963,1902
1623.3636472334088,1858
1625.39627586009,1841
1627.428384202396,1863
1629.459972513861,1785
1631.4910410480993,1816
1633.5215900588028,1849
1635.551619799744,1810
1637.5811305247717,1791
1639.6101224878166,1731
1641.6385959428862,1769
1643.6665511440683,1747
1645.693988345528,1786
1647.7209078015112,1761
1649.7473097663405,1685
1651.7731944944203,1728
1653.7985622402307,1812
1655.823413258333,1751
1657.847747803366,1751
1659.8715661300494,1802
1661.8948684931793,1743
1663.9176551476316,1683
1665.9399263483624,1719
1667.9616823504057,1747
1669.982923408873,1747
1672.0036497789574,1753
1674.0238617159293,1669
1676.043559475138,1708
1678.0627433120121,1711
1680.081413482059,1714
1682.0995702408654,1706
1684.117213844096,1693
1686.134344547495,1727
1688.1509626068864,1699
1690.1670682781705,1688
1692.182661817329,1680
1694.1977434804217,1650
1696.2123135235875,1689
1698.226372203043,1688
1700.2399197750851,1701
1702.2529564960905,1719
1704.2654826225112,1712
1706.277498410882,1700
1708.2890041178139,1720
1710.2999999999988,1703
1712.3104863142066,1640
1714.3204633172854,1640
1716.329931266163,1647
1718.3388904178469,1599
1720.3473410294214,1708
1722.3552833580516,1632
1724.3627176609807,1678
1726.3696441955308,1664
1728.3760632191033,1583
1730.3819749891782,1586
1732.3873797633146,1743
1734.3922777991502,1629
1736.3966693544012,1662
1738.4005546868639,1595
1740.4039340544127,1594
1742.406807715001,1643
1744.4091759266616,1616
1746.4110389475054,1642
1748.4123970357223,1580
1750.413250449582,1611
1752.4135994474318,1600
1754.4134442876993,1598
1756.4127852288902,1625
1758.4116225295893,1561
1760.4099564484595,1633
1762.407787244244,1585
1764.405115175764,1542
1766.4019405019203,1541
1768.3982634816916,1562
1770.3940843741357,1646
1772.3894034383907,1601
1774.3842209336717,1588
1776.378537119274,1601
1778.372352254571,1591
1780.3656665990156,1619
1782.3584804121397,1583
1784.3507939535534,1533
1786.3426074829463,1594
1788.3339212600863,1564
1790.3247355448211,1562
1792.3150505970766,1561
1794.3048666768573,1558
1796.2941840442477,1535
1798.2830029594106,1604
1800.2713236825884,1553
1802.2591464741004,1575
1804.2464715943465,1578
1806.2332993038058,1551
1808.2196298630352,1574
1810.2054635326708,1559
1812.190800573428,1617
1814.175641246101,1516
1816.1599858115628,1555
1818.1438345307652,1588
1820.127187664738,1597
1822.1100454745924,1510
1824.092408221516,1558
1826.0742761667766,1577
1828.055649571721,1532
1830.0365286977735,1594
1832.0169138064398,1565
1833.9968051593014,1583
1835.9762030180214,1545
1837.9551076443408,1564
1839.9335193000788,1593
1841.9114382471344,1563
1843.888864747485,1501
1845.8657990631878,1513
1847.842241456378,1571
1849.8181921892697,1547
1851.7936515241558,1593
1853.7686197234098,1507
1855.7430970494815,1576
1857.7170837649014,1565
1859.6905801322787,1586
1861.6635864143004,1565
1863.6361028737338,1549
1865.608129773424,1517
1867.5796673762961,1560
1869.5507159453537,1534
1871.521275743678,1537
1873.4913470344313,1609
1875.4609300808534,1639
1877.4300251462632,1580
1879.3986324940588,1550
1881.366752387717,1631
1883.3343850907936,1510
1885.3015308669228,1561
1887.268189979819,1559
1889.2343626932739,1555
1891.2000492711595,1561
1893.1652499774254,1553
1895.1299650761011,1635
1897.0941948312952,1556
1899.0579395071945,1543
1901.0211993680641,1553
1902.98397467825,1559
1904.9462657021745,1599
1906.9080727043415,1616
1908.869395949332,1601
1910.8302357018065,1569
1912.790592226504,1508
1914.7504657882428,1569
1916.7098566519212,1525
1918.6687650825133,1495
1920.6271913450764,1500
1922.5851357047422,1523
1924.5425984267245,1593
1926.499579776314,1545
1928.4560800188833,1562
1930.4120994198802,1570
1932.367638244833,1519
1934.32269675935,1610
1936.2772752291175,1525
1938.231373919899,1513
1940.1849930975404,1556
1942.1381330279637,1517
1944.0907939771696,1576
1946.0429762112412,1560
1947.9946799963363,1553
1949.9459055986945,1524
1951.896653284633,1518
1953.8469233205478,1565
1955.7967159729142,1516
1957.7460315082863,1484
1959.6948701932974,1523
1961.6432322946594,1501
1963.5911180791632,1560
1965.5385278136787,1535
1967.4854617651545,1595
1969.4319202006182,1542
1971.377903387176,1520
1973.3234115920136,1477
1975.268445082395,1476
1977.2130041256642,1495
1979.1570889892423,1514
1981.1006999406304,1553
1983.04383724741,1475
1984.986501177238,1538
1986.928691997853,1501
1988.8704099770712,1467
1990.811655382789,1546
1992.7524284829801,1459
1994.692729545698,1536
1996.6325588390755,1521
1998.5719166313224,1543
2000.5108031907307,1459
2002.4492187856677,1476
2004.387163684583,1489
2006.3246381560011,1487
2008.2616424685298,1456
2010.1981768908527,1493
2012.1342416917332,1497
2014.069837140014,1471
2016.0049635046162,1401
2017.9396210545406,1446
2019.8738100588666,1437
2021.8075307867502,1476
2023.740783507431,1494
2025.6735684902228,1421
2027.6058860045214,1525
2029.5377363198004,1483
2031.4691197056118,1469
2033.4000364315875,1462
2035.3304867674374,1444
2037.260470982952,1500
2039.189989347998,1461
2041.1190421325232,1487
2043.047629606554,1436
2044.9757520401945,1490
2046.9034097036288,1387
2048.8306028671195,1415
2050.7573318010086,1457
2052.683596775716,1428
2054.609398061742,1464
2056.5347359296647,1405
2058.4596106501403,1492
2060.384022493906,1542
2062.3079717317764,1442
2064.231458634646,1513
2066.1544834734873,1465
2068.077046519352,1442
2069.99914804337,1437
2071.9207883167524,1480
2073.8419676107865,1442
2075.7626861968406,1450
2077.6829443463607,1466
2079.6027423308715,1439
2081.522080421977,1537
2083.440958891362,1483
2085.359378010786,1462
2087.2773380520907,1496
2089.194839287196,1525
2091.111881988101,1487
2093.0284664268825,1511
2094.9445928756973,1444
2096.86026160678,1452
2098.775472892446,1470
2100.690227005088,1473
2102.604524217178,1465
2104.5183648012676,1492
2106.431749029985,1434
2108.34467717604,1503
2110.2571495122206,1514
2112.169166311393,1510
2114.080727846503,1458
2115.9918343905747,1513
2117.902486216711,1507
2119.8126835980956,1495
2121.722426807987,1492
2123.6317161197285,1436
2125.5405518067364,1509
2127.448934142509,1510
2129.356863400624,1452
2131.264339854737,1497
2133.1713637785815,1562
2135.077935445972,1468
2136.9840551308002,1482
2138.889723107037,1530
2140.7949396487334,1538
2142.699705030018,1495
2144.6040195250994,1470
2146.507883408264,1528
2148.4112969538774,1532
2150.3142604363848,1482
2152.2167741303097,1513
2154.1188383102535,1532
2156.0204532508997,1550
2157.9216192270064,1559
2159.822336513414,1497
2161.7226053850413,1514
2163.622426116884,1576
2165.5217989840185,1525
2167.4207242616,1579
2169.319202224862,1542
2171.2172331491165,1577
2173.1148173097563,1569
2175.0119549822507,1554
2176.90864644215,1560
2178.8048919650823,1603
2180.7006918267534,1507
2182.596046302952,1535
2184.4909556695407,1615
2186.3854202024645,1529
2188.279440177746,1534
2190.173015871487,1555
2192.066147559868,1640
2193.958835519149,1536
2195.851080025667,1597
2197.7428813558417,1515
2199.6342397861667,1590
2201.5251555932186,1621
2203.415629053651,1615
2205.3056604441986,1596
2207.19525004167,1598
2209.084398122958,1597
2210.9731049650327,1641
2212.861370844941,1642
2214.749196039812,1619
2216.636580826851,1599
2218.523525483344,1550
2220.410030286655,1619
2222.296095514226,1584
2224.1817214435805,1607
2226.066908352319,1645
2227.951656518121,1608
2229.835966218746,1559
2231.71983773203,1630
2233.6032713358913,1605
2235.486267308324,1620
2237.3688259274036,1664
2239.2509474712824,1590
2241.132632218193,1621
2243.013880446447,1663
2244.8946924344323,1730
2246.7750684606203,1602
2248.6550088035574,1581
2250.534513741871,1581
2252.413583554265,1680
2254.292218519526,1615
2256.170418916517,1564
2258.0481850241786,1578
2259.925517121534,1522
2261.8024154876825,1601
2263.678880401803,1651
2265.5549121431536,1633
2267.430510991071,1618
2269.305677224971,1562
2271.180411124348,1637
2273.0547129687766,1600
2274.9285830379076,1594
2276.8020216114737,1562
2278.6750289692845,1590
2280.5476053912294,1636
2282.4197511572766,1586
2284.2914665474727,1599
2286.162751841943,1565
2288.0336073208937,1669
2289.904033264608,1587
2291.774029953448,1627
2293.6435976678554,1621
2295.5127366883517,1643
2297.381447295534,1536
2299.2497297700825,1518
2301.1175843927526,1502
2302.9850114443825,1412
2304.852011205885,1440
2306.7185839582553,1438
2308.5847299825664,1402
2310.4504495599676,1393
2312.3157429716925,1370
2314.1806104990483,1371
2316.0450524234247,1374
2317.9090690262888,1402
2319.772660589186,1432
2321.635827393742,1397
2323.498569721661,1383
2325.3608878547248,1386
2327.2227820747967,1383
2329.0842526638157,1405
2330.945299903803,1341
2332.805924076857,1340
2334.6661254651535,1349
2336.525904350951,1319
2338.3852610165827,1371
2340.244195744464,1396
2342.102708817088,1424
2343.9608005170253,1311
2345.8184711269287,1390
2347.675720929526,1343
2349.532550207628,1320
2351.38895924412,1401
2353.24494832197,1413
2355.100517724223,1455
2356.955667734004,1408
2358.810398634514,1374
2360.664710709037,1365
2362.5186042409337,1401
2364.3720795136437,1372
2366.225136810686,1383
2368.0777764156583,1454
2369.929998612237,1410
2371.7818036841777,1404
2373.633191915315,1380
2375.484163589562,1401
2377.3347189909114,1385
2379.184858403434,1375
2381.03458211128,1378
2382.8838903986775,1429
2384.732783549936,1416
2386.5812618494406,1391
2388.4293255816588,1408
2390.2769750311327,1363
2392.1242104824883,1439
2393.971032220427,1491
2395.8174405297295,1363
2397.6634356952563,1347
2399.509018001947,1411
2401.3541877348193,1449
2403.1989451789705,1406
2405.043290619576,1433
2406.8872243418905,1392
2408.730746631247,1397
2410.5738577730594,1383
2412.4165580528183,1366
2414.258847756095,1426
2416.100727168537,1413
2417.9421965758734,1383
2419.783256263912,1401
2421.623906518538,1402
2423.4641476257157,1320
2425.303979871491,1401
2427.143403541984,1401
2428.9824189233977,1400
2430.821026302012,1388
2432.6592259641866,1433
2434.497018196361,1366
2436.33440328505,1360
2438.171381516851,1416
2440.00795317844,1389
2441.844118556569,1376
2443.6798779380724,1462
2445.5152316098606,1457
2447.3501798589255,1434
2449.1847229723357,1371
2451.0188612372403,1416
2452.8525949408663,1400
2454.6859243705203,1461
2456.518849813587,1445
2458.3513715575314,1429
2460.183489889895,1467
2462.015205098301,1438
2463.8465174704493,1378
2465.67742729412,1378
2467.5079348571717,1468
2469.338040447542,1425
2471.1677443532476,1401
2472.9970468623833,1434
2474.825948263123,1437
2476.6544488437207,1356
2478.482548892508,1361
2480.310248697896,1449
2482.137548548374,1444
2483.9644487325118,1568
2485.790949538956,1447
2487.617051256433,1424
2489.44275417375,1487
2491.26805857979,1486
2493.0929647635157,1451
2494.917473013971,1455
2496.741583620276,1456
2498.5652968716304,1459
2500.3886130573137,1444
2502.2115324666834,1466
2504.0340553891765,1492
2505.856182114308,1548
2507.6779129316733,1454
2509.499248130945,1469
2511.3201880018764,1494
2513.140732834298,1463
2514.9608829181198,1498
2516.780638543331,1436
2518.6,1450
2520.418967578273,1512
2522.237541568376,1507
2524.0557222606144,1508
2525.8735099453706,1537
2527.6909049131086,1500
2529.507907454368,1554
2531.32451785977,1533
2533.140736420014,1508
2534.9565634258774,1553
2536.771999168218,1537
2538.5870439379714,1564
2540.4016980261526,1576
2542.2159617238544,1554
2544.02983532225,1565
2545.8433191125914,1619
2547.656413386209,1551
2549.4691184345115,1620
2551.2814345489874,1562
2553.093362021204,1645
2554.904901142808,1617
2556.716052205523,1576
2558.526815501153,1694
2560.3371913215824,1579
2562.147179958771,1617
2563.956781704761,1675
2565.7659968516705,1661
2567.5748256916986,1693
2569.3832685171224,1671
2571.1913256202984,1713
2572.9989972936614,1655
2574.806283829725,1704
2576.613185521084,1737
2578.4197026604074,1643
2580.2258355404483,1789
2582.031584454035,1732
2583.836949694077,1766
2585.6419315535613,1760
2587.4465303255533,1733
2589.2507463032002,1754
2591.0545797797245,1694
2592.8580310484303,1788
2594.6611004026995,1727
2596.463788135992,1846
2598.266094541849,1745
2600.0680199138874,1762
2601.869564545807,1758
2603.670728731383,1739
2605.4715127644704,1817
2607.2719169390048,1782
2609.071941548998,1769
2610.8715868885433,1792
2612.670853251811,1781
2614.469740933052,1748
2616.268250226594,1734
2618.0663814268455,1788
2619.864134828292,1728
2621.6615107255006,1730
2623.458509413115,1757
2625.2551311858597,1785
2627.0513763385347,1683
2628.8472451660223,1759
2630.6427379632833,1691
2632.4378550253564,1712
2634.232596647359,1659
2636.026963124488,1615
2637.8209547520187,1680
2639.6145718253065,1679
2641.407814639785,1692
2643.200683490966,1674
2644.9931786744414,1703
2646.7853004858807,1634
2648.577049221034,1715
2650.3684251757277,1552
2652.1594286458712,1597
2653.9500599274484,1597
2655.740319316525,1527
2657.5302071092437,1597
2659.3197236018286,1582
2661.10886909058,1594
2662.8976438718782,1590
2664.686048242183,1559
2666.4740824980327,1573
2668.2617469360443,1568
2670.0490418529134,1554
2671.8359675454153,1536
2673.622524310403,1523
2675.408712444811,1523
2677.1945322456495,1577
2678.979984010009,1501
2680.76506803506,1469
2682.5497846180497,1484
2684.334134056306,1536
2686.1181166472343,1499
2687.9017326883213,1484
2689.6849824771293,1481
2691.4678663113013,1551
2693.2503844885596,1525
2695.032537306705,1539
2696.8143250636167,1474
2698.5957480572542,1468
2700.3768065856534,1509
2702.1575009469316,1433
2703.937831439283,1475
2705.717798360982,1420
2707.4974020103837,1469
2709.276642685917,1418
2711.055520686095,1399
2712.834036309506,1503
2714.612189854819,1461
2716.389981620782,1378
2718.1674119062204,1426
2719.944481010041,1427
2721.721189231226,1414
2723.4975368688415,1433
2725.273524222027,1374
2727.0491515900053,1380
2728.824419272075,1340
2730.5993275676146,1438
2732.3738767760838,1464
2734.148067197016,1386
2735.921899130031,1386
2737.6953728748194,1365
2739.468488731156,1409
2741.2412469988926,1397
2743.0136479779617,1395
2744.785691968372,1344
2746.5573792702116,1371
2748.3287101836504,1417
2750.099685008934,1402
2751.870304046388,1374
2753.640567596418,1412
2755.4104759595057,1431
2757.1800294362156,1442
2758.949228327187,1440
2760.7180729331412,1427
2762.486563554877,1430
2764.254700493272,1436
2766.022484049284,1425
2767.789914523947,1418
2769.5569922183786,1418
2771.3237174337705,1415
2773.090090471394,1405
2774.8561116326036,1440
2776.6217812188274,1425
2778.3870995315756,1437
2780.1520668724356,1395
2781.9166835430747,1450
2783.6809498452394,1444
2785.444866080754,1430
2787.2084325515225,1377
2788.971649559527,1385
2790.73451740683,1376
2792.4970363955713,1482
2794.2592068279705,1374
2796.0210290063264,1413
2797.7825032330147,1367
2799.543629810493,1337
2801.304409041296,1387
2803.0648412280366,1394
2804.8249266734088,1448
2806.5846656801846,1405
2808.344058551212,1404
2810.1031055894246,1382
2811.8618070978273,1397
2813.6201633795085,1428
2815.378174737636,1397
2817.1358414754536,1407
2818.893163896285,1372
2820.6501423035334,1416
2822.4067770006814,1399
2824.1630682912883,1383
2825.9190164789957,1447
2827.6746218675207,1392
2829.429884760661,1364
2831.184805462294,1443
2832.9393842763743,1427
2834.693621506936,1412
2836.4475174580916,1441
2838.201072434034,1425
2839.954286739034,1476
2841.707160677441,1451
2843.459694553685,1398
2845.2118886722724,1481
2846.96374333779,1398
2848.7152588549034,1441
2850.4664355283567,1418
2852.217273662973,1387
2853.9677735636546,1486
2855.7179355353833,1384
2857.4677598832186,1367
2859.217246912299,1409
2860.9663969278427,1419
2862.715210235146,1381
2864.4636871395846,1398
2866.211827946614,1369
2867.9596329617652,1397
2869.7071024906536,1419
2871.4542368389684,1349
2873.20103631248,1354
2874.947501217038,1417
2876.6936318585695,1425
2878.4394285430812,1440
2880.1848915766604,1371
2881.9300212654707,1444
2883.6748179157553,1441
2885.4192818338374,1402
2887.1634133261173,1416
2888.907212699077,1390
2890.6506802592744,1424
2892.393816313348,1398
2894.1366211680142,1417
2895.8790951300693,1418
2897.621238506388,1392
2899.363051603925,1408
2901.1045347297118,1415
2902.8456881908596,1365
2904.58651229456,1405
2906.327007348081,1304
2908.067173658772,1416
2909.8070115340597,1330
2911.5465212814497,1424
2913.285703208527,1410
2915.0245576229563,1426
2916.7630848324807,1440
2918.5012851449196,1417
2920.2391588681758,1385
2921.976706310227,1400
2923.7139277791334,1360
2925.4508235830313,1377
2927.187394030137,1401
2928.923639428745,1330
2930.6595600872306,1438
2932.395156314046,1370
2934.1304284177218,1439
2935.8653767068713,1396
2937.6000014901815,1370
2939.3343030764227,1368
2941.068281774442,1351
2942.8019378931644,1401
2944.5352717415976,1402
2946.2682836288236,1445
2948.0009738640065,1405
2949.7333427563885,1433
2951.465390615289,1433
2953.1971177501086,1434
2954.9285244703265,1407
2956.6596110855,1459
2958.3903779052657,1418
2960.1208252393385,1455
2961.8509533975125,1419
2963.5807626896617,1361
2965.3102534257378,1384
2967.0394259157715,1362
2968.768280469873,1416
2970.496817398232,1392
2972.2250370111146,1406
2973.952939618869,1430
2975.6805255319196,1428
2977.4077950607707,1407
2979.134748516006,1427
2980.861386208289,1414
2982.587708448359,1457
2984.313715547037,1423
2986.039407815222,1417
2987.764785563891,1436
2989.489849104102,1411
2991.2145987469908,1370
2992.9390348037705,1441
2994.6631575857346,1447
2996.3869674042576,1422
2998.1104645707887,1409
2999.83364939686,1461
3001.5565221940783,1377
3003.2790832741334,1375
3005.0013329487924,1425
3006.7232715298996,1377
3008.4448993293804,1335
3010.166216659239,1399
3011.887223831558,1380
3013.607921158498,1408
3015.3283089522993,1370
3017.0483875252826,1411
3018.7681571898443,1382
3020.4876182584626,1384
3022.2067710436927,1407
3023.9256158581707,1386
3025.644153014609,1381
3027.362382825801,1342
3029.0803056046193,1461
3030.797921664012,1416
3032.5152313170106,1395
3034.2322348767225,1386
3035.9489326563353,1450
3037.665324969115,1429
3039.3814121284063,1426
3041.097194447633,1425
3042.812672240299,1408
3044.5278458199855,1372
3046.2427155003525,1363
3047.9572815951406,1360
3049.671544418167,1356
3051.38550428333,1373
3053.0991615046073,1426
3054.812516396051,1414
3056.5255692717974,1395
3058.2383204460575,1389
3059.9507702331257,1397
3061.662918947372,1396
3063.3747669032446,1390
3065.0863144152736,1390
3066.7975617980674,1406
3068.508509366309,1388
3070.219157434767,1390
3071.9295063182844,1390
3073.639556331785,1429
3075.3493077902704,1408
3077.058761008821,1438
3078.7679163025964,1447
3080.476773986837,1371
3082.1853343768594,1369
3083.89359778806,1404
3085.6015645359153,1377
3087.3092349359786,1405
3089.016609303884,1416
3090.7236879553434,1410
3092.4304712061476,1418
3094.136959372166,1397
3095.843152769349,1382
3097.5490517137237,1389
3099.2546565213966,1375
3100.959967508554,1411
3102.66498499146,1420
3104.3697092864577,1405
3106.0741407099695,1397
3107.778279578498,1403
3109.482126208622,1476
3111.1856809170004,1351
3112.8889440203716,1411
3114.5919158355528,1423
3116.294596679439,1432
3117.996986869006,1433
3119.6990867213062,1449
3121.4008965534726,1428
3123.102416682717,1435
3124.803647426329,1435
3126.5045891016784,1404
3128.205242026213,1481
3129.90560651746,1409
3131.605682893025,1385
3133.3054714705922,1430
3135.0049725679282,1451
3136.7041865028714,1430
3138.4031135933465,1404
3140.101754157353,1370
3141.800108512971,1422
3143.498176978357,1444
3145.1959598717494,1413
3146.8934575114636,1382
3148.5906702158954,1387
3150.2875983035183,1421
3151.9842420928853,1424
3153.680601902627,1387
3155.376678051456,1349
3157.07247085816,1353
3158.767980641609,1390
3160.463207720748,1382
3162.158152414606,1418
3163.8528150422862,1391
3165.5471959229726,1388
3167.2412953759303,1416
3168.9351137204976,1422
3170.628651276098,1383
3172.3219083622307,1387
3174.014885298474,1341
3175.707582404485,1419
3177.4000000000005,1380
3179.092138404835,1401
3180.7839979388846,1403
3182.47557892212,1362
3184.166881674594,1378
3185.8579065164386,1366
3187.5486537678626,1419
3189.2391237491547,1410
3190.9293167806827,1421
3192.6192331828934,1363
3194.3088732763117,1414
3195.998237381542,1348
3197.687325819268,1345
3199.376138910251,1390
3201.064676975334,1388
3202.7529403354347,1391
3204.4409293115523,1361
3206.1286442247647,1356
3207.816085396229,1374
3209.5032531471825,1375
3211.190147798936,1394
3212.8767696728846,1351
3214.5631190905015,1387
3216.2491963733373,1371
3217.9350018430214,1378
3219.6205358212637,1391
3221.305798629851,1339
3222.990790590651,1287
3224.6755120256103,1319
3226.359963256751,1283
3228.0441446061795,1305
3229.7280563960758,1420
3231.411698948703,1319
3233.0950725863995,1392
3234.778177631587,1309
3236.461014406761,1379
3238.1435832345005,1359
3239.8258844374595,1375
3241.507918338374,1397
3243.1896852600576,1387
3244.8711855254023,1392
3246.552419457381,1390
3248.233387379042,1444
3249.914089613516,1377
3251.59452648401,1356
3253.274698313813,1406
3254.95460542629,1366
3256.6342481448855,1373
3258.313626793125,1369
3259.9927416946084,1385
3261.6715931730196,1380
3263.3501815521176,1382
3265.0285071557437,1372
3266.706570307815,1348
3268.3843713323286,1333
3270.0619105533615,1359
3271.739188295068,1379
3273.4162048816834,1344
3275.0929606375184,1331
3276.769455886966,1391
3278.445690954498,1400
3280.1216661646613,1341
3281.797381842087,1362
3283.4728383114807,1391
3285.1480358976296,1364
3286.8229749253996,1376
3288.4976557197333,1373
3290.172078605655,1371
3291.846243908266,1351
3293.5201519527463,1318
3295.193803064357,1316
3296.8671975684374,1308
3298.5403357904024,1344
3300.21321805575,1341
3301.8858446900567,1324
3303.558216018975,1352
3305.23033236824,1330
3306.9021940636603,1401
3308.57380143113,1380
3310.2451547966184,1364
3311.916254486174,1366
3313.5871008259246,1366
3315.2576941420766,1303
3316.9280347609147,1343
3318.5981230088046,1295
3320.2679592121895,1370
3321.9375436975924,1346
3323.606876791612,1331
3325.27595882093,1333
3326.944790112305,1341
3328.6133709925753,1380
3330.2817017886573,1335
3331.949782827547,1304
3333.617614436319,1370
3335.2851969421245,1394
3336.952530672199,1436
3338.619615953853,1335
3340.286453114475,1353
3341.9530424815357,1362
3343.619384382583,1411
3345.2854791452437,1330
3346.951327097224,1381
3348.6169285663073,1332
3350.2822838803577,1410
3351.947393367319,1362
3353.61225735521,1370
3355.2768761721345,1312
3356.9412501462693,1369
3358.605379605873,1309
3360.2692648792827,1397
3361.9329062949146,1347
3363.596304181263,1307
