CollectionTime,7/10/2024 4:55:03 PM
ExposureUsed,3
CalibratedSpectrum
-962.7078968117929,750
-959.9714848408522,810
-957.2358232597828,828
-954.5009119013725,811
-951.7667505983302,805
-949.0333391832855,840
-946.3006774887896,842
-943.5687653473143,848
-940.837602591253,824
-938.1071890529199,871
-935.3775245645503,843
-932.6486089583007,811
-929.9204420662485,812
-927.1930237203925,864
-924.4663537526524,814
-921.7404319948689,847
-919.0152582788041,874
-916.2908324361409,880
-913.5671542984834,854
-910.8442236973568,843
-908.1220404642074,854
-905.4006044304027,895
-902.679915427231,808
-899.959973285902,823
-897.2407778375464,819
-894.5223289132158,843
-891.8046263438832,824
-889.0876699604426,813
-886.3714595937089,834
-883.6559950744183,790
-880.9412762332282,831
-878.2273029007168,817
-875.5140749073835,797
-872.8015920836489,807
-870.0898542598545,805
-867.3788612662631,801
-864.6686129330585,809
-861.9591090903457,809
-859.2503495681506,829
-856.5423341964203,821
-853.8350628050229,860
-851.1285352237478,778
-848.4227512823054,820
-845.7177108103272,817
-843.0134136373656,783
-840.3098595928943,820
-837.6070485063082,852
-834.9049802069229,880
-832.2036545239757,853
-829.5030712866244,855
-826.8032303239481,840
-824.1041314649472,849
-821.4057745385428,819
-818.7081593735775,831
-816.0112857988148,831
-813.3151536429393,867
-810.6197627345566,818
-807.9251129021936,870
-805.2312039742981,863
-802.5380357792392,903
-799.8456081453069,832
-797.1539209007124,862
-794.462973873588,868
-791.772766891987,885
-789.083299783884,903
-786.3945723771743,839
-783.7065844996748,849
-781.0193359791231,822
-778.3328266431781,846
-775.6470563194197,841
-772.9620248353489,806
-770.2777320183878,862
-767.5941776958798,852
-764.9113616950891,876
-762.2292838432011,869
-759.5479439673222,858
-756.8673418944801,847
-754.1874774516235,892
-751.5083504656222,893
-748.8299607632671,895
-746.15230817127,842
-743.475392516264,851
-740.7992136248035,929
-738.1237713233636,925
-735.4490654383407,908
-732.7750957960521,929
-730.1018622227365,908
-727.4293645445534,905
-724.7576025875837,885
-722.0865761778291,944
-719.4162851412126,901
-716.7467293035781,903
-714.0779084906909,891
-711.409822528237,958
-708.7424712418238,889
-706.0758544569796,881
-703.4099719991541,911
-700.7448236937178,970
-698.0804093659622,918
-695.4167288411002,993
-692.7537819442656,933
-690.0915685005134,925
-687.4300883348199,946
-684.7693412720819,913
-682.1093271371178,973
-679.4500457546669,916
-676.7914969493897,916
-674.1336805458676,918
-671.4765963686034,923
-668.8202442420206,990
-666.1646239904642,964
-663.5097354382001,936
-660.8555784094151,916
-658.2021527282176,977
-655.5494582186366,921
-652.8974947046223,1005
-650.2462620100463,977
-647.5957599587009,923
-644.9459883742998,967
-642.2969470804776,965
-639.6486359007902,961
-637.0010546587141,969
-634.3542031776476,972
-631.7080812809096,963
-629.0626887917401,996
-626.4180255333008,975
-623.7740913286734,973
-621.1308860008619,1000
-618.4884093727904,1028
-615.8466612673046,968
-613.2056415071715,966
-610.5653499150785,980
-607.9257863136347,978
-605.28695052537,970
-602.6488423727357,981
-600.0114616781036,1017
-597.3748082637674,996
-594.7388819519412,1023
-592.1036825647604,1014
-589.4692099242818,980
-586.8354638524829,1077
-584.2024441712624,1007
-581.5701507024403,1024
-578.9385832677575,1007
-576.3077416888759,1051
-573.6776257873787,1027
-571.0482353847704,1021
-568.4195703024757,1013
-565.7916303618415,1009
-563.164415384135,1075
-560.5379251905453,1057
-557.9121596021815,1057
-555.2871184400748,1021
-552.6628015251767,1058
-550.0392086783606,1011
-547.4163397204204,994
-544.794194472071,1027
-542.1727727539491,1052
-539.5520743866118,1035
-536.9320991905377,1066
-534.3128469861261,1104
-531.6943175936979,1182
-529.0765108334947,1195
-526.4594265256793,1158
-523.8430644903358,1300
-521.2274245474689,1405
-518.612506517005,1493
-515.9983102187913,1460
-513.3848354725959,1499
-510.77208209810846,1538
-508.16004991493924,1544
-505.5487387426199,1640
-502.9381484006032,1747
-500.3282787082628,1748
-497.71912948489364,1806
-495.1107005497117,1746
-492.5029917218539,1664
-489.8960028203786,1525
-487.28973366426493,1425
-484.68418407241325,1357
-482.07935386364494,1309
-479.47524285670266,1245
-476.87185087025,1257
-474.2691777228715,1265
-471.66722323307334,1251
-469.0659872192821,1264
-466.4654694998459,1300
-463.86566989303384,1244
-461.26658821703614,1259
-458.66822428996414,1230
-456.07057792985,1224
-453.4736489546475,1266
-450.877437182231,1240
-448.28194243039627,1238
-445.68716451686,1218
-443.09310325926003,1140
-440.49975847515555,1167
-437.9071299820263,1180
-435.31521759727354,1201
-432.72402113821954,1211
-430.13354042210767,1280
-427.5437752661022,1246
-424.95472548728867,1269
-422.36639090267386,1281
-419.7787713291855,1220
-417.1918665836721,1354
-414.60567648290385,1345
-412.0202008435715,1272
-409.4354394822874,1328
-406.8513922155845,1322
-404.26805885991723,1310
-401.685439231661,1290
-399.103533147112,1305
-396.522340422488,1249
-393.9418608739278,1339
-391.3620943174908,1299
-388.7830405691583,1244
-386.2046994448317,1218
-383.6270707603344,1203
-381.05015433141045,1114
-378.473949973725,1077
-375.8984575028645,997
-373.32367673433623,884
-370.74960748356875,861
-368.1762495659117,801
-365.60360279663576,784
-363.03166699093265,645
-360.4604419639154,603
-357.8899275306178,584
-355.32012350599507,570
-352.7510297049233,535
-350.1826459421999,485
-347.61497203254316,467
-345.04800779059235,492
-342.4817530309082,504
-339.91620756797226,516
-337.35137121618743,519
-334.7872437898774,488
-332.22382510328725,496
-329.66111497058273,513
-327.09911320585127,511
-324.53781962310075,530
-321.9772340362607,501
-319.4173562591816,467
-316.8581861056348,469
-314.2997233893127,467
-311.7419679238294,473
-309.1849195227194,496
-306.62857799943856,524
-304.0729431673641,562
-301.51801483979375,547
-298.963792829947,525
-296.41027695096386,563
-293.85746701590574,554
-291.3053628377552,597
-288.7539642294155,638
-286.2032710037115,601
-283.65328297338897,561
-281.1039999511146,593
-278.5554217494762,562
-276.007548180983,561
-273.4603790580651,563
-270.9139141930734,539
-268.3681533982807,555
-265.8230964858798,637
-263.27874326798565,629
-260.7350935566336,576
-258.1921471637804,604
-255.6499039013039,659
-253.10836358100266,716
-250.56752601459698,739
-248.02739101372765,615
-245.48795838995704,607
-242.94922795476816,674
-240.41119951956557,678
-237.8738728956746,714
-235.33724789434166,737
-232.80132432673452,691
-230.2661020039418,673
-227.73158073697357,624
-225.19776033676033,666
-222.66464061415422,684
-220.1322213799284,627
-217.60050244477725,669
-215.06948361931552,647
-212.53916471408013,741
-210.00954553952818,695
-207.48062590603843,745
-204.9524056239104,758
-202.4248845033651,705
-199.8980623545441,700
-197.37193898751036,715
-194.84651421224817,744
-192.32178783866232,800
-189.79775967657952,784
-187.27442953574644,838
-184.7517972258321,889
-182.2298625564256,897
-179.7086253370378,871
-177.18808537710026,752
-174.66824248596583,791
-172.14909647290835,820
-169.6306471471229,849
-167.11289431772548,931
-164.59583779375328,891
-162.07947738416453,841
-159.5638128978386,899
-157.04884414357605,862
-154.53457093009854,963
-152.02099306604828,872
-149.50811035998936,857
-146.99592262040665,828
-144.48442965570587,982
-141.97363127421409,1021
-139.46352728417958,997
-136.95411749377126,948
-134.44540171107985,902
-131.93737974411636,930
-129.43005140081357,967
-126.92341648902493,1162
-124.41747481652521,1458
-121.91222619101006,1762
-119.40767042009657,1948
-116.90380731132257,1905
-114.40063667214702,1905
-111.8981583099503,1986
-109.3963720320337,1834
-106.89527764561933,1659
-104.39487495785067,1784
-101.89516377579241,2061
-99.39614390642998,3073
-96.89781515667039,3572
-94.40017733334128,3548
-91.90323024319173,3042
-89.40697369289148,2644
-86.91140748903172,2682
-84.41653143812482,3248
-81.92234534660395,4250
-79.42884902082358,4783
-76.93604226705907,5545
-74.4439248915071,9308
-71.95249670028534,16080
-69.46175749943245,18903
-66.97170709490854,19903
-64.48234529259423,18441
-61.99367189829195,15199
-59.50568671772464,9852
-57.01838955653636,7069
-54.53178022029283,7413
-52.045858514480074,9210
-49.560624244506016,10521
-47.07607721569923,11621
-44.59221723330904,13012
-42.10904410250669,12729
-39.62655762838392,11081
-37.14475761595372,11521
-34.66364387015028,13717
-32.18321619582866,14136
-29.70347439776515,13925
-27.224418280657005,14898
-24.74604764912317,14646
-22.26836230770266,16035
-19.7913620608565,24071
-17.315046712966478,42009
-14.83941606833514,56770
-12.36446993118659,65037
-9.89020810566592,65037
-7.416630395839093,65037
-4.94373660569363,65037
-2.471526539137585,65037
-6.821210263296962E-13,65037
2.47084320796705,65037
4.941003281093458,65037
7.410480415786196,65037
9.879274808531363,65037
12.347386655893956,65037
14.814816154518212,65037
17.28156350112681,65037
19.74762889252179,65037
22.21301252558385,65037
24.67771459727237,20662
27.141735304626195,4043
29.605074844762612,2485
32.06773341487792,2189
34.52971121224755,2152
36.99100843422559,2352
39.45162527824516,2112
41.91156194181792,2069
44.370818622535126,1958
46.82939551806646,1761
49.287292826160524,1740
51.74451074464503,1951
54.201049471426245,1897
56.65690920448981,1849
59.112090141899785,1645
61.56659248179983,1555
64.02041642241159,1397
66.4735621620365,1242
68.92602989905402,1236
71.37781983192338,1316
73.82893215918205,1356
76.27936707944684,1300
78.72912479141326,1352
81.17820549385567,1471
83.62660938562783,1334
86.07433666566146,1174
88.5213875329681,1012
90.96776218663751,1065
93.41346082583925,1012
95.85848364982041,1090
98.30283085790859,1429
100.7465026495089,1301
103.18949922410604,1086
105.63182078126385,918
108.07346752062438,993
110.51443964190923,1284
112.95473734491827,1432
115.39436082953114,1219
117.83331029570547,1150
120.27158594347827,1174
122.7091879729652,1215
125.1461165843615,1394
127.58237197794062,1289
130.01795435405518,1227
132.4528639131364,1161
134.88710085569494,980
137.32066538231982,870
139.75355769367923,796
142.1857779905207,823
144.61732647366978,878
147.04820334403132,901
149.47840880258934,1043
151.90794305040674,1059
154.33680628862487,1102
156.76499871846443,1266
159.19252054122433,1607
161.61937195828352,1820
164.04555317109896,1867
166.47106438120693,2034
168.89590579022217,2206
171.320077599839,2237
173.7435800118302,2316
176.16641322804742,2530
178.58857745042144,2712
181.01007288096173,2849
183.43089972175687,2865
185.85105817497413,2893
188.27054844285988,2944
190.6893707277394,3049
193.10752523201643,3107
195.5250121581745,3125
197.9418317087751,3210
200.3579840864594,3260
202.7734694939469,3399
205.18828813403627,3473
207.6024402096051,3624
210.01592592360964,3383
212.42874547908548,3382
214.84089907914665,3454
217.2523869269868,3345
219.66320922587727,3317
222.0733661791695,3348
224.48285799029293,3354
226.8916848627572,3321
229.29984700014882,3305
231.7073446061355,3353
234.11417788446204,3445
236.520347038953,3346
238.92585227351185,3493
241.33069379212054,3545
243.73487179884035,3564
246.1383864978112,3544
248.541238093252,3473
250.9434267894609,3495
253.34495279081432,3610
255.74581630176783,3603
258.1460175268563,3634
260.54555667069314,3718
262.9444339379703,3571
265.3426495334594,3621
267.7402036620107,3491
270.1370965285529,3429
272.53332833809407,3457
274.9288992957214,3399
277.32380960660055,3294
279.718059475976,3196
282.1116491091717,3131
284.5045787115897,3221
286.89684848871195,3132
289.2884586460981,3147
291.67940938938807,3227
294.0697009242996,3313
296.4593334566299,3231
298.84830719225477,3174
301.23662233712923,3238
303.6242790972866,3110
306.01127767884,3132
308.39761828798066,3003
310.78330113097934,2989
313.16832641418534,3048
315.5526943440269,3017
317.9364051270112,3041
320.3194589697242,2972
322.70185607883093,2992
325.0835966610754,2932
327.4646809232805,2866
329.8451090723478,2833
332.2248813152577,2831
334.6039978590701,2896
336.9824589109231,2788
339.36026467803447,2810
341.7374153677,2746
344.113911187295,2821
346.48975234427337,2837
348.8649390461686,2779
351.2394715005918,2896
353.61334991523415,2722
355.9865744978655,2717
358.35914545633375,2731
360.73106299856715,2859
363.10232733257146,2790
365.47293866643247,2720
367.84289720831396,2662
370.2122031664593,2712
372.5808567491905,2757
374.9488581649083,2707
377.31620762209275,2733
379.6829053293021,2684
382.0489514951745,2592
384.4143463284262,2724
386.7790900378528,2693
389.14318283232853,2658
391.50662492080653,2607
393.86941651231916,2657
396.23155781597745,2630
398.5930490409713,2660
400.9538903965696,2664
403.3140820921202,2663
405.6736243370498,2631
408.03251734086336,2680
410.3907613131465,2582
412.74835646356166,2567
415.10530300185144,2582
417.4616011378372,2614
419.81725108141893,2533
422.1722530425758,2553
424.5266072313656,2547
426.880313857925,2623
429.2333731324701,2641
431.58578526529516,2578
433.9375504667738,2561
436.2886689473588,2651
438.63914091758113,2539
440.9889665880513,2529
443.33814616945835,2622
445.68667987257015,2523
448.03456790823395,2586
450.3818104873759,2624
452.72840782100013,2521
455.07436012019105,2493
457.41966759611057,2557
459.7643304600007,2592
462.10834892318155,2611
464.4517231970525,2626
466.79445349309174,2540
469.1365400228566,2565
471.4779829979826,2544
473.81878263018564,2523
476.15893913125876,2592
478.4984527130747,2633
480.8373235875855,2711
483.17555196682144,2728
485.5131380628919,2659
487.8500820879857,2728
490.1863842543697,2807
492.52204477439034,3020
494.8570638604725,3106
497.1914417251204,3408
499.52517858091653,3601
501.85827464052306,3791
504.19073011668036,3881
506.5225452222086,3819
508.85372017000566,3821
511.18425517304956,3846
513.514150444396,4006
515.8434061971808,4630
518.1720226446176,5629
520.4999999999999,5838
522.8273384766991,5559
525.1540382881666,5259
527.480099647932,4739
529.8055227696037,4199
532.1303078668694,3398
534.454455153496,2919
536.777964843328,2865
539.1008371502907,2753
541.4230722883866,2696
543.744670471698,2699
546.0656319143858,2624
548.3859568306899,2637
550.7056454349294,2619
553.0246979415016,2630
555.3431145648834,2537
557.6608955196306,2589
559.978041020377,2593
562.2945512818363,2575
564.6104265188006,2539
566.9256669461412,2542
569.2402727788082,2604
571.5542442318302,2583
573.8675815203156,2598
576.1802848594508,2726
578.4923544645015,2642
580.8037905508126,2575
583.114593333807,2589
585.4247630289875,2664
587.7342998519354,2569
590.0432040183106,2593
592.3514757438526,2665
594.6591152443794,2689
596.9661227357875,2579
599.2724984340531,2679
601.578242555231,2628
603.8833553154542,2643
606.1878369309362,2745
608.4916876179676,2680
610.7949075929192,2550
613.0974970722403,2585
615.3994562724587,2603
617.7007854101818,2627
620.0014847020951,2606
622.3015543649641,2635
624.6009946156324,2550
626.8998056710224,2567
629.1979877481361,2599
631.4955410640538,2638
633.7924658359349,2627
636.0887622810175,2667
638.3844306166192,2720
640.6794710601358,2631
642.9738838290426,2668
645.2676691408932,2715
647.5608272133207,2696
649.853358264037,2657
652.1452625108324,2663
654.4365401715764,2717
656.7271914642178,2650
659.0172166067838,2794
661.3066158173809,2749
663.5953893141935,2661
665.8835373154867,2725
668.1710600396028,2692
670.4579577049639,2679
672.7442305300709,2700
675.0298787335033,2688
677.3149025339197,2673
679.599302150058,2607
681.8830778007342,2667
684.1662297048437,2746
686.4487580813608,2719
688.7306631493387,2759
691.0119451279091,2679
693.2926042362834,2704
695.5726406937516,2679
697.8520547196814,2647
700.1308465335215,2645
702.4090163547982,2757
704.6865644031171,2688
706.9634908981619,2646
709.2397960596965,2676
711.5154801075631,2687
713.7905432616823,2628
716.0649857420548,2681
718.3388077687592,2620
720.612009561953,2668
722.8845913418733,2669
725.1565533288352,2603
727.427895743234,2661
729.6986188055427,2696
731.9687227363137,2707
734.238207756178,2682
736.5070740858458,2676
738.7753219461066,2660
741.0429515578281,2723
743.3099631419569,2735
745.5763569195191,2639
747.8421331116193,2712
750.1072919394409,2703
752.3718336242467,2753
754.6357583873777,2666
756.8990664502545,2685
759.1617580343765,2786
761.423833361321,2703
763.6852926527457,2740
765.9461361303862,2768
768.206364016058,2748
770.4659765316536,2795
772.7249738991469,2709
774.9833563405886,2670
777.2411240781092,2694
779.4982773339183,2723
781.7548163303044,2687
784.010741289634,2658
786.2660524343538,2874
788.5207499869881,2740
790.7748341701416,2754
793.0283052064964,2657
795.2811633188143,2730
797.5334087299362,2678
799.7850416627813,2719
802.0360623403484,2794
804.2864709857143,2702
806.5362678220353,2670
808.7854530725468,2720
811.0340269605625,2694
813.2819897094754,2657
815.5293415427581,2703
817.77608268396,2740
820.0222133567116,2676
822.2677337847211,2732
824.5126441917765,2735
826.7569448017433,2736
829.0006358385675,2641
831.2437175262731,2695
833.4861900889629,2723
835.7280537508192,2714
837.9693087361026,2745
840.2099552691533,2716
842.4499935743896,2707
844.689423876309,2666
846.9282463994886,2749
849.1664613685833,2773
851.4040690083276,2707
853.6410695435349,2727
855.877463199097,2716
858.1132501999847,2720
860.3484307712487,2820
862.5830051380175,2670
864.8169735254988,2693
867.0503361589791,2792
869.2830932638243,2747
871.5152450654786,2760
873.7467917894654,2825
875.9777336613873,2717
878.2080709069252,2869
880.4378037518389,2806
882.666932421968,2700
884.8954571432301,2847
887.1233781416219,2776
889.3506956432192,2814
891.5774098741766,2741
893.803521060728,2661
896.0290294291852,2774
898.2539352059397,2773
900.4782386174619,2744
902.7019398903011,2780
904.925039251085,2764
907.147536926521,2720
909.3694331433943,2717
911.59072812857,2781
913.8114221089921,2823
916.0315153116827,2703
918.2510079637437,2744
920.4699002923547,2707
922.6881925247761,2748
924.905884888345,2683
927.1229776104793,2585
929.3394709186747,2703
931.555365040506,2702
933.7706602036275,2695
935.9853566357709,2672
938.1994545647489,2747
940.4129542184515,2737
942.6258558248488,2709
944.8381596119883,2622
947.0498658079974,2717
949.2609746410825,2635
951.4714863395287,2659
953.6814011316998,2678
955.8907192460387,2676
958.0994409110671,2615
960.3075663553858,2691
962.5150958076741,2726
964.7220294966913,2628
966.928367651274,2640
969.1341105003388,2544
971.3392582728806,2689
973.5438111979742,2594
975.747769504772,2567
977.9511334225061,2571
980.153903180487,2591
982.3560790081052,2617
984.5576611348289,2611
986.7586497902058,2575
988.9590452038618,2511
991.158847605503,2623
993.3580572249133,2533
995.5566742919558,2513
997.7546990365728,2454
999.952131688785,2469
1002.1489724786926,2364
1004.3452216364743,2408
1006.5408793923874,2443
1008.7359459767691,2363
1010.9304216200343,2325
1013.1243065526781,2319
1015.3176010052733,2362
1017.510305208472,2358
1019.7024193930064,2333
1021.8939437896848,2327
1024.0848786293977,2338
1026.2752241431122,2290
1028.4649805618747,2260
1030.6541481168115,2216
1032.842727039127,2261
1035.0307175601051,2228
1037.2181199111074,2296
1039.4049343235752,2199
1041.591161029029,2262
1043.7768002590683,2241
1045.9618522453698,2283
1048.1463172196918,2205
1050.3301954138697,2165
1052.513487059818,2213
1054.69619238953,2265
1056.8783116350783,2245
1059.0598450286152,2288
1061.2407928023704,2241
1063.4211551886528,2311
1065.6009324198508,2385
1067.780124728432,2222
1069.9587323469414,2277
1072.1367555080046,2258
1074.314194444325,2178
1076.4910493886855,2163
1078.667320573947,2206
1080.843008233051,2215
1083.0181125990161,2222
1085.1926339049414,2200
1087.3665723840027,2277
1089.5399282694575,2221
1091.7127017946405,2195
1093.8848931929647,2134
1096.0565026979243,2148
1098.2275305430899,2182
1100.3979769621128,2201
1102.567842188722,2183
1104.737126456726,2151
1106.9058300000124,2224
1109.0739530525475,2146
1111.2414958483764,2159
1113.4084586216231,2033
1115.5748416064907,2140
1117.7406450372605,2111
1119.9058691482942,2055
1122.0705141740304,2145
1124.2345803489884,2135
1126.3980679077658,2091
1128.5609770850388,2110
1130.7233081155623,2157
1132.8850612341707,2082
1135.0462366757774,2069
1137.2068346753745,2117
1139.3668554680326,2143
1141.526299288901,2153
1143.68516637321,2113
1145.8434569562655,2095
1148.001171273455,2080
1150.158309560244,2054
1152.3148720521767,2086
1154.470858984876,2045
1156.626270594044,1947
1158.7811071154629,2078
1160.9353687849912,2039
1163.089055838569,2102
1165.242168512213,2070
1167.3947070420209,2037
1169.5466716641677,2065
1171.6980626149075,1971
1173.8488801305748,2047
1175.9991244475814,2064
1178.1487958024186,2038
1180.2978944316555,2026
1182.4464205719428,2092
1184.5943744600072,2090
1186.7417563326567,2046
1188.8885664267755,2043
1191.0348049793297,2079
1193.1804722273619,1999
1195.325568407995,2071
1197.4700937584303,2089
1199.614048515948,2009
1201.7574329179074,2059
1203.900247201746,2049
1206.042491604982,2054
1208.1841663652099,2041
1210.3252717201053,2085
1212.465807907422,2018
1214.6057751649923,2127
1216.7451737307279,2040
1218.8840038426192,1988
1221.0222657387353,1988
1223.1599596572241,2068
1225.2970858363137,2026
1227.4336445143094,2008
1229.5696359295966,2025
1231.705060320639,2032
1233.8399179259786,2137
1235.9742089842384,2052
1238.107933734118,2003
1240.2410924143974,2139
1242.373685263935,2142
1244.5057125216676,2094
1246.6371744266116,2056
1248.7680712178621,2082
1250.898403134593,2079
1253.028170416058,2114
1255.1573733015875,2013
1257.2860120305932,2066
1259.4140868425648,2069
1261.54159797707,2140
1263.6685456737569,2068
1265.7949301723515,2105
1267.9207517126597,2101
1270.046010534565,2099
1272.1707068780306,2060
1274.2948409830983,2092
1276.4184130898889,2057
1278.541423438603,2132
1280.6638722695184,2114
1282.785759822993,2113
1284.9070863394636,2181
1287.0278520594447,2180
1289.1480572235314,2180
1291.2677020723963,2129
1293.3867868467923,2153
1295.5053117875495,2205
1297.623277135579,2193
1299.740683131868,2051
1301.8575300174857,2151
1303.973818033578,2248
1306.0895474213703,2301
1308.2047184221678,2177
1310.3193312773528,2163
1312.4333862283888,2278
1314.5468835168163,2143
1316.659823384255,2238
1318.7722060724045,2232
1320.8840318230418,2205
1322.9953008780249,2238
1325.1060134792888,2196
1327.2161698688478,2165
1329.3257702887959,2151
1331.4348149813054,2249
1333.5433041886276,2199
1335.6512381530933,2159
1337.7586171171101,2134
1339.8654413231675,2179
1341.9717110138317,2200
1344.0774264317488,2161
1346.1825878196432,2148
1348.2871954203192,2086
1350.3912494766587,2145
1352.4947502316231,2109
1354.5976979282532,2179
1356.7000928096686,2097
1358.8019351190665,2114
1360.9032250997243,2160
1363.0039629949988,2206
1365.1041490483235,2136
1367.2037835032133,2130
1369.3028666032606,2181
1371.401398592137,2206
1373.4993797135926,2122
1375.5968102114575,2148
1377.6936903296396,2120
1379.7900203121262,2187
1381.8858004029835,2193
1383.9810308463561,2236
1386.075711886469,2225
1388.1698437676241,2102
1390.2634267342032,2143
1392.356461030667,2149
1394.4489469015557,2219
1396.5408845914872,2217
1398.6322743451592,2229
1400.7231164073469,2139
1402.813411022907,2172
1404.903158436773,2140
1406.9923588939578,2163
1409.0810126395531,2167
1411.1691199187303,2233
1413.2566809767386,2176
1415.343696058907,2221
1417.4301654106425,2197
1419.5160892774315,2234
1421.6014679048399,2223
1423.6863015385125,2271
1425.7705904241707,2162
1427.8543348076178,2199
1429.9375349347342,2172
1432.0201910514802,2348
1434.102303403894,2260
1436.1838722380944,2359
1438.2648978002767,2239
1440.3453803367174,2245
1442.4253200937692,2288
1444.5047173178677,2321
1446.5835722555234,2388
1448.6618851533285,2412
1450.739656257952,2446
1452.8168858161434,2416
1454.8935740747306,2438
1456.96972128062,2470
1459.045327680797,2588
1461.120393522327,2557
1463.1949190523528,2490
1465.2689045180973,2514
1467.3423501668608,2578
1469.415256246024,2591
1471.4876230030463,2645
1473.559450685465,2697
1475.6307395408976,2674
1477.7014898170391,2694
1479.771701761665,2775
1481.8413756226287,2686
1483.9105116478618,2814
1485.9791100853772,2919
1488.0471711832643,2884
1490.1146951896926,2942
1492.1816823529098,2939
1494.2481329212433,2872
1496.3140471430984,2970
1498.3794252669609,2936
1500.4442675413939,2992
1502.5085742150404,3030
1504.572345536622,3040
1506.6355817549388,3082
1508.6982831188702,3111
1510.7604498773744,3113
1512.8220822794883,3091
1514.8831805743293,3139
1516.9437450110909,3199
1519.003775839048,3236
1521.0632733075522,3248
1523.1222376660367,3335
1525.1806691640113,3320
1527.2385680510652,3317
1529.2959345768668,3390
1531.3527689911643,3370
1533.4090715437833,3592
1535.4648424846291,3485
1537.5200820636855,3544
1539.5747905310159,3465
1541.6289681367616,3551
1543.6826151311434,3627
1545.7357317644614,3556
1547.7883182870937,3563
1549.8403749494987,3805
1551.8919020022113,3715
1553.9428996958477,3817
1555.9933682811015,3979
1558.0433080087469,3970
1560.0927191296346,3970
1562.1416018946961,4062
1564.1899565549415,3994
1566.2377833614592,3972
1568.2850825654164,4005
1570.3318544180606,3930
1572.3780991707158,3853
1574.423817074788,3691
1576.4690083817595,3577
1578.5136733431923,3448
1580.5578122107272,3318
1582.601425236085,3261
1584.6445126710646,3124
1586.6870747675434,3083
1588.7291117774776,2957
1590.7706239529034,2801
1592.8116115459347,2630
1594.8520748087658,2672
1596.8920139936686,2574
1598.9314293529933,2642
1600.9703211391711,2468
1603.008689604711,2475
1605.0465350022005,2490
1607.0838575843068,2358
1609.1206576037753,2305
1611.1569353134305,2280
1613.1926909661765,2409
1615.2279248149953,2261
1617.2626371129481,2181
1619.2968281131757,2134
1621.3304980688963,2188
1623.3636472334088,2181
1625.39627586009,2159
1627.428384202396,2138
1629.459972513861,2135
1631.4910410480993,2236
1633.5215900588028,2113
1635.551619799744,2085
1637.5811305247717,2111
1639.6101224878166,2117
1641.6385959428862,2167
1643.6665511440683,2057
1645.693988345528,2053
1647.7209078015112,2056
1649.7473097663405,2078
1651.7731944944203,1986
1653.7985622402307,1989
1655.823413258333,2037
1657.847747803366,2052
1659.8715661300494,2052
1661.8948684931793,2017
1663.9176551476316,2002
1665.9399263483624,2048
1667.9616823504057,2020
1669.982923408873,1990
1672.0036497789574,2060
1674.0238617159293,2053
1676.043559475138,1996
1678.0627433120121,1939
1680.081413482059,1977
1682.0995702408654,1988
1684.117213844096,1980
1686.134344547495,2005
1688.1509626068864,1961
1690.1670682781705,2040
1692.182661817329,1959
1694.1977434804217,1966
1696.2123135235875,1962
1698.226372203043,2011
1700.2399197750851,2046
1702.2529564960905,2021
1704.2654826225112,2048
1706.277498410882,1903
1708.2890041178139,1965
1710.2999999999988,1995
1712.3104863142066,2039
1714.3204633172854,1917
1716.329931266163,1933
1718.3388904178469,1960
1720.3473410294214,1946
1722.3552833580516,1965
1724.3627176609807,1959
1726.3696441955308,1988
1728.3760632191033,1943
1730.3819749891782,1968
1732.3873797633146,1902
1734.3922777991502,1947
1736.3966693544012,1952
1738.4005546868639,1932
1740.4039340544127,1969
1742.406807715001,1935
1744.4091759266616,1896
1746.4110389475054,1960
1748.4123970357223,1948
1750.413250449582,1976
1752.4135994474318,1909
1754.4134442876993,1918
1756.4127852288902,1947
1758.4116225295893,1925
1760.4099564484595,1882
1762.407787244244,1894
1764.405115175764,1875
1766.4019405019203,1888
1768.3982634816916,1855
1770.3940843741357,1886
1772.3894034383907,1942
1774.3842209336717,1866
1776.378537119274,1895
1778.372352254571,1878
1780.3656665990156,1849
1782.3584804121397,1895
1784.3507939535534,1871
1786.3426074829463,1929
1788.3339212600863,1877
1790.3247355448211,1816
1792.3150505970766,1894
1794.3048666768573,1899
1796.2941840442477,1861
1798.2830029594106,1812
1800.2713236825884,1861
1802.2591464741004,1852
1804.2464715943465,1854
1806.2332993038058,1814
1808.2196298630352,1832
1810.2054635326708,1875
1812.190800573428,1885
1814.175641246101,1861
1816.1599858115628,1846
1818.1438345307652,1838
1820.127187664738,1887
1822.1100454745924,1877
1824.092408221516,1834
1826.0742761667766,1834
1828.055649571721,1891
1830.0365286977735,1845
1832.0169138064398,1832
1833.9968051593014,1841
1835.9762030180214,1833
1837.9551076443408,1850
1839.9335193000788,1824
1841.9114382471344,1798
1843.888864747485,1777
1845.8657990631878,1865
1847.842241456378,1820
1849.8181921892697,1818
1851.7936515241558,1834
1853.7686197234098,1805
1855.7430970494815,1873
1857.7170837649014,1799
1859.6905801322787,1831
1861.6635864143004,1832
1863.6361028737338,1823
1865.608129773424,1912
1867.5796673762961,1870
1869.5507159453537,1761
1871.521275743678,1813
1873.4913470344313,1835
1875.4609300808534,1730
1877.4300251462632,1844
1879.3986324940588,1881
1881.366752387717,1882
1883.3343850907936,1861
1885.3015308669228,1864
1887.268189979819,1935
1889.2343626932739,1840
1891.2000492711595,1931
1893.1652499774254,1875
1895.1299650761011,1878
1897.0941948312952,1840
1899.0579395071945,1909
1901.0211993680641,1866
1902.98397467825,1874
1904.9462657021745,1853
1906.9080727043415,1857
1908.869395949332,1857
1910.8302357018065,1828
1912.790592226504,1885
1914.7504657882428,1824
1916.7098566519212,1865
1918.6687650825133,1893
1920.6271913450764,1818
1922.5851357047422,1843
1924.5425984267245,1858
1926.499579776314,1902
1928.4560800188833,1778
1930.4120994198802,1815
1932.367638244833,1898
1934.32269675935,1803
1936.2772752291175,1910
1938.231373919899,1830
1940.1849930975404,1818
1942.1381330279637,1853
1944.0907939771696,1832
1946.0429762112412,1858
1947.9946799963363,1846
1949.9459055986945,1808
1951.896653284633,1836
1953.8469233205478,1787
1955.7967159729142,1857
1957.7460315082863,1750
1959.6948701932974,1805
1961.6432322946594,1821
1963.5911180791632,1786
1965.5385278136787,1839
1967.4854617651545,1782
1969.4319202006182,1798
1971.377903387176,1828
1973.3234115920136,1806
1975.268445082395,1811
1977.2130041256642,1748
1979.1570889892423,1804
1981.1006999406304,1885
1983.04383724741,1795
1984.986501177238,1798
1986.928691997853,1805
1988.8704099770712,1749
1990.811655382789,1768
1992.7524284829801,1737
1994.692729545698,1806
1996.6325588390755,1798
1998.5719166313224,1767
2000.5108031907307,1804
2002.4492187856677,1844
2004.387163684583,1775
2006.3246381560011,1751
2008.2616424685298,1822
2010.1981768908527,1853
2012.1342416917332,1730
2014.069837140014,1785
2016.0049635046162,1830
2017.9396210545406,1820
2019.8738100588666,1799
2021.8075307867502,1726
2023.740783507431,1759
2025.6735684902228,1754
2027.6058860045214,1788
2029.5377363198004,1791
2031.4691197056118,1815
2033.4000364315875,1767
2035.3304867674374,1740
2037.260470982952,1797
2039.189989347998,1728
2041.1190421325232,1745
2043.047629606554,1789
2044.9757520401945,1740
2046.9034097036288,1735
2048.8306028671195,1738
2050.7573318010086,1783
2052.683596775716,1799
2054.609398061742,1734
2056.5347359296647,1715
2058.4596106501403,1778
2060.384022493906,1748
2062.3079717317764,1805
2064.231458634646,1779
2066.1544834734873,1805
2068.077046519352,1763
2069.99914804337,1759
2071.9207883167524,1826
2073.8419676107865,1800
2075.7626861968406,1802
2077.6829443463607,1792
2079.6027423308715,1789
2081.522080421977,1771
2083.440958891362,1765
2085.359378010786,1712
2087.2773380520907,1780
2089.194839287196,1714
2091.111881988101,1782
2093.0284664268825,1806
2094.9445928756973,1828
2096.86026160678,1798
2098.775472892446,1772
2100.690227005088,1781
2102.604524217178,1760
2104.5183648012676,1747
2106.431749029985,1724
2108.34467717604,1754
2110.2571495122206,1725
2112.169166311393,1768
2114.080727846503,1786
2115.9918343905747,1790
2117.902486216711,1755
2119.8126835980956,1786
2121.722426807987,1784
2123.6317161197285,1775
2125.5405518067364,1833
2127.448934142509,1758
2129.356863400624,1799
2131.264339854737,1785
2133.1713637785815,1784
2135.077935445972,1789
2136.9840551308002,1820
2138.889723107037,1794
2140.7949396487334,1773
2142.699705030018,1811
2144.6040195250994,1884
2146.507883408264,1808
2148.4112969538774,1758
2150.3142604363848,1816
2152.2167741303097,1864
2154.1188383102535,1830
2156.0204532508997,1810
2157.9216192270064,1837
2159.822336513414,1824
2161.7226053850413,1839
2163.622426116884,1860
2165.5217989840185,1843
2167.4207242616,1874
2169.319202224862,1822
2171.2172331491165,1851
2173.1148173097563,1906
2175.0119549822507,1849
2176.90864644215,1896
2178.8048919650823,1881
2180.7006918267534,1920
2182.596046302952,1872
2184.4909556695407,1868
2186.3854202024645,1854
2188.279440177746,1958
2190.173015871487,1914
2192.066147559868,1871
2193.958835519149,1898
2195.851080025667,1846
2197.7428813558417,1933
2199.6342397861667,1845
2201.5251555932186,1838
2203.415629053651,1904
2205.3056604441986,1927
2207.19525004167,1891
2209.084398122958,1936
2210.9731049650327,1972
2212.861370844941,1884
2214.749196039812,1877
2216.636580826851,1885
2218.523525483344,1915
2220.410030286655,1915
2222.296095514226,1947
2224.1817214435805,1926
2226.066908352319,1948
2227.951656518121,1924
2229.835966218746,1908
2231.71983773203,1977
2233.6032713358913,1985
2235.486267308324,1981
2237.3688259274036,1847
2239.2509474712824,1919
2241.132632218193,1907
2243.013880446447,1950
2244.8946924344323,1873
2246.7750684606203,1894
2248.6550088035574,1894
2250.534513741871,1961
2252.413583554265,1854
2254.292218519526,1934
2256.170418916517,1926
2258.0481850241786,1905
2259.925517121534,1905
2261.8024154876825,1918
2263.678880401803,1897
2265.5549121431536,1983
2267.430510991071,1952
2269.305677224971,1932
2271.180411124348,1934
2273.0547129687766,1862
2274.9285830379076,1914
2276.8020216114737,1966
2278.6750289692845,1853
2280.5476053912294,1853
2282.4197511572766,1896
2284.2914665474727,1949
2286.162751841943,1964
2288.0336073208937,1953
2289.904033264608,1931
2291.774029953448,1978
2293.6435976678554,1906
2295.5127366883517,1924
2297.381447295534,1833
2299.2497297700825,1904
2301.1175843927526,1838
2302.9850114443825,1801
2304.852011205885,1721
2306.7185839582553,1841
2308.5847299825664,1735
2310.4504495599676,1779
2312.3157429716925,1781
2314.1806104990483,1757
2316.0450524234247,1680
2317.9090690262888,1739
2319.772660589186,1682
2321.635827393742,1723
2323.498569721661,1703
2325.3608878547248,1738
2327.2227820747967,1783
2329.0842526638157,1705
2330.945299903803,1668
2332.805924076857,1736
2334.6661254651535,1621
2336.525904350951,1690
2338.3852610165827,1743
2340.244195744464,1723
2342.102708817088,1793
2343.9608005170253,1683
2345.8184711269287,1740
2347.675720929526,1772
2349.532550207628,1776
2351.38895924412,1697
2353.24494832197,1730
2355.100517724223,1708
2356.955667734004,1740
2358.810398634514,1716
2360.664710709037,1731
2362.5186042409337,1694
2364.3720795136437,1733
2366.225136810686,1744
2368.0777764156583,1815
2369.929998612237,1780
2371.7818036841777,1691
2373.633191915315,1659
2375.484163589562,1699
2377.3347189909114,1727
2379.184858403434,1825
2381.03458211128,1778
2382.8838903986775,1782
2384.732783549936,1730
2386.5812618494406,1720
2388.4293255816588,1815
2390.2769750311327,1760
2392.1242104824883,1783
2393.971032220427,1783
2395.8174405297295,1770
2397.6634356952563,1809
2399.509018001947,1751
2401.3541877348193,1780
2403.1989451789705,1781
2405.043290619576,1687
2406.8872243418905,1794
2408.730746631247,1751
2410.5738577730594,1761
2412.4165580528183,1744
2414.258847756095,1743
2416.100727168537,1736
2417.9421965758734,1675
2419.783256263912,1707
2421.623906518538,1781
2423.4641476257157,1746
2425.303979871491,1746
2427.143403541984,1719
2428.9824189233977,1721
2430.821026302012,1693
2432.6592259641866,1778
2434.497018196361,1805
2436.33440328505,1804
2438.171381516851,1721
2440.00795317844,1723
2441.844118556569,1725
2443.6798779380724,1824
2445.5152316098606,1762
2447.3501798589255,1737
2449.1847229723357,1779
2451.0188612372403,1764
2452.8525949408663,1806
2454.6859243705203,1771
2456.518849813587,1778
2458.3513715575314,1740
2460.183489889895,1784
2462.015205098301,1726
2463.8465174704493,1761
2465.67742729412,1797
2467.5079348571717,1770
2469.338040447542,1718
2471.1677443532476,1781
2472.9970468623833,1739
2474.825948263123,1767
2476.6544488437207,1841
2478.482548892508,1872
2480.310248697896,1790
2482.137548548374,1791
2483.9644487325118,1774
2485.790949538956,1750
2487.617051256433,1753
2489.44275417375,1766
2491.26805857979,1846
2493.0929647635157,1772
2494.917473013971,1825
2496.741583620276,1786
2498.5652968716304,1809
2500.3886130573137,1835
2502.2115324666834,1885
2504.0340553891765,1810
2505.856182114308,1800
2507.6779129316733,1828
2509.499248130945,1829
2511.3201880018764,1847
2513.140732834298,1813
2514.9608829181198,1867
2516.780638543331,1872
2518.6,1887
2520.418967578273,1827
2522.237541568376,1864
2524.0557222606144,1805
2525.8735099453706,1823
2527.6909049131086,1830
2529.507907454368,1910
2531.32451785977,1866
2533.140736420014,1860
2534.9565634258774,1933
2536.771999168218,1865
2538.5870439379714,1961
2540.4016980261526,1882
2542.2159617238544,1886
2544.02983532225,1899
2545.8433191125914,1888
2547.656413386209,1901
2549.4691184345115,1932
2551.2814345489874,1904
2553.093362021204,1925
2554.904901142808,1998
2556.716052205523,2007
2558.526815501153,2016
2560.3371913215824,2005
2562.147179958771,1932
2563.956781704761,2024
2565.7659968516705,1971
2567.5748256916986,2045
2569.3832685171224,1936
2571.1913256202984,1930
2572.9989972936614,2019
2574.806283829725,1984
2576.613185521084,2034
2578.4197026604074,2070
2580.2258355404483,2109
2582.031584454035,2090
2583.836949694077,2069
2585.6419315535613,2043
2587.4465303255533,2073
2589.2507463032002,2108
2591.0545797797245,2089
2592.8580310484303,2130
2594.6611004026995,2154
2596.463788135992,2114
2598.266094541849,2104
2600.0680199138874,2095
2601.869564545807,2151
2603.670728731383,2095
2605.4715127644704,2097
2607.2719169390048,2131
2609.071941548998,2059
2610.8715868885433,2160
2612.670853251811,2152
2614.469740933052,2153
2616.268250226594,2127
2618.0663814268455,2106
2619.864134828292,2026
2621.6615107255006,2090
2623.458509413115,2112
2625.2551311858597,2126
2627.0513763385347,2134
2628.8472451660223,2070
2630.6427379632833,2129
2632.4378550253564,2155
2634.232596647359,2062
2636.026963124488,2042
2637.8209547520187,2031
2639.6145718253065,2117
2641.407814639785,2064
2643.200683490966,2053
2644.9931786744414,2008
2646.7853004858807,1968
2648.577049221034,2038
2650.3684251757277,1958
2652.1594286458712,1946
2653.9500599274484,2017
2655.740319316525,1997
2657.5302071092437,2008
2659.3197236018286,2060
2661.10886909058,1954
2662.8976438718782,1949
2664.686048242183,1969
2666.4740824980327,1928
2668.2617469360443,1862
2670.0490418529134,1905
2671.8359675454153,1955
2673.622524310403,1880
2675.408712444811,1912
2677.1945322456495,1882
2678.979984010009,1923
2680.76506803506,1918
2682.5497846180497,1880
2684.334134056306,1848
2686.1181166472343,1840
2687.9017326883213,1881
2689.6849824771293,1943
2691.4678663113013,1839
2693.2503844885596,1832
2695.032537306705,1865
2696.8143250636167,1833
2698.5957480572542,1832
2700.3768065856534,1913
2702.1575009469316,1909
2703.937831439283,1849
2705.717798360982,1816
2707.4974020103837,1867
2709.276642685917,1866
2711.055520686095,1836
2712.834036309506,1822
2714.612189854819,1814
2716.389981620782,1821
2718.1674119062204,1774
2719.944481010041,1819
2721.721189231226,1814
2723.4975368688415,1778
2725.273524222027,1786
2727.0491515900053,1762
2728.824419272075,1787
2730.5993275676146,1815
2732.3738767760838,1730
2734.148067197016,1739
2735.921899130031,1839
2737.6953728748194,1781
2739.468488731156,1751
2741.2412469988926,1786
2743.0136479779617,1831
2744.785691968372,1762
2746.5573792702116,1772
2748.3287101836504,1796
2750.099685008934,1746
2751.870304046388,1754
2753.640567596418,1751
2755.4104759595057,1803
2757.1800294362156,1817
2758.949228327187,1796
2760.7180729331412,1680
2762.486563554877,1808
2764.254700493272,1746
2766.022484049284,1780
2767.789914523947,1738
2769.5569922183786,1749
2771.3237174337705,1690
2773.090090471394,1767
2774.8561116326036,1799
2776.6217812188274,1732
2778.3870995315756,1739
2780.1520668724356,1770
2781.9166835430747,1764
2783.6809498452394,1754
2785.444866080754,1791
2787.2084325515225,1795
2788.971649559527,1779
2790.73451740683,1804
2792.4970363955713,1764
2794.2592068279705,1806
2796.0210290063264,1729
2797.7825032330147,1781
2799.543629810493,1770
2801.304409041296,1780
2803.0648412280366,1760
2804.8249266734088,1762
2806.5846656801846,1762
2808.344058551212,1774
2810.1031055894246,1759
2811.8618070978273,1749
2813.6201633795085,1726
2815.378174737636,1693
2817.1358414754536,1757
2818.893163896285,1790
2820.6501423035334,1721
2822.4067770006814,1774
2824.1630682912883,1752
2825.9190164789957,1806
2827.6746218675207,1762
2829.429884760661,1760
2831.184805462294,1813
2832.9393842763743,1836
2834.693621506936,1788
2836.4475174580916,1726
2838.201072434034,1758
2839.954286739034,1732
2841.707160677441,1825
2843.459694553685,1842
2845.2118886722724,1775
2846.96374333779,1771
2848.7152588549034,1737
2850.4664355283567,1808
2852.217273662973,1769
2853.9677735636546,1780
2855.7179355353833,1679
2857.4677598832186,1819
2859.217246912299,1778
2860.9663969278427,1773
2862.715210235146,1760
2864.4636871395846,1749
2866.211827946614,1717
2867.9596329617652,1691
2869.7071024906536,1718
2871.4542368389684,1658
2873.20103631248,1788
2874.947501217038,1810
2876.6936318585695,1827
2878.4394285430812,1745
2880.1848915766604,1828
2881.9300212654707,1874
2883.6748179157553,1775
2885.4192818338374,1843
2887.1634133261173,1698
2888.907212699077,1763
2890.6506802592744,1791
2892.393816313348,1743
2894.1366211680142,1806
2895.8790951300693,1780
2897.621238506388,1689
2899.363051603925,1730
2901.1045347297118,1772
2902.8456881908596,1700
2904.58651229456,1753
2906.327007348081,1762
2908.067173658772,1747
2909.8070115340597,1803
2911.5465212814497,1802
2913.285703208527,1794
2915.0245576229563,1770
2916.7630848324807,1779
2918.5012851449196,1691
2920.2391588681758,1730
2921.976706310227,1728
2923.7139277791334,1774
2925.4508235830313,1796
2927.187394030137,1810
2928.923639428745,1742
2930.6595600872306,1724
2932.395156314046,1789
2934.1304284177218,1685
2935.8653767068713,1744
2937.6000014901815,1779
2939.3343030764227,1818
2941.068281774442,1805
2942.8019378931644,1798
2944.5352717415976,1751
2946.2682836288236,1805
2948.0009738640065,1814
2949.7333427563885,1787
2951.465390615289,1765
2953.1971177501086,1834
2954.9285244703265,1749
2956.6596110855,1822
2958.3903779052657,1753
2960.1208252393385,1781
2961.8509533975125,1746
2963.5807626896617,1684
2965.3102534257378,1765
2967.0394259157715,1729
2968.768280469873,1733
2970.496817398232,1796
2972.2250370111146,1807
2973.952939618869,1803
2975.6805255319196,1805
2977.4077950607707,1887
2979.134748516006,1808
2980.861386208289,1823
2982.587708448359,1774
2984.313715547037,1822
2986.039407815222,1803
2987.764785563891,1776
2989.489849104102,1757
2991.2145987469908,1683
2992.9390348037705,1833
2994.6631575857346,1786
2996.3869674042576,1812
2998.1104645707887,1813
2999.83364939686,1829
3001.5565221940783,1802
3003.2790832741334,1706
3005.0013329487924,1735
3006.7232715298996,1721
3008.4448993293804,1735
3010.166216659239,1709
3011.887223831558,1835
3013.607921158498,1789
3015.3283089522993,1724
3017.0483875252826,1822
3018.7681571898443,1783
3020.4876182584626,1820
3022.2067710436927,1778
3023.9256158581707,1820
3025.644153014609,1768
3027.362382825801,1761
3029.0803056046193,1811
3030.797921664012,1777
3032.5152313170106,1752
3034.2322348767225,1760
3035.9489326563353,1780
3037.665324969115,1736
3039.3814121284063,1807
3041.097194447633,1769
3042.812672240299,1741
3044.5278458199855,1800
3046.2427155003525,1751
3047.9572815951406,1787
3049.671544418167,1799
3051.38550428333,1716
3053.0991615046073,1809
3054.812516396051,1750
3056.5255692717974,1769
3058.2383204460575,1806
3059.9507702331257,1725
3061.662918947372,1744
3063.3747669032446,1767
3065.0863144152736,1751
3066.7975617980674,1849
3068.508509366309,1800
3070.219157434767,1749
3071.9295063182844,1748
3073.639556331785,1751
3075.3493077902704,1778
3077.058761008821,1802
3078.7679163025964,1772
3080.476773986837,1784
3082.1853343768594,1797
3083.89359778806,1778
3085.6015645359153,1781
3087.3092349359786,1818
3089.016609303884,1826
3090.7236879553434,1777
3092.4304712061476,1792
3094.136959372166,1788
3095.843152769349,1805
3097.5490517137237,1834
3099.2546565213966,1793
3100.959967508554,1748
3102.66498499146,1753
3104.3697092864577,1829
3106.0741407099695,1833
3107.778279578498,1811
3109.482126208622,1830
3111.1856809170004,1800
3112.8889440203716,1798
3114.5919158355528,1853
3116.294596679439,1790
3117.996986869006,1802
3119.6990867213062,1760
3121.4008965534726,1827
3123.102416682717,1766
3124.803647426329,1802
3126.5045891016784,1792
3128.205242026213,1801
3129.90560651746,1813
3131.605682893025,1705
3133.3054714705922,1711
3135.0049725679282,1810
3136.7041865028714,1758
3138.4031135933465,1760
3140.101754157353,1795
3141.800108512971,1763
3143.498176978357,1775
3145.1959598717494,1761
3146.8934575114636,1767
3148.5906702158954,1733
3150.2875983035183,1793
3151.9842420928853,1727
3153.680601902627,1694
3155.376678051456,1779
3157.07247085816,1768
3158.767980641609,1749
3160.463207720748,1729
3162.158152414606,1739
3163.8528150422862,1748
3165.5471959229726,1726
3167.2412953759303,1728
3168.9351137204976,1753
3170.628651276098,1779
3172.3219083622307,1757
3174.014885298474,1790
3175.707582404485,1777
3177.4000000000005,1756
3179.092138404835,1748
3180.7839979388846,1791
3182.47557892212,1789
3184.166881674594,1793
3185.8579065164386,1726
3187.5486537678626,1741
3189.2391237491547,1786
3190.9293167806827,1789
3192.6192331828934,1770
3194.3088732763117,1752
3195.998237381542,1761
3197.687325819268,1674
3199.376138910251,1750
3201.064676975334,1765
3202.7529403354347,1738
3204.4409293115523,1738
3206.1286442247647,1700
3207.816085396229,1740
3209.5032531471825,1704
3211.190147798936,1738
3212.8767696728846,1695
3214.5631190905015,1714
3216.2491963733373,1728
3217.9350018430214,1691
3219.6205358212637,1732
3221.305798629851,1706
3222.990790590651,1719
3224.6755120256103,1722
3226.359963256751,1713
3228.0441446061795,1735
3229.7280563960758,1661
3231.411698948703,1682
3233.0950725863995,1709
3234.778177631587,1710
3236.461014406761,1678
3238.1435832345005,1742
3239.8258844374595,1735
3241.507918338374,1734
3243.1896852600576,1725
3244.8711855254023,1804
3246.552419457381,1820
3248.233387379042,1712
3249.914089613516,1732
3251.59452648401,1750
3253.274698313813,1741
3254.95460542629,1680
3256.6342481448855,1710
3258.313626793125,1718
3259.9927416946084,1701
3261.6715931730196,1603
3263.3501815521176,1709
3265.0285071557437,1693
3266.706570307815,1664
3268.3843713323286,1735
3270.0619105533615,1700
3271.739188295068,1669
3273.4162048816834,1726
3275.0929606375184,1722
3276.769455886966,1713
3278.445690954498,1719
3280.1216661646613,1694
3281.797381842087,1723
3283.4728383114807,1751
3285.1480358976296,1694
3286.8229749253996,1658
3288.4976557197333,1668
3290.172078605655,1686
3291.846243908266,1614
3293.5201519527463,1691
3295.193803064357,1719
3296.8671975684374,1665
3298.5403357904024,1648
3300.21321805575,1683
3301.8858446900567,1659
3303.558216018975,1732
3305.23033236824,1743
3306.9021940636603,1684
3308.57380143113,1693
3310.2451547966184,1728
3311.916254486174,1666
3313.5871008259246,1672
3315.2576941420766,1723
3316.9280347609147,1667
3318.5981230088046,1740
3320.2679592121895,1658
3321.9375436975924,1657
3323.606876791612,1702
3325.27595882093,1693
3326.944790112305,1675
3328.6133709925753,1673
3330.2817017886573,1757
3331.949782827547,1700
3333.617614436319,1571
3335.2851969421245,1614
3336.952530672199,1729
3338.619615953853,1664
3340.286453114475,1711
3341.9530424815357,1667
3343.619384382583,1724
3345.2854791452437,1649
3346.951327097224,1675
3348.6169285663073,1742
3350.2822838803577,1708
3351.947393367319,1765
3353.61225735521,1681
3355.2768761721345,1715
3356.9412501462693,1752
3358.605379605873,1743
3360.2692648792827,1703
3361.9329062949146,1688
3363.596304181263,1692
