CollectionTime,7/10/2024 4:52:05 PM
ExposureUsed,3
CalibratedSpectrum
-962.7078968117929,537
-959.9714848408522,565
-957.2358232597828,586
-954.5009119013725,583
-951.7667505983302,586
-949.0333391832855,609
-946.3006774887896,602
-943.5687653473143,624
-940.837602591253,591
-938.1071890529199,583
-935.3775245645503,602
-932.6486089583007,587
-929.9204420662485,628
-927.1930237203925,601
-924.4663537526524,602
-921.7404319948689,623
-919.0152582788041,595
-916.2908324361409,634
-913.5671542984834,594
-910.8442236973568,587
-908.1220404642074,574
-905.4006044304027,641
-902.679915427231,632
-899.959973285902,600
-897.2407778375464,587
-894.5223289132158,585
-891.8046263438832,592
-889.0876699604426,593
-886.3714595937089,581
-883.6559950744183,609
-880.9412762332282,566
-878.2273029007168,568
-875.5140749073835,571
-872.8015920836489,571
-870.0898542598545,563
-867.3788612662631,551
-864.6686129330585,575
-861.9591090903457,574
-859.2503495681506,583
-856.5423341964203,573
-853.8350628050229,575
-851.1285352237478,601
-848.4227512823054,585
-845.7177108103272,600
-843.0134136373656,592
-840.3098595928943,574
-837.6070485063082,571
-834.9049802069229,628
-832.2036545239757,616
-829.5030712866244,577
-826.8032303239481,604
-824.1041314649472,627
-821.4057745385428,604
-818.7081593735775,581
-816.0112857988148,593
-813.3151536429393,612
-810.6197627345566,593
-807.9251129021936,586
-805.2312039742981,593
-802.5380357792392,605
-799.8456081453069,584
-797.1539209007124,581
-794.462973873588,601
-791.772766891987,605
-789.083299783884,641
-786.3945723771743,580
-783.7065844996748,621
-781.0193359791231,597
-778.3328266431781,610
-775.6470563194197,596
-772.9620248353489,592
-770.2777320183878,560
-767.5941776958798,591
-764.9113616950891,612
-762.2292838432011,605
-759.5479439673222,597
-756.8673418944801,620
-754.1874774516235,623
-751.5083504656222,596
-748.8299607632671,644
-746.15230817127,595
-743.475392516264,626
-740.7992136248035,674
-738.1237713233636,666
-735.4490654383407,644
-732.7750957960521,651
-730.1018622227365,676
-727.4293645445534,666
-724.7576025875837,627
-722.0865761778291,622
-719.4162851412126,629
-716.7467293035781,643
-714.0779084906909,652
-711.409822528237,679
-708.7424712418238,628
-706.0758544569796,648
-703.4099719991541,637
-700.7448236937178,697
-698.0804093659622,693
-695.4167288411002,648
-692.7537819442656,661
-690.0915685005134,656
-687.4300883348199,636
-684.7693412720819,661
-682.1093271371178,646
-679.4500457546669,664
-676.7914969493897,659
-674.1336805458676,688
-671.4765963686034,668
-668.8202442420206,676
-666.1646239904642,672
-663.5097354382001,647
-660.8555784094151,647
-658.2021527282176,682
-655.5494582186366,667
-652.8974947046223,670
-650.2462620100463,692
-647.5957599587009,732
-644.9459883742998,713
-642.2969470804776,707
-639.6486359007902,714
-637.0010546587141,712
-634.3542031776476,742
-631.7080812809096,672
-629.0626887917401,696
-626.4180255333008,744
-623.7740913286734,697
-621.1308860008619,725
-618.4884093727904,721
-615.8466612673046,681
-613.2056415071715,706
-610.5653499150785,702
-607.9257863136347,722
-605.28695052537,702
-602.6488423727357,687
-600.0114616781036,655
-597.3748082637674,702
-594.7388819519412,683
-592.1036825647604,709
-589.4692099242818,782
-586.8354638524829,809
-584.2024441712624,780
-581.5701507024403,733
-578.9385832677575,744
-576.3077416888759,763
-573.6776257873787,742
-571.0482353847704,701
-568.4195703024757,720
-565.7916303618415,698
-563.164415384135,738
-560.5379251905453,744
-557.9121596021815,756
-555.2871184400748,760
-552.6628015251767,723
-550.0392086783606,763
-547.4163397204204,735
-544.794194472071,768
-542.1727727539491,761
-539.5520743866118,788
-536.9320991905377,799
-534.3128469861261,837
-531.6943175936979,818
-529.0765108334947,894
-526.4594265256793,859
-523.8430644903358,1066
-521.2274245474689,1151
-518.612506517005,1269
-515.9983102187913,1218
-513.3848354725959,1156
-510.77208209810846,1190
-508.16004991493924,1251
-505.5487387426199,1335
-502.9381484006032,1491
-500.3282787082628,1546
-497.71912948489364,1569
-495.1107005497117,1519
-492.5029917218539,1398
-489.8960028203786,1243
-487.28973366426493,1218
-484.68418407241325,1036
-482.07935386364494,995
-479.47524285670266,964
-476.87185087025,978
-474.2691777228715,997
-471.66722323307334,945
-469.0659872192821,979
-466.4654694998459,968
-463.86566989303384,954
-461.26658821703614,956
-458.66822428996414,987
-456.07057792985,934
-453.4736489546475,917
-450.877437182231,930
-448.28194243039627,852
-445.68716451686,899
-443.09310325926003,888
-440.49975847515555,911
-437.9071299820263,916
-435.31521759727354,891
-432.72402113821954,965
-430.13354042210767,977
-427.5437752661022,929
-424.95472548728867,985
-422.36639090267386,980
-419.7787713291855,1017
-417.1918665836721,1013
-414.60567648290385,989
-412.0202008435715,991
-409.4354394822874,997
-406.8513922155845,986
-404.26805885991723,983
-401.685439231661,982
-399.103533147112,1008
-396.522340422488,996
-393.9418608739278,1036
-391.3620943174908,1017
-388.7830405691583,1002
-386.2046994448317,919
-383.6270707603344,951
-381.05015433141045,870
-378.473949973725,794
-375.8984575028645,791
-373.32367673433623,744
-370.74960748356875,727
-368.1762495659117,679
-365.60360279663576,690
-363.03166699093265,601
-360.4604419639154,548
-357.8899275306178,537
-355.32012350599507,546
-352.7510297049233,508
-350.1826459421999,501
-347.61497203254316,478
-345.04800779059235,451
-342.4817530309082,470
-339.91620756797226,503
-337.35137121618743,506
-334.7872437898774,492
-332.22382510328725,506
-329.66111497058273,512
-327.09911320585127,535
-324.53781962310075,536
-321.9772340362607,496
-319.4173562591816,502
-316.8581861056348,492
-314.2997233893127,519
-311.7419679238294,488
-309.1849195227194,473
-306.62857799943856,527
-304.0729431673641,529
-301.51801483979375,517
-298.963792829947,537
-296.41027695096386,504
-293.85746701590574,636
-291.3053628377552,656
-288.7539642294155,605
-286.2032710037115,580
-283.65328297338897,589
-281.1039999511146,572
-278.5554217494762,618
-276.007548180983,603
-273.4603790580651,611
-270.9139141930734,611
-268.3681533982807,625
-265.8230964858798,669
-263.27874326798565,643
-260.7350935566336,631
-258.1921471637804,612
-255.6499039013039,627
-253.10836358100266,652
-250.56752601459698,633
-248.02739101372765,617
-245.48795838995704,620
-242.94922795476816,677
-240.41119951956557,663
-237.8738728956746,705
-235.33724789434166,701
-232.80132432673452,674
-230.2661020039418,619
-227.73158073697357,590
-225.19776033676033,656
-222.66464061415422,675
-220.1322213799284,673
-217.60050244477725,640
-215.06948361931552,645
-212.53916471408013,640
-210.00954553952818,669
-207.48062590603843,712
-204.9524056239104,727
-202.4248845033651,784
-199.8980623545441,741
-197.37193898751036,777
-194.84651421224817,836
-192.32178783866232,821
-189.79775967657952,837
-187.27442953574644,921
-184.7517972258321,954
-182.2298625564256,860
-179.7086253370378,817
-177.18808537710026,739
-174.66824248596583,760
-172.14909647290835,797
-169.6306471471229,853
-167.11289431772548,917
-164.59583779375328,930
-162.07947738416453,998
-159.5638128978386,958
-157.04884414357605,1002
-154.53457093009854,920
-152.02099306604828,874
-149.50811035998936,869
-146.99592262040665,952
-144.48442965570587,945
-141.97363127421409,956
-139.46352728417958,966
-136.95411749377126,977
-134.44540171107985,977
-131.93737974411636,1060
-129.43005140081357,977
-126.92341648902493,1204
-124.41747481652521,1525
-121.91222619101006,1740
-119.40767042009657,1989
-116.90380731132257,2066
-114.40063667214702,2214
-111.8981583099503,2383
-109.3963720320337,2212
-106.89527764561933,1767
-104.39487495785067,1800
-101.89516377579241,2050
-99.39614390642998,3094
-96.89781515667039,3742
-94.40017733334128,3555
-91.90323024319173,3203
-89.40697369289148,2965
-86.91140748903172,3454
-84.41653143812482,4258
-81.92234534660395,5220
-79.42884902082358,5518
-76.93604226705907,6565
-74.4439248915071,11367
-71.95249670028534,19123
-69.46175749943245,23778
-66.97170709490854,24802
-64.48234529259423,23123
-61.99367189829195,19050
-59.50568671772464,13057
-57.01838955653636,9195
-54.53178022029283,10022
-52.045858514480074,13101
-49.560624244506016,15944
-47.07607721569923,17776
-44.59221723330904,18928
-42.10904410250669,19732
-39.62655762838392,17557
-37.14475761595372,15798
-34.66364387015028,15324
-32.18321619582866,15039
-29.70347439776515,14345
-27.224418280657005,14688
-24.74604764912317,13937
-22.26836230770266,15141
-19.7913620608565,23832
-17.315046712966478,40896
-14.83941606833514,54579
-12.36446993118659,65037
-9.89020810566592,65037
-7.416630395839093,65037
-4.94373660569363,65037
-2.471526539137585,65037
-6.821210263296962E-13,65037
2.47084320796705,65037
4.941003281093458,65037
7.410480415786196,65037
9.879274808531363,65037
12.347386655893956,65037
14.814816154518212,65037
17.28156350112681,65037
19.74762889252179,65037
22.21301252558385,65037
24.67771459727237,20762
27.141735304626195,4193
29.605074844762612,2745
32.06773341487792,2757
34.52971121224755,2597
36.99100843422559,2545
39.45162527824516,2205
41.91156194181792,2095
44.370818622535126,1731
46.82939551806646,1505
49.287292826160524,1691
51.74451074464503,1999
54.201049471426245,2318
56.65690920448981,2190
59.112090141899785,1876
61.56659248179983,1887
64.02041642241159,1489
66.4735621620365,1218
68.92602989905402,1246
71.37781983192338,1397
73.82893215918205,1440
76.27936707944684,1649
78.72912479141326,1406
81.17820549385567,1278
83.62660938562783,1206
86.07433666566146,1201
88.5213875329681,1060
90.96776218663751,1104
93.41346082583925,1219
95.85848364982041,1283
98.30283085790859,1374
100.7465026495089,1295
103.18949922410604,1175
105.63182078126385,1073
108.07346752062438,1065
110.51443964190923,1240
112.95473734491827,1299
115.39436082953114,1019
117.83331029570547,962
120.27158594347827,1242
122.7091879729652,1462
125.1461165843615,1401
127.58237197794062,1210
130.01795435405518,1103
132.4528639131364,967
134.88710085569494,951
137.32066538231982,978
139.75355769367923,955
142.1857779905207,907
144.61732647366978,930
147.04820334403132,938
149.47840880258934,932
151.90794305040674,929
154.33680628862487,1071
156.76499871846443,1343
159.19252054122433,1621
161.61937195828352,1622
164.04555317109896,1637
166.47106438120693,1810
168.89590579022217,1989
171.320077599839,2179
173.7435800118302,2327
176.16641322804742,2496
178.58857745042144,2621
181.01007288096173,2686
183.43089972175687,2694
185.85105817497413,2596
188.27054844285988,2618
190.6893707277394,2677
193.10752523201643,2693
195.5250121581745,2718
197.9418317087751,2815
200.3579840864594,2805
202.7734694939469,2832
205.18828813403627,2971
207.6024402096051,3060
210.01592592360964,3026
212.42874547908548,3044
214.84089907914665,3074
217.2523869269868,2884
219.66320922587727,2845
222.0733661791695,2840
224.48285799029293,2964
226.8916848627572,2798
229.29984700014882,2850
231.7073446061355,2855
234.11417788446204,2798
236.520347038953,2942
238.92585227351185,2973
241.33069379212054,3090
243.73487179884035,3234
246.1383864978112,3123
248.541238093252,3131
250.9434267894609,3125
253.34495279081432,3118
255.74581630176783,3090
258.1460175268563,3101
260.54555667069314,3161
262.9444339379703,3177
265.3426495334594,3116
267.7402036620107,2961
270.1370965285529,3008
272.53332833809407,3029
274.9288992957214,2884
277.32380960660055,2827
279.718059475976,2707
282.1116491091717,2653
284.5045787115897,2655
286.89684848871195,2700
289.2884586460981,2800
291.67940938938807,2791
294.0697009242996,2748
296.4593334566299,2692
298.84830719225477,2717
301.23662233712923,2682
303.6242790972866,2564
306.01127767884,2598
308.39761828798066,2510
310.78330113097934,2518
313.16832641418534,2490
315.5526943440269,2502
317.9364051270112,2559
320.3194589697242,2388
322.70185607883093,2536
325.0835966610754,2564
327.4646809232805,2375
329.8451090723478,2436
332.2248813152577,2439
334.6039978590701,2328
336.9824589109231,2334
339.36026467803447,2405
341.7374153677,2351
344.113911187295,2274
346.48975234427337,2335
348.8649390461686,2318
351.2394715005918,2225
353.61334991523415,2165
355.9865744978655,2188
358.35914545633375,2256
360.73106299856715,2181
363.10232733257146,2236
365.47293866643247,2187
367.84289720831396,2135
370.2122031664593,2240
372.5808567491905,2167
374.9488581649083,2165
377.31620762209275,2106
379.6829053293021,2134
382.0489514951745,2086
384.4143463284262,2124
386.7790900378528,2103
389.14318283232853,2058
391.50662492080653,2108
393.86941651231916,2068
396.23155781597745,2048
398.5930490409713,2061
400.9538903965696,2175
403.3140820921202,2092
405.6736243370498,2148
408.03251734086336,2107
410.3907613131465,2169
412.74835646356166,2022
415.10530300185144,2071
417.4616011378372,2110
419.81725108141893,2074
422.1722530425758,2113
424.5266072313656,2070
426.880313857925,2048
429.2333731324701,1998
431.58578526529516,2102
433.9375504667738,1986
436.2886689473588,2046
438.63914091758113,2025
440.9889665880513,1985
443.33814616945835,2036
445.68667987257015,1994
448.03456790823395,2030
450.3818104873759,1974
452.72840782100013,2003
455.07436012019105,1999
457.41966759611057,1998
459.7643304600007,2033
462.10834892318155,2004
464.4517231970525,1985
466.79445349309174,2006
469.1365400228566,1949
471.4779829979826,1936
473.81878263018564,2031
476.15893913125876,2026
478.4984527130747,2117
480.8373235875855,2036
483.17555196682144,2138
485.5131380628919,2138
487.8500820879857,2245
490.1863842543697,2360
492.52204477439034,2414
494.8570638604725,2609
497.1914417251204,2850
499.52517858091653,3282
501.85827464052306,3456
504.19073011668036,3319
506.5225452222086,3430
508.85372017000566,3422
511.18425517304956,3337
513.514150444396,3517
515.8434061971808,4125
518.1720226446176,5082
520.4999999999999,5464
522.8273384766991,5302
525.1540382881666,4876
527.480099647932,4272
529.8055227696037,3628
532.1303078668694,2906
534.454455153496,2352
536.777964843328,2243
539.1008371502907,2162
541.4230722883866,2123
543.744670471698,2065
546.0656319143858,2086
548.3859568306899,2108
550.7056454349294,2109
553.0246979415016,1971
555.3431145648834,1972
557.6608955196306,2023
559.978041020377,2028
562.2945512818363,1977
564.6104265188006,2058
566.9256669461412,2146
569.2402727788082,2045
571.5542442318302,1961
573.8675815203156,2119
576.1802848594508,2083
578.4923544645015,2033
580.8037905508126,2045
583.114593333807,2021
585.4247630289875,2062
587.7342998519354,2109
590.0432040183106,2098
592.3514757438526,2039
594.6591152443794,2047
596.9661227357875,2008
599.2724984340531,2041
601.578242555231,2092
603.8833553154542,2084
606.1878369309362,2003
608.4916876179676,2025
610.7949075929192,2101
613.0974970722403,2083
615.3994562724587,2006
617.7007854101818,2022
620.0014847020951,2047
622.3015543649641,2037
624.6009946156324,2028
626.8998056710224,2038
629.1979877481361,2018
631.4955410640538,2059
633.7924658359349,2070
636.0887622810175,2105
638.3844306166192,2096
640.6794710601358,2073
642.9738838290426,2123
645.2676691408932,2088
647.5608272133207,2080
649.853358264037,2053
652.1452625108324,2065
654.4365401715764,2153
656.7271914642178,2135
659.0172166067838,2091
661.3066158173809,2018
663.5953893141935,2072
665.8835373154867,2037
668.1710600396028,2056
670.4579577049639,2066
672.7442305300709,2162
675.0298787335033,2137
677.3149025339197,1980
679.599302150058,2043
681.8830778007342,2049
684.1662297048437,2133
686.4487580813608,2071
688.7306631493387,2102
691.0119451279091,2108
693.2926042362834,2093
695.5726406937516,2094
697.8520547196814,2099
700.1308465335215,2152
702.4090163547982,2095
704.6865644031171,2029
706.9634908981619,2094
709.2397960596965,2036
711.5154801075631,2053
713.7905432616823,2148
716.0649857420548,2070
718.3388077687592,2009
720.612009561953,2089
722.8845913418733,2088
725.1565533288352,2016
727.427895743234,2106
729.6986188055427,2031
731.9687227363137,2065
734.238207756178,2091
736.5070740858458,1996
738.7753219461066,2067
741.0429515578281,2020
743.3099631419569,2091
745.5763569195191,2089
747.8421331116193,2138
750.1072919394409,2022
752.3718336242467,2043
754.6357583873777,2051
756.8990664502545,2072
759.1617580343765,2065
761.423833361321,2010
763.6852926527457,2047
765.9461361303862,2069
768.206364016058,2011
770.4659765316536,2110
772.7249738991469,2094
774.9833563405886,2002
777.2411240781092,2122
779.4982773339183,2081
781.7548163303044,2063
784.010741289634,2013
786.2660524343538,2140
788.5207499869881,2098
790.7748341701416,2130
793.0283052064964,2108
795.2811633188143,2089
797.5334087299362,2090
799.7850416627813,2053
802.0360623403484,2025
804.2864709857143,2106
806.5362678220353,2100
808.7854530725468,2113
811.0340269605625,2149
813.2819897094754,2129
815.5293415427581,2110
817.77608268396,2136
820.0222133567116,2122
822.2677337847211,2145
824.5126441917765,2099
826.7569448017433,2092
829.0006358385675,2148
831.2437175262731,2036
833.4861900889629,2094
835.7280537508192,2051
837.9693087361026,2119
840.2099552691533,2128
842.4499935743896,2107
844.689423876309,2034
846.9282463994886,2080
849.1664613685833,2142
851.4040690083276,2160
853.6410695435349,2006
855.877463199097,2006
858.1132501999847,2154
860.3484307712487,2124
862.5830051380175,2171
864.8169735254988,2070
867.0503361589791,2173
869.2830932638243,2097
871.5152450654786,2089
873.7467917894654,2186
875.9777336613873,2113
878.2080709069252,2235
880.4378037518389,2145
882.666932421968,2087
884.8954571432301,2184
887.1233781416219,2145
889.3506956432192,2278
891.5774098741766,2181
893.803521060728,2210
896.0290294291852,2158
898.2539352059397,2195
900.4782386174619,2126
902.7019398903011,2142
904.925039251085,2162
907.147536926521,2103
909.3694331433943,2163
911.59072812857,2106
913.8114221089921,2119
916.0315153116827,2133
918.2510079637437,2123
920.4699002923547,2089
922.6881925247761,2140
924.905884888345,2034
927.1229776104793,2054
929.3394709186747,2098
931.555365040506,2048
933.7706602036275,2071
935.9853566357709,2021
938.1994545647489,2134
940.4129542184515,2173
942.6258558248488,2105
944.8381596119883,2143
947.0498658079974,2011
949.2609746410825,2096
951.4714863395287,2085
953.6814011316998,2104
955.8907192460387,2117
958.0994409110671,2005
960.3075663553858,2017
962.5150958076741,1975
964.7220294966913,2051
966.928367651274,2021
969.1341105003388,2065
971.3392582728806,2073
973.5438111979742,1950
975.747769504772,2021
977.9511334225061,1965
980.153903180487,1974
982.3560790081052,1974
984.5576611348289,1970
986.7586497902058,1963
988.9590452038618,1919
991.158847605503,1927
993.3580572249133,1958
995.5566742919558,1925
997.7546990365728,1865
999.952131688785,1838
1002.1489724786926,1832
1004.3452216364743,1791
1006.5408793923874,1783
1008.7359459767691,1783
1010.9304216200343,1839
1013.1243065526781,1798
1015.3176010052733,1781
1017.510305208472,1769
1019.7024193930064,1698
1021.8939437896848,1690
1024.0848786293977,1702
1026.2752241431122,1720
1028.4649805618747,1717
1030.6541481168115,1670
1032.842727039127,1719
1035.0307175601051,1667
1037.2181199111074,1654
1039.4049343235752,1690
1041.591161029029,1719
1043.7768002590683,1729
1045.9618522453698,1743
1048.1463172196918,1694
1050.3301954138697,1712
1052.513487059818,1626
1054.69619238953,1649
1056.8783116350783,1617
1059.0598450286152,1678
1061.2407928023704,1684
1063.4211551886528,1611
1065.6009324198508,1688
1067.780124728432,1694
1069.9587323469414,1604
1072.1367555080046,1630
1074.314194444325,1634
1076.4910493886855,1707
1078.667320573947,1632
1080.843008233051,1691
1083.0181125990161,1612
1085.1926339049414,1620
1087.3665723840027,1625
1089.5399282694575,1605
1091.7127017946405,1542
1093.8848931929647,1588
1096.0565026979243,1565
1098.2275305430899,1586
1100.3979769621128,1591
1102.567842188722,1576
1104.737126456726,1561
1106.9058300000124,1553
1109.0739530525475,1562
1111.2414958483764,1628
1113.4084586216231,1560
1115.5748416064907,1498
1117.7406450372605,1595
1119.9058691482942,1525
1122.0705141740304,1549
1124.2345803489884,1525
1126.3980679077658,1548
1128.5609770850388,1603
1130.7233081155623,1532
1132.8850612341707,1543
1135.0462366757774,1549
1137.2068346753745,1585
1139.3668554680326,1608
1141.526299288901,1580
1143.68516637321,1596
1145.8434569562655,1508
1148.001171273455,1564
1150.158309560244,1594
1152.3148720521767,1572
1154.470858984876,1494
1156.626270594044,1588
1158.7811071154629,1530
1160.9353687849912,1585
1163.089055838569,1537
1165.242168512213,1492
1167.3947070420209,1511
1169.5466716641677,1497
1171.6980626149075,1505
1173.8488801305748,1540
1175.9991244475814,1532
1178.1487958024186,1557
1180.2978944316555,1525
1182.4464205719428,1480
1184.5943744600072,1480
1186.7417563326567,1533
1188.8885664267755,1512
1191.0348049793297,1474
1193.1804722273619,1451
1195.325568407995,1532
1197.4700937584303,1544
1199.614048515948,1547
1201.7574329179074,1487
1203.900247201746,1513
1206.042491604982,1543
1208.1841663652099,1497
1210.3252717201053,1513
1212.465807907422,1552
1214.6057751649923,1543
1216.7451737307279,1528
1218.8840038426192,1525
1221.0222657387353,1469
1223.1599596572241,1480
1225.2970858363137,1489
1227.4336445143094,1509
1229.5696359295966,1499
1231.705060320639,1613
1233.8399179259786,1511
1235.9742089842384,1537
1238.107933734118,1553
1240.2410924143974,1586
1242.373685263935,1527
1244.5057125216676,1498
1246.6371744266116,1514
1248.7680712178621,1526
1250.898403134593,1539
1253.028170416058,1604
1255.1573733015875,1558
1257.2860120305932,1583
1259.4140868425648,1495
1261.54159797707,1603
1263.6685456737569,1553
1265.7949301723515,1599
1267.9207517126597,1558
1270.046010534565,1553
1272.1707068780306,1679
1274.2948409830983,1606
1276.4184130898889,1635
1278.541423438603,1560
1280.6638722695184,1585
1282.785759822993,1596
1284.9070863394636,1615
1287.0278520594447,1580
1289.1480572235314,1588
1291.2677020723963,1568
1293.3867868467923,1629
1295.5053117875495,1613
1297.623277135579,1663
1299.740683131868,1592
1301.8575300174857,1661
1303.973818033578,1639
1306.0895474213703,1673
1308.2047184221678,1636
1310.3193312773528,1628
1312.4333862283888,1629
1314.5468835168163,1652
1316.659823384255,1713
1318.7722060724045,1659
1320.8840318230418,1661
1322.9953008780249,1638
1325.1060134792888,1688
1327.2161698688478,1662
1329.3257702887959,1668
1331.4348149813054,1625
1333.5433041886276,1655
1335.6512381530933,1701
1337.7586171171101,1672
1339.8654413231675,1694
1341.9717110138317,1594
1344.0774264317488,1692
1346.1825878196432,1626
1348.2871954203192,1664
1350.3912494766587,1624
1352.4947502316231,1656
1354.5976979282532,1671
1356.7000928096686,1620
1358.8019351190665,1680
1360.9032250997243,1642
1363.0039629949988,1585
1365.1041490483235,1681
1367.2037835032133,1652
1369.3028666032606,1625
1371.401398592137,1687
1373.4993797135926,1611
1375.5968102114575,1698
1377.6936903296396,1693
1379.7900203121262,1687
1381.8858004029835,1710
1383.9810308463561,1698
1386.075711886469,1657
1388.1698437676241,1705
1390.2634267342032,1669
1392.356461030667,1662
1394.4489469015557,1661
1396.5408845914872,1643
1398.6322743451592,1674
1400.7231164073469,1660
1402.813411022907,1695
1404.903158436773,1755
1406.9923588939578,1765
1409.0810126395531,1723
1411.1691199187303,1805
1413.2566809767386,1704
1415.343696058907,1722
1417.4301654106425,1717
1419.5160892774315,1777
1421.6014679048399,1798
1423.6863015385125,1767
1425.7705904241707,1797
1427.8543348076178,1801
1429.9375349347342,1824
1432.0201910514802,1867
1434.102303403894,1840
1436.1838722380944,1836
1438.2648978002767,1853
1440.3453803367174,1905
1442.4253200937692,1821
1444.5047173178677,1908
1446.5835722555234,1927
1448.6618851533285,1954
1450.739656257952,1999
1452.8168858161434,2004
1454.8935740747306,2041
1456.96972128062,2001
1459.045327680797,1996
1461.120393522327,2137
1463.1949190523528,2109
1465.2689045180973,2152
1467.3423501668608,2102
1469.415256246024,2173
1471.4876230030463,2235
1473.559450685465,2217
1475.6307395408976,2192
1477.7014898170391,2243
1479.771701761665,2248
1481.8413756226287,2320
1483.9105116478618,2350
1485.9791100853772,2412
1488.0471711832643,2421
1490.1146951896926,2419
1492.1816823529098,2443
1494.2481329212433,2567
1496.3140471430984,2514
1498.3794252669609,2576
1500.4442675413939,2566
1502.5085742150404,2569
1504.572345536622,2578
1506.6355817549388,2665
1508.6982831188702,2574
1510.7604498773744,2575
1512.8220822794883,2734
1514.8831805743293,2641
1516.9437450110909,2651
1519.003775839048,2625
1521.0632733075522,2760
1523.1222376660367,2748
1525.1806691640113,2779
1527.2385680510652,2816
1529.2959345768668,2899
1531.3527689911643,2917
1533.4090715437833,2938
1535.4648424846291,2897
1537.5200820636855,3003
1539.5747905310159,3136
1541.6289681367616,3068
1543.6826151311434,3073
1545.7357317644614,3044
1547.7883182870937,3185
1549.8403749494987,3262
1551.8919020022113,3188
1553.9428996958477,3301
1555.9933682811015,3358
1558.0433080087469,3399
1560.0927191296346,3346
1562.1416018946961,3451
1564.1899565549415,3433
1566.2377833614592,3467
1568.2850825654164,3466
1570.3318544180606,3349
1572.3780991707158,3201
1574.423817074788,3125
1576.4690083817595,3090
1578.5136733431923,2842
1580.5578122107272,2850
1582.601425236085,2764
1584.6445126710646,2661
1586.6870747675434,2541
1588.7291117774776,2464
1590.7706239529034,2372
1592.8116115459347,2324
1594.8520748087658,2244
1596.8920139936686,2095
1598.9314293529933,2180
1600.9703211391711,2036
1603.008689604711,2052
1605.0465350022005,1995
1607.0838575843068,1935
1609.1206576037753,1930
1611.1569353134305,1833
1613.1926909661765,1857
1615.2279248149953,1801
1617.2626371129481,1761
1619.2968281131757,1758
1621.3304980688963,1805
1623.3636472334088,1787
1625.39627586009,1752
1627.428384202396,1694
1629.459972513861,1675
1631.4910410480993,1686
1633.5215900588028,1687
1635.551619799744,1776
1637.5811305247717,1606
1639.6101224878166,1713
1641.6385959428862,1626
1643.6665511440683,1586
1645.693988345528,1646
1647.7209078015112,1655
1649.7473097663405,1577
1651.7731944944203,1655
1653.7985622402307,1692
1655.823413258333,1603
1657.847747803366,1612
1659.8715661300494,1623
1661.8948684931793,1654
1663.9176551476316,1626
1665.9399263483624,1588
1667.9616823504057,1589
1669.982923408873,1571
1672.0036497789574,1629
1674.0238617159293,1624
1676.043559475138,1734
1678.0627433120121,1604
1680.081413482059,1589
1682.0995702408654,1541
1684.117213844096,1661
1686.134344547495,1614
1688.1509626068864,1622
1690.1670682781705,1641
1692.182661817329,1628
1694.1977434804217,1586
1696.2123135235875,1607
1698.226372203043,1554
1700.2399197750851,1545
1702.2529564960905,1619
1704.2654826225112,1557
1706.277498410882,1569
1708.2890041178139,1595
1710.2999999999988,1571
1712.3104863142066,1586
1714.3204633172854,1578
1716.329931266163,1596
1718.3388904178469,1620
1720.3473410294214,1606
1722.3552833580516,1530
1724.3627176609807,1600
1726.3696441955308,1558
1728.3760632191033,1588
1730.3819749891782,1578
1732.3873797633146,1507
1734.3922777991502,1511
1736.3966693544012,1603
1738.4005546868639,1529
1740.4039340544127,1543
1742.406807715001,1529
1744.4091759266616,1455
1746.4110389475054,1545
1748.4123970357223,1554
1750.413250449582,1544
1752.4135994474318,1596
1754.4134442876993,1553
1756.4127852288902,1519
1758.4116225295893,1533
1760.4099564484595,1500
1762.407787244244,1512
1764.405115175764,1513
1766.4019405019203,1483
1768.3982634816916,1480
1770.3940843741357,1542
1772.3894034383907,1494
1774.3842209336717,1538
1776.378537119274,1461
1778.372352254571,1477
1780.3656665990156,1458
1782.3584804121397,1413
1784.3507939535534,1480
1786.3426074829463,1502
1788.3339212600863,1529
1790.3247355448211,1516
1792.3150505970766,1512
1794.3048666768573,1522
1796.2941840442477,1488
1798.2830029594106,1480
1800.2713236825884,1507
1802.2591464741004,1487
1804.2464715943465,1470
1806.2332993038058,1509
1808.2196298630352,1543
1810.2054635326708,1525
1812.190800573428,1475
1814.175641246101,1481
1816.1599858115628,1474
1818.1438345307652,1475
1820.127187664738,1514
1822.1100454745924,1498
1824.092408221516,1470
1826.0742761667766,1490
1828.055649571721,1453
1830.0365286977735,1469
1832.0169138064398,1434
1833.9968051593014,1447
1835.9762030180214,1512
1837.9551076443408,1471
1839.9335193000788,1537
1841.9114382471344,1466
1843.888864747485,1470
1845.8657990631878,1496
1847.842241456378,1503
1849.8181921892697,1507
1851.7936515241558,1464
1853.7686197234098,1413
1855.7430970494815,1486
1857.7170837649014,1477
1859.6905801322787,1510
1861.6635864143004,1474
1863.6361028737338,1439
1865.608129773424,1491
1867.5796673762961,1486
1869.5507159453537,1521
1871.521275743678,1506
1873.4913470344313,1490
1875.4609300808534,1491
1877.4300251462632,1499
1879.3986324940588,1481
1881.366752387717,1525
1883.3343850907936,1570
1885.3015308669228,1457
1887.268189979819,1529
1889.2343626932739,1463
1891.2000492711595,1444
1893.1652499774254,1514
1895.1299650761011,1472
1897.0941948312952,1482
1899.0579395071945,1473
1901.0211993680641,1484
1902.98397467825,1464
1904.9462657021745,1506
1906.9080727043415,1530
1908.869395949332,1541
1910.8302357018065,1464
1912.790592226504,1550
1914.7504657882428,1494
1916.7098566519212,1532
1918.6687650825133,1538
1920.6271913450764,1507
1922.5851357047422,1468
1924.5425984267245,1516
1926.499579776314,1448
1928.4560800188833,1476
1930.4120994198802,1513
1932.367638244833,1494
1934.32269675935,1496
1936.2772752291175,1507
1938.231373919899,1479
1940.1849930975404,1481
1942.1381330279637,1445
1944.0907939771696,1450
1946.0429762112412,1484
1947.9946799963363,1486
1949.9459055986945,1443
1951.896653284633,1450
1953.8469233205478,1532
1955.7967159729142,1476
1957.7460315082863,1486
1959.6948701932974,1508
1961.6432322946594,1403
1963.5911180791632,1465
1965.5385278136787,1444
1967.4854617651545,1497
1969.4319202006182,1445
1971.377903387176,1417
1973.3234115920136,1416
1975.268445082395,1407
1977.2130041256642,1434
1979.1570889892423,1444
1981.1006999406304,1427
1983.04383724741,1434
1984.986501177238,1498
1986.928691997853,1456
1988.8704099770712,1450
1990.811655382789,1403
1992.7524284829801,1421
1994.692729545698,1423
1996.6325588390755,1496
1998.5719166313224,1439
2000.5108031907307,1445
2002.4492187856677,1400
2004.387163684583,1468
2006.3246381560011,1509
2008.2616424685298,1492
2010.1981768908527,1415
2012.1342416917332,1459
2014.069837140014,1441
2016.0049635046162,1471
2017.9396210545406,1461
2019.8738100588666,1414
2021.8075307867502,1413
2023.740783507431,1441
2025.6735684902228,1424
2027.6058860045214,1405
2029.5377363198004,1415
2031.4691197056118,1422
2033.4000364315875,1451
2035.3304867674374,1424
2037.260470982952,1448
2039.189989347998,1384
2041.1190421325232,1405
2043.047629606554,1386
2044.9757520401945,1427
2046.9034097036288,1413
2048.8306028671195,1446
2050.7573318010086,1405
2052.683596775716,1415
2054.609398061742,1404
2056.5347359296647,1372
2058.4596106501403,1373
2060.384022493906,1380
2062.3079717317764,1408
2064.231458634646,1480
2066.1544834734873,1350
2068.077046519352,1469
2069.99914804337,1439
2071.9207883167524,1426
2073.8419676107865,1421
2075.7626861968406,1450
2077.6829443463607,1470
2079.6027423308715,1455
2081.522080421977,1417
2083.440958891362,1379
2085.359378010786,1455
2087.2773380520907,1416
2089.194839287196,1416
2091.111881988101,1404
2093.0284664268825,1383
2094.9445928756973,1414
2096.86026160678,1441
2098.775472892446,1393
2100.690227005088,1379
2102.604524217178,1472
2104.5183648012676,1441
2106.431749029985,1400
2108.34467717604,1378
2110.2571495122206,1429
2112.169166311393,1417
2114.080727846503,1404
2115.9918343905747,1416
2117.902486216711,1417
2119.8126835980956,1415
2121.722426807987,1440
2123.6317161197285,1439
2125.5405518067364,1446
2127.448934142509,1424
2129.356863400624,1381
2131.264339854737,1445
2133.1713637785815,1433
2135.077935445972,1477
2136.9840551308002,1439
2138.889723107037,1444
2140.7949396487334,1408
2142.699705030018,1446
2144.6040195250994,1478
2146.507883408264,1482
2148.4112969538774,1430
2150.3142604363848,1455
2152.2167741303097,1417
2154.1188383102535,1431
2156.0204532508997,1481
2157.9216192270064,1468
2159.822336513414,1452
2161.7226053850413,1464
2163.622426116884,1454
2165.5217989840185,1476
2167.4207242616,1473
2169.319202224862,1481
2171.2172331491165,1516
2173.1148173097563,1539
2175.0119549822507,1467
2176.90864644215,1515
2178.8048919650823,1438
2180.7006918267534,1508
2182.596046302952,1460
2184.4909556695407,1486
2186.3854202024645,1514
2188.279440177746,1528
2190.173015871487,1500
2192.066147559868,1549
2193.958835519149,1487
2195.851080025667,1466
2197.7428813558417,1465
2199.6342397861667,1533
2201.5251555932186,1507
2203.415629053651,1569
2205.3056604441986,1529
2207.19525004167,1542
2209.084398122958,1535
2210.9731049650327,1559
2212.861370844941,1510
2214.749196039812,1522
2216.636580826851,1557
2218.523525483344,1493
2220.410030286655,1544
2222.296095514226,1515
2224.1817214435805,1581
2226.066908352319,1526
2227.951656518121,1522
2229.835966218746,1501
2231.71983773203,1496
2233.6032713358913,1506
2235.486267308324,1488
2237.3688259274036,1514
2239.2509474712824,1521
2241.132632218193,1498
2243.013880446447,1545
2244.8946924344323,1507
2246.7750684606203,1537
2248.6550088035574,1473
2250.534513741871,1522
2252.413583554265,1505
2254.292218519526,1550
2256.170418916517,1501
2258.0481850241786,1468
2259.925517121534,1493
2261.8024154876825,1499
2263.678880401803,1575
2265.5549121431536,1582
2267.430510991071,1564
2269.305677224971,1512
2271.180411124348,1512
2273.0547129687766,1580
2274.9285830379076,1492
2276.8020216114737,1467
2278.6750289692845,1473
2280.5476053912294,1493
2282.4197511572766,1458
2284.2914665474727,1518
2286.162751841943,1564
2288.0336073208937,1598
2289.904033264608,1537
2291.774029953448,1494
2293.6435976678554,1478
2295.5127366883517,1487
2297.381447295534,1502
2299.2497297700825,1449
2301.1175843927526,1440
2302.9850114443825,1412
2304.852011205885,1373
2306.7185839582553,1358
2308.5847299825664,1333
2310.4504495599676,1335
2312.3157429716925,1331
2314.1806104990483,1373
2316.0450524234247,1333
2317.9090690262888,1275
2319.772660589186,1354
2321.635827393742,1339
2323.498569721661,1323
2325.3608878547248,1210
2327.2227820747967,1243
2329.0842526638157,1300
2330.945299903803,1341
2332.805924076857,1321
2334.6661254651535,1301
2336.525904350951,1322
2338.3852610165827,1315
2340.244195744464,1285
2342.102708817088,1289
2343.9608005170253,1302
2345.8184711269287,1297
2347.675720929526,1342
2349.532550207628,1323
2351.38895924412,1322
2353.24494832197,1277
2355.100517724223,1319
2356.955667734004,1359
2358.810398634514,1312
2360.664710709037,1353
2362.5186042409337,1318
2364.3720795136437,1306
2366.225136810686,1358
2368.0777764156583,1265
2369.929998612237,1301
2371.7818036841777,1320
2373.633191915315,1317
2375.484163589562,1306
2377.3347189909114,1299
2379.184858403434,1277
2381.03458211128,1302
2382.8838903986775,1330
2384.732783549936,1265
2386.5812618494406,1338
2388.4293255816588,1312
2390.2769750311327,1331
2392.1242104824883,1370
2393.971032220427,1334
2395.8174405297295,1341
2397.6634356952563,1336
2399.509018001947,1379
2401.3541877348193,1332
2403.1989451789705,1315
2405.043290619576,1314
2406.8872243418905,1317
2408.730746631247,1350
2410.5738577730594,1362
2412.4165580528183,1313
2414.258847756095,1312
2416.100727168537,1331
2417.9421965758734,1363
2419.783256263912,1366
2421.623906518538,1256
2423.4641476257157,1316
2425.303979871491,1341
2427.143403541984,1307
2428.9824189233977,1351
2430.821026302012,1346
2432.6592259641866,1349
2434.497018196361,1346
2436.33440328505,1321
2438.171381516851,1383
2440.00795317844,1372
2441.844118556569,1381
2443.6798779380724,1362
2445.5152316098606,1328
2447.3501798589255,1266
2449.1847229723357,1375
2451.0188612372403,1331
2452.8525949408663,1294
2454.6859243705203,1345
2456.518849813587,1347
2458.3513715575314,1334
2460.183489889895,1405
2462.015205098301,1330
2463.8465174704493,1325
2465.67742729412,1350
2467.5079348571717,1362
2469.338040447542,1344
2471.1677443532476,1347
2472.9970468623833,1330
2474.825948263123,1378
2476.6544488437207,1352
2478.482548892508,1337
2480.310248697896,1429
2482.137548548374,1366
2483.9644487325118,1370
2485.790949538956,1361
2487.617051256433,1352
2489.44275417375,1362
2491.26805857979,1363
2493.0929647635157,1358
2494.917473013971,1411
2496.741583620276,1379
2498.5652968716304,1354
2500.3886130573137,1410
2502.2115324666834,1422
2504.0340553891765,1418
2505.856182114308,1399
2507.6779129316733,1359
2509.499248130945,1452
2511.3201880018764,1448
2513.140732834298,1356
2514.9608829181198,1423
2516.780638543331,1393
2518.6,1465
2520.418967578273,1447
2522.237541568376,1430
2524.0557222606144,1375
2525.8735099453706,1390
2527.6909049131086,1390
2529.507907454368,1428
2531.32451785977,1395
2533.140736420014,1463
2534.9565634258774,1483
2536.771999168218,1466
2538.5870439379714,1502
2540.4016980261526,1497
2542.2159617238544,1465
2544.02983532225,1531
2545.8433191125914,1489
2547.656413386209,1470
2549.4691184345115,1502
2551.2814345489874,1536
2553.093362021204,1492
2554.904901142808,1553
2556.716052205523,1491
2558.526815501153,1556
2560.3371913215824,1573
2562.147179958771,1558
2563.956781704761,1601
2565.7659968516705,1584
2567.5748256916986,1611
2569.3832685171224,1614
2571.1913256202984,1562
2572.9989972936614,1596
2574.806283829725,1587
2576.613185521084,1570
2578.4197026604074,1634
2580.2258355404483,1538
2582.031584454035,1577
2583.836949694077,1672
2585.6419315535613,1640
2587.4465303255533,1672
2589.2507463032002,1717
2591.0545797797245,1627
2592.8580310484303,1669
2594.6611004026995,1651
2596.463788135992,1704
2598.266094541849,1667
2600.0680199138874,1674
2601.869564545807,1655
2603.670728731383,1724
2605.4715127644704,1706
2607.2719169390048,1620
2609.071941548998,1638
2610.8715868885433,1658
2612.670853251811,1654
2614.469740933052,1681
2616.268250226594,1680
2618.0663814268455,1669
2619.864134828292,1651
2621.6615107255006,1674
2623.458509413115,1668
2625.2551311858597,1619
2627.0513763385347,1633
2628.8472451660223,1616
2630.6427379632833,1603
2632.4378550253564,1608
2634.232596647359,1630
2636.026963124488,1540
2637.8209547520187,1571
2639.6145718253065,1550
2641.407814639785,1533
2643.200683490966,1579
2644.9931786744414,1608
2646.7853004858807,1558
2648.577049221034,1594
2650.3684251757277,1564
2652.1594286458712,1541
2653.9500599274484,1488
2655.740319316525,1559
2657.5302071092437,1481
2659.3197236018286,1460
2661.10886909058,1494
2662.8976438718782,1591
2664.686048242183,1504
2666.4740824980327,1437
2668.2617469360443,1481
2670.0490418529134,1463
2671.8359675454153,1429
2673.622524310403,1471
2675.408712444811,1416
2677.1945322456495,1412
2678.979984010009,1442
2680.76506803506,1441
2682.5497846180497,1407
2684.334134056306,1380
2686.1181166472343,1401
2687.9017326883213,1401
2689.6849824771293,1397
2691.4678663113013,1385
2693.2503844885596,1413
2695.032537306705,1400
2696.8143250636167,1386
2698.5957480572542,1409
2700.3768065856534,1341
2702.1575009469316,1397
2703.937831439283,1385
2705.717798360982,1341
2707.4974020103837,1290
2709.276642685917,1328
2711.055520686095,1328
2712.834036309506,1331
2714.612189854819,1338
2716.389981620782,1365
2718.1674119062204,1299
2719.944481010041,1329
2721.721189231226,1359
2723.4975368688415,1375
2725.273524222027,1307
2727.0491515900053,1298
2728.824419272075,1332
2730.5993275676146,1291
2732.3738767760838,1360
2734.148067197016,1307
2735.921899130031,1282
2737.6953728748194,1300
2739.468488731156,1355
2741.2412469988926,1314
2743.0136479779617,1329
2744.785691968372,1282
2746.5573792702116,1372
2748.3287101836504,1298
2750.099685008934,1319
2751.870304046388,1309
2753.640567596418,1305
2755.4104759595057,1306
2757.1800294362156,1300
2758.949228327187,1306
2760.7180729331412,1327
2762.486563554877,1302
2764.254700493272,1294
2766.022484049284,1314
2767.789914523947,1328
2769.5569922183786,1301
2771.3237174337705,1293
2773.090090471394,1303
2774.8561116326036,1310
2776.6217812188274,1262
2778.3870995315756,1264
2780.1520668724356,1339
2781.9166835430747,1294
2783.6809498452394,1273
2785.444866080754,1291
2787.2084325515225,1302
2788.971649559527,1295
2790.73451740683,1294
2792.4970363955713,1284
2794.2592068279705,1295
2796.0210290063264,1332
2797.7825032330147,1306
2799.543629810493,1296
2801.304409041296,1277
2803.0648412280366,1303
2804.8249266734088,1284
2806.5846656801846,1289
2808.344058551212,1304
2810.1031055894246,1357
2811.8618070978273,1284
2813.6201633795085,1269
2815.378174737636,1356
2817.1358414754536,1335
2818.893163896285,1303
2820.6501423035334,1324
2822.4067770006814,1292
2824.1630682912883,1357
2825.9190164789957,1335
2827.6746218675207,1313
2829.429884760661,1347
2831.184805462294,1292
2832.9393842763743,1337
2834.693621506936,1316
2836.4475174580916,1289
2838.201072434034,1301
2839.954286739034,1348
2841.707160677441,1418
2843.459694553685,1354
2845.2118886722724,1295
2846.96374333779,1343
2848.7152588549034,1332
2850.4664355283567,1326
2852.217273662973,1354
2853.9677735636546,1353
2855.7179355353833,1335
2857.4677598832186,1322
2859.217246912299,1317
2860.9663969278427,1292
2862.715210235146,1298
2864.4636871395846,1325
2866.211827946614,1246
2867.9596329617652,1288
2869.7071024906536,1288
2871.4542368389684,1304
2873.20103631248,1294
2874.947501217038,1293
2876.6936318585695,1338
2878.4394285430812,1291
2880.1848915766604,1345
2881.9300212654707,1280
2883.6748179157553,1356
2885.4192818338374,1285
2887.1634133261173,1307
2888.907212699077,1350
2890.6506802592744,1329
2892.393816313348,1320
2894.1366211680142,1273
2895.8790951300693,1306
2897.621238506388,1318
2899.363051603925,1295
2901.1045347297118,1311
2902.8456881908596,1340
2904.58651229456,1325
2906.327007348081,1318
2908.067173658772,1285
2909.8070115340597,1275
2911.5465212814497,1279
2913.285703208527,1296
2915.0245576229563,1318
2916.7630848324807,1290
2918.5012851449196,1273
2920.2391588681758,1265
2921.976706310227,1349
2923.7139277791334,1353
2925.4508235830313,1367
2927.187394030137,1319
2928.923639428745,1349
2930.6595600872306,1278
2932.395156314046,1345
2934.1304284177218,1293
2935.8653767068713,1310
2937.6000014901815,1273
2939.3343030764227,1309
2941.068281774442,1297
2942.8019378931644,1300
2944.5352717415976,1334
2946.2682836288236,1300
2948.0009738640065,1315
2949.7333427563885,1378
2951.465390615289,1278
2953.1971177501086,1324
2954.9285244703265,1374
2956.6596110855,1288
2958.3903779052657,1347
2960.1208252393385,1329
2961.8509533975125,1297
2963.5807626896617,1260
2965.3102534257378,1257
2967.0394259157715,1263
2968.768280469873,1292
2970.496817398232,1333
2972.2250370111146,1286
2973.952939618869,1334
2975.6805255319196,1337
2977.4077950607707,1346
2979.134748516006,1318
2980.861386208289,1353
2982.587708448359,1327
2984.313715547037,1389
2986.039407815222,1368
2987.764785563891,1339
2989.489849104102,1336
2991.2145987469908,1305
2992.9390348037705,1337
2994.6631575857346,1302
2996.3869674042576,1265
2998.1104645707887,1303
2999.83364939686,1308
3001.5565221940783,1282
3003.2790832741334,1274
3005.0013329487924,1308
3006.7232715298996,1254
3008.4448993293804,1303
3010.166216659239,1300
3011.887223831558,1338
3013.607921158498,1301
3015.3283089522993,1322
3017.0483875252826,1242
3018.7681571898443,1314
3020.4876182584626,1278
3022.2067710436927,1295
3023.9256158581707,1333
3025.644153014609,1236
3027.362382825801,1286
3029.0803056046193,1255
3030.797921664012,1300
3032.5152313170106,1375
3034.2322348767225,1330
3035.9489326563353,1319
3037.665324969115,1235
3039.3814121284063,1281
3041.097194447633,1250
3042.812672240299,1305
3044.5278458199855,1307
3046.2427155003525,1290
3047.9572815951406,1325
3049.671544418167,1344
3051.38550428333,1326
3053.0991615046073,1300
3054.812516396051,1304
3056.5255692717974,1316
3058.2383204460575,1317
3059.9507702331257,1281
3061.662918947372,1287
3063.3747669032446,1246
3065.0863144152736,1297
3066.7975617980674,1323
3068.508509366309,1329
3070.219157434767,1346
3071.9295063182844,1285
3073.639556331785,1310
3075.3493077902704,1317
3077.058761008821,1289
3078.7679163025964,1314
3080.476773986837,1287
3082.1853343768594,1381
3083.89359778806,1312
3085.6015645359153,1265
3087.3092349359786,1297
3089.016609303884,1274
3090.7236879553434,1276
3092.4304712061476,1269
3094.136959372166,1343
3095.843152769349,1362
3097.5490517137237,1307
3099.2546565213966,1264
3100.959967508554,1284
3102.66498499146,1279
3104.3697092864577,1350
3106.0741407099695,1397
3107.778279578498,1318
3109.482126208622,1326
3111.1856809170004,1246
3112.8889440203716,1334
3114.5919158355528,1361
3116.294596679439,1344
3117.996986869006,1346
3119.6990867213062,1323
3121.4008965534726,1310
3123.102416682717,1378
3124.803647426329,1378
3126.5045891016784,1314
3128.205242026213,1367
3129.90560651746,1317
3131.605682893025,1335
3133.3054714705922,1342
3135.0049725679282,1321
3136.7041865028714,1303
3138.4031135933465,1258
3140.101754157353,1287
3141.800108512971,1321
3143.498176978357,1300
3145.1959598717494,1318
3146.8934575114636,1276
3148.5906702158954,1256
3150.2875983035183,1249
3151.9842420928853,1283
3153.680601902627,1273
3155.376678051456,1302
3157.07247085816,1272
3158.767980641609,1240
3160.463207720748,1291
3162.158152414606,1254
3163.8528150422862,1301
3165.5471959229726,1282
3167.2412953759303,1277
3168.9351137204976,1309
3170.628651276098,1278
3172.3219083622307,1302
3174.014885298474,1295
3175.707582404485,1246
3177.4000000000005,1247
3179.092138404835,1286
3180.7839979388846,1340
3182.47557892212,1289
3184.166881674594,1301
3185.8579065164386,1282
3187.5486537678626,1326
3189.2391237491547,1272
3190.9293167806827,1329
3192.6192331828934,1274
3194.3088732763117,1284
3195.998237381542,1253
3197.687325819268,1291
3199.376138910251,1291
3201.064676975334,1271
3202.7529403354347,1322
3204.4409293115523,1317
3206.1286442247647,1294
3207.816085396229,1300
3209.5032531471825,1258
3211.190147798936,1285
3212.8767696728846,1249
3214.5631190905015,1267
3216.2491963733373,1243
3217.9350018430214,1275
3219.6205358212637,1251
3221.305798629851,1272
3222.990790590651,1306
3224.6755120256103,1257
3226.359963256751,1225
3228.0441446061795,1219
3229.7280563960758,1270
3231.411698948703,1281
3233.0950725863995,1291
3234.778177631587,1253
3236.461014406761,1239
3238.1435832345005,1327
3239.8258844374595,1307
3241.507918338374,1260
3243.1896852600576,1280
3244.8711855254023,1272
3246.552419457381,1253
3248.233387379042,1255
3249.914089613516,1321
3251.59452648401,1267
3253.274698313813,1321
3254.95460542629,1277
3256.6342481448855,1281
3258.313626793125,1241
3259.9927416946084,1258
3261.6715931730196,1256
3263.3501815521176,1272
3265.0285071557437,1225
3266.706570307815,1273
3268.3843713323286,1210
3270.0619105533615,1313
3271.739188295068,1233
3273.4162048816834,1293
3275.0929606375184,1301
3276.769455886966,1283
3278.445690954498,1270
3280.1216661646613,1341
3281.797381842087,1292
3283.4728383114807,1341
3285.1480358976296,1236
3286.8229749253996,1269
3288.4976557197333,1277
3290.172078605655,1286
3291.846243908266,1227
3293.5201519527463,1262
3295.193803064357,1272
3296.8671975684374,1242
3298.5403357904024,1286
3300.21321805575,1238
3301.8858446900567,1250
3303.558216018975,1244
3305.23033236824,1236
3306.9021940636603,1284
3308.57380143113,1268
3310.2451547966184,1302
3311.916254486174,1264
3313.5871008259246,1271
3315.2576941420766,1234
3316.9280347609147,1246
3318.5981230088046,1279
3320.2679592121895,1290
3321.9375436975924,1246
3323.606876791612,1286
3325.27595882093,1289
3326.944790112305,1245
3328.6133709925753,1224
3330.2817017886573,1255
3331.949782827547,1256
3333.617614436319,1224
3335.2851969421245,1291
3336.952530672199,1279
3338.619615953853,1287
3340.286453114475,1317
3341.9530424815357,1264
3343.619384382583,1260
3345.2854791452437,1305
3346.951327097224,1286
3348.6169285663073,1282
3350.2822838803577,1284
3351.947393367319,1294
3353.61225735521,1340
3355.2768761721345,1271
3356.9412501462693,1314
3358.605379605873,1273
3360.2692648792827,1240
3361.9329062949146,1225
3363.596304181263,1209
