CollectionTime,6/28/2024 1:56:30 PM
ExposureUsed,3
CalibratedSpectrum
-962.7078968117929,570
-959.9714848408522,601
-957.2358232597828,583
-954.5009119013725,590
-951.7667505983302,591
-949.0333391832855,595
-946.3006774887896,623
-943.5687653473143,580
-940.837602591253,589
-938.1071890529199,601
-935.3775245645503,607
-932.6486089583007,635
-929.9204420662485,595
-927.1930237203925,587
-924.4663537526524,610
-921.7404319948689,590
-919.0152582788041,588
-916.2908324361409,592
-913.5671542984834,636
-910.8442236973568,630
-908.1220404642074,597
-905.4006044304027,612
-902.679915427231,641
-899.959973285902,619
-897.2407778375464,606
-894.5223289132158,591
-891.8046263438832,604
-889.0876699604426,602
-886.3714595937089,612
-883.6559950744183,620
-880.9412762332282,576
-878.2273029007168,572
-875.5140749073835,570
-872.8015920836489,543
-870.0898542598545,574
-867.3788612662631,568
-864.6686129330585,572
-861.9591090903457,578
-859.2503495681506,552
-856.5423341964203,573
-853.8350628050229,576
-851.1285352237478,579
-848.4227512823054,582
-845.7177108103272,591
-843.0134136373656,582
-840.3098595928943,572
-837.6070485063082,614
-834.9049802069229,590
-832.2036545239757,579
-829.5030712866244,537
-826.8032303239481,552
-824.1041314649472,578
-821.4057745385428,591
-818.7081593735775,601
-816.0112857988148,589
-813.3151536429393,587
-810.6197627345566,598
-807.9251129021936,582
-805.2312039742981,585
-802.5380357792392,582
-799.8456081453069,596
-797.1539209007124,565
-794.462973873588,594
-791.772766891987,589
-789.083299783884,588
-786.3945723771743,583
-783.7065844996748,571
-781.0193359791231,598
-778.3328266431781,615
-775.6470563194197,628
-772.9620248353489,592
-770.2777320183878,562
-767.5941776958798,598
-764.9113616950891,601
-762.2292838432011,582
-759.5479439673222,585
-756.8673418944801,584
-754.1874774516235,613
-751.5083504656222,604
-748.8299607632671,622
-746.15230817127,637
-743.475392516264,594
-740.7992136248035,580
-738.1237713233636,602
-735.4490654383407,581
-732.7750957960521,633
-730.1018622227365,612
-727.4293645445534,628
-724.7576025875837,654
-722.0865761778291,615
-719.4162851412126,614
-716.7467293035781,632
-714.0779084906909,623
-711.409822528237,615
-708.7424712418238,627
-706.0758544569796,612
-703.4099719991541,629
-700.7448236937178,633
-698.0804093659622,608
-695.4167288411002,625
-692.7537819442656,626
-690.0915685005134,647
-687.4300883348199,637
-684.7693412720819,657
-682.1093271371178,627
-679.4500457546669,642
-676.7914969493897,635
-674.1336805458676,666
-671.4765963686034,642
-668.8202442420206,658
-666.1646239904642,655
-663.5097354382001,652
-660.8555784094151,657
-658.2021527282176,671
-655.5494582186366,676
-652.8974947046223,679
-650.2462620100463,692
-647.5957599587009,669
-644.9459883742998,697
-642.2969470804776,701
-639.6486359007902,730
-637.0010546587141,744
-634.3542031776476,679
-631.7080812809096,658
-629.0626887917401,662
-626.4180255333008,669
-623.7740913286734,680
-621.1308860008619,661
-618.4884093727904,666
-615.8466612673046,703
-613.2056415071715,697
-610.5653499150785,672
-607.9257863136347,664
-605.28695052537,673
-602.6488423727357,709
-600.0114616781036,652
-597.3748082637674,645
-594.7388819519412,697
-592.1036825647604,685
-589.4692099242818,682
-586.8354638524829,689
-584.2024441712624,690
-581.5701507024403,654
-578.9385832677575,684
-576.3077416888759,685
-573.6776257873787,684
-571.0482353847704,697
-568.4195703024757,727
-565.7916303618415,748
-563.164415384135,721
-560.5379251905453,706
-557.9121596021815,693
-555.2871184400748,705
-552.6628015251767,723
-550.0392086783606,737
-547.4163397204204,695
-544.794194472071,708
-542.1727727539491,723
-539.5520743866118,750
-536.9320991905377,770
-534.3128469861261,805
-531.6943175936979,796
-529.0765108334947,828
-526.4594265256793,895
-523.8430644903358,1008
-521.2274245474689,1093
-518.612506517005,1177
-515.9983102187913,1248
-513.3848354725959,1397
-510.77208209810846,1535
-508.16004991493924,1642
-505.5487387426199,1850
-502.9381484006032,1950
-500.3282787082628,1994
-497.71912948489364,1991
-495.1107005497117,1889
-492.5029917218539,1625
-489.8960028203786,1442
-487.28973366426493,1200
-484.68418407241325,1056
-482.07935386364494,990
-479.47524285670266,1012
-476.87185087025,933
-474.2691777228715,997
-471.66722323307334,951
-469.0659872192821,887
-466.4654694998459,900
-463.86566989303384,903
-461.26658821703614,883
-458.66822428996414,879
-456.07057792985,869
-453.4736489546475,837
-450.877437182231,911
-448.28194243039627,881
-445.68716451686,908
-443.09310325926003,878
-440.49975847515555,810
-437.9071299820263,858
-435.31521759727354,881
-432.72402113821954,879
-430.13354042210767,923
-427.5437752661022,937
-424.95472548728867,960
-422.36639090267386,1011
-419.7787713291855,962
-417.1918665836721,922
-414.60567648290385,944
-412.0202008435715,935
-409.4354394822874,946
-406.8513922155845,942
-404.26805885991723,944
-401.685439231661,970
-399.103533147112,938
-396.522340422488,955
-393.9418608739278,870
-391.3620943174908,904
-388.7830405691583,897
-386.2046994448317,911
-383.6270707603344,831
-381.05015433141045,761
-378.473949973725,751
-375.8984575028645,759
-373.32367673433623,683
-370.74960748356875,630
-368.1762495659117,598
-365.60360279663576,573
-363.03166699093265,574
-360.4604419639154,581
-357.8899275306178,514
-355.32012350599507,524
-352.7510297049233,504
-350.1826459421999,507
-347.61497203254316,517
-345.04800779059235,504
-342.4817530309082,501
-339.91620756797226,513
-337.35137121618743,482
-334.7872437898774,478
-332.22382510328725,478
-329.66111497058273,552
-327.09911320585127,503
-324.53781962310075,538
-321.9772340362607,547
-319.4173562591816,524
-316.8581861056348,551
-314.2997233893127,576
-311.7419679238294,592
-309.1849195227194,560
-306.62857799943856,523
-304.0729431673641,561
-301.51801483979375,519
-298.963792829947,540
-296.41027695096386,522
-293.85746701590574,588
-291.3053628377552,721
-288.7539642294155,599
-286.2032710037115,545
-283.65328297338897,561
-281.1039999511146,559
-278.5554217494762,559
-276.007548180983,595
-273.4603790580651,601
-270.9139141930734,625
-268.3681533982807,625
-265.8230964858798,621
-263.27874326798565,641
-260.7350935566336,604
-258.1921471637804,597
-255.6499039013039,619
-253.10836358100266,586
-250.56752601459698,669
-248.02739101372765,675
-245.48795838995704,662
-242.94922795476816,714
-240.41119951956557,750
-237.8738728956746,822
-235.33724789434166,820
-232.80132432673452,885
-230.2661020039418,902
-227.73158073697357,783
-225.19776033676033,684
-222.66464061415422,748
-220.1322213799284,769
-217.60050244477725,690
-215.06948361931552,690
-212.53916471408013,704
-210.00954553952818,753
-207.48062590603843,807
-204.9524056239104,806
-202.4248845033651,812
-199.8980623545441,828
-197.37193898751036,750
-194.84651421224817,759
-192.32178783866232,879
-189.79775967657952,888
-187.27442953574644,784
-184.7517972258321,847
-182.2298625564256,871
-179.7086253370378,857
-177.18808537710026,832
-174.66824248596583,746
-172.14909647290835,847
-169.6306471471229,860
-167.11289431772548,852
-164.59583779375328,844
-162.07947738416453,920
-159.5638128978386,917
-157.04884414357605,967
-154.53457093009854,966
-152.02099306604828,1076
-149.50811035998936,907
-146.99592262040665,958
-144.48442965570587,1081
-141.97363127421409,1053
-139.46352728417958,1014
-136.95411749377126,996
-134.44540171107985,1111
-131.93737974411636,1140
-129.43005140081357,1061
-126.92341648902493,1143
-124.41747481652521,1105
-121.91222619101006,1068
-119.40767042009657,1108
-116.90380731132257,1197
-114.40063667214702,1190
-111.8981583099503,1162
-109.3963720320337,1391
-106.89527764561933,1502
-104.39487495785067,1574
-101.89516377579241,1530
-99.39614390642998,1685
-96.89781515667039,1691
-94.40017733334128,1752
-91.90323024319173,1645
-89.40697369289148,1639
-86.91140748903172,1642
-84.41653143812482,1671
-81.92234534660395,1752
-79.42884902082358,1961
-76.93604226705907,2017
-74.4439248915071,1824
-71.95249670028534,1742
-69.46175749943245,1799
-66.97170709490854,2291
-64.48234529259423,2775
-61.99367189829195,2132
-59.50568671772464,1994
-57.01838955653636,2338
-54.53178022029283,3005
-52.045858514480074,2953
-49.560624244506016,2921
-47.07607721569923,2984
-44.59221723330904,2907
-42.10904410250669,3200
-39.62655762838392,3771
-37.14475761595372,4580
-34.66364387015028,5294
-32.18321619582866,5643
-29.70347439776515,6089
-27.224418280657005,8664
-24.74604764912317,11955
-22.26836230770266,20224
-19.7913620608565,33123
-17.315046712966478,40842
-14.83941606833514,45275
-12.36446993118659,65030
-9.89020810566592,65030
-7.416630395839093,65030
-4.94373660569363,65030
-2.471526539137585,65030
-6.821210263296962E-13,65030
2.47084320796705,65030
4.941003281093458,65030
7.410480415786196,65030
9.879274808531363,65030
12.347386655893956,65030
14.814816154518212,65030
17.28156350112681,65030
19.74762889252179,65030
22.21301252558385,65030
24.67771459727237,33774
27.141735304626195,12178
29.605074844762612,8221
32.06773341487792,7332
34.52971121224755,6741
36.99100843422559,7090
39.45162527824516,7841
41.91156194181792,7871
44.370818622535126,11573
46.82939551806646,15623
49.287292826160524,16385
51.74451074464503,13713
54.201049471426245,8586
56.65690920448981,6402
59.112090141899785,5488
61.56659248179983,4183
64.02041642241159,3027
66.4735621620365,2967
68.92602989905402,2270
71.37781983192338,2264
73.82893215918205,2485
76.27936707944684,2337
78.72912479141326,2342
81.17820549385567,2485
83.62660938562783,2208
86.07433666566146,2080
88.5213875329681,1922
90.96776218663751,1825
93.41346082583925,1723
95.85848364982041,1560
98.30283085790859,1666
100.7465026495089,1694
103.18949922410604,1648
105.63182078126385,1855
108.07346752062438,1706
110.51443964190923,1425
112.95473734491827,1439
115.39436082953114,1281
117.83331029570547,1447
120.27158594347827,1700
122.7091879729652,1394
125.1461165843615,1198
127.58237197794062,1291
130.01795435405518,1153
132.4528639131364,1270
134.88710085569494,1317
137.32066538231982,1353
139.75355769367923,1378
142.1857779905207,1411
144.61732647366978,1408
147.04820334403132,1408
149.47840880258934,1391
151.90794305040674,1336
154.33680628862487,1390
156.76499871846443,1442
159.19252054122433,1673
161.61937195828352,1642
164.04555317109896,1643
166.47106438120693,1721
168.89590579022217,1975
171.320077599839,2012
173.7435800118302,2191
176.16641322804742,2147
178.58857745042144,2136
181.01007288096173,2061
183.43089972175687,2238
185.85105817497413,2203
188.27054844285988,2099
190.6893707277394,2030
193.10752523201643,2094
195.5250121581745,2179
197.9418317087751,2208
200.3579840864594,2356
202.7734694939469,2288
205.18828813403627,2199
207.6024402096051,2152
210.01592592360964,2224
212.42874547908548,2150
214.84089907914665,2240
217.2523869269868,2226
219.66320922587727,2321
222.0733661791695,2252
224.48285799029293,2318
226.8916848627572,2390
229.29984700014882,2443
231.7073446061355,2411
234.11417788446204,2460
236.520347038953,2573
238.92585227351185,2511
241.33069379212054,2588
243.73487179884035,2550
246.1383864978112,2439
248.541238093252,2450
250.9434267894609,2609
253.34495279081432,2633
255.74581630176783,2635
258.1460175268563,2771
260.54555667069314,2742
262.9444339379703,2699
265.3426495334594,2582
267.7402036620107,2631
270.1370965285529,2612
272.53332833809407,2404
274.9288992957214,2432
277.32380960660055,2340
279.718059475976,2356
282.1116491091717,2364
284.5045787115897,2403
286.89684848871195,2318
289.2884586460981,2404
291.67940938938807,2333
294.0697009242996,2433
296.4593334566299,2431
298.84830719225477,2281
301.23662233712923,2371
303.6242790972866,2345
306.01127767884,2286
308.39761828798066,2299
310.78330113097934,2344
313.16832641418534,2266
315.5526943440269,2189
317.9364051270112,2147
320.3194589697242,2104
322.70185607883093,2095
325.0835966610754,2093
327.4646809232805,2140
329.8451090723478,2076
332.2248813152577,2022
334.6039978590701,2007
336.9824589109231,1999
339.36026467803447,2048
341.7374153677,2035
344.113911187295,2002
346.48975234427337,2023
348.8649390461686,1966
351.2394715005918,1994
353.61334991523415,1988
355.9865744978655,1943
358.35914545633375,1948
360.73106299856715,1923
363.10232733257146,1857
365.47293866643247,1898
367.84289720831396,1964
370.2122031664593,1911
372.5808567491905,1893
374.9488581649083,1874
377.31620762209275,1837
379.6829053293021,1828
382.0489514951745,1835
384.4143463284262,1787
386.7790900378528,1865
389.14318283232853,1879
391.50662492080653,1799
393.86941651231916,1788
396.23155781597745,1781
398.5930490409713,1818
400.9538903965696,1793
403.3140820921202,1822
405.6736243370498,1782
408.03251734086336,1806
410.3907613131465,1813
412.74835646356166,1839
415.10530300185144,1799
417.4616011378372,1786
419.81725108141893,1809
422.1722530425758,1786
424.5266072313656,1819
426.880313857925,1779
429.2333731324701,1768
431.58578526529516,1735
433.9375504667738,1719
436.2886689473588,1718
438.63914091758113,1751
440.9889665880513,1757
443.33814616945835,1748
445.68667987257015,1729
448.03456790823395,1705
450.3818104873759,1659
452.72840782100013,1732
455.07436012019105,1682
457.41966759611057,1692
459.7643304600007,1715
462.10834892318155,1741
464.4517231970525,1721
466.79445349309174,1698
469.1365400228566,1830
471.4779829979826,1721
473.81878263018564,1786
476.15893913125876,1833
478.4984527130747,1887
480.8373235875855,1810
483.17555196682144,1883
485.5131380628919,1901
487.8500820879857,2020
490.1863842543697,2040
492.52204477439034,2242
494.8570638604725,2425
497.1914417251204,2769
499.52517858091653,3044
501.85827464052306,3357
504.19073011668036,3575
506.5225452222086,3713
508.85372017000566,3672
511.18425517304956,3571
513.514150444396,3606
515.8434061971808,3985
518.1720226446176,4193
520.4999999999999,4506
522.8273384766991,4647
525.1540382881666,4728
527.480099647932,4392
529.8055227696037,3574
532.1303078668694,2441
534.454455153496,2030
536.777964843328,1820
539.1008371502907,1816
541.4230722883866,1756
543.744670471698,1642
546.0656319143858,1667
548.3859568306899,1667
550.7056454349294,1632
553.0246979415016,1573
555.3431145648834,1532
557.6608955196306,1551
559.978041020377,1574
562.2945512818363,1550
564.6104265188006,1585
566.9256669461412,1546
569.2402727788082,1554
571.5542442318302,1541
573.8675815203156,1607
576.1802848594508,1542
578.4923544645015,1539
580.8037905508126,1503
583.114593333807,1535
585.4247630289875,1596
587.7342998519354,1517
590.0432040183106,1511
592.3514757438526,1553
594.6591152443794,1537
596.9661227357875,1570
599.2724984340531,1567
601.578242555231,1631
603.8833553154542,1655
606.1878369309362,1605
608.4916876179676,1565
610.7949075929192,1574
613.0974970722403,1614
615.3994562724587,1589
617.7007854101818,1517
620.0014847020951,1530
622.3015543649641,1578
624.6009946156324,1634
626.8998056710224,1602
629.1979877481361,1583
631.4955410640538,1530
633.7924658359349,1571
636.0887622810175,1564
638.3844306166192,1613
640.6794710601358,1568
642.9738838290426,1586
645.2676691408932,1579
647.5608272133207,1595
649.853358264037,1602
652.1452625108324,1589
654.4365401715764,1606
656.7271914642178,1559
659.0172166067838,1648
661.3066158173809,1677
663.5953893141935,1567
665.8835373154867,1582
668.1710600396028,1647
670.4579577049639,1623
672.7442305300709,1665
675.0298787335033,1643
677.3149025339197,1647
679.599302150058,1633
681.8830778007342,1616
684.1662297048437,1658
686.4487580813608,1650
688.7306631493387,1582
691.0119451279091,1581
693.2926042362834,1602
695.5726406937516,1592
697.8520547196814,1639
700.1308465335215,1639
702.4090163547982,1679
704.6865644031171,1638
706.9634908981619,1634
709.2397960596965,1583
711.5154801075631,1568
713.7905432616823,1609
716.0649857420548,1642
718.3388077687592,1627
720.612009561953,1549
722.8845913418733,1598
725.1565533288352,1656
727.427895743234,1629
729.6986188055427,1614
731.9687227363137,1655
734.238207756178,1592
736.5070740858458,1677
738.7753219461066,1552
741.0429515578281,1615
743.3099631419569,1616
745.5763569195191,1633
747.8421331116193,1639
750.1072919394409,1651
752.3718336242467,1589
754.6357583873777,1662
756.8990664502545,1633
759.1617580343765,1567
761.423833361321,1594
763.6852926527457,1643
765.9461361303862,1595
768.206364016058,1571
770.4659765316536,1664
772.7249738991469,1613
774.9833563405886,1592
777.2411240781092,1656
779.4982773339183,1644
781.7548163303044,1688
784.010741289634,1650
786.2660524343538,1741
788.5207499869881,1703
790.7748341701416,1735
793.0283052064964,1629
795.2811633188143,1642
797.5334087299362,1685
799.7850416627813,1718
802.0360623403484,1610
804.2864709857143,1703
806.5362678220353,1719
808.7854530725468,1730
811.0340269605625,1615
813.2819897094754,1729
815.5293415427581,1672
817.77608268396,1674
820.0222133567116,1635
822.2677337847211,1623
824.5126441917765,1630
826.7569448017433,1626
829.0006358385675,1704
831.2437175262731,1676
833.4861900889629,1644
835.7280537508192,1654
837.9693087361026,1618
840.2099552691533,1637
842.4499935743896,1628
844.689423876309,1659
846.9282463994886,1690
849.1664613685833,1625
851.4040690083276,1686
853.6410695435349,1706
855.877463199097,1577
858.1132501999847,1768
860.3484307712487,1673
862.5830051380175,1628
864.8169735254988,1674
867.0503361589791,1652
869.2830932638243,1753
871.5152450654786,1608
873.7467917894654,1714
875.9777336613873,1694
878.2080709069252,1661
880.4378037518389,1665
882.666932421968,1711
884.8954571432301,1710
887.1233781416219,1688
889.3506956432192,1726
891.5774098741766,1680
893.803521060728,1700
896.0290294291852,1624
898.2539352059397,1685
900.4782386174619,1730
902.7019398903011,1718
904.925039251085,1696
907.147536926521,1729
909.3694331433943,1744
911.59072812857,1733
913.8114221089921,1696
916.0315153116827,1662
918.2510079637437,1718
920.4699002923547,1622
922.6881925247761,1719
924.905884888345,1672
927.1229776104793,1646
929.3394709186747,1703
931.555365040506,1719
933.7706602036275,1632
935.9853566357709,1710
938.1994545647489,1656
940.4129542184515,1707
942.6258558248488,1725
944.8381596119883,1637
947.0498658079974,1666
949.2609746410825,1654
951.4714863395287,1760
953.6814011316998,1702
955.8907192460387,1615
958.0994409110671,1640
960.3075663553858,1571
962.5150958076741,1548
964.7220294966913,1689
966.928367651274,1613
969.1341105003388,1620
971.3392582728806,1528
973.5438111979742,1568
975.747769504772,1610
977.9511334225061,1639
980.153903180487,1624
982.3560790081052,1608
984.5576611348289,1549
986.7586497902058,1530
988.9590452038618,1576
991.158847605503,1541
993.3580572249133,1531
995.5566742919558,1481
997.7546990365728,1488
999.952131688785,1447
1002.1489724786926,1464
1004.3452216364743,1409
1006.5408793923874,1390
1008.7359459767691,1351
1010.9304216200343,1348
1013.1243065526781,1375
1015.3176010052733,1379
1017.510305208472,1370
1019.7024193930064,1368
1021.8939437896848,1392
1024.0848786293977,1365
1026.2752241431122,1358
1028.4649805618747,1323
1030.6541481168115,1297
1032.842727039127,1322
1035.0307175601051,1367
1037.2181199111074,1318
1039.4049343235752,1300
1041.591161029029,1344
1043.7768002590683,1283
1045.9618522453698,1320
1048.1463172196918,1304
1050.3301954138697,1250
1052.513487059818,1322
1054.69619238953,1341
1056.8783116350783,1333
1059.0598450286152,1361
1061.2407928023704,1309
1063.4211551886528,1259
1065.6009324198508,1295
1067.780124728432,1303
1069.9587323469414,1278
1072.1367555080046,1236
1074.314194444325,1288
1076.4910493886855,1247
1078.667320573947,1279
1080.843008233051,1255
1083.0181125990161,1230
1085.1926339049414,1310
1087.3665723840027,1220
1089.5399282694575,1239
1091.7127017946405,1283
1093.8848931929647,1241
1096.0565026979243,1254
1098.2275305430899,1244
1100.3979769621128,1249
1102.567842188722,1288
1104.737126456726,1226
1106.9058300000124,1243
1109.0739530525475,1231
1111.2414958483764,1201
1113.4084586216231,1203
1115.5748416064907,1251
1117.7406450372605,1208
1119.9058691482942,1216
1122.0705141740304,1252
1124.2345803489884,1259
1126.3980679077658,1275
1128.5609770850388,1223
1130.7233081155623,1191
1132.8850612341707,1176
1135.0462366757774,1209
1137.2068346753745,1228
1139.3668554680326,1237
1141.526299288901,1252
1143.68516637321,1256
1145.8434569562655,1194
1148.001171273455,1158
1150.158309560244,1205
1152.3148720521767,1183
1154.470858984876,1164
1156.626270594044,1198
1158.7811071154629,1192
1160.9353687849912,1211
1163.089055838569,1229
1165.242168512213,1202
1167.3947070420209,1177
1169.5466716641677,1165
1171.6980626149075,1194
1173.8488801305748,1198
1175.9991244475814,1172
1178.1487958024186,1221
1180.2978944316555,1151
1182.4464205719428,1208
1184.5943744600072,1162
1186.7417563326567,1170
1188.8885664267755,1187
1191.0348049793297,1174
1193.1804722273619,1182
1195.325568407995,1234
1197.4700937584303,1167
1199.614048515948,1170
1201.7574329179074,1177
1203.900247201746,1145
1206.042491604982,1167
1208.1841663652099,1215
1210.3252717201053,1249
1212.465807907422,1178
1214.6057751649923,1213
1216.7451737307279,1198
1218.8840038426192,1235
1221.0222657387353,1168
1223.1599596572241,1200
1225.2970858363137,1247
1227.4336445143094,1223
1229.5696359295966,1221
1231.705060320639,1232
1233.8399179259786,1239
1235.9742089842384,1211
1238.107933734118,1209
1240.2410924143974,1219
1242.373685263935,1241
1244.5057125216676,1225
1246.6371744266116,1186
1248.7680712178621,1153
1250.898403134593,1223
1253.028170416058,1195
1255.1573733015875,1217
1257.2860120305932,1184
1259.4140868425648,1182
1261.54159797707,1264
1263.6685456737569,1211
1265.7949301723515,1231
1267.9207517126597,1212
1270.046010534565,1220
1272.1707068780306,1278
1274.2948409830983,1236
1276.4184130898889,1285
1278.541423438603,1176
1280.6638722695184,1243
1282.785759822993,1236
1284.9070863394636,1267
1287.0278520594447,1229
1289.1480572235314,1290
1291.2677020723963,1259
1293.3867868467923,1271
1295.5053117875495,1215
1297.623277135579,1298
1299.740683131868,1248
1301.8575300174857,1264
1303.973818033578,1341
1306.0895474213703,1278
1308.2047184221678,1317
1310.3193312773528,1345
1312.4333862283888,1341
1314.5468835168163,1343
1316.659823384255,1370
1318.7722060724045,1319
1320.8840318230418,1336
1322.9953008780249,1374
1325.1060134792888,1352
1327.2161698688478,1324
1329.3257702887959,1393
1331.4348149813054,1366
1333.5433041886276,1325
1335.6512381530933,1272
1337.7586171171101,1344
1339.8654413231675,1346
1341.9717110138317,1332
1344.0774264317488,1336
1346.1825878196432,1324
1348.2871954203192,1355
1350.3912494766587,1305
1352.4947502316231,1295
1354.5976979282532,1274
1356.7000928096686,1280
1358.8019351190665,1336
1360.9032250997243,1292
1363.0039629949988,1330
1365.1041490483235,1310
1367.2037835032133,1262
1369.3028666032606,1316
1371.401398592137,1321
1373.4993797135926,1347
1375.5968102114575,1240
1377.6936903296396,1250
1379.7900203121262,1316
1381.8858004029835,1285
1383.9810308463561,1335
1386.075711886469,1283
1388.1698437676241,1260
1390.2634267342032,1292
1392.356461030667,1290
1394.4489469015557,1271
1396.5408845914872,1241
1398.6322743451592,1332
1400.7231164073469,1309
1402.813411022907,1268
1404.903158436773,1367
1406.9923588939578,1286
1409.0810126395531,1309
1411.1691199187303,1301
1413.2566809767386,1322
1415.343696058907,1286
1417.4301654106425,1304
1419.5160892774315,1321
1421.6014679048399,1299
1423.6863015385125,1321
1425.7705904241707,1352
1427.8543348076178,1357
1429.9375349347342,1371
1432.0201910514802,1266
1434.102303403894,1252
1436.1838722380944,1357
1438.2648978002767,1321
1440.3453803367174,1399
1442.4253200937692,1358
1444.5047173178677,1375
1446.5835722555234,1361
1448.6618851533285,1430
1450.739656257952,1380
1452.8168858161434,1374
1454.8935740747306,1437
1456.96972128062,1451
1459.045327680797,1457
1461.120393522327,1381
1463.1949190523528,1386
1465.2689045180973,1411
1467.3423501668608,1437
1469.415256246024,1433
1471.4876230030463,1462
1473.559450685465,1505
1475.6307395408976,1525
1477.7014898170391,1492
1479.771701761665,1562
1481.8413756226287,1488
1483.9105116478618,1530
1485.9791100853772,1531
1488.0471711832643,1490
1490.1146951896926,1547
1492.1816823529098,1536
1494.2481329212433,1619
1496.3140471430984,1567
1498.3794252669609,1577
1500.4442675413939,1563
1502.5085742150404,1601
1504.572345536622,1541
1506.6355817549388,1575
1508.6982831188702,1624
1510.7604498773744,1560
1512.8220822794883,1636
1514.8831805743293,1643
1516.9437450110909,1621
1519.003775839048,1636
1521.0632733075522,1634
1523.1222376660367,1637
1525.1806691640113,1650
1527.2385680510652,1673
1529.2959345768668,1618
1531.3527689911643,1684
1533.4090715437833,1670
1535.4648424846291,1686
1537.5200820636855,1729
1539.5747905310159,1711
1541.6289681367616,1713
1543.6826151311434,1655
1545.7357317644614,1775
1547.7883182870937,1823
1549.8403749494987,1786
1551.8919020022113,1850
1553.9428996958477,1853
1555.9933682811015,1867
1558.0433080087469,1866
1560.0927191296346,1831
1562.1416018946961,1944
1564.1899565549415,1871
1566.2377833614592,1959
1568.2850825654164,1970
1570.3318544180606,1929
1572.3780991707158,1926
1574.423817074788,1881
1576.4690083817595,1843
1578.5136733431923,1836
1580.5578122107272,1729
1582.601425236085,1727
1584.6445126710646,1651
1586.6870747675434,1596
1588.7291117774776,1649
1590.7706239529034,1622
1592.8116115459347,1580
1594.8520748087658,1479
1596.8920139936686,1461
1598.9314293529933,1518
1600.9703211391711,1491
1603.008689604711,1438
1605.0465350022005,1483
1607.0838575843068,1378
1609.1206576037753,1376
1611.1569353134305,1389
1613.1926909661765,1359
1615.2279248149953,1344
1617.2626371129481,1322
1619.2968281131757,1294
1621.3304980688963,1331
1623.3636472334088,1243
1625.39627586009,1320
1627.428384202396,1293
1629.459972513861,1274
1631.4910410480993,1239
1633.5215900588028,1303
1635.551619799744,1302
1637.5811305247717,1230
1639.6101224878166,1227
1641.6385959428862,1228
1643.6665511440683,1246
1645.693988345528,1259
1647.7209078015112,1219
1649.7473097663405,1242
1651.7731944944203,1216
1653.7985622402307,1267
1655.823413258333,1185
1657.847747803366,1221
1659.8715661300494,1186
1661.8948684931793,1213
1663.9176551476316,1215
1665.9399263483624,1261
1667.9616823504057,1236
1669.982923408873,1224
1672.0036497789574,1186
1674.0238617159293,1236
1676.043559475138,1214
1678.0627433120121,1203
1680.081413482059,1200
1682.0995702408654,1182
1684.117213844096,1203
1686.134344547495,1214
1688.1509626068864,1202
1690.1670682781705,1204
1692.182661817329,1193
1694.1977434804217,1201
1696.2123135235875,1207
1698.226372203043,1198
1700.2399197750851,1210
1702.2529564960905,1155
1704.2654826225112,1188
1706.277498410882,1189
1708.2890041178139,1201
1710.2999999999988,1206
1712.3104863142066,1198
1714.3204633172854,1198
1716.329931266163,1201
1718.3388904178469,1191
1720.3473410294214,1190
1722.3552833580516,1206
1724.3627176609807,1192
1726.3696441955308,1201
1728.3760632191033,1202
1730.3819749891782,1196
1732.3873797633146,1214
1734.3922777991502,1198
1736.3966693544012,1174
1738.4005546868639,1136
1740.4039340544127,1177
1742.406807715001,1183
1744.4091759266616,1193
1746.4110389475054,1149
1748.4123970357223,1157
1750.413250449582,1160
1752.4135994474318,1194
1754.4134442876993,1193
1756.4127852288902,1189
1758.4116225295893,1182
1760.4099564484595,1166
1762.407787244244,1161
1764.405115175764,1173
1766.4019405019203,1194
1768.3982634816916,1200
1770.3940843741357,1127
1772.3894034383907,1186
1774.3842209336717,1182
1776.378537119274,1141
1778.372352254571,1195
1780.3656665990156,1155
1782.3584804121397,1169
1784.3507939535534,1155
1786.3426074829463,1214
1788.3339212600863,1161
1790.3247355448211,1132
1792.3150505970766,1146
1794.3048666768573,1108
1796.2941840442477,1181
1798.2830029594106,1171
1800.2713236825884,1146
1802.2591464741004,1211
1804.2464715943465,1184
1806.2332993038058,1117
1808.2196298630352,1166
1810.2054635326708,1141
1812.190800573428,1186
1814.175641246101,1194
1816.1599858115628,1192
1818.1438345307652,1112
1820.127187664738,1110
1822.1100454745924,1129
1824.092408221516,1142
1826.0742761667766,1154
1828.055649571721,1141
1830.0365286977735,1098
1832.0169138064398,1155
1833.9968051593014,1198
1835.9762030180214,1149
1837.9551076443408,1119
1839.9335193000788,1146
1841.9114382471344,1165
1843.888864747485,1152
1845.8657990631878,1185
1847.842241456378,1145
1849.8181921892697,1136
1851.7936515241558,1119
1853.7686197234098,1124
1855.7430970494815,1102
1857.7170837649014,1118
1859.6905801322787,1180
1861.6635864143004,1181
1863.6361028737338,1173
1865.608129773424,1158
1867.5796673762961,1156
1869.5507159453537,1134
1871.521275743678,1177
1873.4913470344313,1176
1875.4609300808534,1143
1877.4300251462632,1152
1879.3986324940588,1149
1881.366752387717,1161
1883.3343850907936,1193
1885.3015308669228,1172
1887.268189979819,1133
1889.2343626932739,1197
1891.2000492711595,1189
1893.1652499774254,1173
1895.1299650761011,1171
1897.0941948312952,1201
1899.0579395071945,1154
1901.0211993680641,1226
1902.98397467825,1196
1904.9462657021745,1189
1906.9080727043415,1150
1908.869395949332,1194
1910.8302357018065,1167
1912.790592226504,1207
1914.7504657882428,1157
1916.7098566519212,1102
1918.6687650825133,1195
1920.6271913450764,1199
1922.5851357047422,1185
1924.5425984267245,1158
1926.499579776314,1203
1928.4560800188833,1134
1930.4120994198802,1139
1932.367638244833,1131
1934.32269675935,1252
1936.2772752291175,1198
1938.231373919899,1166
1940.1849930975404,1156
1942.1381330279637,1138
1944.0907939771696,1160
1946.0429762112412,1161
1947.9946799963363,1186
1949.9459055986945,1195
1951.896653284633,1116
1953.8469233205478,1179
1955.7967159729142,1206
1957.7460315082863,1202
1959.6948701932974,1154
1961.6432322946594,1174
1963.5911180791632,1186
1965.5385278136787,1146
1967.4854617651545,1173
1969.4319202006182,1155
1971.377903387176,1174
1973.3234115920136,1196
1975.268445082395,1191
1977.2130041256642,1145
1979.1570889892423,1198
1981.1006999406304,1178
1983.04383724741,1141
1984.986501177238,1170
1986.928691997853,1161
1988.8704099770712,1130
1990.811655382789,1173
1992.7524284829801,1133
1994.692729545698,1099
1996.6325588390755,1081
1998.5719166313224,1133
2000.5108031907307,1157
2002.4492187856677,1135
2004.387163684583,1127
2006.3246381560011,1147
2008.2616424685298,1143
2010.1981768908527,1131
2012.1342416917332,1130
2014.069837140014,1132
2016.0049635046162,1115
2017.9396210545406,1137
2019.8738100588666,1163
2021.8075307867502,1134
2023.740783507431,1163
2025.6735684902228,1162
2027.6058860045214,1139
2029.5377363198004,1186
2031.4691197056118,1138
2033.4000364315875,1154
2035.3304867674374,1131
2037.260470982952,1083
2039.189989347998,1128
2041.1190421325232,1160
2043.047629606554,1153
2044.9757520401945,1125
2046.9034097036288,1136
2048.8306028671195,1164
2050.7573318010086,1121
2052.683596775716,1131
2054.609398061742,1131
2056.5347359296647,1126
2058.4596106501403,1156
2060.384022493906,1140
2062.3079717317764,1150
2064.231458634646,1141
2066.1544834734873,1123
2068.077046519352,1152
2069.99914804337,1182
2071.9207883167524,1155
2073.8419676107865,1172
2075.7626861968406,1193
2077.6829443463607,1131
2079.6027423308715,1110
2081.522080421977,1108
2083.440958891362,1155
2085.359378010786,1175
2087.2773380520907,1151
2089.194839287196,1145
2091.111881988101,1151
2093.0284664268825,1148
2094.9445928756973,1194
2096.86026160678,1171
2098.775472892446,1147
2100.690227005088,1144
2102.604524217178,1124
2104.5183648012676,1121
2106.431749029985,1254
2108.34467717604,1197
2110.2571495122206,1098
2112.169166311393,1104
2114.080727846503,1154
2115.9918343905747,1130
2117.902486216711,1170
2119.8126835980956,1110
2121.722426807987,1149
2123.6317161197285,1112
2125.5405518067364,1173
2127.448934142509,1123
2129.356863400624,1162
2131.264339854737,1156
2133.1713637785815,1112
2135.077935445972,1154
2136.9840551308002,1137
2138.889723107037,1100
2140.7949396487334,1159
2142.699705030018,1164
2144.6040195250994,1140
2146.507883408264,1188
2148.4112969538774,1136
2150.3142604363848,1132
2152.2167741303097,1109
2154.1188383102535,1178
2156.0204532508997,1094
2157.9216192270064,1163
2159.822336513414,1137
2161.7226053850413,1166
2163.622426116884,1139
2165.5217989840185,1147
2167.4207242616,1130
2169.319202224862,1142
2171.2172331491165,1131
2173.1148173097563,1111
2175.0119549822507,1167
2176.90864644215,1139
2178.8048919650823,1188
2180.7006918267534,1102
2182.596046302952,1185
2184.4909556695407,1121
2186.3854202024645,1105
2188.279440177746,1187
2190.173015871487,1187
2192.066147559868,1110
2193.958835519149,1099
2195.851080025667,1146
2197.7428813558417,1110
2199.6342397861667,1150
2201.5251555932186,1117
2203.415629053651,1132
2205.3056604441986,1160
2207.19525004167,1110
2209.084398122958,1090
2210.9731049650327,1153
2212.861370844941,1129
2214.749196039812,1156
2216.636580826851,1159
2218.523525483344,1140
2220.410030286655,1155
2222.296095514226,1095
2224.1817214435805,1166
2226.066908352319,1141
2227.951656518121,1115
2229.835966218746,1199
2231.71983773203,1162
2233.6032713358913,1121
2235.486267308324,1135
2237.3688259274036,1120
2239.2509474712824,1116
2241.132632218193,1087
2243.013880446447,1115
2244.8946924344323,1110
2246.7750684606203,1122
2248.6550088035574,1166
2250.534513741871,1142
2252.413583554265,1135
2254.292218519526,1145
2256.170418916517,1080
2258.0481850241786,1138
2259.925517121534,1119
2261.8024154876825,1161
2263.678880401803,1178
2265.5549121431536,1134
2267.430510991071,1164
2269.305677224971,1121
2271.180411124348,1113
2273.0547129687766,1179
2274.9285830379076,1171
2276.8020216114737,1098
2278.6750289692845,1135
2280.5476053912294,1105
2282.4197511572766,1132
2284.2914665474727,1194
2286.162751841943,1124
2288.0336073208937,1159
2289.904033264608,1146
2291.774029953448,1146
2293.6435976678554,1166
2295.5127366883517,1129
2297.381447295534,1170
2299.2497297700825,1118
2301.1175843927526,1059
2302.9850114443825,1180
2304.852011205885,1110
2306.7185839582553,1154
2308.5847299825664,1144
2310.4504495599676,1197
2312.3157429716925,1139
2314.1806104990483,1140
2316.0450524234247,1143
2317.9090690262888,1109
2319.772660589186,1140
2321.635827393742,1194
2323.498569721661,1122
2325.3608878547248,1168
2327.2227820747967,1165
2329.0842526638157,1153
2330.945299903803,1169
2332.805924076857,1206
2334.6661254651535,1127
2336.525904350951,1156
2338.3852610165827,1185
2340.244195744464,1150
2342.102708817088,1169
2343.9608005170253,1161
2345.8184711269287,1102
2347.675720929526,1163
2349.532550207628,1148
2351.38895924412,1176
2353.24494832197,1195
2355.100517724223,1182
2356.955667734004,1183
2358.810398634514,1182
2360.664710709037,1186
2362.5186042409337,1151
2364.3720795136437,1164
2366.225136810686,1182
2368.0777764156583,1156
2369.929998612237,1162
2371.7818036841777,1166
2373.633191915315,1156
2375.484163589562,1135
2377.3347189909114,1177
2379.184858403434,1194
2381.03458211128,1164
2382.8838903986775,1194
2384.732783549936,1154
2386.5812618494406,1219
2388.4293255816588,1163
2390.2769750311327,1165
2392.1242104824883,1122
2393.971032220427,1170
2395.8174405297295,1174
2397.6634356952563,1192
2399.509018001947,1107
2401.3541877348193,1147
2403.1989451789705,1152
2405.043290619576,1159
2406.8872243418905,1174
2408.730746631247,1158
2410.5738577730594,1127
2412.4165580528183,1138
2414.258847756095,1165
2416.100727168537,1184
2417.9421965758734,1171
2419.783256263912,1233
2421.623906518538,1150
2423.4641476257157,1179
2425.303979871491,1170
2427.143403541984,1216
2428.9824189233977,1213
2430.821026302012,1198
2432.6592259641866,1206
2434.497018196361,1223
2436.33440328505,1176
2438.171381516851,1177
2440.00795317844,1199
2441.844118556569,1166
2443.6798779380724,1214
2445.5152316098606,1159
2447.3501798589255,1239
2449.1847229723357,1234
2451.0188612372403,1134
2452.8525949408663,1149
2454.6859243705203,1171
2456.518849813587,1165
2458.3513715575314,1142
2460.183489889895,1133
2462.015205098301,1207
2463.8465174704493,1208
2465.67742729412,1214
2467.5079348571717,1199
2469.338040447542,1226
2471.1677443532476,1157
2472.9970468623833,1206
2474.825948263123,1179
2476.6544488437207,1179
2478.482548892508,1194
2480.310248697896,1198
2482.137548548374,1166
2483.9644487325118,1176
2485.790949538956,1185
2487.617051256433,1209
2489.44275417375,1160
2491.26805857979,1205
2493.0929647635157,1177
2494.917473013971,1162
2496.741583620276,1164
2498.5652968716304,1138
2500.3886130573137,1161
2502.2115324666834,1226
2504.0340553891765,1195
2505.856182114308,1181
2507.6779129316733,1216
2509.499248130945,1178
2511.3201880018764,1188
2513.140732834298,1158
2514.9608829181198,1201
2516.780638543331,1215
2518.6,1230
2520.418967578273,1203
2522.237541568376,1172
2524.0557222606144,1178
2525.8735099453706,1157
2527.6909049131086,1234
2529.507907454368,1187
2531.32451785977,1222
2533.140736420014,1253
2534.9565634258774,1219
2536.771999168218,1226
2538.5870439379714,1207
2540.4016980261526,1249
2542.2159617238544,1267
2544.02983532225,1287
2545.8433191125914,1264
2547.656413386209,1269
2549.4691184345115,1236
2551.2814345489874,1290
2553.093362021204,1271
2554.904901142808,1273
2556.716052205523,1265
2558.526815501153,1215
2560.3371913215824,1248
2562.147179958771,1279
2563.956781704761,1223
2565.7659968516705,1237
2567.5748256916986,1264
2569.3832685171224,1235
2571.1913256202984,1248
2572.9989972936614,1284
2574.806283829725,1283
2576.613185521084,1289
2578.4197026604074,1241
2580.2258355404483,1315
2582.031584454035,1304
2583.836949694077,1316
2585.6419315535613,1309
2587.4465303255533,1288
2589.2507463032002,1298
2591.0545797797245,1311
2592.8580310484303,1275
2594.6611004026995,1300
2596.463788135992,1333
2598.266094541849,1301
2600.0680199138874,1267
2601.869564545807,1265
2603.670728731383,1293
2605.4715127644704,1284
2607.2719169390048,1285
2609.071941548998,1269
2610.8715868885433,1281
2612.670853251811,1256
2614.469740933052,1281
2616.268250226594,1254
2618.0663814268455,1238
2619.864134828292,1262
2621.6615107255006,1244
2623.458509413115,1255
2625.2551311858597,1284
2627.0513763385347,1236
2628.8472451660223,1214
2630.6427379632833,1308
2632.4378550253564,1259
2634.232596647359,1221
2636.026963124488,1253
2637.8209547520187,1233
2639.6145718253065,1190
2641.407814639785,1233
2643.200683490966,1235
2644.9931786744414,1210
2646.7853004858807,1178
2648.577049221034,1257
2650.3684251757277,1252
2652.1594286458712,1265
2653.9500599274484,1179
2655.740319316525,1176
2657.5302071092437,1200
2659.3197236018286,1222
2661.10886909058,1202
2662.8976438718782,1198
2664.686048242183,1258
2666.4740824980327,1232
2668.2617469360443,1158
2670.0490418529134,1188
2671.8359675454153,1182
2673.622524310403,1151
2675.408712444811,1198
2677.1945322456495,1164
2678.979984010009,1202
2680.76506803506,1130
2682.5497846180497,1229
2684.334134056306,1178
2686.1181166472343,1182
2687.9017326883213,1149
2689.6849824771293,1183
2691.4678663113013,1133
2693.2503844885596,1159
2695.032537306705,1132
2696.8143250636167,1163
2698.5957480572542,1207
2700.3768065856534,1178
2702.1575009469316,1162
2703.937831439283,1168
2705.717798360982,1151
2707.4974020103837,1162
2709.276642685917,1179
2711.055520686095,1167
2712.834036309506,1165
2714.612189854819,1114
2716.389981620782,1150
2718.1674119062204,1204
2719.944481010041,1162
2721.721189231226,1160
2723.4975368688415,1144
2725.273524222027,1190
2727.0491515900053,1120
2728.824419272075,1143
2730.5993275676146,1158
2732.3738767760838,1145
2734.148067197016,1086
2735.921899130031,1131
2737.6953728748194,1225
2739.468488731156,1224
2741.2412469988926,1146
2743.0136479779617,1081
2744.785691968372,1179
2746.5573792702116,1177
2748.3287101836504,1169
2750.099685008934,1085
2751.870304046388,1142
2753.640567596418,1145
2755.4104759595057,1124
2757.1800294362156,1057
2758.949228327187,1138
2760.7180729331412,1141
2762.486563554877,1130
2764.254700493272,1126
2766.022484049284,1147
2767.789914523947,1112
2769.5569922183786,1135
2771.3237174337705,1113
2773.090090471394,1101
2774.8561116326036,1171
2776.6217812188274,1153
2778.3870995315756,1151
2780.1520668724356,1111
2781.9166835430747,1153
2783.6809498452394,1085
2785.444866080754,1178
2787.2084325515225,1124
2788.971649559527,1110
2790.73451740683,1139
2792.4970363955713,1175
2794.2592068279705,1132
2796.0210290063264,1148
2797.7825032330147,1151
2799.543629810493,1158
2801.304409041296,1132
2803.0648412280366,1088
2804.8249266734088,1149
2806.5846656801846,1138
2808.344058551212,1141
2810.1031055894246,1136
2811.8618070978273,1163
2813.6201633795085,1134
2815.378174737636,1149
2817.1358414754536,1177
2818.893163896285,1138
2820.6501423035334,1118
2822.4067770006814,1129
2824.1630682912883,1130
2825.9190164789957,1149
2827.6746218675207,1126
2829.429884760661,1094
2831.184805462294,1158
2832.9393842763743,1165
2834.693621506936,1134
2836.4475174580916,1105
2838.201072434034,1136
2839.954286739034,1131
2841.707160677441,1097
2843.459694553685,1095
2845.2118886722724,1121
2846.96374333779,1108
2848.7152588549034,1071
2850.4664355283567,1152
2852.217273662973,1082
2853.9677735636546,1167
2855.7179355353833,1171
2857.4677598832186,1125
2859.217246912299,1143
2860.9663969278427,1129
2862.715210235146,1132
2864.4636871395846,1143
2866.211827946614,1117
2867.9596329617652,1129
2869.7071024906536,1182
2871.4542368389684,1111
2873.20103631248,1136
2874.947501217038,1157
2876.6936318585695,1144
2878.4394285430812,1060
2880.1848915766604,1087
2881.9300212654707,1147
2883.6748179157553,1101
2885.4192818338374,1140
2887.1634133261173,1119
2888.907212699077,1097
2890.6506802592744,1167
2892.393816313348,1146
2894.1366211680142,1130
2895.8790951300693,1158
2897.621238506388,1140
2899.363051603925,1136
2901.1045347297118,1146
2902.8456881908596,1105
2904.58651229456,1162
2906.327007348081,1144
2908.067173658772,1120
2909.8070115340597,1145
2911.5465212814497,1103
2913.285703208527,1141
2915.0245576229563,1083
2916.7630848324807,1151
2918.5012851449196,1140
2920.2391588681758,1099
2921.976706310227,1089
2923.7139277791334,1135
2925.4508235830313,1148
2927.187394030137,1170
2928.923639428745,1125
2930.6595600872306,1140
2932.395156314046,1126
2934.1304284177218,1142
2935.8653767068713,1106
2937.6000014901815,1174
2939.3343030764227,1139
2941.068281774442,1154
2942.8019378931644,1126
2944.5352717415976,1138
2946.2682836288236,1096
2948.0009738640065,1149
2949.7333427563885,1085
2951.465390615289,1157
2953.1971177501086,1127
2954.9285244703265,1096
2956.6596110855,1109
2958.3903779052657,1107
2960.1208252393385,1148
2961.8509533975125,1148
2963.5807626896617,1157
2965.3102534257378,1118
2967.0394259157715,1152
2968.768280469873,1158
2970.496817398232,1143
2972.2250370111146,1134
2973.952939618869,1118
2975.6805255319196,1097
2977.4077950607707,1155
2979.134748516006,1142
2980.861386208289,1146
2982.587708448359,1112
2984.313715547037,1104
2986.039407815222,1132
2987.764785563891,1195
2989.489849104102,1115
2991.2145987469908,1126
2992.9390348037705,1121
2994.6631575857346,1125
2996.3869674042576,1115
2998.1104645707887,1103
2999.83364939686,1114
3001.5565221940783,1093
3003.2790832741334,1097
3005.0013329487924,1148
3006.7232715298996,1156
3008.4448993293804,1143
3010.166216659239,1110
3011.887223831558,1138
3013.607921158498,1117
3015.3283089522993,1122
3017.0483875252826,1120
3018.7681571898443,1104
3020.4876182584626,1106
3022.2067710436927,1167
3023.9256158581707,1100
3025.644153014609,1157
3027.362382825801,1124
3029.0803056046193,1134
3030.797921664012,1099
3032.5152313170106,1164
3034.2322348767225,1144
3035.9489326563353,1141
3037.665324969115,1113
3039.3814121284063,1061
3041.097194447633,1110
3042.812672240299,1119
3044.5278458199855,1095
3046.2427155003525,1173
3047.9572815951406,1088
3049.671544418167,1120
3051.38550428333,1178
3053.0991615046073,1128
3054.812516396051,1115
3056.5255692717974,1178
3058.2383204460575,1148
3059.9507702331257,1129
3061.662918947372,1108
3063.3747669032446,1110
3065.0863144152736,1115
3066.7975617980674,1143
3068.508509366309,1121
3070.219157434767,1078
3071.9295063182844,1103
3073.639556331785,1143
3075.3493077902704,1124
3077.058761008821,1119
3078.7679163025964,1127
3080.476773986837,1097
3082.1853343768594,1155
3083.89359778806,1050
3085.6015645359153,1130
3087.3092349359786,1163
3089.016609303884,1181
3090.7236879553434,1093
3092.4304712061476,1099
3094.136959372166,1103
3095.843152769349,1122
3097.5490517137237,1148
3099.2546565213966,1100
3100.959967508554,1124
3102.66498499146,1141
3104.3697092864577,1134
3106.0741407099695,1124
3107.778279578498,1141
3109.482126208622,1155
3111.1856809170004,1148
3112.8889440203716,1095
3114.5919158355528,1182
3116.294596679439,1074
3117.996986869006,1094
3119.6990867213062,1107
3121.4008965534726,1195
3123.102416682717,1193
3124.803647426329,1114
3126.5045891016784,1152
3128.205242026213,1129
3129.90560651746,1206
3131.605682893025,1107
3133.3054714705922,1133
3135.0049725679282,1140
3136.7041865028714,1122
3138.4031135933465,1114
3140.101754157353,1084
3141.800108512971,1076
3143.498176978357,1128
3145.1959598717494,1116
3146.8934575114636,1099
3148.5906702158954,1105
3150.2875983035183,1104
3151.9842420928853,1118
3153.680601902627,1086
3155.376678051456,1081
3157.07247085816,1069
3158.767980641609,1136
3160.463207720748,1117
3162.158152414606,1147
3163.8528150422862,1095
3165.5471959229726,1150
3167.2412953759303,1120
3168.9351137204976,1134
3170.628651276098,1124
3172.3219083622307,1101
3174.014885298474,1114
3175.707582404485,1143
3177.4000000000005,1115
3179.092138404835,1126
3180.7839979388846,1104
3182.47557892212,1118
3184.166881674594,1134
3185.8579065164386,1102
3187.5486537678626,1138
3189.2391237491547,1132
3190.9293167806827,1116
3192.6192331828934,1143
3194.3088732763117,1129
3195.998237381542,1079
3197.687325819268,1129
3199.376138910251,1129
3201.064676975334,1145
3202.7529403354347,1070
3204.4409293115523,1126
3206.1286442247647,1112
3207.816085396229,1117
3209.5032531471825,1084
3211.190147798936,1077
3212.8767696728846,1175
3214.5631190905015,1089
3216.2491963733373,1063
3217.9350018430214,1103
3219.6205358212637,1133
3221.305798629851,1126
3222.990790590651,1086
3224.6755120256103,1128
3226.359963256751,1087
3228.0441446061795,1068
3229.7280563960758,1070
3231.411698948703,1117
3233.0950725863995,1071
3234.778177631587,1085
3236.461014406761,1062
3238.1435832345005,1102
3239.8258844374595,1092
3241.507918338374,1168
3243.1896852600576,1119
3244.8711855254023,1143
3246.552419457381,1121
3248.233387379042,1123
3249.914089613516,1094
3251.59452648401,1100
3253.274698313813,1157
3254.95460542629,1087
3256.6342481448855,1136
3258.313626793125,1112
3259.9927416946084,1058
3261.6715931730196,1095
3263.3501815521176,1142
3265.0285071557437,1127
3266.706570307815,1103
3268.3843713323286,1108
3270.0619105533615,1118
3271.739188295068,1107
3273.4162048816834,1144
3275.0929606375184,1113
3276.769455886966,1135
3278.445690954498,1148
3280.1216661646613,1161
3281.797381842087,1125
3283.4728383114807,1109
3285.1480358976296,1100
3286.8229749253996,1100
3288.4976557197333,1113
3290.172078605655,1083
3291.846243908266,1061
3293.5201519527463,1161
3295.193803064357,1124
3296.8671975684374,1070
3298.5403357904024,1134
3300.21321805575,1133
3301.8858446900567,1117
3303.558216018975,1080
3305.23033236824,1087
3306.9021940636603,1080
3308.57380143113,1098
3310.2451547966184,1116
3311.916254486174,1096
3313.5871008259246,1107
3315.2576941420766,1135
3316.9280347609147,1142
3318.5981230088046,1103
3320.2679592121895,1089
3321.9375436975924,1088
3323.606876791612,1050
3325.27595882093,1118
3326.944790112305,1091
3328.6133709925753,1080
3330.2817017886573,1134
3331.949782827547,1126
3333.617614436319,1174
3335.2851969421245,1083
3336.952530672199,1072
3338.619615953853,1098
3340.286453114475,1104
3341.9530424815357,1116
3343.619384382583,1134
3345.2854791452437,1093
3346.951327097224,1120
3348.6169285663073,1162
3350.2822838803577,1137
3351.947393367319,1147
3353.61225735521,1102
3355.2768761721345,1147
3356.9412501462693,1143
3358.605379605873,1129
3360.2692648792827,1131
3361.9329062949146,1081
3363.596304181263,1127
