CollectionTime,6/28/2024 1:55:47 PM
ExposureUsed,3
CalibratedSpectrum
-962.7078968117929,530
-959.9714848408522,537
-957.2358232597828,556
-954.5009119013725,510
-951.7667505983302,520
-949.0333391832855,525
-946.3006774887896,536
-943.5687653473143,525
-940.837602591253,536
-938.1071890529199,517
-935.3775245645503,557
-932.6486089583007,561
-929.9204420662485,536
-927.1930237203925,544
-924.4663537526524,534
-921.7404319948689,539
-919.0152582788041,530
-916.2908324361409,566
-913.5671542984834,578
-910.8442236973568,586
-908.1220404642074,585
-905.4006044304027,549
-902.679915427231,571
-899.959973285902,566
-897.2407778375464,576
-894.5223289132158,519
-891.8046263438832,533
-889.0876699604426,532
-886.3714595937089,519
-883.6559950744183,518
-880.9412762332282,504
-878.2273029007168,514
-875.5140749073835,514
-872.8015920836489,501
-870.0898542598545,502
-867.3788612662631,501
-864.6686129330585,500
-861.9591090903457,498
-859.2503495681506,461
-856.5423341964203,510
-853.8350628050229,503
-851.1285352237478,506
-848.4227512823054,519
-845.7177108103272,520
-843.0134136373656,485
-840.3098595928943,491
-837.6070485063082,520
-834.9049802069229,482
-832.2036545239757,515
-829.5030712866244,507
-826.8032303239481,507
-824.1041314649472,496
-821.4057745385428,493
-818.7081593735775,508
-816.0112857988148,487
-813.3151536429393,508
-810.6197627345566,542
-807.9251129021936,530
-805.2312039742981,516
-802.5380357792392,498
-799.8456081453069,539
-797.1539209007124,516
-794.462973873588,510
-791.772766891987,544
-789.083299783884,558
-786.3945723771743,525
-783.7065844996748,509
-781.0193359791231,502
-778.3328266431781,584
-775.6470563194197,569
-772.9620248353489,533
-770.2777320183878,528
-767.5941776958798,509
-764.9113616950891,528
-762.2292838432011,505
-759.5479439673222,521
-756.8673418944801,541
-754.1874774516235,535
-751.5083504656222,521
-748.8299607632671,531
-746.15230817127,542
-743.475392516264,552
-740.7992136248035,542
-738.1237713233636,528
-735.4490654383407,514
-732.7750957960521,522
-730.1018622227365,519
-727.4293645445534,552
-724.7576025875837,554
-722.0865761778291,546
-719.4162851412126,553
-716.7467293035781,590
-714.0779084906909,596
-711.409822528237,587
-708.7424712418238,554
-706.0758544569796,554
-703.4099719991541,543
-700.7448236937178,527
-698.0804093659622,556
-695.4167288411002,569
-692.7537819442656,537
-690.0915685005134,538
-687.4300883348199,526
-684.7693412720819,571
-682.1093271371178,589
-679.4500457546669,566
-676.7914969493897,575
-674.1336805458676,577
-671.4765963686034,595
-668.8202442420206,553
-666.1646239904642,558
-663.5097354382001,577
-660.8555784094151,580
-658.2021527282176,586
-655.5494582186366,625
-652.8974947046223,629
-650.2462620100463,584
-647.5957599587009,624
-644.9459883742998,628
-642.2969470804776,649
-639.6486359007902,642
-637.0010546587141,625
-634.3542031776476,639
-631.7080812809096,631
-629.0626887917401,590
-626.4180255333008,616
-623.7740913286734,593
-621.1308860008619,614
-618.4884093727904,609
-615.8466612673046,574
-613.2056415071715,584
-610.5653499150785,604
-607.9257863136347,594
-605.28695052537,621
-602.6488423727357,627
-600.0114616781036,619
-597.3748082637674,580
-594.7388819519412,661
-592.1036825647604,629
-589.4692099242818,608
-586.8354638524829,625
-584.2024441712624,625
-581.5701507024403,606
-578.9385832677575,637
-576.3077416888759,610
-573.6776257873787,616
-571.0482353847704,642
-568.4195703024757,618
-565.7916303618415,663
-563.164415384135,664
-560.5379251905453,639
-557.9121596021815,643
-555.2871184400748,639
-552.6628015251767,620
-550.0392086783606,645
-547.4163397204204,654
-544.794194472071,672
-542.1727727539491,651
-539.5520743866118,694
-536.9320991905377,673
-534.3128469861261,743
-531.6943175936979,722
-529.0765108334947,765
-526.4594265256793,877
-523.8430644903358,981
-521.2274245474689,1078
-518.612506517005,1288
-515.9983102187913,1399
-513.3848354725959,1589
-510.77208209810846,1832
-508.16004991493924,1987
-505.5487387426199,2139
-502.9381484006032,2334
-500.3282787082628,2305
-497.71912948489364,2166
-495.1107005497117,1894
-492.5029917218539,1652
-489.8960028203786,1310
-487.28973366426493,1099
-484.68418407241325,976
-482.07935386364494,964
-479.47524285670266,936
-476.87185087025,899
-474.2691777228715,946
-471.66722323307334,865
-469.0659872192821,869
-466.4654694998459,859
-463.86566989303384,867
-461.26658821703614,829
-458.66822428996414,847
-456.07057792985,818
-453.4736489546475,825
-450.877437182231,845
-448.28194243039627,825
-445.68716451686,768
-443.09310325926003,795
-440.49975847515555,766
-437.9071299820263,813
-435.31521759727354,797
-432.72402113821954,783
-430.13354042210767,816
-427.5437752661022,836
-424.95472548728867,824
-422.36639090267386,870
-419.7787713291855,835
-417.1918665836721,839
-414.60567648290385,878
-412.0202008435715,894
-409.4354394822874,867
-406.8513922155845,906
-404.26805885991723,906
-401.685439231661,889
-399.103533147112,874
-396.522340422488,816
-393.9418608739278,834
-391.3620943174908,830
-388.7830405691583,895
-386.2046994448317,882
-383.6270707603344,814
-381.05015433141045,768
-378.473949973725,727
-375.8984575028645,695
-373.32367673433623,655
-370.74960748356875,672
-368.1762495659117,650
-365.60360279663576,584
-363.03166699093265,567
-360.4604419639154,583
-357.8899275306178,558
-355.32012350599507,521
-352.7510297049233,522
-350.1826459421999,553
-347.61497203254316,526
-345.04800779059235,493
-342.4817530309082,558
-339.91620756797226,535
-337.35137121618743,535
-334.7872437898774,506
-332.22382510328725,519
-329.66111497058273,568
-327.09911320585127,592
-324.53781962310075,535
-321.9772340362607,594
-319.4173562591816,644
-316.8581861056348,598
-314.2997233893127,581
-311.7419679238294,594
-309.1849195227194,566
-306.62857799943856,549
-304.0729431673641,560
-301.51801483979375,561
-298.963792829947,556
-296.41027695096386,588
-293.85746701590574,604
-291.3053628377552,606
-288.7539642294155,605
-286.2032710037115,597
-283.65328297338897,636
-281.1039999511146,661
-278.5554217494762,649
-276.007548180983,678
-273.4603790580651,648
-270.9139141930734,654
-268.3681533982807,675
-265.8230964858798,681
-263.27874326798565,675
-260.7350935566336,668
-258.1921471637804,698
-255.6499039013039,676
-253.10836358100266,635
-250.56752601459698,709
-248.02739101372765,883
-245.48795838995704,878
-242.94922795476816,927
-240.41119951956557,834
-237.8738728956746,788
-235.33724789434166,925
-232.80132432673452,1065
-230.2661020039418,903
-227.73158073697357,747
-225.19776033676033,742
-222.66464061415422,797
-220.1322213799284,773
-217.60050244477725,778
-215.06948361931552,809
-212.53916471408013,847
-210.00954553952818,824
-207.48062590603843,905
-204.9524056239104,866
-202.4248845033651,820
-199.8980623545441,780
-197.37193898751036,773
-194.84651421224817,872
-192.32178783866232,854
-189.79775967657952,859
-187.27442953574644,865
-184.7517972258321,917
-182.2298625564256,1055
-179.7086253370378,904
-177.18808537710026,920
-174.66824248596583,950
-172.14909647290835,1069
-169.6306471471229,1030
-167.11289431772548,956
-164.59583779375328,949
-162.07947738416453,1014
-159.5638128978386,1053
-157.04884414357605,1075
-154.53457093009854,1210
-152.02099306604828,1235
-149.50811035998936,1093
-146.99592262040665,1074
-144.48442965570587,1166
-141.97363127421409,1305
-139.46352728417958,1117
-136.95411749377126,1113
-134.44540171107985,1346
-131.93737974411636,1384
-129.43005140081357,1402
-126.92341648902493,1495
-124.41747481652521,1509
-121.91222619101006,1406
-119.40767042009657,1297
-116.90380731132257,1390
-114.40063667214702,1420
-111.8981583099503,1507
-109.3963720320337,1550
-106.89527764561933,1762
-104.39487495785067,1797
-101.89516377579241,1604
-99.39614390642998,1667
-96.89781515667039,1722
-94.40017733334128,1954
-91.90323024319173,1881
-89.40697369289148,1986
-86.91140748903172,1860
-84.41653143812482,1811
-81.92234534660395,2102
-79.42884902082358,2423
-76.93604226705907,2613
-74.4439248915071,2326
-71.95249670028534,2342
-69.46175749943245,2615
-66.97170709490854,2973
-64.48234529259423,3618
-61.99367189829195,2879
-59.50568671772464,2525
-57.01838955653636,2989
-54.53178022029283,3565
-52.045858514480074,3408
-49.560624244506016,3316
-47.07607721569923,3506
-44.59221723330904,3748
-42.10904410250669,3728
-39.62655762838392,4089
-37.14475761595372,5426
-34.66364387015028,6503
-32.18321619582866,6823
-29.70347439776515,7859
-27.224418280657005,10814
-24.74604764912317,16533
-22.26836230770266,28845
-19.7913620608565,51183
-17.315046712966478,65030
-14.83941606833514,65030
-12.36446993118659,65030
-9.89020810566592,65030
-7.416630395839093,65030
-4.94373660569363,65030
-2.471526539137585,65030
-6.821210263296962E-13,65030
2.47084320796705,65030
4.941003281093458,65030
7.410480415786196,65030
9.879274808531363,65030
12.347386655893956,65030
14.814816154518212,65030
17.28156350112681,65030
19.74762889252179,65030
22.21301252558385,65030
24.67771459727237,36785
27.141735304626195,13665
29.605074844762612,10571
32.06773341487792,10065
34.52971121224755,9490
36.99100843422559,9216
39.45162527824516,10179
41.91156194181792,10960
44.370818622535126,15550
46.82939551806646,19132
49.287292826160524,19232
51.74451074464503,16141
54.201049471426245,10640
56.65690920448981,8152
59.112090141899785,6871
61.56659248179983,4650
64.02041642241159,3371
66.4735621620365,3208
68.92602989905402,2816
71.37781983192338,2353
73.82893215918205,2964
76.27936707944684,2919
78.72912479141326,2766
81.17820549385567,2733
83.62660938562783,2733
86.07433666566146,2236
88.5213875329681,2275
90.96776218663751,2400
93.41346082583925,2388
95.85848364982041,2515
98.30283085790859,2222
100.7465026495089,2052
103.18949922410604,2092
105.63182078126385,2057
108.07346752062438,2122
110.51443964190923,2159
112.95473734491827,1776
115.39436082953114,1443
117.83331029570547,1659
120.27158594347827,1888
122.7091879729652,1663
125.1461165843615,1395
127.58237197794062,1650
130.01795435405518,1427
132.4528639131364,1445
134.88710085569494,1441
137.32066538231982,1816
139.75355769367923,1772
142.1857779905207,1496
144.61732647366978,1475
147.04820334403132,1667
149.47840880258934,1468
151.90794305040674,1511
154.33680628862487,1686
156.76499871846443,1546
159.19252054122433,1591
161.61937195828352,1612
164.04555317109896,1616
166.47106438120693,1807
168.89590579022217,2119
171.320077599839,2129
173.7435800118302,2116
176.16641322804742,1952
178.58857745042144,2003
181.01007288096173,2180
183.43089972175687,2257
185.85105817497413,2240
188.27054844285988,2234
190.6893707277394,2162
193.10752523201643,2140
195.5250121581745,2312
197.9418317087751,2330
200.3579840864594,2194
202.7734694939469,2273
205.18828813403627,2190
207.6024402096051,2116
210.01592592360964,2139
212.42874547908548,2162
214.84089907914665,2094
217.2523869269868,2180
219.66320922587727,2186
222.0733661791695,2146
224.48285799029293,2186
226.8916848627572,2175
229.29984700014882,2261
231.7073446061355,2250
234.11417788446204,2291
236.520347038953,2355
238.92585227351185,2338
241.33069379212054,2307
243.73487179884035,2352
246.1383864978112,2235
248.541238093252,2210
250.9434267894609,2342
253.34495279081432,2259
255.74581630176783,2337
258.1460175268563,2389
260.54555667069314,2486
262.9444339379703,2472
265.3426495334594,2458
267.7402036620107,2496
270.1370965285529,2179
272.53332833809407,2294
274.9288992957214,2247
277.32380960660055,2196
279.718059475976,2271
282.1116491091717,2229
284.5045787115897,2223
286.89684848871195,2335
289.2884586460981,2312
291.67940938938807,2445
294.0697009242996,2286
296.4593334566299,2267
298.84830719225477,2234
301.23662233712923,2287
303.6242790972866,2285
306.01127767884,2330
308.39761828798066,2348
310.78330113097934,2295
313.16832641418534,2274
315.5526943440269,2113
317.9364051270112,2160
320.3194589697242,2078
322.70185607883093,2113
325.0835966610754,2046
327.4646809232805,2088
329.8451090723478,2111
332.2248813152577,1985
334.6039978590701,2073
336.9824589109231,2023
339.36026467803447,2054
341.7374153677,2025
344.113911187295,1984
346.48975234427337,1972
348.8649390461686,1891
351.2394715005918,1929
353.61334991523415,1870
355.9865744978655,1880
358.35914545633375,1919
360.73106299856715,1931
363.10232733257146,1881
365.47293866643247,1940
367.84289720831396,1927
370.2122031664593,1866
372.5808567491905,1869
374.9488581649083,1868
377.31620762209275,1817
379.6829053293021,1847
382.0489514951745,1795
384.4143463284262,1803
386.7790900378528,1887
389.14318283232853,1806
391.50662492080653,1820
393.86941651231916,1718
396.23155781597745,1872
398.5930490409713,1805
400.9538903965696,1717
403.3140820921202,1797
405.6736243370498,1817
408.03251734086336,1800
410.3907613131465,1795
412.74835646356166,1767
415.10530300185144,1721
417.4616011378372,1725
419.81725108141893,1835
422.1722530425758,1754
424.5266072313656,1780
426.880313857925,1731
429.2333731324701,1702
431.58578526529516,1692
433.9375504667738,1666
436.2886689473588,1769
438.63914091758113,1727
440.9889665880513,1693
443.33814616945835,1680
445.68667987257015,1725
448.03456790823395,1658
450.3818104873759,1676
452.72840782100013,1689
455.07436012019105,1760
457.41966759611057,1706
459.7643304600007,1660
462.10834892318155,1737
464.4517231970525,1665
466.79445349309174,1691
469.1365400228566,1727
471.4779829979826,1676
473.81878263018564,1729
476.15893913125876,1776
478.4984527130747,1788
480.8373235875855,1790
483.17555196682144,1801
485.5131380628919,1866
487.8500820879857,1936
490.1863842543697,2050
492.52204477439034,2202
494.8570638604725,2355
497.1914417251204,2802
499.52517858091653,3127
501.85827464052306,3663
504.19073011668036,3975
506.5225452222086,4243
508.85372017000566,4290
511.18425517304956,4303
513.514150444396,4226
515.8434061971808,4548
518.1720226446176,4538
520.4999999999999,4584
522.8273384766991,4815
525.1540382881666,4879
527.480099647932,4525
529.8055227696037,3463
532.1303078668694,2484
534.454455153496,1997
536.777964843328,1836
539.1008371502907,1728
541.4230722883866,1714
543.744670471698,1712
546.0656319143858,1717
548.3859568306899,1622
550.7056454349294,1590
553.0246979415016,1547
555.3431145648834,1570
557.6608955196306,1601
559.978041020377,1535
562.2945512818363,1530
564.6104265188006,1548
566.9256669461412,1535
569.2402727788082,1477
571.5542442318302,1492
573.8675815203156,1555
576.1802848594508,1504
578.4923544645015,1564
580.8037905508126,1531
583.114593333807,1463
585.4247630289875,1495
587.7342998519354,1506
590.0432040183106,1556
592.3514757438526,1478
594.6591152443794,1452
596.9661227357875,1494
599.2724984340531,1540
601.578242555231,1568
603.8833553154542,1538
606.1878369309362,1578
608.4916876179676,1611
610.7949075929192,1628
613.0974970722403,1520
615.3994562724587,1543
617.7007854101818,1553
620.0014847020951,1491
622.3015543649641,1512
624.6009946156324,1534
626.8998056710224,1514
629.1979877481361,1509
631.4955410640538,1537
633.7924658359349,1556
636.0887622810175,1534
638.3844306166192,1580
640.6794710601358,1540
642.9738838290426,1512
645.2676691408932,1559
647.5608272133207,1554
649.853358264037,1520
652.1452625108324,1603
654.4365401715764,1554
656.7271914642178,1535
659.0172166067838,1570
661.3066158173809,1526
663.5953893141935,1514
665.8835373154867,1566
668.1710600396028,1584
670.4579577049639,1502
672.7442305300709,1588
675.0298787335033,1595
677.3149025339197,1608
679.599302150058,1542
681.8830778007342,1584
684.1662297048437,1606
686.4487580813608,1600
688.7306631493387,1596
691.0119451279091,1512
693.2926042362834,1586
695.5726406937516,1589
697.8520547196814,1593
700.1308465335215,1543
702.4090163547982,1532
704.6865644031171,1560
706.9634908981619,1550
709.2397960596965,1564
711.5154801075631,1606
713.7905432616823,1591
716.0649857420548,1493
718.3388077687592,1526
720.612009561953,1527
722.8845913418733,1527
725.1565533288352,1542
727.427895743234,1528
729.6986188055427,1559
731.9687227363137,1569
734.238207756178,1561
736.5070740858458,1552
738.7753219461066,1548
741.0429515578281,1528
743.3099631419569,1486
745.5763569195191,1588
747.8421331116193,1606
750.1072919394409,1566
752.3718336242467,1586
754.6357583873777,1563
756.8990664502545,1554
759.1617580343765,1558
761.423833361321,1511
763.6852926527457,1592
765.9461361303862,1591
768.206364016058,1621
770.4659765316536,1628
772.7249738991469,1611
774.9833563405886,1643
777.2411240781092,1573
779.4982773339183,1631
781.7548163303044,1608
784.010741289634,1617
786.2660524343538,1684
788.5207499869881,1648
790.7748341701416,1549
793.0283052064964,1652
795.2811633188143,1601
797.5334087299362,1636
799.7850416627813,1659
802.0360623403484,1639
804.2864709857143,1589
806.5362678220353,1613
808.7854530725468,1634
811.0340269605625,1591
813.2819897094754,1617
815.5293415427581,1616
817.77608268396,1638
820.0222133567116,1603
822.2677337847211,1612
824.5126441917765,1585
826.7569448017433,1639
829.0006358385675,1594
831.2437175262731,1566
833.4861900889629,1550
835.7280537508192,1636
837.9693087361026,1625
840.2099552691533,1561
842.4499935743896,1577
844.689423876309,1594
846.9282463994886,1586
849.1664613685833,1586
851.4040690083276,1593
853.6410695435349,1592
855.877463199097,1548
858.1132501999847,1617
860.3484307712487,1615
862.5830051380175,1546
864.8169735254988,1553
867.0503361589791,1598
869.2830932638243,1647
871.5152450654786,1549
873.7467917894654,1602
875.9777336613873,1603
878.2080709069252,1681
880.4378037518389,1623
882.666932421968,1602
884.8954571432301,1604
887.1233781416219,1631
889.3506956432192,1636
891.5774098741766,1630
893.803521060728,1661
896.0290294291852,1627
898.2539352059397,1675
900.4782386174619,1658
902.7019398903011,1674
904.925039251085,1667
907.147536926521,1646
909.3694331433943,1637
911.59072812857,1628
913.8114221089921,1665
916.0315153116827,1667
918.2510079637437,1669
920.4699002923547,1696
922.6881925247761,1623
924.905884888345,1656
927.1229776104793,1644
929.3394709186747,1655
931.555365040506,1660
933.7706602036275,1629
935.9853566357709,1584
938.1994545647489,1617
940.4129542184515,1649
942.6258558248488,1720
944.8381596119883,1691
947.0498658079974,1652
949.2609746410825,1645
951.4714863395287,1600
953.6814011316998,1730
955.8907192460387,1628
958.0994409110671,1625
960.3075663553858,1657
962.5150958076741,1619
964.7220294966913,1594
966.928367651274,1614
969.1341105003388,1607
971.3392582728806,1587
973.5438111979742,1548
975.747769504772,1543
977.9511334225061,1517
980.153903180487,1464
982.3560790081052,1553
984.5576611348289,1567
986.7586497902058,1518
988.9590452038618,1514
991.158847605503,1436
993.3580572249133,1469
995.5566742919558,1410
997.7546990365728,1447
999.952131688785,1422
1002.1489724786926,1381
1004.3452216364743,1397
1006.5408793923874,1396
1008.7359459767691,1360
1010.9304216200343,1362
1013.1243065526781,1329
1015.3176010052733,1341
1017.510305208472,1298
1019.7024193930064,1347
1021.8939437896848,1305
1024.0848786293977,1256
1026.2752241431122,1351
1028.4649805618747,1227
1030.6541481168115,1238
1032.842727039127,1242
1035.0307175601051,1231
1037.2181199111074,1208
1039.4049343235752,1249
1041.591161029029,1243
1043.7768002590683,1190
1045.9618522453698,1206
1048.1463172196918,1252
1050.3301954138697,1198
1052.513487059818,1264
1054.69619238953,1261
1056.8783116350783,1200
1059.0598450286152,1222
1061.2407928023704,1204
1063.4211551886528,1221
1065.6009324198508,1196
1067.780124728432,1179
1069.9587323469414,1217
1072.1367555080046,1245
1074.314194444325,1229
1076.4910493886855,1210
1078.667320573947,1262
1080.843008233051,1208
1083.0181125990161,1246
1085.1926339049414,1212
1087.3665723840027,1218
1089.5399282694575,1142
1091.7127017946405,1186
1093.8848931929647,1182
1096.0565026979243,1137
1098.2275305430899,1163
1100.3979769621128,1174
1102.567842188722,1196
1104.737126456726,1158
1106.9058300000124,1176
1109.0739530525475,1166
1111.2414958483764,1166
1113.4084586216231,1168
1115.5748416064907,1108
1117.7406450372605,1154
1119.9058691482942,1163
1122.0705141740304,1139
1124.2345803489884,1203
1126.3980679077658,1160
1128.5609770850388,1137
1130.7233081155623,1131
1132.8850612341707,1124
1135.0462366757774,1210
1137.2068346753745,1139
1139.3668554680326,1127
1141.526299288901,1166
1143.68516637321,1088
1145.8434569562655,1116
1148.001171273455,1107
1150.158309560244,1170
1152.3148720521767,1098
1154.470858984876,1064
1156.626270594044,1142
1158.7811071154629,1165
1160.9353687849912,1148
1163.089055838569,1176
1165.242168512213,1165
1167.3947070420209,1141
1169.5466716641677,1187
1171.6980626149075,1162
1173.8488801305748,1170
1175.9991244475814,1105
1178.1487958024186,1147
1180.2978944316555,1147
1182.4464205719428,1116
1184.5943744600072,1148
1186.7417563326567,1095
1188.8885664267755,1128
1191.0348049793297,1097
1193.1804722273619,1131
1195.325568407995,1123
1197.4700937584303,1133
1199.614048515948,1096
1201.7574329179074,1074
1203.900247201746,1139
1206.042491604982,1130
1208.1841663652099,1133
1210.3252717201053,1146
1212.465807907422,1095
1214.6057751649923,1100
1216.7451737307279,1113
1218.8840038426192,1119
1221.0222657387353,1189
1223.1599596572241,1147
1225.2970858363137,1108
1227.4336445143094,1112
1229.5696359295966,1176
1231.705060320639,1147
1233.8399179259786,1109
1235.9742089842384,1124
1238.107933734118,1143
1240.2410924143974,1148
1242.373685263935,1082
1244.5057125216676,1071
1246.6371744266116,1149
1248.7680712178621,1144
1250.898403134593,1160
1253.028170416058,1138
1255.1573733015875,1183
1257.2860120305932,1158
1259.4140868425648,1140
1261.54159797707,1135
1263.6685456737569,1178
1265.7949301723515,1093
1267.9207517126597,1160
1270.046010534565,1131
1272.1707068780306,1140
1274.2948409830983,1187
1276.4184130898889,1142
1278.541423438603,1135
1280.6638722695184,1138
1282.785759822993,1148
1284.9070863394636,1169
1287.0278520594447,1206
1289.1480572235314,1175
1291.2677020723963,1183
1293.3867868467923,1158
1295.5053117875495,1178
1297.623277135579,1171
1299.740683131868,1183
1301.8575300174857,1209
1303.973818033578,1192
1306.0895474213703,1187
1308.2047184221678,1214
1310.3193312773528,1181
1312.4333862283888,1215
1314.5468835168163,1148
1316.659823384255,1148
1318.7722060724045,1197
1320.8840318230418,1190
1322.9953008780249,1178
1325.1060134792888,1194
1327.2161698688478,1242
1329.3257702887959,1168
1331.4348149813054,1169
1333.5433041886276,1177
1335.6512381530933,1200
1337.7586171171101,1191
1339.8654413231675,1176
1341.9717110138317,1190
1344.0774264317488,1235
1346.1825878196432,1188
1348.2871954203192,1215
1350.3912494766587,1223
1352.4947502316231,1157
1354.5976979282532,1185
1356.7000928096686,1255
1358.8019351190665,1206
1360.9032250997243,1191
1363.0039629949988,1177
1365.1041490483235,1086
1367.2037835032133,1190
1369.3028666032606,1159
1371.401398592137,1196
1373.4993797135926,1174
1375.5968102114575,1219
1377.6936903296396,1221
1379.7900203121262,1145
1381.8858004029835,1174
1383.9810308463561,1144
1386.075711886469,1214
1388.1698437676241,1234
1390.2634267342032,1166
1392.356461030667,1168
1394.4489469015557,1154
1396.5408845914872,1158
1398.6322743451592,1193
1400.7231164073469,1219
1402.813411022907,1192
1404.903158436773,1192
1406.9923588939578,1188
1409.0810126395531,1183
1411.1691199187303,1173
1413.2566809767386,1205
1415.343696058907,1175
1417.4301654106425,1176
1419.5160892774315,1249
1421.6014679048399,1167
1423.6863015385125,1146
1425.7705904241707,1190
1427.8543348076178,1191
1429.9375349347342,1212
1432.0201910514802,1152
1434.102303403894,1165
1436.1838722380944,1175
1438.2648978002767,1177
1440.3453803367174,1179
1442.4253200937692,1190
1444.5047173178677,1180
1446.5835722555234,1203
1448.6618851533285,1213
1450.739656257952,1145
1452.8168858161434,1145
1454.8935740747306,1214
1456.96972128062,1213
1459.045327680797,1212
1461.120393522327,1186
1463.1949190523528,1206
1465.2689045180973,1221
1467.3423501668608,1218
1469.415256246024,1231
1471.4876230030463,1206
1473.559450685465,1230
1475.6307395408976,1241
1477.7014898170391,1269
1479.771701761665,1231
1481.8413756226287,1255
1483.9105116478618,1222
1485.9791100853772,1207
1488.0471711832643,1230
1490.1146951896926,1219
1492.1816823529098,1264
1494.2481329212433,1231
1496.3140471430984,1247
1498.3794252669609,1257
1500.4442675413939,1264
1502.5085742150404,1228
1504.572345536622,1230
1506.6355817549388,1243
1508.6982831188702,1228
1510.7604498773744,1263
1512.8220822794883,1279
1514.8831805743293,1258
1516.9437450110909,1220
1519.003775839048,1248
1521.0632733075522,1306
1523.1222376660367,1284
1525.1806691640113,1299
1527.2385680510652,1338
1529.2959345768668,1296
1531.3527689911643,1253
1533.4090715437833,1228
1535.4648424846291,1310
1537.5200820636855,1314
1539.5747905310159,1338
1541.6289681367616,1261
1543.6826151311434,1297
1545.7357317644614,1290
1547.7883182870937,1320
1549.8403749494987,1281
1551.8919020022113,1290
1553.9428996958477,1326
1555.9933682811015,1343
1558.0433080087469,1363
1560.0927191296346,1369
1562.1416018946961,1339
1564.1899565549415,1359
1566.2377833614592,1381
1568.2850825654164,1387
1570.3318544180606,1406
1572.3780991707158,1389
1574.423817074788,1397
1576.4690083817595,1375
1578.5136733431923,1415
1580.5578122107272,1404
1582.601425236085,1375
1584.6445126710646,1332
1586.6870747675434,1333
1588.7291117774776,1303
1590.7706239529034,1337
1592.8116115459347,1302
1594.8520748087658,1317
1596.8920139936686,1314
1598.9314293529933,1248
1600.9703211391711,1260
1603.008689604711,1179
1605.0465350022005,1246
1607.0838575843068,1213
1609.1206576037753,1269
1611.1569353134305,1208
1613.1926909661765,1255
1615.2279248149953,1213
1617.2626371129481,1180
1619.2968281131757,1103
1621.3304980688963,1172
1623.3636472334088,1157
1625.39627586009,1158
1627.428384202396,1223
1629.459972513861,1161
1631.4910410480993,1208
1633.5215900588028,1149
1635.551619799744,1214
1637.5811305247717,1177
1639.6101224878166,1167
1641.6385959428862,1185
1643.6665511440683,1174
1645.693988345528,1158
1647.7209078015112,1118
1649.7473097663405,1154
1651.7731944944203,1172
1653.7985622402307,1189
1655.823413258333,1182
1657.847747803366,1145
1659.8715661300494,1146
1661.8948684931793,1203
1663.9176551476316,1193
1665.9399263483624,1139
1667.9616823504057,1149
1669.982923408873,1133
1672.0036497789574,1183
1674.0238617159293,1178
1676.043559475138,1130
1678.0627433120121,1110
1680.081413482059,1146
1682.0995702408654,1136
1684.117213844096,1124
1686.134344547495,1137
1688.1509626068864,1145
1690.1670682781705,1108
1692.182661817329,1120
1694.1977434804217,1144
1696.2123135235875,1170
1698.226372203043,1138
1700.2399197750851,1157
1702.2529564960905,1131
1704.2654826225112,1113
1706.277498410882,1196
1708.2890041178139,1155
1710.2999999999988,1193
1712.3104863142066,1192
1714.3204633172854,1141
1716.329931266163,1136
1718.3388904178469,1157
1720.3473410294214,1180
1722.3552833580516,1194
1724.3627176609807,1155
1726.3696441955308,1122
1728.3760632191033,1129
1730.3819749891782,1154
1732.3873797633146,1136
1734.3922777991502,1114
1736.3966693544012,1153
1738.4005546868639,1125
1740.4039340544127,1164
1742.406807715001,1137
1744.4091759266616,1175
1746.4110389475054,1107
1748.4123970357223,1130
1750.413250449582,1140
1752.4135994474318,1136
1754.4134442876993,1151
1756.4127852288902,1147
1758.4116225295893,1149
1760.4099564484595,1134
1762.407787244244,1109
1764.405115175764,1181
1766.4019405019203,1124
1768.3982634816916,1154
1770.3940843741357,1151
1772.3894034383907,1105
1774.3842209336717,1136
1776.378537119274,1136
1778.372352254571,1146
1780.3656665990156,1125
1782.3584804121397,1120
1784.3507939535534,1166
1786.3426074829463,1153
1788.3339212600863,1198
1790.3247355448211,1152
1792.3150505970766,1101
1794.3048666768573,1118
1796.2941840442477,1122
1798.2830029594106,1114
1800.2713236825884,1152
1802.2591464741004,1169
1804.2464715943465,1110
1806.2332993038058,1136
1808.2196298630352,1147
1810.2054635326708,1152
1812.190800573428,1091
1814.175641246101,1139
1816.1599858115628,1141
1818.1438345307652,1141
1820.127187664738,1130
1822.1100454745924,1114
1824.092408221516,1138
1826.0742761667766,1161
1828.055649571721,1130
1830.0365286977735,1123
1832.0169138064398,1131
1833.9968051593014,1192
1835.9762030180214,1170
1837.9551076443408,1141
1839.9335193000788,1158
1841.9114382471344,1145
1843.888864747485,1166
1845.8657990631878,1152
1847.842241456378,1113
1849.8181921892697,1155
1851.7936515241558,1130
1853.7686197234098,1141
1855.7430970494815,1182
1857.7170837649014,1130
1859.6905801322787,1170
1861.6635864143004,1153
1863.6361028737338,1121
1865.608129773424,1144
1867.5796673762961,1152
1869.5507159453537,1186
1871.521275743678,1162
1873.4913470344313,1200
1875.4609300808534,1141
1877.4300251462632,1121
1879.3986324940588,1122
1881.366752387717,1161
1883.3343850907936,1144
1885.3015308669228,1102
1887.268189979819,1135
1889.2343626932739,1156
1891.2000492711595,1129
1893.1652499774254,1199
1895.1299650761011,1138
1897.0941948312952,1159
1899.0579395071945,1183
1901.0211993680641,1112
1902.98397467825,1168
1904.9462657021745,1219
1906.9080727043415,1166
1908.869395949332,1170
1910.8302357018065,1187
1912.790592226504,1154
1914.7504657882428,1161
1916.7098566519212,1133
1918.6687650825133,1160
1920.6271913450764,1075
1922.5851357047422,1160
1924.5425984267245,1114
1926.499579776314,1164
1928.4560800188833,1112
1930.4120994198802,1179
1932.367638244833,1211
1934.32269675935,1169
1936.2772752291175,1159
1938.231373919899,1139
1940.1849930975404,1191
1942.1381330279637,1143
1944.0907939771696,1203
1946.0429762112412,1106
1947.9946799963363,1135
1949.9459055986945,1145
1951.896653284633,1150
1953.8469233205478,1158
1955.7967159729142,1171
1957.7460315082863,1136
1959.6948701932974,1189
1961.6432322946594,1121
1963.5911180791632,1155
1965.5385278136787,1141
1967.4854617651545,1152
1969.4319202006182,1190
1971.377903387176,1139
1973.3234115920136,1134
1975.268445082395,1109
1977.2130041256642,1214
1979.1570889892423,1113
1981.1006999406304,1108
1983.04383724741,1141
1984.986501177238,1133
1986.928691997853,1137
1988.8704099770712,1148
1990.811655382789,1167
1992.7524284829801,1147
1994.692729545698,1148
1996.6325588390755,1104
1998.5719166313224,1123
2000.5108031907307,1163
2002.4492187856677,1116
2004.387163684583,1094
2006.3246381560011,1111
2008.2616424685298,1114
2010.1981768908527,1086
2012.1342416917332,1120
2014.069837140014,1125
2016.0049635046162,1157
2017.9396210545406,1113
2019.8738100588666,1143
2021.8075307867502,1110
2023.740783507431,1177
2025.6735684902228,1135
2027.6058860045214,1222
2029.5377363198004,1149
2031.4691197056118,1107
2033.4000364315875,1122
2035.3304867674374,1163
2037.260470982952,1137
2039.189989347998,1119
2041.1190421325232,1131
2043.047629606554,1109
2044.9757520401945,1158
2046.9034097036288,1140
2048.8306028671195,1210
2050.7573318010086,1135
2052.683596775716,1151
2054.609398061742,1140
2056.5347359296647,1142
2058.4596106501403,1151
2060.384022493906,1127
2062.3079717317764,1193
2064.231458634646,1148
2066.1544834734873,1162
2068.077046519352,1139
2069.99914804337,1156
2071.9207883167524,1180
2073.8419676107865,1199
2075.7626861968406,1195
2077.6829443463607,1206
2079.6027423308715,1183
2081.522080421977,1161
2083.440958891362,1153
2085.359378010786,1155
2087.2773380520907,1162
2089.194839287196,1114
2091.111881988101,1112
2093.0284664268825,1160
2094.9445928756973,1121
2096.86026160678,1177
2098.775472892446,1158
2100.690227005088,1180
2102.604524217178,1127
2104.5183648012676,1103
2106.431749029985,1166
2108.34467717604,1156
2110.2571495122206,1127
2112.169166311393,1160
2114.080727846503,1107
2115.9918343905747,1090
2117.902486216711,1086
2119.8126835980956,1133
2121.722426807987,1150
2123.6317161197285,1146
2125.5405518067364,1109
2127.448934142509,1185
2129.356863400624,1146
2131.264339854737,1172
2133.1713637785815,1147
2135.077935445972,1172
2136.9840551308002,1137
2138.889723107037,1116
2140.7949396487334,1167
2142.699705030018,1116
2144.6040195250994,1108
2146.507883408264,1155
2148.4112969538774,1150
2150.3142604363848,1147
2152.2167741303097,1157
2154.1188383102535,1158
2156.0204532508997,1133
2157.9216192270064,1144
2159.822336513414,1127
2161.7226053850413,1127
2163.622426116884,1194
2165.5217989840185,1156
2167.4207242616,1223
2169.319202224862,1121
2171.2172331491165,1114
2173.1148173097563,1165
2175.0119549822507,1148
2176.90864644215,1132
2178.8048919650823,1163
2180.7006918267534,1126
2182.596046302952,1126
2184.4909556695407,1143
2186.3854202024645,1148
2188.279440177746,1108
2190.173015871487,1184
2192.066147559868,1174
2193.958835519149,1130
2195.851080025667,1135
2197.7428813558417,1130
2199.6342397861667,1142
2201.5251555932186,1098
2203.415629053651,1131
2205.3056604441986,1087
2207.19525004167,1125
2209.084398122958,1117
2210.9731049650327,1109
2212.861370844941,1167
2214.749196039812,1108
2216.636580826851,1132
2218.523525483344,1156
2220.410030286655,1148
2222.296095514226,1145
2224.1817214435805,1142
2226.066908352319,1111
2227.951656518121,1107
2229.835966218746,1160
2231.71983773203,1216
2233.6032713358913,1201
2235.486267308324,1187
2237.3688259274036,1117
2239.2509474712824,1143
2241.132632218193,1107
2243.013880446447,1167
2244.8946924344323,1146
2246.7750684606203,1175
2248.6550088035574,1192
2250.534513741871,1122
2252.413583554265,1162
2254.292218519526,1103
2256.170418916517,1109
2258.0481850241786,1158
2259.925517121534,1131
2261.8024154876825,1140
2263.678880401803,1085
2265.5549121431536,1124
2267.430510991071,1154
2269.305677224971,1112
2271.180411124348,1115
2273.0547129687766,1126
2274.9285830379076,1149
2276.8020216114737,1116
2278.6750289692845,1131
2280.5476053912294,1175
2282.4197511572766,1127
2284.2914665474727,1124
2286.162751841943,1140
2288.0336073208937,1090
2289.904033264608,1148
2291.774029953448,1134
2293.6435976678554,1162
2295.5127366883517,1167
2297.381447295534,1151
2299.2497297700825,1170
2301.1175843927526,1152
2302.9850114443825,1129
2304.852011205885,1160
2306.7185839582553,1135
2308.5847299825664,1179
2310.4504495599676,1165
2312.3157429716925,1131
2314.1806104990483,1158
2316.0450524234247,1136
2317.9090690262888,1131
2319.772660589186,1179
2321.635827393742,1125
2323.498569721661,1146
2325.3608878547248,1134
2327.2227820747967,1165
2329.0842526638157,1159
2330.945299903803,1130
2332.805924076857,1152
2334.6661254651535,1144
2336.525904350951,1136
2338.3852610165827,1187
2340.244195744464,1161
2342.102708817088,1182
2343.9608005170253,1164
2345.8184711269287,1107
2347.675720929526,1139
2349.532550207628,1150
2351.38895924412,1169
2353.24494832197,1165
2355.100517724223,1141
2356.955667734004,1174
2358.810398634514,1139
2360.664710709037,1177
2362.5186042409337,1147
2364.3720795136437,1150
2366.225136810686,1158
2368.0777764156583,1190
2369.929998612237,1143
2371.7818036841777,1166
2373.633191915315,1144
2375.484163589562,1138
2377.3347189909114,1145
2379.184858403434,1156
2381.03458211128,1186
2382.8838903986775,1212
2384.732783549936,1192
2386.5812618494406,1131
2388.4293255816588,1100
2390.2769750311327,1081
2392.1242104824883,1132
2393.971032220427,1137
2395.8174405297295,1160
2397.6634356952563,1228
2399.509018001947,1143
2401.3541877348193,1160
2403.1989451789705,1131
2405.043290619576,1106
2406.8872243418905,1180
2408.730746631247,1156
2410.5738577730594,1175
2412.4165580528183,1180
2414.258847756095,1130
2416.100727168537,1165
2417.9421965758734,1176
2419.783256263912,1192
2421.623906518538,1204
2423.4641476257157,1189
2425.303979871491,1198
2427.143403541984,1180
2428.9824189233977,1185
2430.821026302012,1143
2432.6592259641866,1193
2434.497018196361,1169
2436.33440328505,1145
2438.171381516851,1194
2440.00795317844,1145
2441.844118556569,1195
2443.6798779380724,1169
2445.5152316098606,1170
2447.3501798589255,1188
2449.1847229723357,1158
2451.0188612372403,1181
2452.8525949408663,1207
2454.6859243705203,1113
2456.518849813587,1150
2458.3513715575314,1151
2460.183489889895,1171
2462.015205098301,1188
2463.8465174704493,1161
2465.67742729412,1172
2467.5079348571717,1141
2469.338040447542,1186
2471.1677443532476,1136
2472.9970468623833,1196
2474.825948263123,1171
2476.6544488437207,1166
2478.482548892508,1160
2480.310248697896,1166
2482.137548548374,1138
2483.9644487325118,1151
2485.790949538956,1148
2487.617051256433,1176
2489.44275417375,1165
2491.26805857979,1126
2493.0929647635157,1187
2494.917473013971,1196
2496.741583620276,1201
2498.5652968716304,1216
2500.3886130573137,1168
2502.2115324666834,1216
2504.0340553891765,1152
2505.856182114308,1172
2507.6779129316733,1157
2509.499248130945,1164
2511.3201880018764,1165
2513.140732834298,1137
2514.9608829181198,1151
2516.780638543331,1239
2518.6,1157
2520.418967578273,1193
2522.237541568376,1138
2524.0557222606144,1187
2525.8735099453706,1185
2527.6909049131086,1176
2529.507907454368,1175
2531.32451785977,1223
2533.140736420014,1189
2534.9565634258774,1159
2536.771999168218,1191
2538.5870439379714,1152
2540.4016980261526,1158
2542.2159617238544,1155
2544.02983532225,1188
2545.8433191125914,1152
2547.656413386209,1174
2549.4691184345115,1151
2551.2814345489874,1144
2553.093362021204,1158
2554.904901142808,1164
2556.716052205523,1256
2558.526815501153,1185
2560.3371913215824,1181
2562.147179958771,1176
2563.956781704761,1172
2565.7659968516705,1187
2567.5748256916986,1137
2569.3832685171224,1199
2571.1913256202984,1180
2572.9989972936614,1224
2574.806283829725,1212
2576.613185521084,1197
2578.4197026604074,1147
2580.2258355404483,1227
2582.031584454035,1237
2583.836949694077,1194
2585.6419315535613,1210
2587.4465303255533,1226
2589.2507463032002,1204
2591.0545797797245,1174
2592.8580310484303,1147
2594.6611004026995,1195
2596.463788135992,1216
2598.266094541849,1264
2600.0680199138874,1184
2601.869564545807,1257
2603.670728731383,1166
2605.4715127644704,1207
2607.2719169390048,1264
2609.071941548998,1195
2610.8715868885433,1213
2612.670853251811,1162
2614.469740933052,1182
2616.268250226594,1235
2618.0663814268455,1254
2619.864134828292,1217
2621.6615107255006,1169
2623.458509413115,1170
2625.2551311858597,1180
2627.0513763385347,1166
2628.8472451660223,1189
2630.6427379632833,1164
2632.4378550253564,1179
2634.232596647359,1201
2636.026963124488,1254
2637.8209547520187,1141
2639.6145718253065,1158
2641.407814639785,1164
2643.200683490966,1125
2644.9931786744414,1185
2646.7853004858807,1197
2648.577049221034,1186
2650.3684251757277,1108
2652.1594286458712,1158
2653.9500599274484,1175
2655.740319316525,1162
2657.5302071092437,1165
2659.3197236018286,1176
2661.10886909058,1189
2662.8976438718782,1165
2664.686048242183,1130
2666.4740824980327,1105
2668.2617469360443,1181
2670.0490418529134,1173
2671.8359675454153,1184
2673.622524310403,1154
2675.408712444811,1165
2677.1945322456495,1138
2678.979984010009,1131
2680.76506803506,1142
2682.5497846180497,1115
2684.334134056306,1134
2686.1181166472343,1115
2687.9017326883213,1162
2689.6849824771293,1158
2691.4678663113013,1177
2693.2503844885596,1181
2695.032537306705,1134
2696.8143250636167,1138
2698.5957480572542,1098
2700.3768065856534,1151
2702.1575009469316,1138
2703.937831439283,1127
2705.717798360982,1136
2707.4974020103837,1173
2709.276642685917,1090
2711.055520686095,1130
2712.834036309506,1155
2714.612189854819,1157
2716.389981620782,1156
2718.1674119062204,1181
2719.944481010041,1096
2721.721189231226,1131
2723.4975368688415,1163
2725.273524222027,1151
2727.0491515900053,1124
2728.824419272075,1118
2730.5993275676146,1107
2732.3738767760838,1129
2734.148067197016,1115
2735.921899130031,1144
2737.6953728748194,1173
2739.468488731156,1161
2741.2412469988926,1166
2743.0136479779617,1150
2744.785691968372,1109
2746.5573792702116,1116
2748.3287101836504,1127
2750.099685008934,1125
2751.870304046388,1129
2753.640567596418,1135
2755.4104759595057,1139
2757.1800294362156,1143
2758.949228327187,1095
2760.7180729331412,1092
2762.486563554877,1127
2764.254700493272,1095
2766.022484049284,1183
2767.789914523947,1118
2769.5569922183786,1161
2771.3237174337705,1144
2773.090090471394,1085
2774.8561116326036,1103
2776.6217812188274,1095
2778.3870995315756,1162
2780.1520668724356,1106
2781.9166835430747,1079
2783.6809498452394,1108
2785.444866080754,1144
2787.2084325515225,1075
2788.971649559527,1089
2790.73451740683,1083
2792.4970363955713,1100
2794.2592068279705,1117
2796.0210290063264,1179
2797.7825032330147,1195
2799.543629810493,1178
2801.304409041296,1122
2803.0648412280366,1106
2804.8249266734088,1159
2806.5846656801846,1123
2808.344058551212,1110
2810.1031055894246,1153
2811.8618070978273,1116
2813.6201633795085,1138
2815.378174737636,1132
2817.1358414754536,1176
2818.893163896285,1109
2820.6501423035334,1143
2822.4067770006814,1137
2824.1630682912883,1114
2825.9190164789957,1138
2827.6746218675207,1092
2829.429884760661,1176
2831.184805462294,1107
2832.9393842763743,1102
2834.693621506936,1141
2836.4475174580916,1122
2838.201072434034,1126
2839.954286739034,1130
2841.707160677441,1156
2843.459694553685,1124
2845.2118886722724,1113
2846.96374333779,1156
2848.7152588549034,1131
2850.4664355283567,1135
2852.217273662973,1185
2853.9677735636546,1156
2855.7179355353833,1139
2857.4677598832186,1083
2859.217246912299,1141
2860.9663969278427,1146
2862.715210235146,1190
2864.4636871395846,1173
2866.211827946614,1143
2867.9596329617652,1153
2869.7071024906536,1141
2871.4542368389684,1128
2873.20103631248,1116
2874.947501217038,1129
2876.6936318585695,1122
2878.4394285430812,1136
2880.1848915766604,1115
2881.9300212654707,1129
2883.6748179157553,1127
2885.4192818338374,1096
2887.1634133261173,1125
2888.907212699077,1106
2890.6506802592744,1172
2892.393816313348,1140
2894.1366211680142,1175
2895.8790951300693,1137
2897.621238506388,1144
2899.363051603925,1140
2901.1045347297118,1117
2902.8456881908596,1181
2904.58651229456,1120
2906.327007348081,1138
2908.067173658772,1176
2909.8070115340597,1191
2911.5465212814497,1141
2913.285703208527,1099
2915.0245576229563,1128
2916.7630848324807,1108
2918.5012851449196,1091
2920.2391588681758,1129
2921.976706310227,1125
2923.7139277791334,1133
2925.4508235830313,1129
2927.187394030137,1146
2928.923639428745,1124
2930.6595600872306,1123
2932.395156314046,1143
2934.1304284177218,1117
2935.8653767068713,1090
2937.6000014901815,1158
2939.3343030764227,1137
2941.068281774442,1117
2942.8019378931644,1127
2944.5352717415976,1185
2946.2682836288236,1167
2948.0009738640065,1165
2949.7333427563885,1123
2951.465390615289,1079
2953.1971177501086,1153
2954.9285244703265,1152
2956.6596110855,1143
2958.3903779052657,1129
2960.1208252393385,1125
2961.8509533975125,1100
2963.5807626896617,1115
2965.3102534257378,1098
2967.0394259157715,1106
2968.768280469873,1153
2970.496817398232,1136
2972.2250370111146,1113
2973.952939618869,1105
2975.6805255319196,1124
2977.4077950607707,1101
2979.134748516006,1140
2980.861386208289,1091
2982.587708448359,1084
2984.313715547037,1136
2986.039407815222,1161
2987.764785563891,1152
2989.489849104102,1135
2991.2145987469908,1132
2992.9390348037705,1123
2994.6631575857346,1124
2996.3869674042576,1115
2998.1104645707887,1073
2999.83364939686,1158
3001.5565221940783,1165
3003.2790832741334,1131
3005.0013329487924,1189
3006.7232715298996,1114
3008.4448993293804,1064
3010.166216659239,1162
3011.887223831558,1121
3013.607921158498,1142
3015.3283089522993,1147
3017.0483875252826,1149
3018.7681571898443,1124
3020.4876182584626,1103
3022.2067710436927,1120
3023.9256158581707,1134
3025.644153014609,1119
3027.362382825801,1114
3029.0803056046193,1126
3030.797921664012,1174
3032.5152313170106,1109
3034.2322348767225,1106
3035.9489326563353,1144
3037.665324969115,1141
3039.3814121284063,1206
3041.097194447633,1135
3042.812672240299,1106
3044.5278458199855,1110
3046.2427155003525,1129
3047.9572815951406,1134
3049.671544418167,1118
3051.38550428333,1090
3053.0991615046073,1154
3054.812516396051,1144
3056.5255692717974,1150
3058.2383204460575,1134
3059.9507702331257,1170
3061.662918947372,1116
3063.3747669032446,1054
3065.0863144152736,1136
3066.7975617980674,1097
3068.508509366309,1086
3070.219157434767,1127
3071.9295063182844,1095
3073.639556331785,1162
3075.3493077902704,1126
3077.058761008821,1087
3078.7679163025964,1141
3080.476773986837,1121
3082.1853343768594,1110
3083.89359778806,1083
3085.6015645359153,1129
3087.3092349359786,1152
3089.016609303884,1178
3090.7236879553434,1139
3092.4304712061476,1138
3094.136959372166,1140
3095.843152769349,1104
3097.5490517137237,1118
3099.2546565213966,1137
3100.959967508554,1144
3102.66498499146,1096
3104.3697092864577,1127
3106.0741407099695,1124
3107.778279578498,1083
3109.482126208622,1082
3111.1856809170004,1123
3112.8889440203716,1150
3114.5919158355528,1166
3116.294596679439,1154
3117.996986869006,1170
3119.6990867213062,1114
3121.4008965534726,1090
3123.102416682717,1108
3124.803647426329,1093
3126.5045891016784,1161
3128.205242026213,1133
3129.90560651746,1114
3131.605682893025,1144
3133.3054714705922,1124
3135.0049725679282,1158
3136.7041865028714,1176
3138.4031135933465,1102
3140.101754157353,1143
3141.800108512971,1134
3143.498176978357,1123
3145.1959598717494,1145
3146.8934575114636,1122
3148.5906702158954,1134
3150.2875983035183,1113
3151.9842420928853,1091
3153.680601902627,1124
3155.376678051456,1139
3157.07247085816,1158
3158.767980641609,1145
3160.463207720748,1138
3162.158152414606,1121
3163.8528150422862,1130
3165.5471959229726,1108
3167.2412953759303,1099
3168.9351137204976,1160
3170.628651276098,1104
3172.3219083622307,1126
3174.014885298474,1138
3175.707582404485,1132
3177.4000000000005,1158
3179.092138404835,1110
3180.7839979388846,1139
3182.47557892212,1105
3184.166881674594,1122
3185.8579065164386,1106
3187.5486537678626,1153
3189.2391237491547,1137
3190.9293167806827,1162
3192.6192331828934,1096
3194.3088732763117,1156
3195.998237381542,1140
3197.687325819268,1145
3199.376138910251,1146
3201.064676975334,1126
3202.7529403354347,1080
3204.4409293115523,1141
3206.1286442247647,1074
3207.816085396229,1159
3209.5032531471825,1105
3211.190147798936,1115
3212.8767696728846,1114
3214.5631190905015,1086
3216.2491963733373,1141
3217.9350018430214,1143
3219.6205358212637,1122
3221.305798629851,1138
3222.990790590651,1126
3224.6755120256103,1095
3226.359963256751,1128
3228.0441446061795,1114
3229.7280563960758,1117
3231.411698948703,1087
3233.0950725863995,1057
3234.778177631587,1048
3236.461014406761,1170
3238.1435832345005,1134
3239.8258844374595,1105
3241.507918338374,1078
3243.1896852600576,1155
3244.8711855254023,1066
3246.552419457381,1090
3248.233387379042,1156
3249.914089613516,1077
3251.59452648401,1104
3253.274698313813,1110
3254.95460542629,1102
3256.6342481448855,1160
3258.313626793125,1129
3259.9927416946084,1139
3261.6715931730196,1115
3263.3501815521176,1148
3265.0285071557437,1119
3266.706570307815,1095
3268.3843713323286,1128
3270.0619105533615,1184
3271.739188295068,1086
3273.4162048816834,1118
3275.0929606375184,1150
3276.769455886966,1102
3278.445690954498,1142
3280.1216661646613,1086
3281.797381842087,1127
3283.4728383114807,1117
3285.1480358976296,1113
3286.8229749253996,1166
3288.4976557197333,1129
3290.172078605655,1059
3291.846243908266,1127
3293.5201519527463,1101
3295.193803064357,1141
3296.8671975684374,1108
3298.5403357904024,1119
3300.21321805575,1072
3301.8858446900567,1114
3303.558216018975,1085
3305.23033236824,1132
3306.9021940636603,1116
3308.57380143113,1133
3310.2451547966184,1131
3311.916254486174,1145
3313.5871008259246,1104
3315.2576941420766,1078
3316.9280347609147,1123
3318.5981230088046,1089
3320.2679592121895,1102
3321.9375436975924,1094
3323.606876791612,1044
3325.27595882093,1106
3326.944790112305,1071
3328.6133709925753,1105
3330.2817017886573,1107
3331.949782827547,1133
3333.617614436319,1085
3335.2851969421245,1161
3336.952530672199,1115
3338.619615953853,1115
3340.286453114475,1163
3341.9530424815357,1106
3343.619384382583,1097
3345.2854791452437,1101
3346.951327097224,1136
3348.6169285663073,1082
3350.2822838803577,1129
3351.947393367319,1155
3353.61225735521,1090
3355.2768761721345,1110
3356.9412501462693,1096
3358.605379605873,1134
3360.2692648792827,1128
3361.9329062949146,1110
3363.596304181263,1079
