CollectionTime,9/19/2024 11:04:00 AM
ExposureUsed,3
CalibratedSpectrum
-962.7078968117929,983
-959.9714848408522,1032
-957.2358232597828,1062
-954.5009119013725,1043
-951.7667505983302,1100
-949.0333391832855,1107
-946.3006774887896,1040
-943.5687653473143,1080
-940.837602591253,1041
-938.1071890529199,1020
-935.3775245645503,1058
-932.6486089583007,1035
-929.9204420662485,1058
-927.1930237203925,1096
-924.4663537526524,1039
-921.7404319948689,1059
-919.0152582788041,1077
-916.2908324361409,1023
-913.5671542984834,1020
-910.8442236973568,1059
-908.1220404642074,998
-905.4006044304027,1054
-902.679915427231,1046
-899.959973285902,996
-897.2407778375464,971
-894.5223289132158,1012
-891.8046263438832,1023
-889.0876699604426,1032
-886.3714595937089,1041
-883.6559950744183,1037
-880.9412762332282,1007
-878.2273029007168,1024
-875.5140749073835,1014
-872.8015920836489,1034
-870.0898542598545,970
-867.3788612662631,1000
-864.6686129330585,979
-861.9591090903457,962
-859.2503495681506,1003
-856.5423341964203,985
-853.8350628050229,994
-851.1285352237478,954
-848.4227512823054,997
-845.7177108103272,975
-843.0134136373656,1013
-840.3098595928943,1040
-837.6070485063082,973
-834.9049802069229,982
-832.2036545239757,1006
-829.5030712866244,989
-826.8032303239481,972
-824.1041314649472,947
-821.4057745385428,993
-818.7081593735775,1027
-816.0112857988148,986
-813.3151536429393,1040
-810.6197627345566,999
-807.9251129021936,1005
-805.2312039742981,1001
-802.5380357792392,1000
-799.8456081453069,986
-797.1539209007124,971
-794.462973873588,1052
-791.772766891987,1046
-789.083299783884,993
-786.3945723771743,984
-783.7065844996748,975
-781.0193359791231,988
-778.3328266431781,962
-775.6470563194197,990
-772.9620248353489,1006
-770.2777320183878,1031
-767.5941776958798,1011
-764.9113616950891,983
-762.2292838432011,926
-759.5479439673222,960
-756.8673418944801,974
-754.1874774516235,1015
-751.5083504656222,971
-748.8299607632671,1004
-746.15230817127,1031
-743.475392516264,1054
-740.7992136248035,1005
-738.1237713233636,1005
-735.4490654383407,1017
-732.7750957960521,1033
-730.1018622227365,1044
-727.4293645445534,1026
-724.7576025875837,1075
-722.0865761778291,1042
-719.4162851412126,1069
-716.7467293035781,1080
-714.0779084906909,1072
-711.409822528237,1095
-708.7424712418238,1035
-706.0758544569796,1092
-703.4099719991541,1052
-700.7448236937178,1106
-698.0804093659622,1132
-695.4167288411002,1113
-692.7537819442656,1038
-690.0915685005134,1033
-687.4300883348199,1093
-684.7693412720819,1123
-682.1093271371178,1098
-679.4500457546669,1129
-676.7914969493897,1023
-674.1336805458676,1076
-671.4765963686034,1104
-668.8202442420206,1099
-666.1646239904642,1098
-663.5097354382001,1090
-660.8555784094151,1105
-658.2021527282176,1117
-655.5494582186366,1135
-652.8974947046223,1129
-650.2462620100463,1125
-647.5957599587009,1146
-644.9459883742998,1142
-642.2969470804776,1118
-639.6486359007902,1163
-637.0010546587141,1179
-634.3542031776476,1096
-631.7080812809096,1160
-629.0626887917401,1149
-626.4180255333008,1125
-623.7740913286734,1195
-621.1308860008619,1104
-618.4884093727904,1142
-615.8466612673046,1141
-613.2056415071715,1139
-610.5653499150785,1183
-607.9257863136347,1197
-605.28695052537,1152
-602.6488423727357,1145
-600.0114616781036,1180
-597.3748082637674,1227
-594.7388819519412,1274
-592.1036825647604,1201
-589.4692099242818,1176
-586.8354638524829,1184
-584.2024441712624,1190
-581.5701507024403,1232
-578.9385832677575,1237
-576.3077416888759,1185
-573.6776257873787,1223
-571.0482353847704,1138
-568.4195703024757,1147
-565.7916303618415,1169
-563.164415384135,1163
-560.5379251905453,1146
-557.9121596021815,1088
-555.2871184400748,1182
-552.6628015251767,1227
-550.0392086783606,1284
-547.4163397204204,1267
-544.794194472071,1266
-542.1727727539491,1262
-539.5520743866118,1247
-536.9320991905377,1279
-534.3128469861261,1327
-531.6943175936979,1292
-529.0765108334947,1353
-526.4594265256793,1472
-523.8430644903358,1656
-521.2274245474689,1841
-518.612506517005,1877
-515.9983102187913,1795
-513.3848354725959,1868
-510.77208209810846,1919
-508.16004991493924,1978
-505.5487387426199,1995
-502.9381484006032,2067
-500.3282787082628,2102
-497.71912948489364,2072
-495.1107005497117,1964
-492.5029917218539,1824
-489.8960028203786,1670
-487.28973366426493,1559
-484.68418407241325,1529
-482.07935386364494,1491
-479.47524285670266,1461
-476.87185087025,1424
-474.2691777228715,1453
-471.66722323307334,1409
-469.0659872192821,1429
-466.4654694998459,1477
-463.86566989303384,1395
-461.26658821703614,1407
-458.66822428996414,1434
-456.07057792985,1479
-453.4736489546475,1378
-450.877437182231,1355
-448.28194243039627,1396
-445.68716451686,1389
-443.09310325926003,1380
-440.49975847515555,1371
-437.9071299820263,1355
-435.31521759727354,1355
-432.72402113821954,1398
-430.13354042210767,1441
-427.5437752661022,1416
-424.95472548728867,1470
-422.36639090267386,1435
-419.7787713291855,1525
-417.1918665836721,1487
-414.60567648290385,1546
-412.0202008435715,1581
-409.4354394822874,1567
-406.8513922155845,1533
-404.26805885991723,1469
-401.685439231661,1548
-399.103533147112,1497
-396.522340422488,1488
-393.9418608739278,1449
-391.3620943174908,1466
-388.7830405691583,1355
-386.2046994448317,1354
-383.6270707603344,1291
-381.05015433141045,1225
-378.473949973725,1140
-375.8984575028645,1060
-373.32367673433623,994
-370.74960748356875,918
-368.1762495659117,829
-365.60360279663576,797
-363.03166699093265,693
-360.4604419639154,642
-357.8899275306178,632
-355.32012350599507,630
-352.7510297049233,586
-350.1826459421999,602
-347.61497203254316,562
-345.04800779059235,577
-342.4817530309082,602
-339.91620756797226,633
-337.35137121618743,598
-334.7872437898774,539
-332.22382510328725,541
-329.66111497058273,545
-327.09911320585127,508
-324.53781962310075,546
-321.9772340362607,511
-319.4173562591816,499
-316.8581861056348,559
-314.2997233893127,562
-311.7419679238294,582
-309.1849195227194,570
-306.62857799943856,580
-304.0729431673641,585
-301.51801483979375,570
-298.963792829947,565
-296.41027695096386,607
-293.85746701590574,628
-291.3053628377552,651
-288.7539642294155,667
-286.2032710037115,679
-283.65328297338897,720
-281.1039999511146,754
-278.5554217494762,687
-276.007548180983,640
-273.4603790580651,665
-270.9139141930734,656
-268.3681533982807,704
-265.8230964858798,709
-263.27874326798565,744
-260.7350935566336,709
-258.1921471637804,777
-255.6499039013039,970
-253.10836358100266,861
-250.56752601459698,768
-248.02739101372765,805
-245.48795838995704,822
-242.94922795476816,807
-240.41119951956557,757
-237.8738728956746,760
-235.33724789434166,847
-232.80132432673452,902
-230.2661020039418,830
-227.73158073697357,864
-225.19776033676033,920
-222.66464061415422,957
-220.1322213799284,976
-217.60050244477725,857
-215.06948361931552,886
-212.53916471408013,1102
-210.00954553952818,1110
-207.48062590603843,1021
-204.9524056239104,853
-202.4248845033651,926
-199.8980623545441,1105
-197.37193898751036,1163
-194.84651421224817,1040
-192.32178783866232,914
-189.79775967657952,975
-187.27442953574644,1200
-184.7517972258321,1288
-182.2298625564256,996
-179.7086253370378,907
-177.18808537710026,1108
-174.66824248596583,1265
-172.14909647290835,1255
-169.6306471471229,1201
-167.11289431772548,1126
-164.59583779375328,1167
-162.07947738416453,1387
-159.5638128978386,1454
-157.04884414357605,1612
-154.53457093009854,1563
-152.02099306604828,1247
-149.50811035998936,1204
-146.99592262040665,1546
-144.48442965570587,1785
-141.97363127421409,2006
-139.46352728417958,2010
-136.95411749377126,2004
-134.44540171107985,1719
-131.93737974411636,1388
-129.43005140081357,1405
-126.92341648902493,2162
-124.41747481652521,2798
-121.91222619101006,3350
-119.40767042009657,3173
-116.90380731132257,2881
-114.40063667214702,3224
-111.8981583099503,3624
-109.3963720320337,4973
-106.89527764561933,8050
-104.39487495785067,10376
-101.89516377579241,14606
-99.39614390642998,19061
-96.89781515667039,22636
-94.40017733334128,25365
-91.90323024319173,22738
-89.40697369289148,14072
-86.91140748903172,8480
-84.41653143812482,6878
-81.92234534660395,11693
-79.42884902082358,20018
-76.93604226705907,25821
-74.4439248915071,25608
-71.95249670028534,21079
-69.46175749943245,14669
-66.97170709490854,11091
-64.48234529259423,10229
-61.99367189829195,10647
-59.50568671772464,9323
-57.01838955653636,12641
-54.53178022029283,14801
-52.045858514480074,14023
-49.560624244506016,18887
-47.07607721569923,21306
-44.59221723330904,20314
-42.10904410250669,20070
-39.62655762838392,19990
-37.14475761595372,24359
-34.66364387015028,26291
-32.18321619582866,32369
-29.70347439776515,33206
-27.224418280657005,34102
-24.74604764912317,39886
-22.26836230770266,60986
-19.7913620608565,65033
-17.315046712966478,65033
-14.83941606833514,65033
-12.36446993118659,65033
-9.89020810566592,65033
-7.416630395839093,65033
-4.94373660569363,65033
-2.471526539137585,65033
-6.821210263296962E-13,65033
2.47084320796705,65033
4.941003281093458,65033
7.410480415786196,65033
9.879274808531363,65033
12.347386655893956,65033
14.814816154518212,65033
17.28156350112681,65033
19.74762889252179,65033
22.21301252558385,25551
24.67771459727237,7589
27.141735304626195,8116
29.605074844762612,6878
32.06773341487792,6286
34.52971121224755,6818
36.99100843422559,6559
39.45162527824516,5379
41.91156194181792,6418
44.370818622535126,5188
46.82939551806646,4500
49.287292826160524,7934
51.74451074464503,7751
54.201049471426245,4902
56.65690920448981,3008
59.112090141899785,2178
61.56659248179983,2697
64.02041642241159,2931
66.4735621620365,3522
68.92602989905402,4116
71.37781983192338,4207
73.82893215918205,3148
76.27936707944684,2382
78.72912479141326,2725
81.17820549385567,2845
83.62660938562783,2500
86.07433666566146,2071
88.5213875329681,1975
90.96776218663751,2030
93.41346082583925,2432
95.85848364982041,2879
98.30283085790859,2402
100.7465026495089,2189
103.18949922410604,1816
105.63182078126385,1565
108.07346752062438,1401
110.51443964190923,1380
112.95473734491827,1515
115.39436082953114,1553
117.83331029570547,1570
120.27158594347827,1809
122.7091879729652,1725
125.1461165843615,1623
127.58237197794062,1434
130.01795435405518,1612
132.4528639131364,1546
134.88710085569494,1398
137.32066538231982,1448
139.75355769367923,1490
142.1857779905207,1340
144.61732647366978,1360
147.04820334403132,1352
149.47840880258934,1332
151.90794305040674,1454
154.33680628862487,1698
156.76499871846443,1766
159.19252054122433,1887
161.61937195828352,2017
164.04555317109896,2305
166.47106438120693,2650
168.89590579022217,2901
171.320077599839,3045
173.7435800118302,3091
176.16641322804742,3315
178.58857745042144,3418
181.01007288096173,3647
183.43089972175687,3527
185.85105817497413,3615
188.27054844285988,3554
190.6893707277394,3537
193.10752523201643,3686
195.5250121581745,3892
197.9418317087751,3899
200.3579840864594,3835
202.7734694939469,3919
205.18828813403627,4054
207.6024402096051,4128
210.01592592360964,3883
212.42874547908548,4021
214.84089907914665,3794
217.2523869269868,3853
219.66320922587727,3818
222.0733661791695,3738
224.48285799029293,3863
226.8916848627572,3883
229.29984700014882,3925
231.7073446061355,3862
234.11417788446204,4057
236.520347038953,4013
238.92585227351185,4172
241.33069379212054,4256
243.73487179884035,4403
246.1383864978112,4185
248.541238093252,4427
250.9434267894609,4405
253.34495279081432,4232
255.74581630176783,4246
258.1460175268563,4330
260.54555667069314,4462
262.9444339379703,4232
265.3426495334594,4275
267.7402036620107,4259
270.1370965285529,3946
272.53332833809407,3932
274.9288992957214,3759
277.32380960660055,3592
279.718059475976,3659
282.1116491091717,3604
284.5045787115897,3621
286.89684848871195,3526
289.2884586460981,3568
291.67940938938807,3544
294.0697009242996,3607
296.4593334566299,3636
298.84830719225477,3552
301.23662233712923,3587
303.6242790972866,3487
306.01127767884,3477
308.39761828798066,3347
310.78330113097934,3277
313.16832641418534,3288
315.5526943440269,3305
317.9364051270112,3299
320.3194589697242,3358
322.70185607883093,3412
325.0835966610754,3180
327.4646809232805,3123
329.8451090723478,3143
332.2248813152577,3132
334.6039978590701,3151
336.9824589109231,3095
339.36026467803447,3046
341.7374153677,2917
344.113911187295,3024
346.48975234427337,3027
348.8649390461686,3001
351.2394715005918,3006
353.61334991523415,3003
355.9865744978655,3017
358.35914545633375,2946
360.73106299856715,2934
363.10232733257146,2905
365.47293866643247,2856
367.84289720831396,2884
370.2122031664593,2982
372.5808567491905,2875
374.9488581649083,2822
377.31620762209275,2868
379.6829053293021,2832
382.0489514951745,2818
384.4143463284262,2863
386.7790900378528,2785
389.14318283232853,2764
391.50662492080653,2815
393.86941651231916,2859
396.23155781597745,2928
398.5930490409713,2876
400.9538903965696,2832
403.3140820921202,2754
405.6736243370498,2780
408.03251734086336,2713
410.3907613131465,2685
412.74835646356166,2756
415.10530300185144,2749
417.4616011378372,2756
419.81725108141893,2722
422.1722530425758,2692
424.5266072313656,2759
426.880313857925,2681
429.2333731324701,2753
431.58578526529516,2706
433.9375504667738,2729
436.2886689473588,2649
438.63914091758113,2775
440.9889665880513,2793
443.33814616945835,2645
445.68667987257015,2720
448.03456790823395,2626
450.3818104873759,2636
452.72840782100013,2635
455.07436012019105,2649
457.41966759611057,2636
459.7643304600007,2660
462.10834892318155,2628
464.4517231970525,2589
466.79445349309174,2718
469.1365400228566,2715
471.4779829979826,2592
473.81878263018564,2590
476.15893913125876,2737
478.4984527130747,2726
480.8373235875855,2763
483.17555196682144,2821
485.5131380628919,2869
487.8500820879857,3000
490.1863842543697,2954
492.52204477439034,3263
494.8570638604725,3532
497.1914417251204,3797
499.52517858091653,3956
501.85827464052306,4309
504.19073011668036,4332
506.5225452222086,4307
508.85372017000566,4348
511.18425517304956,4472
513.514150444396,5513
515.8434061971808,7008
518.1720226446176,7862
520.4999999999999,7882
522.8273384766991,7630
525.1540382881666,7243
527.480099647932,6427
529.8055227696037,5200
532.1303078668694,3922
534.454455153496,3255
536.777964843328,2915
539.1008371502907,2893
541.4230722883866,2834
543.744670471698,2734
546.0656319143858,2747
548.3859568306899,2713
550.7056454349294,2610
553.0246979415016,2771
555.3431145648834,2679
557.6608955196306,2704
559.978041020377,2642
562.2945512818363,2679
564.6104265188006,2708
566.9256669461412,2735
569.2402727788082,2643
571.5542442318302,2781
573.8675815203156,2740
576.1802848594508,2718
578.4923544645015,2740
580.8037905508126,2763
583.114593333807,2660
585.4247630289875,2689
587.7342998519354,2669
590.0432040183106,2775
592.3514757438526,2687
594.6591152443794,2689
596.9661227357875,2678
599.2724984340531,2705
601.578242555231,2737
603.8833553154542,2600
606.1878369309362,2544
608.4916876179676,2618
610.7949075929192,2663
613.0974970722403,2692
615.3994562724587,2596
617.7007854101818,2600
620.0014847020951,2660
622.3015543649641,2792
624.6009946156324,2699
626.8998056710224,2703
629.1979877481361,2700
631.4955410640538,2678
633.7924658359349,2638
636.0887622810175,2703
638.3844306166192,2722
640.6794710601358,2768
642.9738838290426,2726
645.2676691408932,2763
647.5608272133207,2779
649.853358264037,2841
652.1452625108324,2763
654.4365401715764,2764
656.7271914642178,2753
659.0172166067838,2743
661.3066158173809,2735
663.5953893141935,2665
665.8835373154867,2815
668.1710600396028,2757
670.4579577049639,2794
672.7442305300709,2725
675.0298787335033,2733
677.3149025339197,2747
679.599302150058,2804
681.8830778007342,2716
684.1662297048437,2771
686.4487580813608,2776
688.7306631493387,2746
691.0119451279091,2709
693.2926042362834,2673
695.5726406937516,2644
697.8520547196814,2734
700.1308465335215,2667
702.4090163547982,2663
704.6865644031171,2687
706.9634908981619,2768
709.2397960596965,2695
711.5154801075631,2781
713.7905432616823,2711
716.0649857420548,2738
718.3388077687592,2712
720.612009561953,2690
722.8845913418733,2673
725.1565533288352,2596
727.427895743234,2711
729.6986188055427,2643
731.9687227363137,2579
734.238207756178,2589
736.5070740858458,2679
738.7753219461066,2680
741.0429515578281,2708
743.3099631419569,2702
745.5763569195191,2686
747.8421331116193,2669
750.1072919394409,2648
752.3718336242467,2644
754.6357583873777,2656
756.8990664502545,2704
759.1617580343765,2658
761.423833361321,2686
763.6852926527457,2664
765.9461361303862,2714
768.206364016058,2657
770.4659765316536,2679
772.7249738991469,2677
774.9833563405886,2753
777.2411240781092,2746
779.4982773339183,2619
781.7548163303044,2679
784.010741289634,2681
786.2660524343538,2727
788.5207499869881,2732
790.7748341701416,2779
793.0283052064964,2800
795.2811633188143,2725
797.5334087299362,2677
799.7850416627813,2705
802.0360623403484,2816
804.2864709857143,2691
806.5362678220353,2797
808.7854530725468,2768
811.0340269605625,2807
813.2819897094754,2658
815.5293415427581,2706
817.77608268396,2748
820.0222133567116,2701
822.2677337847211,2750
824.5126441917765,2696
826.7569448017433,2717
829.0006358385675,2758
831.2437175262731,2867
833.4861900889629,2731
835.7280537508192,2766
837.9693087361026,2704
840.2099552691533,2758
842.4499935743896,2771
844.689423876309,2756
846.9282463994886,2766
849.1664613685833,2816
851.4040690083276,2759
853.6410695435349,2783
855.877463199097,2670
858.1132501999847,2848
860.3484307712487,2756
862.5830051380175,2752
864.8169735254988,2811
867.0503361589791,2763
869.2830932638243,2671
871.5152450654786,2876
873.7467917894654,2765
875.9777336613873,2752
878.2080709069252,2787
880.4378037518389,2835
882.666932421968,2791
884.8954571432301,2928
887.1233781416219,2911
889.3506956432192,2881
891.5774098741766,2888
893.803521060728,2942
896.0290294291852,2879
898.2539352059397,2777
900.4782386174619,2848
902.7019398903011,2878
904.925039251085,2806
907.147536926521,2851
909.3694331433943,2689
911.59072812857,2814
913.8114221089921,2825
916.0315153116827,2764
918.2510079637437,2776
920.4699002923547,2753
922.6881925247761,2830
924.905884888345,2747
927.1229776104793,2731
929.3394709186747,2718
931.555365040506,2880
933.7706602036275,2831
935.9853566357709,2868
938.1994545647489,2898
940.4129542184515,3019
942.6258558248488,2902
944.8381596119883,2969
947.0498658079974,2916
949.2609746410825,2872
951.4714863395287,2868
953.6814011316998,2892
955.8907192460387,2846
958.0994409110671,2886
960.3075663553858,2873
962.5150958076741,2904
964.7220294966913,2915
966.928367651274,2957
969.1341105003388,2749
971.3392582728806,2867
973.5438111979742,2842
975.747769504772,2792
977.9511334225061,2835
980.153903180487,2755
982.3560790081052,2835
984.5576611348289,2704
986.7586497902058,2703
988.9590452038618,2820
991.158847605503,2755
993.3580572249133,2654
995.5566742919558,2704
997.7546990365728,2744
999.952131688785,2615
1002.1489724786926,2602
1004.3452216364743,2556
1006.5408793923874,2429
1008.7359459767691,2463
1010.9304216200343,2553
1013.1243065526781,2461
1015.3176010052733,2519
1017.510305208472,2454
1019.7024193930064,2416
1021.8939437896848,2479
1024.0848786293977,2465
1026.2752241431122,2534
1028.4649805618747,2491
1030.6541481168115,2430
1032.842727039127,2432
1035.0307175601051,2418
1037.2181199111074,2381
1039.4049343235752,2381
1041.591161029029,2408
1043.7768002590683,2486
1045.9618522453698,2498
1048.1463172196918,2457
1050.3301954138697,2456
1052.513487059818,2455
1054.69619238953,2490
1056.8783116350783,2434
1059.0598450286152,2426
1061.2407928023704,2418
1063.4211551886528,2466
1065.6009324198508,2421
1067.780124728432,2351
1069.9587323469414,2449
1072.1367555080046,2377
1074.314194444325,2430
1076.4910493886855,2461
1078.667320573947,2473
1080.843008233051,2313
1083.0181125990161,2374
1085.1926339049414,2398
1087.3665723840027,2368
1089.5399282694575,2390
1091.7127017946405,2332
1093.8848931929647,2374
1096.0565026979243,2371
1098.2275305430899,2344
1100.3979769621128,2342
1102.567842188722,2410
1104.737126456726,2287
1106.9058300000124,2320
1109.0739530525475,2244
1111.2414958483764,2361
1113.4084586216231,2353
1115.5748416064907,2397
1117.7406450372605,2322
1119.9058691482942,2327
1122.0705141740304,2342
1124.2345803489884,2327
1126.3980679077658,2349
1128.5609770850388,2321
1130.7233081155623,2299
1132.8850612341707,2268
1135.0462366757774,2357
1137.2068346753745,2304
1139.3668554680326,2349
1141.526299288901,2353
1143.68516637321,2360
1145.8434569562655,2339
1148.001171273455,2287
1150.158309560244,2254
1152.3148720521767,2364
1154.470858984876,2256
1156.626270594044,2319
1158.7811071154629,2305
1160.9353687849912,2367
1163.089055838569,2281
1165.242168512213,2330
1167.3947070420209,2310
1169.5466716641677,2328
1171.6980626149075,2333
1173.8488801305748,2323
1175.9991244475814,2336
1178.1487958024186,2308
1180.2978944316555,2364
1182.4464205719428,2268
1184.5943744600072,2317
1186.7417563326567,2308
1188.8885664267755,2263
1191.0348049793297,2379
1193.1804722273619,2309
1195.325568407995,2290
1197.4700937584303,2308
1199.614048515948,2393
1201.7574329179074,2309
1203.900247201746,2348
1206.042491604982,2320
1208.1841663652099,2313
1210.3252717201053,2262
1212.465807907422,2382
1214.6057751649923,2409
1216.7451737307279,2364
1218.8840038426192,2302
1221.0222657387353,2391
1223.1599596572241,2359
1225.2970858363137,2396
1227.4336445143094,2408
1229.5696359295966,2308
1231.705060320639,2401
1233.8399179259786,2416
1235.9742089842384,2429
1238.107933734118,2462
1240.2410924143974,2441
1242.373685263935,2391
1244.5057125216676,2405
1246.6371744266116,2335
1248.7680712178621,2412
1250.898403134593,2406
1253.028170416058,2428
1255.1573733015875,2469
1257.2860120305932,2431
1259.4140868425648,2342
1261.54159797707,2390
1263.6685456737569,2412
1265.7949301723515,2414
1267.9207517126597,2445
1270.046010534565,2421
1272.1707068780306,2510
1274.2948409830983,2426
1276.4184130898889,2458
1278.541423438603,2486
1280.6638722695184,2516
1282.785759822993,2457
1284.9070863394636,2491
1287.0278520594447,2464
1289.1480572235314,2464
1291.2677020723963,2473
1293.3867868467923,2547
1295.5053117875495,2570
1297.623277135579,2598
1299.740683131868,2564
1301.8575300174857,2557
1303.973818033578,2630
1306.0895474213703,2561
1308.2047184221678,2649
1310.3193312773528,2580
1312.4333862283888,2652
1314.5468835168163,2609
1316.659823384255,2570
1318.7722060724045,2708
1320.8840318230418,2680
1322.9953008780249,2712
1325.1060134792888,2561
1327.2161698688478,2597
1329.3257702887959,2662
1331.4348149813054,2609
1333.5433041886276,2638
1335.6512381530933,2589
1337.7586171171101,2587
1339.8654413231675,2615
1341.9717110138317,2579
1344.0774264317488,2617
1346.1825878196432,2564
1348.2871954203192,2651
1350.3912494766587,2605
1352.4947502316231,2618
1354.5976979282532,2593
1356.7000928096686,2588
1358.8019351190665,2584
1360.9032250997243,2579
1363.0039629949988,2563
1365.1041490483235,2574
1367.2037835032133,2591
1369.3028666032606,2615
1371.401398592137,2637
1373.4993797135926,2570
1375.5968102114575,2665
1377.6936903296396,2629
1379.7900203121262,2623
1381.8858004029835,2509
1383.9810308463561,2631
1386.075711886469,2613
1388.1698437676241,2571
1390.2634267342032,2567
1392.356461030667,2780
1394.4489469015557,2713
1396.5408845914872,2624
1398.6322743451592,2643
1400.7231164073469,2689
1402.813411022907,2652
1404.903158436773,2609
1406.9923588939578,2820
1409.0810126395531,2706
1411.1691199187303,2761
1413.2566809767386,2791
1415.343696058907,2771
1417.4301654106425,2915
1419.5160892774315,2816
1421.6014679048399,2794
1423.6863015385125,2824
1425.7705904241707,2908
1427.8543348076178,2877
1429.9375349347342,2877
1432.0201910514802,2851
1434.102303403894,2951
1436.1838722380944,2882
1438.2648978002767,3016
1440.3453803367174,3031
1442.4253200937692,2934
1444.5047173178677,2989
1446.5835722555234,2987
1448.6618851533285,3165
1450.739656257952,3082
1452.8168858161434,3171
1454.8935740747306,3246
1456.96972128062,3301
1459.045327680797,3383
1461.120393522327,3360
1463.1949190523528,3446
1465.2689045180973,3494
1467.3423501668608,3556
1469.415256246024,3585
1471.4876230030463,3597
1473.559450685465,3600
1475.6307395408976,3713
1477.7014898170391,3871
1479.771701761665,3880
1481.8413756226287,3981
1483.9105116478618,3977
1485.9791100853772,4021
1488.0471711832643,4077
1490.1146951896926,4121
1492.1816823529098,4148
1494.2481329212433,4207
1496.3140471430984,4248
1498.3794252669609,4372
1500.4442675413939,4247
1502.5085742150404,4445
1504.572345536622,4449
1506.6355817549388,4390
1508.6982831188702,4417
1510.7604498773744,4522
1512.8220822794883,4594
1514.8831805743293,4612
1516.9437450110909,4785
1519.003775839048,4728
1521.0632733075522,4844
1523.1222376660367,4885
1525.1806691640113,4926
1527.2385680510652,4985
1529.2959345768668,4990
1531.3527689911643,5058
1533.4090715437833,5182
1535.4648424846291,5238
1537.5200820636855,5252
1539.5747905310159,5199
1541.6289681367616,5403
1543.6826151311434,5436
1545.7357317644614,5590
1547.7883182870937,5629
1549.8403749494987,5770
1551.8919020022113,5932
1553.9428996958477,6035
1555.9933682811015,5995
1558.0433080087469,6138
1560.0927191296346,6257
1562.1416018946961,6260
1564.1899565549415,6145
1566.2377833614592,6011
1568.2850825654164,5864
1570.3318544180606,5742
1572.3780991707158,5435
1574.423817074788,5444
1576.4690083817595,5185
1578.5136733431923,4892
1580.5578122107272,4741
1582.601425236085,4495
1584.6445126710646,4308
1586.6870747675434,4148
1588.7291117774776,3971
1590.7706239529034,3825
1592.8116115459347,3720
1594.8520748087658,3606
1596.8920139936686,3500
1598.9314293529933,3349
1600.9703211391711,3258
1603.008689604711,3008
1605.0465350022005,3176
1607.0838575843068,3022
1609.1206576037753,2992
1611.1569353134305,3016
1613.1926909661765,2764
1615.2279248149953,2801
1617.2626371129481,2810
1619.2968281131757,2668
1621.3304980688963,2677
1623.3636472334088,2657
1625.39627586009,2644
1627.428384202396,2687
1629.459972513861,2576
1631.4910410480993,2620
1633.5215900588028,2566
1635.551619799744,2438
1637.5811305247717,2548
1639.6101224878166,2406
1641.6385959428862,2440
1643.6665511440683,2510
1645.693988345528,2447
1647.7209078015112,2421
1649.7473097663405,2447
1651.7731944944203,2424
1653.7985622402307,2395
1655.823413258333,2465
1657.847747803366,2345
1659.8715661300494,2427
1661.8948684931793,2345
1663.9176551476316,2411
1665.9399263483624,2421
1667.9616823504057,2412
1669.982923408873,2421
1672.0036497789574,2290
1674.0238617159293,2374
1676.043559475138,2361
1678.0627433120121,2309
1680.081413482059,2339
1682.0995702408654,2345
1684.117213844096,2371
1686.134344547495,2321
1688.1509626068864,2346
1690.1670682781705,2312
1692.182661817329,2297
1694.1977434804217,2383
1696.2123135235875,2434
1698.226372203043,2363
1700.2399197750851,2389
1702.2529564960905,2334
1704.2654826225112,2348
1706.277498410882,2320
1708.2890041178139,2276
1710.2999999999988,2288
1712.3104863142066,2333
1714.3204633172854,2303
1716.329931266163,2332
1718.3388904178469,2243
1720.3473410294214,2219
1722.3552833580516,2242
1724.3627176609807,2225
1726.3696441955308,2247
1728.3760632191033,2283
1730.3819749891782,2267
1732.3873797633146,2190
1734.3922777991502,2283
1736.3966693544012,2189
1738.4005546868639,2176
1740.4039340544127,2170
1742.406807715001,2213
1744.4091759266616,2219
1746.4110389475054,2249
1748.4123970357223,2151
1750.413250449582,2193
1752.4135994474318,2206
1754.4134442876993,2212
1756.4127852288902,2173
1758.4116225295893,2201
1760.4099564484595,2093
1762.407787244244,2146
1764.405115175764,2075
1766.4019405019203,2045
1768.3982634816916,2157
1770.3940843741357,2060
1772.3894034383907,2082
1774.3842209336717,2128
1776.378537119274,2075
1778.372352254571,2102
1780.3656665990156,2150
1782.3584804121397,2128
1784.3507939535534,2107
1786.3426074829463,2091
1788.3339212600863,2085
1790.3247355448211,2049
1792.3150505970766,2003
1794.3048666768573,2137
1796.2941840442477,2188
1798.2830029594106,2106
1800.2713236825884,2042
1802.2591464741004,2046
1804.2464715943465,2070
1806.2332993038058,1985
1808.2196298630352,2018
1810.2054635326708,2103
1812.190800573428,2086
1814.175641246101,2094
1816.1599858115628,2077
1818.1438345307652,2101
1820.127187664738,2019
1822.1100454745924,2074
1824.092408221516,1990
1826.0742761667766,1973
1828.055649571721,1986
1830.0365286977735,2094
1832.0169138064398,2092
1833.9968051593014,2053
1835.9762030180214,2061
1837.9551076443408,2027
1839.9335193000788,2052
1841.9114382471344,2015
1843.888864747485,2002
1845.8657990631878,1978
1847.842241456378,1965
1849.8181921892697,2015
1851.7936515241558,1979
1853.7686197234098,2013
1855.7430970494815,1970
1857.7170837649014,2010
1859.6905801322787,1935
1861.6635864143004,2045
1863.6361028737338,2037
1865.608129773424,2100
1867.5796673762961,2074
1869.5507159453537,2000
1871.521275743678,2000
1873.4913470344313,1989
1875.4609300808534,2043
1877.4300251462632,2059
1879.3986324940588,2052
1881.366752387717,2048
1883.3343850907936,1998
1885.3015308669228,2012
1887.268189979819,2016
1889.2343626932739,2105
1891.2000492711595,2056
1893.1652499774254,2043
1895.1299650761011,2008
1897.0941948312952,2074
1899.0579395071945,2080
1901.0211993680641,2059
1902.98397467825,2077
1904.9462657021745,2036
1906.9080727043415,2010
1908.869395949332,2051
1910.8302357018065,2078
1912.790592226504,1990
1914.7504657882428,1997
1916.7098566519212,2017
1918.6687650825133,1952
1920.6271913450764,2083
1922.5851357047422,1912
1924.5425984267245,1951
1926.499579776314,2046
1928.4560800188833,1991
1930.4120994198802,2037
1932.367638244833,1963
1934.32269675935,2087
1936.2772752291175,1928
1938.231373919899,1990
1940.1849930975404,1965
1942.1381330279637,1999
1944.0907939771696,2041
1946.0429762112412,1976
1947.9946799963363,1955
1949.9459055986945,1945
1951.896653284633,2009
1953.8469233205478,2010
1955.7967159729142,1950
1957.7460315082863,1975
1959.6948701932974,1972
1961.6432322946594,2086
1963.5911180791632,1960
1965.5385278136787,1981
1967.4854617651545,1960
1969.4319202006182,1986
1971.377903387176,2008
1973.3234115920136,1932
1975.268445082395,2010
1977.2130041256642,1951
1979.1570889892423,1983
1981.1006999406304,1908
1983.04383724741,1921
1984.986501177238,1918
1986.928691997853,1907
1988.8704099770712,1984
1990.811655382789,1919
1992.7524284829801,1923
1994.692729545698,1904
1996.6325588390755,1878
1998.5719166313224,1969
2000.5108031907307,1937
2002.4492187856677,1860
2004.387163684583,1906
2006.3246381560011,1912
2008.2616424685298,1927
2010.1981768908527,1844
2012.1342416917332,1862
2014.069837140014,1888
2016.0049635046162,1881
2017.9396210545406,1880
2019.8738100588666,1894
2021.8075307867502,1859
2023.740783507431,1847
2025.6735684902228,1885
2027.6058860045214,1866
2029.5377363198004,1843
2031.4691197056118,1900
2033.4000364315875,1856
2035.3304867674374,1923
2037.260470982952,1834
2039.189989347998,1855
2041.1190421325232,1845
2043.047629606554,1903
2044.9757520401945,1828
2046.9034097036288,1924
2048.8306028671195,1919
2050.7573318010086,1887
2052.683596775716,1844
2054.609398061742,1882
2056.5347359296647,1859
2058.4596106501403,1796
2060.384022493906,1828
2062.3079717317764,1889
2064.231458634646,1754
2066.1544834734873,1896
2068.077046519352,1901
2069.99914804337,1885
2071.9207883167524,1873
2073.8419676107865,1887
2075.7626861968406,1867
2077.6829443463607,1843
2079.6027423308715,1885
2081.522080421977,1841
2083.440958891362,1900
2085.359378010786,1877
2087.2773380520907,1872
2089.194839287196,1829
2091.111881988101,1862
2093.0284664268825,1904
2094.9445928756973,1853
2096.86026160678,1814
2098.775472892446,1856
2100.690227005088,1822
2102.604524217178,1853
2104.5183648012676,1882
2106.431749029985,1881
2108.34467717604,1842
2110.2571495122206,1856
2112.169166311393,1908
2114.080727846503,1840
2115.9918343905747,1914
2117.902486216711,1838
2119.8126835980956,1841
2121.722426807987,1858
2123.6317161197285,1941
2125.5405518067364,1894
2127.448934142509,1937
2129.356863400624,1936
2131.264339854737,1948
2133.1713637785815,1926
2135.077935445972,1929
2136.9840551308002,1936
2138.889723107037,1943
2140.7949396487334,1912
2142.699705030018,1917
2144.6040195250994,1827
2146.507883408264,1881
2148.4112969538774,1957
2150.3142604363848,1918
2152.2167741303097,1842
2154.1188383102535,1895
2156.0204532508997,1959
2157.9216192270064,1905
2159.822336513414,1930
2161.7226053850413,1908
2163.622426116884,1905
2165.5217989840185,1918
2167.4207242616,1845
2169.319202224862,1912
2171.2172331491165,1941
2173.1148173097563,1914
2175.0119549822507,1903
2176.90864644215,2032
2178.8048919650823,2025
2180.7006918267534,1994
2182.596046302952,1944
2184.4909556695407,1951
2186.3854202024645,1990
2188.279440177746,1987
2190.173015871487,1981
2192.066147559868,1909
2193.958835519149,1949
2195.851080025667,1930
2197.7428813558417,1950
2199.6342397861667,1910
2201.5251555932186,1898
2203.415629053651,1970
2205.3056604441986,1973
2207.19525004167,1916
2209.084398122958,1908
2210.9731049650327,1916
2212.861370844941,2005
2214.749196039812,2017
2216.636580826851,1903
2218.523525483344,1944
2220.410030286655,2011
2222.296095514226,1949
2224.1817214435805,1925
2226.066908352319,2010
2227.951656518121,2012
2229.835966218746,1970
2231.71983773203,1910
2233.6032713358913,2019
2235.486267308324,2010
2237.3688259274036,1936
2239.2509474712824,1908
2241.132632218193,1947
2243.013880446447,2011
2244.8946924344323,1942
2246.7750684606203,1996
2248.6550088035574,1997
2250.534513741871,1937
2252.413583554265,1905
2254.292218519526,1962
2256.170418916517,1966
2258.0481850241786,1932
2259.925517121534,1985
2261.8024154876825,1980
2263.678880401803,1991
2265.5549121431536,1949
2267.430510991071,1938
2269.305677224971,2027
2271.180411124348,1935
2273.0547129687766,1970
2274.9285830379076,1982
2276.8020216114737,1988
2278.6750289692845,1938
2280.5476053912294,1928
2282.4197511572766,1935
2284.2914665474727,2006
2286.162751841943,2005
2288.0336073208937,2012
2289.904033264608,1954
2291.774029953448,1996
2293.6435976678554,2008
2295.5127366883517,1928
2297.381447295534,1956
2299.2497297700825,1929
2301.1175843927526,1942
2302.9850114443825,1905
2304.852011205885,1842
2306.7185839582553,1807
2308.5847299825664,1813
2310.4504495599676,1758
2312.3157429716925,1799
2314.1806104990483,1813
2316.0450524234247,1846
2317.9090690262888,1794
2319.772660589186,1797
2321.635827393742,1814
2323.498569721661,1810
2325.3608878547248,1789
2327.2227820747967,1765
2329.0842526638157,1756
2330.945299903803,1782
2332.805924076857,1813
2334.6661254651535,1846
2336.525904350951,1778
2338.3852610165827,1765
2340.244195744464,1779
2342.102708817088,1781
2343.9608005170253,1786
2345.8184711269287,1774
2347.675720929526,1837
2349.532550207628,1860
2351.38895924412,1837
2353.24494832197,1813
2355.100517724223,1761
2356.955667734004,1860
2358.810398634514,1815
2360.664710709037,1799
2362.5186042409337,1825
2364.3720795136437,1905
2366.225136810686,1913
2368.0777764156583,1871
2369.929998612237,1893
2371.7818036841777,1857
2373.633191915315,1836
2375.484163589562,1864
2377.3347189909114,1817
2379.184858403434,1843
2381.03458211128,1800
2382.8838903986775,1848
2384.732783549936,1887
2386.5812618494406,1911
2388.4293255816588,1840
2390.2769750311327,1836
2392.1242104824883,1847
2393.971032220427,1906
2395.8174405297295,1862
2397.6634356952563,1924
2399.509018001947,1898
2401.3541877348193,1826
2403.1989451789705,1883
2405.043290619576,1888
2406.8872243418905,1926
2408.730746631247,1870
2410.5738577730594,1916
2412.4165580528183,1828
2414.258847756095,1873
2416.100727168537,1865
2417.9421965758734,1885
2419.783256263912,1827
2421.623906518538,1849
2423.4641476257157,1873
2425.303979871491,1921
2427.143403541984,1979
2428.9824189233977,1908
2430.821026302012,1938
2432.6592259641866,1886
2434.497018196361,1948
2436.33440328505,1925
2438.171381516851,1842
2440.00795317844,1977
2441.844118556569,1887
2443.6798779380724,1898
2445.5152316098606,1899
2447.3501798589255,1957
2449.1847229723357,1949
2451.0188612372403,1861
2452.8525949408663,1855
2454.6859243705203,1905
2456.518849813587,1964
2458.3513715575314,1946
2460.183489889895,1833
2462.015205098301,1956
2463.8465174704493,1968
2465.67742729412,1924
2467.5079348571717,2018
2469.338040447542,1990
2471.1677443532476,1987
2472.9970468623833,1975
2474.825948263123,1965
2476.6544488437207,1947
2478.482548892508,1883
2480.310248697896,1942
2482.137548548374,2000
2483.9644487325118,2013
2485.790949538956,2007
2487.617051256433,1990
2489.44275417375,1962
2491.26805857979,2071
2493.0929647635157,1956
2494.917473013971,1976
2496.741583620276,2056
2498.5652968716304,2040
2500.3886130573137,1998
2502.2115324666834,2014
2504.0340553891765,1979
2505.856182114308,1984
2507.6779129316733,2022
2509.499248130945,2055
2511.3201880018764,1966
2513.140732834298,2035
2514.9608829181198,2027
2516.780638543331,2074
2518.6,2010
2520.418967578273,2042
2522.237541568376,2028
2524.0557222606144,2060
2525.8735099453706,2121
2527.6909049131086,2039
2529.507907454368,2150
2531.32451785977,2134
2533.140736420014,2053
2534.9565634258774,2104
2536.771999168218,2112
2538.5870439379714,2098
2540.4016980261526,2114
2542.2159617238544,2196
2544.02983532225,2149
2545.8433191125914,2208
2547.656413386209,2208
2549.4691184345115,2161
2551.2814345489874,2273
2553.093362021204,2261
2554.904901142808,2230
2556.716052205523,2239
2558.526815501153,2294
2560.3371913215824,2289
2562.147179958771,2244
2563.956781704761,2304
2565.7659968516705,2339
2567.5748256916986,2346
2569.3832685171224,2324
2571.1913256202984,2368
2572.9989972936614,2360
2574.806283829725,2292
2576.613185521084,2271
2578.4197026604074,2349
2580.2258355404483,2367
2582.031584454035,2460
2583.836949694077,2442
2585.6419315535613,2405
2587.4465303255533,2481
2589.2507463032002,2508
2591.0545797797245,2436
2592.8580310484303,2487
2594.6611004026995,2479
2596.463788135992,2538
2598.266094541849,2493
2600.0680199138874,2419
2601.869564545807,2477
2603.670728731383,2437
2605.4715127644704,2483
2607.2719169390048,2555
2609.071941548998,2445
2610.8715868885433,2494
2612.670853251811,2547
2614.469740933052,2482
2616.268250226594,2522
2618.0663814268455,2543
2619.864134828292,2456
2621.6615107255006,2481
2623.458509413115,2478
2625.2551311858597,2447
2627.0513763385347,2427
2628.8472451660223,2368
2630.6427379632833,2387
2632.4378550253564,2396
2634.232596647359,2444
2636.026963124488,2327
2637.8209547520187,2335
2639.6145718253065,2346
2641.407814639785,2363
2643.200683490966,2260
2644.9931786744414,2304
2646.7853004858807,2189
2648.577049221034,2240
2650.3684251757277,2273
2652.1594286458712,2256
2653.9500599274484,2219
2655.740319316525,2177
2657.5302071092437,2234
2659.3197236018286,2200
2661.10886909058,2168
2662.8976438718782,2164
2664.686048242183,2071
2666.4740824980327,2105
2668.2617469360443,2066
2670.0490418529134,2067
2671.8359675454153,2110
2673.622524310403,2123
2675.408712444811,2118
2677.1945322456495,2095
2678.979984010009,2024
2680.76506803506,2012
2682.5497846180497,2058
2684.334134056306,1985
2686.1181166472343,1968
2687.9017326883213,2034
2689.6849824771293,2051
2691.4678663113013,2020
2693.2503844885596,1933
2695.032537306705,1994
2696.8143250636167,2009
2698.5957480572542,1973
2700.3768065856534,1951
2702.1575009469316,1990
2703.937831439283,1938
2705.717798360982,1997
2707.4974020103837,1886
2709.276642685917,1890
2711.055520686095,1886
2712.834036309506,1908
2714.612189854819,1888
2716.389981620782,1942
2718.1674119062204,1914
2719.944481010041,1979
2721.721189231226,1863
2723.4975368688415,1909
2725.273524222027,1941
2727.0491515900053,1838
2728.824419272075,2030
2730.5993275676146,1865
2732.3738767760838,1934
2734.148067197016,1908
2735.921899130031,1821
2737.6953728748194,1885
2739.468488731156,1847
2741.2412469988926,1862
2743.0136479779617,1882
2744.785691968372,1902
2746.5573792702116,1920
2748.3287101836504,1935
2750.099685008934,1873
2751.870304046388,1898
2753.640567596418,1823
2755.4104759595057,1788
2757.1800294362156,1841
2758.949228327187,1821
2760.7180729331412,1851
2762.486563554877,1883
2764.254700493272,1781
2766.022484049284,1851
2767.789914523947,1877
2769.5569922183786,1861
2771.3237174337705,1858
2773.090090471394,1808
2774.8561116326036,1910
2776.6217812188274,1829
2778.3870995315756,1810
2780.1520668724356,1885
2781.9166835430747,1785
2783.6809498452394,1876
2785.444866080754,1916
2787.2084325515225,1773
2788.971649559527,1897
2790.73451740683,1856
2792.4970363955713,1894
2794.2592068279705,1824
2796.0210290063264,1856
2797.7825032330147,1780
2799.543629810493,1855
2801.304409041296,1817
2803.0648412280366,1846
2804.8249266734088,1829
2806.5846656801846,1886
2808.344058551212,1853
2810.1031055894246,1863
2811.8618070978273,1877
2813.6201633795085,1865
2815.378174737636,1839
2817.1358414754536,1875
2818.893163896285,1848
2820.6501423035334,1846
2822.4067770006814,1872
2824.1630682912883,1844
2825.9190164789957,1879
2827.6746218675207,1864
2829.429884760661,1895
2831.184805462294,1940
2832.9393842763743,1777
2834.693621506936,1888
2836.4475174580916,1866
2838.201072434034,1828
2839.954286739034,1882
2841.707160677441,1883
2843.459694553685,1815
2845.2118886722724,1894
2846.96374333779,1795
2848.7152588549034,1853
2850.4664355283567,1867
2852.217273662973,1932
2853.9677735636546,1827
2855.7179355353833,1899
2857.4677598832186,1908
2859.217246912299,1870
2860.9663969278427,1890
2862.715210235146,1786
2864.4636871395846,1813
2866.211827946614,1758
2867.9596329617652,1831
2869.7071024906536,1860
2871.4542368389684,1935
2873.20103631248,1863
2874.947501217038,1865
2876.6936318585695,1821
2878.4394285430812,1814
2880.1848915766604,1833
2881.9300212654707,1841
2883.6748179157553,1799
2885.4192818338374,1825
2887.1634133261173,1746
2888.907212699077,1836
2890.6506802592744,1820
2892.393816313348,1785
2894.1366211680142,1785
2895.8790951300693,1859
2897.621238506388,1745
2899.363051603925,1812
2901.1045347297118,1876
2902.8456881908596,1877
2904.58651229456,1853
2906.327007348081,1786
2908.067173658772,1773
2909.8070115340597,1875
2911.5465212814497,1843
2913.285703208527,1873
2915.0245576229563,1813
2916.7630848324807,1822
2918.5012851449196,1869
2920.2391588681758,1790
2921.976706310227,1793
2923.7139277791334,1803
2925.4508235830313,1768
2927.187394030137,1789
2928.923639428745,1780
2930.6595600872306,1826
2932.395156314046,1803
2934.1304284177218,1817
2935.8653767068713,1833
2937.6000014901815,1802
2939.3343030764227,1837
2941.068281774442,1860
2942.8019378931644,1834
2944.5352717415976,1816
2946.2682836288236,1839
2948.0009738640065,1782
2949.7333427563885,1754
2951.465390615289,1807
2953.1971177501086,1805
2954.9285244703265,1818
2956.6596110855,1800
2958.3903779052657,1813
2960.1208252393385,1797
2961.8509533975125,1847
2963.5807626896617,1888
2965.3102534257378,1781
2967.0394259157715,1808
2968.768280469873,1821
2970.496817398232,1765
2972.2250370111146,1760
2973.952939618869,1797
2975.6805255319196,1848
2977.4077950607707,1811
2979.134748516006,1844
2980.861386208289,1723
2982.587708448359,1786
2984.313715547037,1775
2986.039407815222,1757
2987.764785563891,1793
2989.489849104102,1787
2991.2145987469908,1773
2992.9390348037705,1820
2994.6631575857346,1781
2996.3869674042576,1748
2998.1104645707887,1783
2999.83364939686,1722
3001.5565221940783,1755
3003.2790832741334,1779
3005.0013329487924,1751
3006.7232715298996,1767
3008.4448993293804,1729
3010.166216659239,1764
3011.887223831558,1778
3013.607921158498,1709
3015.3283089522993,1750
3017.0483875252826,1737
3018.7681571898443,1753
3020.4876182584626,1706
3022.2067710436927,1760
3023.9256158581707,1844
3025.644153014609,1787
3027.362382825801,1767
3029.0803056046193,1734
3030.797921664012,1755
3032.5152313170106,1765
3034.2322348767225,1709
3035.9489326563353,1716
3037.665324969115,1750
3039.3814121284063,1724
3041.097194447633,1677
3042.812672240299,1716
3044.5278458199855,1742
3046.2427155003525,1765
3047.9572815951406,1757
3049.671544418167,1720
3051.38550428333,1742
3053.0991615046073,1759
3054.812516396051,1719
3056.5255692717974,1656
3058.2383204460575,1729
3059.9507702331257,1688
3061.662918947372,1705
3063.3747669032446,1643
3065.0863144152736,1693
3066.7975617980674,1721
3068.508509366309,1755
3070.219157434767,1710
3071.9295063182844,1738
3073.639556331785,1703
3075.3493077902704,1726
3077.058761008821,1764
3078.7679163025964,1726
3080.476773986837,1824
3082.1853343768594,1775
3083.89359778806,1687
3085.6015645359153,1743
3087.3092349359786,1745
3089.016609303884,1721
3090.7236879553434,1682
3092.4304712061476,1683
3094.136959372166,1724
3095.843152769349,1778
3097.5490517137237,1691
3099.2546565213966,1764
3100.959967508554,1701
3102.66498499146,1712
3104.3697092864577,1721
3106.0741407099695,1739
3107.778279578498,1733
3109.482126208622,1690
3111.1856809170004,1721
3112.8889440203716,1704
3114.5919158355528,1717
3116.294596679439,1788
3117.996986869006,1710
3119.6990867213062,1749
3121.4008965534726,1703
3123.102416682717,1709
3124.803647426329,1704
3126.5045891016784,1730
3128.205242026213,1702
3129.90560651746,1755
3131.605682893025,1703
3133.3054714705922,1691
3135.0049725679282,1752
3136.7041865028714,1653
3138.4031135933465,1772
3140.101754157353,1727
3141.800108512971,1747
3143.498176978357,1731
3145.1959598717494,1711
3146.8934575114636,1703
3148.5906702158954,1757
3150.2875983035183,1667
3151.9842420928853,1666
3153.680601902627,1689
3155.376678051456,1716
3157.07247085816,1704
3158.767980641609,1653
3160.463207720748,1748
3162.158152414606,1652
3163.8528150422862,1639
3165.5471959229726,1675
3167.2412953759303,1701
3168.9351137204976,1664
3170.628651276098,1709
3172.3219083622307,1720
3174.014885298474,1666
3175.707582404485,1682
3177.4000000000005,1722
3179.092138404835,1739
3180.7839979388846,1693
3182.47557892212,1617
3184.166881674594,1713
3185.8579065164386,1701
3187.5486537678626,1674
3189.2391237491547,1743
3190.9293167806827,1657
3192.6192331828934,1682
3194.3088732763117,1698
3195.998237381542,1665
3197.687325819268,1666
3199.376138910251,1589
3201.064676975334,1697
3202.7529403354347,1668
3204.4409293115523,1638
3206.1286442247647,1598
3207.816085396229,1602
3209.5032531471825,1669
3211.190147798936,1665
3212.8767696728846,1610
3214.5631190905015,1527
3216.2491963733373,1619
3217.9350018430214,1624
3219.6205358212637,1593
3221.305798629851,1619
3222.990790590651,1623
3224.6755120256103,1588
3226.359963256751,1639
3228.0441446061795,1623
3229.7280563960758,1653
3231.411698948703,1600
3233.0950725863995,1610
3234.778177631587,1712
3236.461014406761,1650
3238.1435832345005,1597
3239.8258844374595,1632
3241.507918338374,1626
3243.1896852600576,1614
3244.8711855254023,1566
3246.552419457381,1668
3248.233387379042,1651
3249.914089613516,1689
3251.59452648401,1652
3253.274698313813,1619
3254.95460542629,1597
3256.6342481448855,1627
3258.313626793125,1620
3259.9927416946084,1589
3261.6715931730196,1574
3263.3501815521176,1616
3265.0285071557437,1595
3266.706570307815,1660
3268.3843713323286,1615
3270.0619105533615,1642
3271.739188295068,1607
3273.4162048816834,1585
3275.0929606375184,1623
3276.769455886966,1684
3278.445690954498,1615
3280.1216661646613,1606
3281.797381842087,1681
3283.4728383114807,1653
3285.1480358976296,1648
3286.8229749253996,1581
3288.4976557197333,1577
3290.172078605655,1602
3291.846243908266,1558
3293.5201519527463,1608
3295.193803064357,1576
3296.8671975684374,1615
3298.5403357904024,1585
3300.21321805575,1573
3301.8858446900567,1560
3303.558216018975,1575
3305.23033236824,1616
3306.9021940636603,1587
3308.57380143113,1556
3310.2451547966184,1617
3311.916254486174,1646
3313.5871008259246,1597
3315.2576941420766,1595
3316.9280347609147,1543
3318.5981230088046,1624
3320.2679592121895,1555
3321.9375436975924,1526
3323.606876791612,1569
3325.27595882093,1553
3326.944790112305,1551
3328.6133709925753,1547
3330.2817017886573,1640
3331.949782827547,1569
3333.617614436319,1569
3335.2851969421245,1568
3336.952530672199,1629
3338.619615953853,1610
3340.286453114475,1646
3341.9530424815357,1619
3343.619384382583,1637
3345.2854791452437,1595
3346.951327097224,1595
3348.6169285663073,1615
3350.2822838803577,1521
3351.947393367319,1615
3353.61225735521,1632
3355.2768761721345,1592
3356.9412501462693,1593
3358.605379605873,1604
3360.2692648792827,1578
3361.9329062949146,1583
3363.596304181263,1565
