CollectionTime,9/19/2024 11:01:18 AM
ExposureUsed,3
CalibratedSpectrum
-962.7078968117929,624
-959.9714848408522,668
-957.2358232597828,732
-954.5009119013725,727
-951.7667505983302,765
-949.0333391832855,737
-946.3006774887896,769
-943.5687653473143,725
-940.837602591253,706
-938.1071890529199,747
-935.3775245645503,699
-932.6486089583007,699
-929.9204420662485,669
-927.1930237203925,700
-924.4663537526524,718
-921.7404319948689,704
-919.0152582788041,747
-916.2908324361409,716
-913.5671542984834,707
-910.8442236973568,718
-908.1220404642074,694
-905.4006044304027,746
-902.679915427231,698
-899.959973285902,696
-897.2407778375464,728
-894.5223289132158,725
-891.8046263438832,712
-889.0876699604426,719
-886.3714595937089,695
-883.6559950744183,682
-880.9412762332282,694
-878.2273029007168,668
-875.5140749073835,681
-872.8015920836489,660
-870.0898542598545,626
-867.3788612662631,651
-864.6686129330585,708
-861.9591090903457,684
-859.2503495681506,674
-856.5423341964203,662
-853.8350628050229,623
-851.1285352237478,712
-848.4227512823054,681
-845.7177108103272,704
-843.0134136373656,697
-840.3098595928943,667
-837.6070485063082,665
-834.9049802069229,691
-832.2036545239757,724
-829.5030712866244,691
-826.8032303239481,683
-824.1041314649472,663
-821.4057745385428,657
-818.7081593735775,696
-816.0112857988148,693
-813.3151536429393,708
-810.6197627345566,699
-807.9251129021936,680
-805.2312039742981,720
-802.5380357792392,698
-799.8456081453069,729
-797.1539209007124,676
-794.462973873588,709
-791.772766891987,710
-789.083299783884,725
-786.3945723771743,713
-783.7065844996748,681
-781.0193359791231,698
-778.3328266431781,685
-775.6470563194197,669
-772.9620248353489,670
-770.2777320183878,731
-767.5941776958798,734
-764.9113616950891,696
-762.2292838432011,684
-759.5479439673222,656
-756.8673418944801,696
-754.1874774516235,681
-751.5083504656222,701
-748.8299607632671,720
-746.15230817127,759
-743.475392516264,684
-740.7992136248035,720
-738.1237713233636,704
-735.4490654383407,690
-732.7750957960521,688
-730.1018622227365,731
-727.4293645445534,706
-724.7576025875837,717
-722.0865761778291,787
-719.4162851412126,728
-716.7467293035781,772
-714.0779084906909,760
-711.409822528237,736
-708.7424712418238,752
-706.0758544569796,792
-703.4099719991541,744
-700.7448236937178,775
-698.0804093659622,758
-695.4167288411002,770
-692.7537819442656,746
-690.0915685005134,808
-687.4300883348199,820
-684.7693412720819,793
-682.1093271371178,792
-679.4500457546669,828
-676.7914969493897,741
-674.1336805458676,779
-671.4765963686034,790
-668.8202442420206,812
-666.1646239904642,804
-663.5097354382001,812
-660.8555784094151,775
-658.2021527282176,779
-655.5494582186366,815
-652.8974947046223,838
-650.2462620100463,804
-647.5957599587009,792
-644.9459883742998,814
-642.2969470804776,821
-639.6486359007902,833
-637.0010546587141,864
-634.3542031776476,860
-631.7080812809096,796
-629.0626887917401,806
-626.4180255333008,786
-623.7740913286734,857
-621.1308860008619,839
-618.4884093727904,814
-615.8466612673046,801
-613.2056415071715,820
-610.5653499150785,854
-607.9257863136347,889
-605.28695052537,873
-602.6488423727357,798
-600.0114616781036,855
-597.3748082637674,922
-594.7388819519412,911
-592.1036825647604,923
-589.4692099242818,838
-586.8354638524829,821
-584.2024441712624,851
-581.5701507024403,836
-578.9385832677575,878
-576.3077416888759,879
-573.6776257873787,877
-571.0482353847704,831
-568.4195703024757,883
-565.7916303618415,878
-563.164415384135,854
-560.5379251905453,892
-557.9121596021815,894
-555.2871184400748,888
-552.6628015251767,897
-550.0392086783606,992
-547.4163397204204,1002
-544.794194472071,1020
-542.1727727539491,980
-539.5520743866118,991
-536.9320991905377,1018
-534.3128469861261,980
-531.6943175936979,1007
-529.0765108334947,1003
-526.4594265256793,1170
-523.8430644903358,1439
-521.2274245474689,1611
-518.612506517005,1578
-515.9983102187913,1702
-513.3848354725959,1737
-510.77208209810846,1724
-508.16004991493924,1761
-505.5487387426199,1876
-502.9381484006032,2047
-500.3282787082628,2024
-497.71912948489364,1955
-495.1107005497117,1855
-492.5029917218539,1729
-489.8960028203786,1477
-487.28973366426493,1355
-484.68418407241325,1277
-482.07935386364494,1171
-479.47524285670266,1162
-476.87185087025,1137
-474.2691777228715,1092
-471.66722323307334,1118
-469.0659872192821,1075
-466.4654694998459,1128
-463.86566989303384,1126
-461.26658821703614,1104
-458.66822428996414,1061
-456.07057792985,1076
-453.4736489546475,1102
-450.877437182231,1089
-448.28194243039627,1079
-445.68716451686,999
-443.09310325926003,1068
-440.49975847515555,1051
-437.9071299820263,1079
-435.31521759727354,1091
-432.72402113821954,1090
-430.13354042210767,1117
-427.5437752661022,1107
-424.95472548728867,1120
-422.36639090267386,1174
-419.7787713291855,1195
-417.1918665836721,1290
-414.60567648290385,1235
-412.0202008435715,1216
-409.4354394822874,1195
-406.8513922155845,1124
-404.26805885991723,1171
-401.685439231661,1181
-399.103533147112,1220
-396.522340422488,1178
-393.9418608739278,1165
-391.3620943174908,1096
-388.7830405691583,1083
-386.2046994448317,1100
-383.6270707603344,1009
-381.05015433141045,979
-378.473949973725,1014
-375.8984575028645,924
-373.32367673433623,841
-370.74960748356875,801
-368.1762495659117,778
-365.60360279663576,726
-363.03166699093265,677
-360.4604419639154,664
-357.8899275306178,636
-355.32012350599507,652
-352.7510297049233,600
-350.1826459421999,560
-347.61497203254316,571
-345.04800779059235,553
-342.4817530309082,589
-339.91620756797226,623
-337.35137121618743,601
-334.7872437898774,609
-332.22382510328725,608
-329.66111497058273,654
-327.09911320585127,581
-324.53781962310075,573
-321.9772340362607,535
-319.4173562591816,564
-316.8581861056348,588
-314.2997233893127,580
-311.7419679238294,621
-309.1849195227194,641
-306.62857799943856,616
-304.0729431673641,612
-301.51801483979375,661
-298.963792829947,614
-296.41027695096386,646
-293.85746701590574,667
-291.3053628377552,622
-288.7539642294155,715
-286.2032710037115,728
-283.65328297338897,717
-281.1039999511146,785
-278.5554217494762,721
-276.007548180983,738
-273.4603790580651,657
-270.9139141930734,640
-268.3681533982807,709
-265.8230964858798,752
-263.27874326798565,803
-260.7350935566336,738
-258.1921471637804,855
-255.6499039013039,978
-253.10836358100266,934
-250.56752601459698,856
-248.02739101372765,851
-245.48795838995704,962
-242.94922795476816,904
-240.41119951956557,855
-237.8738728956746,913
-235.33724789434166,901
-232.80132432673452,906
-230.2661020039418,911
-227.73158073697357,996
-225.19776033676033,1043
-222.66464061415422,1128
-220.1322213799284,921
-217.60050244477725,880
-215.06948361931552,1012
-212.53916471408013,1083
-210.00954553952818,1096
-207.48062590603843,1102
-204.9524056239104,933
-202.4248845033651,1040
-199.8980623545441,1123
-197.37193898751036,1161
-194.84651421224817,1162
-192.32178783866232,1004
-189.79775967657952,1173
-187.27442953574644,1322
-184.7517972258321,1317
-182.2298625564256,1104
-179.7086253370378,945
-177.18808537710026,1148
-174.66824248596583,1347
-172.14909647290835,1496
-169.6306471471229,1331
-167.11289431772548,1173
-164.59583779375328,1168
-162.07947738416453,1364
-159.5638128978386,1699
-157.04884414357605,1889
-154.53457093009854,2001
-152.02099306604828,1492
-149.50811035998936,1321
-146.99592262040665,1674
-144.48442965570587,1789
-141.97363127421409,2071
-139.46352728417958,2422
-136.95411749377126,2331
-134.44540171107985,1819
-131.93737974411636,1457
-129.43005140081357,1648
-126.92341648902493,2087
-124.41747481652521,2773
-121.91222619101006,3197
-119.40767042009657,3502
-116.90380731132257,3319
-114.40063667214702,3662
-111.8981583099503,4251
-109.3963720320337,6704
-106.89527764561933,9046
-104.39487495785067,11381
-101.89516377579241,15145
-99.39614390642998,21838
-96.89781515667039,26872
-94.40017733334128,26928
-91.90323024319173,24215
-89.40697369289148,18247
-86.91140748903172,10150
-84.41653143812482,8522
-81.92234534660395,11886
-79.42884902082358,17485
-76.93604226705907,22642
-74.4439248915071,25588
-71.95249670028534,23888
-69.46175749943245,17954
-66.97170709490854,12009
-64.48234529259423,9632
-61.99367189829195,10412
-59.50568671772464,9613
-57.01838955653636,9600
-54.53178022029283,11154
-52.045858514480074,12813
-49.560624244506016,15857
-47.07607721569923,15985
-44.59221723330904,16177
-42.10904410250669,18981
-39.62655762838392,20407
-37.14475761595372,26866
-34.66364387015028,35193
-32.18321619582866,39625
-29.70347439776515,44325
-27.224418280657005,49369
-24.74604764912317,51063
-22.26836230770266,65032
-19.7913620608565,65032
-17.315046712966478,65032
-14.83941606833514,65032
-12.36446993118659,65032
-9.89020810566592,65032
-7.416630395839093,65032
-4.94373660569363,65032
-2.471526539137585,65032
-6.821210263296962E-13,65032
2.47084320796705,65032
4.941003281093458,65032
7.410480415786196,65032
9.879274808531363,65032
12.347386655893956,65032
14.814816154518212,65032
17.28156350112681,65032
19.74762889252179,65032
22.21301252558385,27267
24.67771459727237,9075
27.141735304626195,8811
29.605074844762612,7675
32.06773341487792,7052
34.52971121224755,7049
36.99100843422559,7024
39.45162527824516,6297
41.91156194181792,7207
44.370818622535126,6361
46.82939551806646,6124
49.287292826160524,7967
51.74451074464503,8014
54.201049471426245,5636
56.65690920448981,3380
59.112090141899785,3070
61.56659248179983,3851
64.02041642241159,3390
66.4735621620365,4036
68.92602989905402,4933
71.37781983192338,4643
73.82893215918205,3358
76.27936707944684,2538
78.72912479141326,2810
81.17820549385567,3454
83.62660938562783,3308
86.07433666566146,2622
88.5213875329681,2263
90.96776218663751,2354
93.41346082583925,2376
95.85848364982041,2939
98.30283085790859,2773
100.7465026495089,2370
103.18949922410604,2160
105.63182078126385,1821
108.07346752062438,1788
110.51443964190923,1587
112.95473734491827,1713
115.39436082953114,1875
117.83331029570547,1741
120.27158594347827,1841
122.7091879729652,1867
125.1461165843615,1661
127.58237197794062,1469
130.01795435405518,1538
132.4528639131364,1665
134.88710085569494,1564
137.32066538231982,1777
139.75355769367923,1742
142.1857779905207,1694
144.61732647366978,1456
147.04820334403132,1469
149.47840880258934,1385
151.90794305040674,1465
154.33680628862487,1613
156.76499871846443,1770
159.19252054122433,1934
161.61937195828352,2037
164.04555317109896,2268
166.47106438120693,2700
168.89590579022217,2771
171.320077599839,2733
173.7435800118302,2794
176.16641322804742,3006
178.58857745042144,3047
181.01007288096173,3225
183.43089972175687,3160
185.85105817497413,3048
188.27054844285988,3171
190.6893707277394,3082
193.10752523201643,3222
195.5250121581745,3368
197.9418317087751,3364
200.3579840864594,3327
202.7734694939469,3412
205.18828813403627,3526
207.6024402096051,3368
210.01592592360964,3495
212.42874547908548,3486
214.84089907914665,3316
217.2523869269868,3305
219.66320922587727,3398
222.0733661791695,3247
224.48285799029293,3382
226.8916848627572,3454
229.29984700014882,3430
231.7073446061355,3443
234.11417788446204,3466
236.520347038953,3612
238.92585227351185,3710
241.33069379212054,3807
243.73487179884035,3757
246.1383864978112,3635
248.541238093252,3802
250.9434267894609,3899
253.34495279081432,3709
255.74581630176783,3778
258.1460175268563,3776
260.54555667069314,3899
262.9444339379703,3742
265.3426495334594,3892
267.7402036620107,3762
270.1370965285529,3639
272.53332833809407,3523
274.9288992957214,3269
277.32380960660055,3186
279.718059475976,3360
282.1116491091717,3184
284.5045787115897,3020
286.89684848871195,3028
289.2884586460981,3217
291.67940938938807,3187
294.0697009242996,3261
296.4593334566299,3242
298.84830719225477,3117
301.23662233712923,3202
303.6242790972866,3077
306.01127767884,3162
308.39761828798066,3063
310.78330113097934,2961
313.16832641418534,2917
315.5526943440269,2996
317.9364051270112,2945
320.3194589697242,2847
322.70185607883093,2874
325.0835966610754,2791
327.4646809232805,2622
329.8451090723478,2680
332.2248813152577,2697
334.6039978590701,2808
336.9824589109231,2738
339.36026467803447,2708
341.7374153677,2591
344.113911187295,2531
346.48975234427337,2454
348.8649390461686,2631
351.2394715005918,2599
353.61334991523415,2551
355.9865744978655,2491
358.35914545633375,2613
360.73106299856715,2579
363.10232733257146,2540
365.47293866643247,2532
367.84289720831396,2574
370.2122031664593,2456
372.5808567491905,2446
374.9488581649083,2466
377.31620762209275,2421
379.6829053293021,2293
382.0489514951745,2377
384.4143463284262,2424
386.7790900378528,2459
389.14318283232853,2460
391.50662492080653,2464
393.86941651231916,2383
396.23155781597745,2452
398.5930490409713,2457
400.9538903965696,2347
403.3140820921202,2375
405.6736243370498,2324
408.03251734086336,2343
410.3907613131465,2317
412.74835646356166,2425
415.10530300185144,2410
417.4616011378372,2399
419.81725108141893,2377
422.1722530425758,2293
424.5266072313656,2319
426.880313857925,2297
429.2333731324701,2285
431.58578526529516,2268
433.9375504667738,2361
436.2886689473588,2330
438.63914091758113,2256
440.9889665880513,2307
443.33814616945835,2253
445.68667987257015,2271
448.03456790823395,2294
450.3818104873759,2242
452.72840782100013,2277
455.07436012019105,2300
457.41966759611057,2320
459.7643304600007,2216
462.10834892318155,2280
464.4517231970525,2254
466.79445349309174,2296
469.1365400228566,2303
471.4779829979826,2302
473.81878263018564,2301
476.15893913125876,2331
478.4984527130747,2423
480.8373235875855,2464
483.17555196682144,2589
485.5131380628919,2526
487.8500820879857,2759
490.1863842543697,2875
492.52204477439034,3022
494.8570638604725,3372
497.1914417251204,3729
499.52517858091653,3989
501.85827464052306,4253
504.19073011668036,4416
506.5225452222086,4411
508.85372017000566,4437
511.18425517304956,4671
513.514150444396,5382
515.8434061971808,7176
518.1720226446176,8154
520.4999999999999,8164
522.8273384766991,7823
525.1540382881666,7345
527.480099647932,6366
529.8055227696037,4983
532.1303078668694,3610
534.454455153496,2940
536.777964843328,2714
539.1008371502907,2607
541.4230722883866,2639
543.744670471698,2503
546.0656319143858,2514
548.3859568306899,2410
550.7056454349294,2371
553.0246979415016,2395
555.3431145648834,2339
557.6608955196306,2417
559.978041020377,2361
562.2945512818363,2288
564.6104265188006,2406
566.9256669461412,2378
569.2402727788082,2423
571.5542442318302,2347
573.8675815203156,2340
576.1802848594508,2372
578.4923544645015,2441
580.8037905508126,2380
583.114593333807,2436
585.4247630289875,2413
587.7342998519354,2403
590.0432040183106,2428
592.3514757438526,2483
594.6591152443794,2539
596.9661227357875,2423
599.2724984340531,2385
601.578242555231,2362
603.8833553154542,2392
606.1878369309362,2337
608.4916876179676,2405
610.7949075929192,2383
613.0974970722403,2393
615.3994562724587,2356
617.7007854101818,2395
620.0014847020951,2390
622.3015543649641,2360
624.6009946156324,2374
626.8998056710224,2418
629.1979877481361,2351
631.4955410640538,2313
633.7924658359349,2385
636.0887622810175,2436
638.3844306166192,2377
640.6794710601358,2395
642.9738838290426,2374
645.2676691408932,2417
647.5608272133207,2428
649.853358264037,2489
652.1452625108324,2421
654.4365401715764,2391
656.7271914642178,2436
659.0172166067838,2398
661.3066158173809,2415
663.5953893141935,2458
665.8835373154867,2439
668.1710600396028,2433
670.4579577049639,2463
672.7442305300709,2478
675.0298787335033,2415
677.3149025339197,2375
679.599302150058,2345
681.8830778007342,2361
684.1662297048437,2335
686.4487580813608,2391
688.7306631493387,2368
691.0119451279091,2427
693.2926042362834,2519
695.5726406937516,2403
697.8520547196814,2442
700.1308465335215,2418
702.4090163547982,2268
704.6865644031171,2306
706.9634908981619,2394
709.2397960596965,2401
711.5154801075631,2324
713.7905432616823,2357
716.0649857420548,2366
718.3388077687592,2413
720.612009561953,2280
722.8845913418733,2351
725.1565533288352,2303
727.427895743234,2282
729.6986188055427,2333
731.9687227363137,2341
734.238207756178,2315
736.5070740858458,2274
738.7753219461066,2364
741.0429515578281,2351
743.3099631419569,2304
745.5763569195191,2406
747.8421331116193,2274
750.1072919394409,2395
752.3718336242467,2273
754.6357583873777,2295
756.8990664502545,2373
759.1617580343765,2285
761.423833361321,2354
763.6852926527457,2319
765.9461361303862,2364
768.206364016058,2308
770.4659765316536,2337
772.7249738991469,2463
774.9833563405886,2377
777.2411240781092,2411
779.4982773339183,2354
781.7548163303044,2391
784.010741289634,2342
786.2660524343538,2379
788.5207499869881,2424
790.7748341701416,2384
793.0283052064964,2377
795.2811633188143,2346
797.5334087299362,2372
799.7850416627813,2401
802.0360623403484,2308
804.2864709857143,2354
806.5362678220353,2376
808.7854530725468,2448
811.0340269605625,2396
813.2819897094754,2371
815.5293415427581,2437
817.77608268396,2378
820.0222133567116,2370
822.2677337847211,2345
824.5126441917765,2351
826.7569448017433,2313
829.0006358385675,2349
831.2437175262731,2452
833.4861900889629,2426
835.7280537508192,2455
837.9693087361026,2384
840.2099552691533,2423
842.4499935743896,2338
844.689423876309,2384
846.9282463994886,2388
849.1664613685833,2350
851.4040690083276,2356
853.6410695435349,2413
855.877463199097,2275
858.1132501999847,2370
860.3484307712487,2401
862.5830051380175,2525
864.8169735254988,2363
867.0503361589791,2394
869.2830932638243,2432
871.5152450654786,2454
873.7467917894654,2418
875.9777336613873,2492
878.2080709069252,2408
880.4378037518389,2483
882.666932421968,2515
884.8954571432301,2477
887.1233781416219,2488
889.3506956432192,2500
891.5774098741766,2542
893.803521060728,2476
896.0290294291852,2413
898.2539352059397,2430
900.4782386174619,2450
902.7019398903011,2452
904.925039251085,2480
907.147536926521,2465
909.3694331433943,2416
911.59072812857,2467
913.8114221089921,2484
916.0315153116827,2356
918.2510079637437,2405
920.4699002923547,2457
922.6881925247761,2404
924.905884888345,2460
927.1229776104793,2494
929.3394709186747,2436
931.555365040506,2494
933.7706602036275,2481
935.9853566357709,2483
938.1994545647489,2495
940.4129542184515,2464
942.6258558248488,2532
944.8381596119883,2530
947.0498658079974,2475
949.2609746410825,2500
951.4714863395287,2491
953.6814011316998,2449
955.8907192460387,2531
958.0994409110671,2470
960.3075663553858,2568
962.5150958076741,2591
964.7220294966913,2520
966.928367651274,2487
969.1341105003388,2498
971.3392582728806,2516
973.5438111979742,2366
975.747769504772,2396
977.9511334225061,2347
980.153903180487,2395
982.3560790081052,2368
984.5576611348289,2360
986.7586497902058,2288
988.9590452038618,2256
991.158847605503,2324
993.3580572249133,2268
995.5566742919558,2142
997.7546990365728,2157
999.952131688785,2057
1002.1489724786926,2023
1004.3452216364743,2134
1006.5408793923874,2128
1008.7359459767691,2054
1010.9304216200343,1978
1013.1243065526781,1949
1015.3176010052733,1974
1017.510305208472,1978
1019.7024193930064,2039
1021.8939437896848,2008
1024.0848786293977,2003
1026.2752241431122,1998
1028.4649805618747,1987
1030.6541481168115,1972
1032.842727039127,1967
1035.0307175601051,1936
1037.2181199111074,1914
1039.4049343235752,1929
1041.591161029029,1874
1043.7768002590683,1947
1045.9618522453698,1933
1048.1463172196918,1928
1050.3301954138697,1944
1052.513487059818,1895
1054.69619238953,1880
1056.8783116350783,1858
1059.0598450286152,1879
1061.2407928023704,1884
1063.4211551886528,1955
1065.6009324198508,1921
1067.780124728432,1847
1069.9587323469414,1894
1072.1367555080046,1976
1074.314194444325,1837
1076.4910493886855,1906
1078.667320573947,1835
1080.843008233051,1898
1083.0181125990161,1838
1085.1926339049414,1847
1087.3665723840027,1886
1089.5399282694575,1798
1091.7127017946405,1845
1093.8848931929647,1832
1096.0565026979243,1898
1098.2275305430899,1858
1100.3979769621128,1800
1102.567842188722,1863
1104.737126456726,1778
1106.9058300000124,1799
1109.0739530525475,1858
1111.2414958483764,1773
1113.4084586216231,1744
1115.5748416064907,1796
1117.7406450372605,1804
1119.9058691482942,1791
1122.0705141740304,1805
1124.2345803489884,1769
1126.3980679077658,1773
1128.5609770850388,1751
1130.7233081155623,1814
1132.8850612341707,1789
1135.0462366757774,1801
1137.2068346753745,1783
1139.3668554680326,1736
1141.526299288901,1744
1143.68516637321,1686
1145.8434569562655,1746
1148.001171273455,1776
1150.158309560244,1739
1152.3148720521767,1677
1154.470858984876,1729
1156.626270594044,1737
1158.7811071154629,1757
1160.9353687849912,1732
1163.089055838569,1797
1165.242168512213,1737
1167.3947070420209,1766
1169.5466716641677,1709
1171.6980626149075,1726
1173.8488801305748,1696
1175.9991244475814,1800
1178.1487958024186,1713
1180.2978944316555,1776
1182.4464205719428,1744
1184.5943744600072,1731
1186.7417563326567,1718
1188.8885664267755,1680
1191.0348049793297,1660
1193.1804722273619,1642
1195.325568407995,1690
1197.4700937584303,1774
1199.614048515948,1708
1201.7574329179074,1680
1203.900247201746,1779
1206.042491604982,1730
1208.1841663652099,1718
1210.3252717201053,1669
1212.465807907422,1703
1214.6057751649923,1768
1216.7451737307279,1796
1218.8840038426192,1780
1221.0222657387353,1728
1223.1599596572241,1752
1225.2970858363137,1715
1227.4336445143094,1772
1229.5696359295966,1764
1231.705060320639,1745
1233.8399179259786,1785
1235.9742089842384,1763
1238.107933734118,1788
1240.2410924143974,1767
1242.373685263935,1702
1244.5057125216676,1759
1246.6371744266116,1738
1248.7680712178621,1785
1250.898403134593,1776
1253.028170416058,1785
1255.1573733015875,1866
1257.2860120305932,1854
1259.4140868425648,1813
1261.54159797707,1827
1263.6685456737569,1806
1265.7949301723515,1797
1267.9207517126597,1820
1270.046010534565,1842
1272.1707068780306,1837
1274.2948409830983,1798
1276.4184130898889,1954
1278.541423438603,1897
1280.6638722695184,1829
1282.785759822993,1828
1284.9070863394636,1851
1287.0278520594447,1874
1289.1480572235314,1903
1291.2677020723963,1859
1293.3867868467923,1869
1295.5053117875495,1933
1297.623277135579,1912
1299.740683131868,1866
1301.8575300174857,1965
1303.973818033578,1979
1306.0895474213703,1962
1308.2047184221678,1943
1310.3193312773528,1996
1312.4333862283888,1986
1314.5468835168163,1924
1316.659823384255,1960
1318.7722060724045,1963
1320.8840318230418,2042
1322.9953008780249,1905
1325.1060134792888,1896
1327.2161698688478,1979
1329.3257702887959,1923
1331.4348149813054,1973
1333.5433041886276,1940
1335.6512381530933,1977
1337.7586171171101,1935
1339.8654413231675,1913
1341.9717110138317,2025
1344.0774264317488,1948
1346.1825878196432,1916
1348.2871954203192,1956
1350.3912494766587,1879
1352.4947502316231,1939
1354.5976979282532,2011
1356.7000928096686,1917
1358.8019351190665,1879
1360.9032250997243,1985
1363.0039629949988,1959
1365.1041490483235,1875
1367.2037835032133,1958
1369.3028666032606,1977
1371.401398592137,1956
1373.4993797135926,1952
1375.5968102114575,1959
1377.6936903296396,1941
1379.7900203121262,1905
1381.8858004029835,1962
1383.9810308463561,1946
1386.075711886469,1889
1388.1698437676241,2047
1390.2634267342032,2002
1392.356461030667,2008
1394.4489469015557,1939
1396.5408845914872,2013
1398.6322743451592,2037
1400.7231164073469,2028
1402.813411022907,1989
1404.903158436773,2029
1406.9923588939578,2035
1409.0810126395531,2012
1411.1691199187303,2118
1413.2566809767386,2129
1415.343696058907,2039
1417.4301654106425,2107
1419.5160892774315,2161
1421.6014679048399,2176
1423.6863015385125,2144
1425.7705904241707,2222
1427.8543348076178,2169
1429.9375349347342,2112
1432.0201910514802,2254
1434.102303403894,2131
1436.1838722380944,2198
1438.2648978002767,2212
1440.3453803367174,2332
1442.4253200937692,2310
1444.5047173178677,2353
1446.5835722555234,2352
1448.6618851533285,2314
1450.739656257952,2362
1452.8168858161434,2425
1454.8935740747306,2446
1456.96972128062,2528
1459.045327680797,2539
1461.120393522327,2613
1463.1949190523528,2538
1465.2689045180973,2492
1467.3423501668608,2627
1469.415256246024,2672
1471.4876230030463,2720
1473.559450685465,2782
1475.6307395408976,2794
1477.7014898170391,2880
1479.771701761665,2901
1481.8413756226287,2928
1483.9105116478618,2896
1485.9791100853772,3042
1488.0471711832643,3006
1490.1146951896926,3051
1492.1816823529098,3103
1494.2481329212433,3194
1496.3140471430984,3177
1498.3794252669609,3236
1500.4442675413939,3198
1502.5085742150404,3223
1504.572345536622,3341
1506.6355817549388,3287
1508.6982831188702,3334
1510.7604498773744,3310
1512.8220822794883,3444
1514.8831805743293,3451
1516.9437450110909,3415
1519.003775839048,3488
1521.0632733075522,3508
1523.1222376660367,3541
1525.1806691640113,3617
1527.2385680510652,3686
1529.2959345768668,3751
1531.3527689911643,3746
1533.4090715437833,3736
1535.4648424846291,3861
1537.5200820636855,3881
1539.5747905310159,3928
1541.6289681367616,4041
1543.6826151311434,4027
1545.7357317644614,4171
1547.7883182870937,4148
1549.8403749494987,4206
1551.8919020022113,4270
1553.9428996958477,4273
1555.9933682811015,4472
1558.0433080087469,4452
1560.0927191296346,4476
1562.1416018946961,4531
1564.1899565549415,4523
1566.2377833614592,4423
1568.2850825654164,4341
1570.3318544180606,4303
1572.3780991707158,4190
1574.423817074788,4105
1576.4690083817595,3870
1578.5136733431923,3694
1580.5578122107272,3481
1582.601425236085,3322
1584.6445126710646,3181
1586.6870747675434,3059
1588.7291117774776,2960
1590.7706239529034,2859
1592.8116115459347,2703
1594.8520748087658,2711
1596.8920139936686,2580
1598.9314293529933,2485
1600.9703211391711,2434
1603.008689604711,2296
1605.0465350022005,2351
1607.0838575843068,2207
1609.1206576037753,2238
1611.1569353134305,2252
1613.1926909661765,2141
1615.2279248149953,2142
1617.2626371129481,2094
1619.2968281131757,2132
1621.3304980688963,2090
1623.3636472334088,2062
1625.39627586009,1996
1627.428384202396,1981
1629.459972513861,2028
1631.4910410480993,1944
1633.5215900588028,1938
1635.551619799744,1856
1637.5811305247717,1913
1639.6101224878166,1861
1641.6385959428862,1912
1643.6665511440683,1920
1645.693988345528,1880
1647.7209078015112,1852
1649.7473097663405,1911
1651.7731944944203,1864
1653.7985622402307,1822
1655.823413258333,1885
1657.847747803366,1839
1659.8715661300494,1876
1661.8948684931793,1823
1663.9176551476316,1838
1665.9399263483624,1807
1667.9616823504057,1783
1669.982923408873,1834
1672.0036497789574,1879
1674.0238617159293,1848
1676.043559475138,1811
1678.0627433120121,1800
1680.081413482059,1771
1682.0995702408654,1828
1684.117213844096,1771
1686.134344547495,1796
1688.1509626068864,1799
1690.1670682781705,1734
1692.182661817329,1757
1694.1977434804217,1845
1696.2123135235875,1813
1698.226372203043,1839
1700.2399197750851,1826
1702.2529564960905,1793
1704.2654826225112,1817
1706.277498410882,1822
1708.2890041178139,1719
1710.2999999999988,1783
1712.3104863142066,1763
1714.3204633172854,1769
1716.329931266163,1785
1718.3388904178469,1776
1720.3473410294214,1735
1722.3552833580516,1789
1724.3627176609807,1806
1726.3696441955308,1779
1728.3760632191033,1768
1730.3819749891782,1761
1732.3873797633146,1772
1734.3922777991502,1743
1736.3966693544012,1764
1738.4005546868639,1747
1740.4039340544127,1759
1742.406807715001,1737
1744.4091759266616,1684
1746.4110389475054,1796
1748.4123970357223,1733
1750.413250449582,1686
1752.4135994474318,1769
1754.4134442876993,1707
1756.4127852288902,1638
1758.4116225295893,1629
1760.4099564484595,1691
1762.407787244244,1672
1764.405115175764,1677
1766.4019405019203,1719
1768.3982634816916,1700
1770.3940843741357,1679
1772.3894034383907,1711
1774.3842209336717,1647
1776.378537119274,1698
1778.372352254571,1737
1780.3656665990156,1730
1782.3584804121397,1683
1784.3507939535534,1667
1786.3426074829463,1655
1788.3339212600863,1655
1790.3247355448211,1684
1792.3150505970766,1727
1794.3048666768573,1662
1796.2941840442477,1624
1798.2830029594106,1668
1800.2713236825884,1639
1802.2591464741004,1650
1804.2464715943465,1705
1806.2332993038058,1618
1808.2196298630352,1697
1810.2054635326708,1642
1812.190800573428,1713
1814.175641246101,1686
1816.1599858115628,1643
1818.1438345307652,1659
1820.127187664738,1695
1822.1100454745924,1634
1824.092408221516,1647
1826.0742761667766,1659
1828.055649571721,1632
1830.0365286977735,1674
1832.0169138064398,1631
1833.9968051593014,1685
1835.9762030180214,1607
1837.9551076443408,1708
1839.9335193000788,1639
1841.9114382471344,1639
1843.888864747485,1650
1845.8657990631878,1675
1847.842241456378,1610
1849.8181921892697,1683
1851.7936515241558,1625
1853.7686197234098,1596
1855.7430970494815,1646
1857.7170837649014,1676
1859.6905801322787,1700
1861.6635864143004,1666
1863.6361028737338,1638
1865.608129773424,1642
1867.5796673762961,1649
1869.5507159453537,1668
1871.521275743678,1625
1873.4913470344313,1666
1875.4609300808534,1659
1877.4300251462632,1694
1879.3986324940588,1684
1881.366752387717,1674
1883.3343850907936,1749
1885.3015308669228,1680
1887.268189979819,1717
1889.2343626932739,1642
1891.2000492711595,1652
1893.1652499774254,1652
1895.1299650761011,1622
1897.0941948312952,1671
1899.0579395071945,1760
1901.0211993680641,1700
1902.98397467825,1692
1904.9462657021745,1594
1906.9080727043415,1631
1908.869395949332,1741
1910.8302357018065,1754
1912.790592226504,1665
1914.7504657882428,1667
1916.7098566519212,1669
1918.6687650825133,1660
1920.6271913450764,1713
1922.5851357047422,1672
1924.5425984267245,1580
1926.499579776314,1684
1928.4560800188833,1674
1930.4120994198802,1671
1932.367638244833,1690
1934.32269675935,1679
1936.2772752291175,1662
1938.231373919899,1693
1940.1849930975404,1680
1942.1381330279637,1664
1944.0907939771696,1668
1946.0429762112412,1649
1947.9946799963363,1656
1949.9459055986945,1654
1951.896653284633,1618
1953.8469233205478,1607
1955.7967159729142,1647
1957.7460315082863,1642
1959.6948701932974,1634
1961.6432322946594,1609
1963.5911180791632,1610
1965.5385278136787,1661
1967.4854617651545,1619
1969.4319202006182,1641
1971.377903387176,1674
1973.3234115920136,1636
1975.268445082395,1663
1977.2130041256642,1693
1979.1570889892423,1642
1981.1006999406304,1561
1983.04383724741,1683
1984.986501177238,1563
1986.928691997853,1623
1988.8704099770712,1613
1990.811655382789,1572
1992.7524284829801,1644
1994.692729545698,1568
1996.6325588390755,1660
1998.5719166313224,1597
2000.5108031907307,1620
2002.4492187856677,1603
2004.387163684583,1677
2006.3246381560011,1605
2008.2616424685298,1612
2010.1981768908527,1620
2012.1342416917332,1549
2014.069837140014,1581
2016.0049635046162,1580
2017.9396210545406,1644
2019.8738100588666,1592
2021.8075307867502,1583
2023.740783507431,1624
2025.6735684902228,1600
2027.6058860045214,1622
2029.5377363198004,1549
2031.4691197056118,1588
2033.4000364315875,1676
2035.3304867674374,1608
2037.260470982952,1611
2039.189989347998,1550
2041.1190421325232,1600
2043.047629606554,1579
2044.9757520401945,1558
2046.9034097036288,1560
2048.8306028671195,1605
2050.7573318010086,1560
2052.683596775716,1574
2054.609398061742,1547
2056.5347359296647,1640
2058.4596106501403,1560
2060.384022493906,1601
2062.3079717317764,1561
2064.231458634646,1609
2066.1544834734873,1586
2068.077046519352,1602
2069.99914804337,1647
2071.9207883167524,1551
2073.8419676107865,1544
2075.7626861968406,1544
2077.6829443463607,1509
2079.6027423308715,1560
2081.522080421977,1610
2083.440958891362,1527
2085.359378010786,1607
2087.2773380520907,1585
2089.194839287196,1628
2091.111881988101,1571
2093.0284664268825,1566
2094.9445928756973,1593
2096.86026160678,1578
2098.775472892446,1655
2100.690227005088,1557
2102.604524217178,1553
2104.5183648012676,1570
2106.431749029985,1592
2108.34467717604,1549
2110.2571495122206,1584
2112.169166311393,1602
2114.080727846503,1649
2115.9918343905747,1548
2117.902486216711,1615
2119.8126835980956,1627
2121.722426807987,1636
2123.6317161197285,1606
2125.5405518067364,1647
2127.448934142509,1639
2129.356863400624,1593
2131.264339854737,1674
2133.1713637785815,1715
2135.077935445972,1642
2136.9840551308002,1647
2138.889723107037,1624
2140.7949396487334,1616
2142.699705030018,1630
2144.6040195250994,1623
2146.507883408264,1649
2148.4112969538774,1628
2150.3142604363848,1610
2152.2167741303097,1687
2154.1188383102535,1656
2156.0204532508997,1578
2157.9216192270064,1615
2159.822336513414,1570
2161.7226053850413,1616
2163.622426116884,1668
2165.5217989840185,1625
2167.4207242616,1637
2169.319202224862,1657
2171.2172331491165,1691
2173.1148173097563,1685
2175.0119549822507,1660
2176.90864644215,1621
2178.8048919650823,1708
2180.7006918267534,1671
2182.596046302952,1638
2184.4909556695407,1667
2186.3854202024645,1704
2188.279440177746,1694
2190.173015871487,1684
2192.066147559868,1672
2193.958835519149,1708
2195.851080025667,1668
2197.7428813558417,1715
2199.6342397861667,1632
2201.5251555932186,1730
2203.415629053651,1710
2205.3056604441986,1676
2207.19525004167,1685
2209.084398122958,1675
2210.9731049650327,1679
2212.861370844941,1705
2214.749196039812,1666
2216.636580826851,1696
2218.523525483344,1724
2220.410030286655,1714
2222.296095514226,1693
2224.1817214435805,1732
2226.066908352319,1712
2227.951656518121,1643
2229.835966218746,1653
2231.71983773203,1672
2233.6032713358913,1721
2235.486267308324,1731
2237.3688259274036,1712
2239.2509474712824,1723
2241.132632218193,1747
2243.013880446447,1740
2244.8946924344323,1737
2246.7750684606203,1728
2248.6550088035574,1703
2250.534513741871,1705
2252.413583554265,1754
2254.292218519526,1703
2256.170418916517,1684
2258.0481850241786,1678
2259.925517121534,1724
2261.8024154876825,1760
2263.678880401803,1678
2265.5549121431536,1596
2267.430510991071,1688
2269.305677224971,1692
2271.180411124348,1675
2273.0547129687766,1601
2274.9285830379076,1559
2276.8020216114737,1622
2278.6750289692845,1636
2280.5476053912294,1657
2282.4197511572766,1604
2284.2914665474727,1682
2286.162751841943,1727
2288.0336073208937,1714
2289.904033264608,1664
2291.774029953448,1720
2293.6435976678554,1679
2295.5127366883517,1672
2297.381447295534,1675
2299.2497297700825,1565
2301.1175843927526,1560
2302.9850114443825,1583
2304.852011205885,1518
2306.7185839582553,1469
2308.5847299825664,1491
2310.4504495599676,1484
2312.3157429716925,1454
2314.1806104990483,1482
2316.0450524234247,1468
2317.9090690262888,1441
2319.772660589186,1379
2321.635827393742,1462
2323.498569721661,1511
2325.3608878547248,1444
2327.2227820747967,1478
2329.0842526638157,1456
2330.945299903803,1449
2332.805924076857,1387
2334.6661254651535,1419
2336.525904350951,1450
2338.3852610165827,1431
2340.244195744464,1478
2342.102708817088,1488
2343.9608005170253,1506
2345.8184711269287,1449
2347.675720929526,1456
2349.532550207628,1456
2351.38895924412,1402
2353.24494832197,1462
2355.100517724223,1410
2356.955667734004,1440
2358.810398634514,1449
2360.664710709037,1442
2362.5186042409337,1465
2364.3720795136437,1513
2366.225136810686,1483
2368.0777764156583,1451
2369.929998612237,1475
2371.7818036841777,1483
2373.633191915315,1474
2375.484163589562,1503
2377.3347189909114,1470
2379.184858403434,1443
2381.03458211128,1474
2382.8838903986775,1451
2384.732783549936,1487
2386.5812618494406,1492
2388.4293255816588,1501
2390.2769750311327,1513
2392.1242104824883,1494
2393.971032220427,1502
2395.8174405297295,1502
2397.6634356952563,1474
2399.509018001947,1475
2401.3541877348193,1479
2403.1989451789705,1522
2405.043290619576,1427
2406.8872243418905,1454
2408.730746631247,1586
2410.5738577730594,1487
2412.4165580528183,1500
2414.258847756095,1503
2416.100727168537,1466
2417.9421965758734,1513
2419.783256263912,1457
2421.623906518538,1496
2423.4641476257157,1484
2425.303979871491,1477
2427.143403541984,1510
2428.9824189233977,1473
2430.821026302012,1473
2432.6592259641866,1392
2434.497018196361,1525
2436.33440328505,1528
2438.171381516851,1547
2440.00795317844,1481
2441.844118556569,1505
2443.6798779380724,1534
2445.5152316098606,1516
2447.3501798589255,1441
2449.1847229723357,1572
2451.0188612372403,1508
2452.8525949408663,1527
2454.6859243705203,1495
2456.518849813587,1540
2458.3513715575314,1462
2460.183489889895,1523
2462.015205098301,1473
2463.8465174704493,1576
2465.67742729412,1531
2467.5079348571717,1524
2469.338040447542,1482
2471.1677443532476,1525
2472.9970468623833,1583
2474.825948263123,1483
2476.6544488437207,1607
2478.482548892508,1547
2480.310248697896,1515
2482.137548548374,1506
2483.9644487325118,1549
2485.790949538956,1465
2487.617051256433,1540
2489.44275417375,1510
2491.26805857979,1517
2493.0929647635157,1533
2494.917473013971,1521
2496.741583620276,1581
2498.5652968716304,1606
2500.3886130573137,1567
2502.2115324666834,1565
2504.0340553891765,1523
2505.856182114308,1660
2507.6779129316733,1598
2509.499248130945,1557
2511.3201880018764,1595
2513.140732834298,1646
2514.9608829181198,1636
2516.780638543331,1616
2518.6,1553
2520.418967578273,1556
2522.237541568376,1677
2524.0557222606144,1634
2525.8735099453706,1583
2527.6909049131086,1623
2529.507907454368,1612
2531.32451785977,1621
2533.140736420014,1605
2534.9565634258774,1685
2536.771999168218,1615
2538.5870439379714,1656
2540.4016980261526,1705
2542.2159617238544,1707
2544.02983532225,1661
2545.8433191125914,1689
2547.656413386209,1715
2549.4691184345115,1663
2551.2814345489874,1656
2553.093362021204,1748
2554.904901142808,1748
2556.716052205523,1772
2558.526815501153,1788
2560.3371913215824,1705
2562.147179958771,1780
2563.956781704761,1867
2565.7659968516705,1839
2567.5748256916986,1804
2569.3832685171224,1781
2571.1913256202984,1799
2572.9989972936614,1865
2574.806283829725,1875
2576.613185521084,1813
2578.4197026604074,1861
2580.2258355404483,1929
2582.031584454035,1857
2583.836949694077,1825
2585.6419315535613,1935
2587.4465303255533,1848
2589.2507463032002,1917
2591.0545797797245,1888
2592.8580310484303,1955
2594.6611004026995,1946
2596.463788135992,1905
2598.266094541849,1981
2600.0680199138874,1997
2601.869564545807,1905
2603.670728731383,1940
2605.4715127644704,1933
2607.2719169390048,1962
2609.071941548998,1868
2610.8715868885433,1950
2612.670853251811,1985
2614.469740933052,1944
2616.268250226594,1936
2618.0663814268455,1964
2619.864134828292,1909
2621.6615107255006,1919
2623.458509413115,1903
2625.2551311858597,1866
2627.0513763385347,1893
2628.8472451660223,1857
2630.6427379632833,1831
2632.4378550253564,1822
2634.232596647359,1774
2636.026963124488,1802
2637.8209547520187,1798
2639.6145718253065,1823
2641.407814639785,1785
2643.200683490966,1753
2644.9931786744414,1804
2646.7853004858807,1832
2648.577049221034,1739
2650.3684251757277,1714
2652.1594286458712,1689
2653.9500599274484,1717
2655.740319316525,1702
2657.5302071092437,1645
2659.3197236018286,1649
2661.10886909058,1721
2662.8976438718782,1633
2664.686048242183,1615
2666.4740824980327,1659
2668.2617469360443,1603
2670.0490418529134,1581
2671.8359675454153,1604
2673.622524310403,1614
2675.408712444811,1591
2677.1945322456495,1578
2678.979984010009,1599
2680.76506803506,1555
2682.5497846180497,1486
2684.334134056306,1565
2686.1181166472343,1564
2687.9017326883213,1549
2689.6849824771293,1498
2691.4678663113013,1579
2693.2503844885596,1527
2695.032537306705,1567
2696.8143250636167,1504
2698.5957480572542,1474
2700.3768065856534,1530
2702.1575009469316,1504
2703.937831439283,1549
2705.717798360982,1509
2707.4974020103837,1532
2709.276642685917,1506
2711.055520686095,1490
2712.834036309506,1428
2714.612189854819,1471
2716.389981620782,1437
2718.1674119062204,1445
2719.944481010041,1451
2721.721189231226,1449
2723.4975368688415,1493
2725.273524222027,1492
2727.0491515900053,1479
2728.824419272075,1485
2730.5993275676146,1448
2732.3738767760838,1457
2734.148067197016,1436
2735.921899130031,1417
2737.6953728748194,1467
2739.468488731156,1436
2741.2412469988926,1381
2743.0136479779617,1445
2744.785691968372,1381
2746.5573792702116,1450
2748.3287101836504,1499
2750.099685008934,1464
2751.870304046388,1401
2753.640567596418,1414
2755.4104759595057,1436
2757.1800294362156,1406
2758.949228327187,1443
2760.7180729331412,1482
2762.486563554877,1462
2764.254700493272,1480
2766.022484049284,1414
2767.789914523947,1451
2769.5569922183786,1434
2771.3237174337705,1397
2773.090090471394,1449
2774.8561116326036,1461
2776.6217812188274,1440
2778.3870995315756,1398
2780.1520668724356,1465
2781.9166835430747,1457
2783.6809498452394,1450
2785.444866080754,1451
2787.2084325515225,1386
2788.971649559527,1459
2790.73451740683,1456
2792.4970363955713,1373
2794.2592068279705,1419
2796.0210290063264,1390
2797.7825032330147,1446
2799.543629810493,1399
2801.304409041296,1402
2803.0648412280366,1411
2804.8249266734088,1408
2806.5846656801846,1400
2808.344058551212,1443
2810.1031055894246,1460
2811.8618070978273,1446
2813.6201633795085,1404
2815.378174737636,1463
2817.1358414754536,1435
2818.893163896285,1460
2820.6501423035334,1430
2822.4067770006814,1360
2824.1630682912883,1395
2825.9190164789957,1351
2827.6746218675207,1378
2829.429884760661,1422
2831.184805462294,1391
2832.9393842763743,1499
2834.693621506936,1469
2836.4475174580916,1432
2838.201072434034,1457
2839.954286739034,1454
2841.707160677441,1379
2843.459694553685,1441
2845.2118886722724,1430
2846.96374333779,1422
2848.7152588549034,1471
2850.4664355283567,1484
2852.217273662973,1444
2853.9677735636546,1483
2855.7179355353833,1449
2857.4677598832186,1405
2859.217246912299,1419
2860.9663969278427,1427
2862.715210235146,1323
2864.4636871395846,1400
2866.211827946614,1369
2867.9596329617652,1396
2869.7071024906536,1426
2871.4542368389684,1364
2873.20103631248,1393
2874.947501217038,1415
2876.6936318585695,1437
2878.4394285430812,1420
2880.1848915766604,1437
2881.9300212654707,1409
2883.6748179157553,1430
2885.4192818338374,1439
2887.1634133261173,1442
2888.907212699077,1374
2890.6506802592744,1436
2892.393816313348,1374
2894.1366211680142,1374
2895.8790951300693,1436
2897.621238506388,1449
2899.363051603925,1405
2901.1045347297118,1412
2902.8456881908596,1405
2904.58651229456,1391
2906.327007348081,1382
2908.067173658772,1416
2909.8070115340597,1438
2911.5465212814497,1459
2913.285703208527,1420
2915.0245576229563,1443
2916.7630848324807,1456
2918.5012851449196,1434
2920.2391588681758,1390
2921.976706310227,1395
2923.7139277791334,1357
2925.4508235830313,1419
2927.187394030137,1401
2928.923639428745,1406
2930.6595600872306,1403
2932.395156314046,1394
2934.1304284177218,1492
2935.8653767068713,1451
2937.6000014901815,1421
2939.3343030764227,1422
2941.068281774442,1375
2942.8019378931644,1421
2944.5352717415976,1374
2946.2682836288236,1420
2948.0009738640065,1408
2949.7333427563885,1366
2951.465390615289,1488
2953.1971177501086,1445
2954.9285244703265,1405
2956.6596110855,1378
2958.3903779052657,1467
2960.1208252393385,1421
2961.8509533975125,1390
2963.5807626896617,1374
2965.3102534257378,1432
2967.0394259157715,1383
2968.768280469873,1418
2970.496817398232,1403
2972.2250370111146,1421
2973.952939618869,1390
2975.6805255319196,1445
2977.4077950607707,1434
2979.134748516006,1393
2980.861386208289,1362
2982.587708448359,1406
2984.313715547037,1423
2986.039407815222,1378
2987.764785563891,1446
2989.489849104102,1362
2991.2145987469908,1433
2992.9390348037705,1385
2994.6631575857346,1426
2996.3869674042576,1432
2998.1104645707887,1400
2999.83364939686,1426
3001.5565221940783,1392
3003.2790832741334,1402
3005.0013329487924,1448
3006.7232715298996,1427
3008.4448993293804,1367
3010.166216659239,1405
3011.887223831558,1446
3013.607921158498,1378
3015.3283089522993,1373
3017.0483875252826,1422
3018.7681571898443,1398
3020.4876182584626,1391
3022.2067710436927,1390
3023.9256158581707,1452
3025.644153014609,1353
3027.362382825801,1387
3029.0803056046193,1429
3030.797921664012,1363
3032.5152313170106,1389
3034.2322348767225,1329
3035.9489326563353,1370
3037.665324969115,1364
3039.3814121284063,1382
3041.097194447633,1389
3042.812672240299,1401
3044.5278458199855,1378
3046.2427155003525,1400
3047.9572815951406,1369
3049.671544418167,1371
3051.38550428333,1396
3053.0991615046073,1396
3054.812516396051,1379
3056.5255692717974,1456
3058.2383204460575,1374
3059.9507702331257,1397
3061.662918947372,1404
3063.3747669032446,1385
3065.0863144152736,1407
3066.7975617980674,1405
3068.508509366309,1412
3070.219157434767,1406
3071.9295063182844,1382
3073.639556331785,1417
3075.3493077902704,1429
3077.058761008821,1439
3078.7679163025964,1465
3080.476773986837,1414
3082.1853343768594,1487
3083.89359778806,1416
3085.6015645359153,1473
3087.3092349359786,1373
3089.016609303884,1350
3090.7236879553434,1402
3092.4304712061476,1461
3094.136959372166,1390
3095.843152769349,1414
3097.5490517137237,1394
3099.2546565213966,1312
3100.959967508554,1339
3102.66498499146,1394
3104.3697092864577,1386
3106.0741407099695,1373
3107.778279578498,1415
3109.482126208622,1373
3111.1856809170004,1420
3112.8889440203716,1399
3114.5919158355528,1423
3116.294596679439,1413
3117.996986869006,1438
3119.6990867213062,1458
3121.4008965534726,1439
3123.102416682717,1393
3124.803647426329,1371
3126.5045891016784,1439
3128.205242026213,1438
3129.90560651746,1432
3131.605682893025,1403
3133.3054714705922,1389
3135.0049725679282,1432
3136.7041865028714,1431
3138.4031135933465,1403
3140.101754157353,1401
3141.800108512971,1441
3143.498176978357,1390
3145.1959598717494,1367
3146.8934575114636,1329
3148.5906702158954,1425
3150.2875983035183,1328
3151.9842420928853,1378
3153.680601902627,1413
3155.376678051456,1388
3157.07247085816,1417
3158.767980641609,1391
3160.463207720748,1393
3162.158152414606,1382
3163.8528150422862,1345
3165.5471959229726,1388
3167.2412953759303,1359
3168.9351137204976,1349
3170.628651276098,1358
3172.3219083622307,1358
3174.014885298474,1367
3175.707582404485,1370
3177.4000000000005,1421
3179.092138404835,1377
3180.7839979388846,1331
3182.47557892212,1410
3184.166881674594,1412
3185.8579065164386,1400
3187.5486537678626,1409
3189.2391237491547,1347
3190.9293167806827,1361
3192.6192331828934,1328
3194.3088732763117,1376
3195.998237381542,1382
3197.687325819268,1333
3199.376138910251,1403
3201.064676975334,1279
3202.7529403354347,1365
3204.4409293115523,1395
3206.1286442247647,1360
3207.816085396229,1358
3209.5032531471825,1409
3211.190147798936,1374
3212.8767696728846,1348
3214.5631190905015,1357
3216.2491963733373,1332
3217.9350018430214,1361
3219.6205358212637,1427
3221.305798629851,1277
3222.990790590651,1329
3224.6755120256103,1358
3226.359963256751,1343
3228.0441446061795,1330
3229.7280563960758,1306
3231.411698948703,1340
3233.0950725863995,1294
3234.778177631587,1265
3236.461014406761,1375
3238.1435832345005,1363
3239.8258844374595,1381
3241.507918338374,1392
3243.1896852600576,1391
3244.8711855254023,1350
3246.552419457381,1346
3248.233387379042,1341
3249.914089613516,1399
3251.59452648401,1336
3253.274698313813,1314
3254.95460542629,1322
3256.6342481448855,1380
3258.313626793125,1321
3259.9927416946084,1296
3261.6715931730196,1320
3263.3501815521176,1325
3265.0285071557437,1338
3266.706570307815,1293
3268.3843713323286,1352
3270.0619105533615,1285
3271.739188295068,1378
3273.4162048816834,1392
3275.0929606375184,1375
3276.769455886966,1370
3278.445690954498,1364
3280.1216661646613,1389
3281.797381842087,1342
3283.4728383114807,1352
3285.1480358976296,1392
3286.8229749253996,1372
3288.4976557197333,1388
3290.172078605655,1371
3291.846243908266,1358
3293.5201519527463,1298
3295.193803064357,1322
3296.8671975684374,1348
3298.5403357904024,1351
3300.21321805575,1326
3301.8858446900567,1356
3303.558216018975,1329
3305.23033236824,1329
3306.9021940636603,1359
3308.57380143113,1355
3310.2451547966184,1364
3311.916254486174,1341
3313.5871008259246,1364
3315.2576941420766,1334
3316.9280347609147,1388
3318.5981230088046,1350
3320.2679592121895,1337
3321.9375436975924,1328
3323.606876791612,1307
3325.27595882093,1279
3326.944790112305,1381
3328.6133709925753,1404
3330.2817017886573,1371
3331.949782827547,1371
3333.617614436319,1315
3335.2851969421245,1377
3336.952530672199,1308
3338.619615953853,1315
3340.286453114475,1373
3341.9530424815357,1306
3343.619384382583,1304
3345.2854791452437,1322
3346.951327097224,1408
3348.6169285663073,1329
3350.2822838803577,1340
3351.947393367319,1366
3353.61225735521,1385
3355.2768761721345,1307
3356.9412501462693,1388
3358.605379605873,1376
3360.2692648792827,1358
3361.9329062949146,1302
3363.596304181263,1293
