CollectionTime,9/19/2024 11:01:51 AM
ExposureUsed,3
CalibratedSpectrum
-962.7078968117929,672
-959.9714848408522,724
-957.2358232597828,733
-954.5009119013725,703
-951.7667505983302,766
-949.0333391832855,743
-946.3006774887896,724
-943.5687653473143,743
-940.837602591253,761
-938.1071890529199,736
-935.3775245645503,721
-932.6486089583007,712
-929.9204420662485,705
-927.1930237203925,746
-924.4663537526524,736
-921.7404319948689,761
-919.0152582788041,749
-916.2908324361409,750
-913.5671542984834,729
-910.8442236973568,725
-908.1220404642074,690
-905.4006044304027,732
-902.679915427231,683
-899.959973285902,696
-897.2407778375464,704
-894.5223289132158,683
-891.8046263438832,722
-889.0876699604426,711
-886.3714595937089,703
-883.6559950744183,668
-880.9412762332282,712
-878.2273029007168,697
-875.5140749073835,669
-872.8015920836489,729
-870.0898542598545,673
-867.3788612662631,707
-864.6686129330585,692
-861.9591090903457,701
-859.2503495681506,690
-856.5423341964203,661
-853.8350628050229,632
-851.1285352237478,689
-848.4227512823054,697
-845.7177108103272,705
-843.0134136373656,664
-840.3098595928943,710
-837.6070485063082,680
-834.9049802069229,702
-832.2036545239757,695
-829.5030712866244,688
-826.8032303239481,644
-824.1041314649472,674
-821.4057745385428,705
-818.7081593735775,685
-816.0112857988148,669
-813.3151536429393,681
-810.6197627345566,696
-807.9251129021936,693
-805.2312039742981,686
-802.5380357792392,716
-799.8456081453069,742
-797.1539209007124,695
-794.462973873588,720
-791.772766891987,714
-789.083299783884,704
-786.3945723771743,717
-783.7065844996748,705
-781.0193359791231,705
-778.3328266431781,680
-775.6470563194197,686
-772.9620248353489,715
-770.2777320183878,682
-767.5941776958798,747
-764.9113616950891,741
-762.2292838432011,718
-759.5479439673222,682
-756.8673418944801,679
-754.1874774516235,722
-751.5083504656222,718
-748.8299607632671,725
-746.15230817127,742
-743.475392516264,708
-740.7992136248035,723
-738.1237713233636,729
-735.4490654383407,753
-732.7750957960521,727
-730.1018622227365,749
-727.4293645445534,711
-724.7576025875837,747
-722.0865761778291,730
-719.4162851412126,752
-716.7467293035781,759
-714.0779084906909,781
-711.409822528237,768
-708.7424712418238,768
-706.0758544569796,766
-703.4099719991541,734
-700.7448236937178,770
-698.0804093659622,786
-695.4167288411002,807
-692.7537819442656,758
-690.0915685005134,773
-687.4300883348199,806
-684.7693412720819,791
-682.1093271371178,806
-679.4500457546669,800
-676.7914969493897,778
-674.1336805458676,789
-671.4765963686034,791
-668.8202442420206,812
-666.1646239904642,800
-663.5097354382001,796
-660.8555784094151,798
-658.2021527282176,799
-655.5494582186366,843
-652.8974947046223,844
-650.2462620100463,801
-647.5957599587009,856
-644.9459883742998,833
-642.2969470804776,817
-639.6486359007902,851
-637.0010546587141,825
-634.3542031776476,867
-631.7080812809096,808
-629.0626887917401,816
-626.4180255333008,848
-623.7740913286734,880
-621.1308860008619,837
-618.4884093727904,844
-615.8466612673046,817
-613.2056415071715,801
-610.5653499150785,847
-607.9257863136347,834
-605.28695052537,863
-602.6488423727357,806
-600.0114616781036,862
-597.3748082637674,861
-594.7388819519412,975
-592.1036825647604,906
-589.4692099242818,877
-586.8354638524829,897
-584.2024441712624,908
-581.5701507024403,888
-578.9385832677575,880
-576.3077416888759,880
-573.6776257873787,867
-571.0482353847704,855
-568.4195703024757,817
-565.7916303618415,854
-563.164415384135,881
-560.5379251905453,895
-557.9121596021815,884
-555.2871184400748,870
-552.6628015251767,865
-550.0392086783606,941
-547.4163397204204,959
-544.794194472071,983
-542.1727727539491,978
-539.5520743866118,972
-536.9320991905377,984
-534.3128469861261,978
-531.6943175936979,967
-529.0765108334947,1037
-526.4594265256793,1170
-523.8430644903358,1395
-521.2274245474689,1508
-518.612506517005,1640
-515.9983102187913,1603
-513.3848354725959,1687
-510.77208209810846,1663
-508.16004991493924,1662
-505.5487387426199,1885
-502.9381484006032,1886
-500.3282787082628,1842
-497.71912948489364,1831
-495.1107005497117,1714
-492.5029917218539,1545
-489.8960028203786,1430
-487.28973366426493,1276
-484.68418407241325,1135
-482.07935386364494,1103
-479.47524285670266,1082
-476.87185087025,1076
-474.2691777228715,1127
-471.66722323307334,1085
-469.0659872192821,1099
-466.4654694998459,1212
-463.86566989303384,1128
-461.26658821703614,1066
-458.66822428996414,1102
-456.07057792985,1124
-453.4736489546475,1088
-450.877437182231,1037
-448.28194243039627,1068
-445.68716451686,1087
-443.09310325926003,1047
-440.49975847515555,1059
-437.9071299820263,1049
-435.31521759727354,1052
-432.72402113821954,1093
-430.13354042210767,1062
-427.5437752661022,1089
-424.95472548728867,1103
-422.36639090267386,1130
-419.7787713291855,1155
-417.1918665836721,1162
-414.60567648290385,1224
-412.0202008435715,1173
-409.4354394822874,1182
-406.8513922155845,1186
-404.26805885991723,1125
-401.685439231661,1127
-399.103533147112,1175
-396.522340422488,1133
-393.9418608739278,1124
-391.3620943174908,1178
-388.7830405691583,1100
-386.2046994448317,1057
-383.6270707603344,996
-381.05015433141045,1035
-378.473949973725,973
-375.8984575028645,894
-373.32367673433623,839
-370.74960748356875,840
-368.1762495659117,804
-365.60360279663576,734
-363.03166699093265,643
-360.4604419639154,579
-357.8899275306178,611
-355.32012350599507,573
-352.7510297049233,570
-350.1826459421999,567
-347.61497203254316,545
-345.04800779059235,537
-342.4817530309082,600
-339.91620756797226,642
-337.35137121618743,572
-334.7872437898774,557
-332.22382510328725,572
-329.66111497058273,589
-327.09911320585127,552
-324.53781962310075,577
-321.9772340362607,486
-319.4173562591816,522
-316.8581861056348,556
-314.2997233893127,599
-311.7419679238294,589
-309.1849195227194,608
-306.62857799943856,568
-304.0729431673641,590
-301.51801483979375,614
-298.963792829947,605
-296.41027695096386,607
-293.85746701590574,626
-291.3053628377552,649
-288.7539642294155,706
-286.2032710037115,710
-283.65328297338897,703
-281.1039999511146,733
-278.5554217494762,705
-276.007548180983,702
-273.4603790580651,668
-270.9139141930734,680
-268.3681533982807,661
-265.8230964858798,742
-263.27874326798565,717
-260.7350935566336,752
-258.1921471637804,792
-255.6499039013039,957
-253.10836358100266,900
-250.56752601459698,817
-248.02739101372765,891
-245.48795838995704,851
-242.94922795476816,838
-240.41119951956557,757
-237.8738728956746,794
-235.33724789434166,844
-232.80132432673452,849
-230.2661020039418,850
-227.73158073697357,972
-225.19776033676033,992
-222.66464061415422,1035
-220.1322213799284,944
-217.60050244477725,879
-215.06948361931552,959
-212.53916471408013,1076
-210.00954553952818,1112
-207.48062590603843,1056
-204.9524056239104,930
-202.4248845033651,997
-199.8980623545441,1103
-197.37193898751036,1180
-194.84651421224817,1141
-192.32178783866232,982
-189.79775967657952,1033
-187.27442953574644,1200
-184.7517972258321,1341
-182.2298625564256,1046
-179.7086253370378,862
-177.18808537710026,1046
-174.66824248596583,1336
-172.14909647290835,1393
-169.6306471471229,1267
-167.11289431772548,1133
-164.59583779375328,1193
-162.07947738416453,1412
-159.5638128978386,1626
-157.04884414357605,1676
-154.53457093009854,1688
-152.02099306604828,1338
-149.50811035998936,1292
-146.99592262040665,1649
-144.48442965570587,1826
-141.97363127421409,2028
-139.46352728417958,2150
-136.95411749377126,2149
-134.44540171107985,1755
-131.93737974411636,1466
-129.43005140081357,1481
-126.92341648902493,2080
-124.41747481652521,2645
-121.91222619101006,3260
-119.40767042009657,3296
-116.90380731132257,3009
-114.40063667214702,3491
-111.8981583099503,3994
-109.3963720320337,5776
-106.89527764561933,7924
-104.39487495785067,10241
-101.89516377579241,14921
-99.39614390642998,20172
-96.89781515667039,23672
-94.40017733334128,24212
-91.90323024319173,22363
-89.40697369289148,16484
-86.91140748903172,8986
-84.41653143812482,7489
-81.92234534660395,10951
-79.42884902082358,17162
-76.93604226705907,23620
-74.4439248915071,26759
-71.95249670028534,23547
-69.46175749943245,16659
-66.97170709490854,10990
-64.48234529259423,9646
-61.99367189829195,10622
-59.50568671772464,10222
-57.01838955653636,10979
-54.53178022029283,14878
-52.045858514480074,16080
-49.560624244506016,17656
-47.07607721569923,19665
-44.59221723330904,22032
-42.10904410250669,24464
-39.62655762838392,22120
-37.14475761595372,23683
-34.66364387015028,28011
-32.18321619582866,28113
-29.70347439776515,30827
-27.224418280657005,35890
-24.74604764912317,40072
-22.26836230770266,60881
-19.7913620608565,65033
-17.315046712966478,65033
-14.83941606833514,65033
-12.36446993118659,65033
-9.89020810566592,65033
-7.416630395839093,65033
-4.94373660569363,65033
-2.471526539137585,65033
-6.821210263296962E-13,65033
2.47084320796705,65033
4.941003281093458,65033
7.410480415786196,65033
9.879274808531363,65033
12.347386655893956,65033
14.814816154518212,65033
17.28156350112681,65033
19.74762889252179,65033
22.21301252558385,26152
24.67771459727237,8091
27.141735304626195,8355
29.605074844762612,7024
32.06773341487792,6353
34.52971121224755,7140
36.99100843422559,7133
39.45162527824516,6134
41.91156194181792,7203
44.370818622535126,5790
46.82939551806646,5404
49.287292826160524,8041
51.74451074464503,7930
54.201049471426245,5472
56.65690920448981,3392
59.112090141899785,2642
61.56659248179983,3166
64.02041642241159,2996
66.4735621620365,3603
68.92602989905402,4364
71.37781983192338,4312
73.82893215918205,3238
76.27936707944684,2359
78.72912479141326,2558
81.17820549385567,2944
83.62660938562783,2541
86.07433666566146,2051
88.5213875329681,2183
90.96776218663751,2184
93.41346082583925,2417
95.85848364982041,2968
98.30283085790859,2525
100.7465026495089,2272
103.18949922410604,1881
105.63182078126385,1611
108.07346752062438,1638
110.51443964190923,1530
112.95473734491827,1699
115.39436082953114,1727
117.83331029570547,1744
120.27158594347827,1829
122.7091879729652,1965
125.1461165843615,1854
127.58237197794062,1599
130.01795435405518,1601
132.4528639131364,1639
134.88710085569494,1557
137.32066538231982,1637
139.75355769367923,1550
142.1857779905207,1372
144.61732647366978,1346
147.04820334403132,1460
149.47840880258934,1388
151.90794305040674,1508
154.33680628862487,1698
156.76499871846443,1781
159.19252054122433,1952
161.61937195828352,1962
164.04555317109896,2140
166.47106438120693,2567
168.89590579022217,2609
171.320077599839,2792
173.7435800118302,2884
176.16641322804742,3037
178.58857745042144,3101
181.01007288096173,3144
183.43089972175687,3109
185.85105817497413,3103
188.27054844285988,3053
190.6893707277394,3139
193.10752523201643,3221
195.5250121581745,3289
197.9418317087751,3307
200.3579840864594,3313
202.7734694939469,3337
205.18828813403627,3600
207.6024402096051,3424
210.01592592360964,3344
212.42874547908548,3389
214.84089907914665,3353
217.2523869269868,3409
219.66320922587727,3338
222.0733661791695,3358
224.48285799029293,3311
226.8916848627572,3508
229.29984700014882,3502
231.7073446061355,3408
234.11417788446204,3408
236.520347038953,3527
238.92585227351185,3610
241.33069379212054,3833
243.73487179884035,3819
246.1383864978112,3658
248.541238093252,3833
250.9434267894609,3842
253.34495279081432,3767
255.74581630176783,3775
258.1460175268563,3866
260.54555667069314,3949
262.9444339379703,3932
265.3426495334594,3864
267.7402036620107,3806
270.1370965285529,3570
272.53332833809407,3581
274.9288992957214,3304
277.32380960660055,3191
279.718059475976,3205
282.1116491091717,3202
284.5045787115897,3063
286.89684848871195,3039
289.2884586460981,3109
291.67940938938807,3156
294.0697009242996,3196
296.4593334566299,3128
298.84830719225477,3085
301.23662233712923,3105
303.6242790972866,3022
306.01127767884,2964
308.39761828798066,2920
310.78330113097934,2802
313.16832641418534,2813
315.5526943440269,2831
317.9364051270112,2784
320.3194589697242,2825
322.70185607883093,2701
325.0835966610754,2617
327.4646809232805,2567
329.8451090723478,2637
332.2248813152577,2730
334.6039978590701,2576
336.9824589109231,2641
339.36026467803447,2626
341.7374153677,2566
344.113911187295,2570
346.48975234427337,2572
348.8649390461686,2558
351.2394715005918,2564
353.61334991523415,2471
355.9865744978655,2532
358.35914545633375,2527
360.73106299856715,2552
363.10232733257146,2501
365.47293866643247,2469
367.84289720831396,2458
370.2122031664593,2468
372.5808567491905,2452
374.9488581649083,2419
377.31620762209275,2365
379.6829053293021,2345
382.0489514951745,2352
384.4143463284262,2299
386.7790900378528,2365
389.14318283232853,2412
391.50662492080653,2372
393.86941651231916,2292
396.23155781597745,2364
398.5930490409713,2433
400.9538903965696,2294
403.3140820921202,2276
405.6736243370498,2307
408.03251734086336,2246
410.3907613131465,2254
412.74835646356166,2277
415.10530300185144,2320
417.4616011378372,2322
419.81725108141893,2328
422.1722530425758,2254
424.5266072313656,2272
426.880313857925,2244
429.2333731324701,2272
431.58578526529516,2313
433.9375504667738,2345
436.2886689473588,2298
438.63914091758113,2297
440.9889665880513,2266
443.33814616945835,2160
445.68667987257015,2224
448.03456790823395,2220
450.3818104873759,2302
452.72840782100013,2188
455.07436012019105,2179
457.41966759611057,2191
459.7643304600007,2163
462.10834892318155,2164
464.4517231970525,2209
466.79445349309174,2229
469.1365400228566,2282
471.4779829979826,2282
473.81878263018564,2234
476.15893913125876,2241
478.4984527130747,2310
480.8373235875855,2391
483.17555196682144,2460
485.5131380628919,2475
487.8500820879857,2511
490.1863842543697,2701
492.52204477439034,2885
494.8570638604725,3243
497.1914417251204,3512
499.52517858091653,3921
501.85827464052306,4047
504.19073011668036,4126
506.5225452222086,4212
508.85372017000566,4271
511.18425517304956,4486
513.514150444396,5277
515.8434061971808,6943
518.1720226446176,7836
520.4999999999999,7781
522.8273384766991,7416
525.1540382881666,7198
527.480099647932,6240
529.8055227696037,4848
532.1303078668694,3468
534.454455153496,2855
536.777964843328,2642
539.1008371502907,2535
541.4230722883866,2491
543.744670471698,2533
546.0656319143858,2400
548.3859568306899,2337
550.7056454349294,2215
553.0246979415016,2329
555.3431145648834,2292
557.6608955196306,2297
559.978041020377,2312
562.2945512818363,2279
564.6104265188006,2265
566.9256669461412,2236
569.2402727788082,2257
571.5542442318302,2268
573.8675815203156,2327
576.1802848594508,2348
578.4923544645015,2399
580.8037905508126,2378
583.114593333807,2301
585.4247630289875,2338
587.7342998519354,2266
590.0432040183106,2283
592.3514757438526,2365
594.6591152443794,2373
596.9661227357875,2331
599.2724984340531,2319
601.578242555231,2371
603.8833553154542,2237
606.1878369309362,2302
608.4916876179676,2313
610.7949075929192,2261
613.0974970722403,2380
615.3994562724587,2269
617.7007854101818,2304
620.0014847020951,2353
622.3015543649641,2295
624.6009946156324,2352
626.8998056710224,2338
629.1979877481361,2317
631.4955410640538,2292
633.7924658359349,2319
636.0887622810175,2374
638.3844306166192,2289
640.6794710601358,2273
642.9738838290426,2269
645.2676691408932,2370
647.5608272133207,2395
649.853358264037,2462
652.1452625108324,2384
654.4365401715764,2337
656.7271914642178,2332
659.0172166067838,2374
661.3066158173809,2405
663.5953893141935,2401
665.8835373154867,2384
668.1710600396028,2372
670.4579577049639,2441
672.7442305300709,2384
675.0298787335033,2364
677.3149025339197,2375
679.599302150058,2339
681.8830778007342,2382
684.1662297048437,2391
686.4487580813608,2346
688.7306631493387,2390
691.0119451279091,2332
693.2926042362834,2431
695.5726406937516,2383
697.8520547196814,2415
700.1308465335215,2333
702.4090163547982,2207
704.6865644031171,2300
706.9634908981619,2324
709.2397960596965,2340
711.5154801075631,2331
713.7905432616823,2367
716.0649857420548,2289
718.3388077687592,2326
720.612009561953,2271
722.8845913418733,2321
725.1565533288352,2215
727.427895743234,2162
729.6986188055427,2278
731.9687227363137,2304
734.238207756178,2320
736.5070740858458,2234
738.7753219461066,2294
741.0429515578281,2327
743.3099631419569,2320
745.5763569195191,2327
747.8421331116193,2335
750.1072919394409,2250
752.3718336242467,2267
754.6357583873777,2209
756.8990664502545,2293
759.1617580343765,2312
761.423833361321,2329
763.6852926527457,2347
765.9461361303862,2225
768.206364016058,2257
770.4659765316536,2393
772.7249738991469,2243
774.9833563405886,2316
777.2411240781092,2303
779.4982773339183,2286
781.7548163303044,2274
784.010741289634,2328
786.2660524343538,2434
788.5207499869881,2268
790.7748341701416,2345
793.0283052064964,2383
795.2811633188143,2372
797.5334087299362,2344
799.7850416627813,2277
802.0360623403484,2286
804.2864709857143,2375
806.5362678220353,2341
808.7854530725468,2323
811.0340269605625,2383
813.2819897094754,2343
815.5293415427581,2306
817.77608268396,2355
820.0222133567116,2364
822.2677337847211,2313
824.5126441917765,2322
826.7569448017433,2382
829.0006358385675,2371
831.2437175262731,2316
833.4861900889629,2356
835.7280537508192,2388
837.9693087361026,2389
840.2099552691533,2310
842.4499935743896,2366
844.689423876309,2337
846.9282463994886,2348
849.1664613685833,2363
851.4040690083276,2338
853.6410695435349,2383
855.877463199097,2369
858.1132501999847,2388
860.3484307712487,2327
862.5830051380175,2420
864.8169735254988,2353
867.0503361589791,2432
869.2830932638243,2336
871.5152450654786,2419
873.7467917894654,2375
875.9777336613873,2359
878.2080709069252,2320
880.4378037518389,2428
882.666932421968,2452
884.8954571432301,2502
887.1233781416219,2507
889.3506956432192,2478
891.5774098741766,2439
893.803521060728,2436
896.0290294291852,2397
898.2539352059397,2442
900.4782386174619,2346
902.7019398903011,2369
904.925039251085,2439
907.147536926521,2442
909.3694331433943,2392
911.59072812857,2391
913.8114221089921,2341
916.0315153116827,2450
918.2510079637437,2395
920.4699002923547,2338
922.6881925247761,2378
924.905884888345,2343
927.1229776104793,2480
929.3394709186747,2338
931.555365040506,2426
933.7706602036275,2390
935.9853566357709,2389
938.1994545647489,2456
940.4129542184515,2403
942.6258558248488,2497
944.8381596119883,2459
947.0498658079974,2506
949.2609746410825,2492
951.4714863395287,2514
953.6814011316998,2515
955.8907192460387,2427
958.0994409110671,2454
960.3075663553858,2466
962.5150958076741,2453
964.7220294966913,2473
966.928367651274,2412
969.1341105003388,2425
971.3392582728806,2406
973.5438111979742,2350
975.747769504772,2410
977.9511334225061,2358
980.153903180487,2415
982.3560790081052,2300
984.5576611348289,2341
986.7586497902058,2305
988.9590452038618,2225
991.158847605503,2200
993.3580572249133,2207
995.5566742919558,2152
997.7546990365728,2046
999.952131688785,2097
1002.1489724786926,2033
1004.3452216364743,2034
1006.5408793923874,2021
1008.7359459767691,2022
1010.9304216200343,2011
1013.1243065526781,1956
1015.3176010052733,1999
1017.510305208472,1955
1019.7024193930064,1954
1021.8939437896848,1971
1024.0848786293977,1985
1026.2752241431122,1964
1028.4649805618747,1992
1030.6541481168115,1977
1032.842727039127,1967
1035.0307175601051,1948
1037.2181199111074,1999
1039.4049343235752,1900
1041.591161029029,1875
1043.7768002590683,1978
1045.9618522453698,1896
1048.1463172196918,1958
1050.3301954138697,1925
1052.513487059818,1968
1054.69619238953,1956
1056.8783116350783,1854
1059.0598450286152,1838
1061.2407928023704,1812
1063.4211551886528,1941
1065.6009324198508,1844
1067.780124728432,1864
1069.9587323469414,1826
1072.1367555080046,1869
1074.314194444325,1864
1076.4910493886855,1819
1078.667320573947,1840
1080.843008233051,1784
1083.0181125990161,1836
1085.1926339049414,1805
1087.3665723840027,1831
1089.5399282694575,1824
1091.7127017946405,1784
1093.8848931929647,1839
1096.0565026979243,1805
1098.2275305430899,1785
1100.3979769621128,1780
1102.567842188722,1776
1104.737126456726,1692
1106.9058300000124,1732
1109.0739530525475,1774
1111.2414958483764,1839
1113.4084586216231,1790
1115.5748416064907,1738
1117.7406450372605,1739
1119.9058691482942,1765
1122.0705141740304,1775
1124.2345803489884,1699
1126.3980679077658,1749
1128.5609770850388,1749
1130.7233081155623,1742
1132.8850612341707,1794
1135.0462366757774,1789
1137.2068346753745,1775
1139.3668554680326,1752
1141.526299288901,1714
1143.68516637321,1753
1145.8434569562655,1783
1148.001171273455,1751
1150.158309560244,1696
1152.3148720521767,1795
1154.470858984876,1745
1156.626270594044,1797
1158.7811071154629,1710
1160.9353687849912,1723
1163.089055838569,1756
1165.242168512213,1738
1167.3947070420209,1763
1169.5466716641677,1719
1171.6980626149075,1732
1173.8488801305748,1689
1175.9991244475814,1708
1178.1487958024186,1725
1180.2978944316555,1630
1182.4464205719428,1714
1184.5943744600072,1703
1186.7417563326567,1778
1188.8885664267755,1656
1191.0348049793297,1628
1193.1804722273619,1721
1195.325568407995,1724
1197.4700937584303,1679
1199.614048515948,1715
1201.7574329179074,1694
1203.900247201746,1710
1206.042491604982,1670
1208.1841663652099,1721
1210.3252717201053,1710
1212.465807907422,1776
1214.6057751649923,1767
1216.7451737307279,1738
1218.8840038426192,1719
1221.0222657387353,1764
1223.1599596572241,1716
1225.2970858363137,1672
1227.4336445143094,1709
1229.5696359295966,1736
1231.705060320639,1762
1233.8399179259786,1778
1235.9742089842384,1799
1238.107933734118,1757
1240.2410924143974,1767
1242.373685263935,1785
1244.5057125216676,1840
1246.6371744266116,1722
1248.7680712178621,1730
1250.898403134593,1850
1253.028170416058,1780
1255.1573733015875,1793
1257.2860120305932,1781
1259.4140868425648,1842
1261.54159797707,1800
1263.6685456737569,1791
1265.7949301723515,1786
1267.9207517126597,1851
1270.046010534565,1778
1272.1707068780306,1841
1274.2948409830983,1855
1276.4184130898889,1829
1278.541423438603,1857
1280.6638722695184,1804
1282.785759822993,1910
1284.9070863394636,1838
1287.0278520594447,1828
1289.1480572235314,1864
1291.2677020723963,1878
1293.3867868467923,1915
1295.5053117875495,1928
1297.623277135579,1939
1299.740683131868,1933
1301.8575300174857,1977
1303.973818033578,1985
1306.0895474213703,1955
1308.2047184221678,1980
1310.3193312773528,2029
1312.4333862283888,2003
1314.5468835168163,1930
1316.659823384255,1980
1318.7722060724045,1955
1320.8840318230418,1960
1322.9953008780249,2050
1325.1060134792888,2004
1327.2161698688478,1962
1329.3257702887959,1946
1331.4348149813054,2008
1333.5433041886276,2009
1335.6512381530933,1918
1337.7586171171101,1955
1339.8654413231675,1969
1341.9717110138317,1984
1344.0774264317488,1858
1346.1825878196432,1996
1348.2871954203192,1877
1350.3912494766587,2004
1352.4947502316231,1953
1354.5976979282532,2006
1356.7000928096686,1978
1358.8019351190665,1915
1360.9032250997243,1945
1363.0039629949988,1994
1365.1041490483235,1942
1367.2037835032133,2029
1369.3028666032606,2008
1371.401398592137,1914
1373.4993797135926,1986
1375.5968102114575,1957
1377.6936903296396,1979
1379.7900203121262,2027
1381.8858004029835,1932
1383.9810308463561,1967
1386.075711886469,1988
1388.1698437676241,1964
1390.2634267342032,2018
1392.356461030667,2000
1394.4489469015557,2037
1396.5408845914872,1897
1398.6322743451592,2056
1400.7231164073469,2085
1402.813411022907,2097
1404.903158436773,2068
1406.9923588939578,2072
1409.0810126395531,2119
1411.1691199187303,2173
1413.2566809767386,2056
1415.343696058907,2139
1417.4301654106425,2133
1419.5160892774315,2163
1421.6014679048399,2227
1423.6863015385125,2243
1425.7705904241707,2178
1427.8543348076178,2212
1429.9375349347342,2171
1432.0201910514802,2198
1434.102303403894,2266
1436.1838722380944,2227
1438.2648978002767,2291
1440.3453803367174,2269
1442.4253200937692,2397
1444.5047173178677,2351
1446.5835722555234,2447
1448.6618851533285,2444
1450.739656257952,2500
1452.8168858161434,2491
1454.8935740747306,2517
1456.96972128062,2621
1459.045327680797,2593
1461.120393522327,2617
1463.1949190523528,2718
1465.2689045180973,2785
1467.3423501668608,2829
1469.415256246024,2866
1471.4876230030463,2915
1473.559450685465,2859
1475.6307395408976,3030
1477.7014898170391,3023
1479.771701761665,3072
1481.8413756226287,3130
1483.9105116478618,3185
1485.9791100853772,3243
1488.0471711832643,3359
1490.1146951896926,3370
1492.1816823529098,3432
1494.2481329212433,3483
1496.3140471430984,3482
1498.3794252669609,3472
1500.4442675413939,3585
1502.5085742150404,3628
1504.572345536622,3668
1506.6355817549388,3749
1508.6982831188702,3628
1510.7604498773744,3681
1512.8220822794883,3720
1514.8831805743293,3734
1516.9437450110909,3806
1519.003775839048,3740
1521.0632733075522,4032
1523.1222376660367,4028
1525.1806691640113,3967
1527.2385680510652,4033
1529.2959345768668,4238
1531.3527689911643,4141
1533.4090715437833,4190
1535.4648424846291,4262
1537.5200820636855,4405
1539.5747905310159,4378
1541.6289681367616,4421
1543.6826151311434,4375
1545.7357317644614,4544
1547.7883182870937,4584
1549.8403749494987,4697
1551.8919020022113,4749
1553.9428996958477,4916
1555.9933682811015,5010
1558.0433080087469,5093
1560.0927191296346,5114
1562.1416018946961,5167
1564.1899565549415,5164
1566.2377833614592,5090
1568.2850825654164,4858
1570.3318544180606,4916
1572.3780991707158,4728
1574.423817074788,4428
1576.4690083817595,4271
1578.5136733431923,4107
1580.5578122107272,3877
1582.601425236085,3767
1584.6445126710646,3577
1586.6870747675434,3437
1588.7291117774776,3188
1590.7706239529034,3089
1592.8116115459347,3013
1594.8520748087658,2941
1596.8920139936686,2777
1598.9314293529933,2663
1600.9703211391711,2565
1603.008689604711,2565
1605.0465350022005,2490
1607.0838575843068,2466
1609.1206576037753,2386
1611.1569353134305,2359
1613.1926909661765,2215
1615.2279248149953,2254
1617.2626371129481,2210
1619.2968281131757,2101
1621.3304980688963,2173
1623.3636472334088,2149
1625.39627586009,2041
1627.428384202396,1987
1629.459972513861,1983
1631.4910410480993,1947
1633.5215900588028,2013
1635.551619799744,1936
1637.5811305247717,1890
1639.6101224878166,1947
1641.6385959428862,1919
1643.6665511440683,1834
1645.693988345528,1852
1647.7209078015112,1842
1649.7473097663405,1890
1651.7731944944203,1891
1653.7985622402307,1837
1655.823413258333,1871
1657.847747803366,1832
1659.8715661300494,1817
1661.8948684931793,1840
1663.9176551476316,1815
1665.9399263483624,1904
1667.9616823504057,1858
1669.982923408873,1846
1672.0036497789574,1804
1674.0238617159293,1834
1676.043559475138,1865
1678.0627433120121,1820
1680.081413482059,1834
1682.0995702408654,1831
1684.117213844096,1901
1686.134344547495,1800
1688.1509626068864,1815
1690.1670682781705,1812
1692.182661817329,1776
1694.1977434804217,1819
1696.2123135235875,1857
1698.226372203043,1790
1700.2399197750851,1784
1702.2529564960905,1818
1704.2654826225112,1771
1706.277498410882,1777
1708.2890041178139,1729
1710.2999999999988,1747
1712.3104863142066,1756
1714.3204633172854,1692
1716.329931266163,1784
1718.3388904178469,1792
1720.3473410294214,1773
1722.3552833580516,1780
1724.3627176609807,1736
1726.3696441955308,1769
1728.3760632191033,1760
1730.3819749891782,1733
1732.3873797633146,1779
1734.3922777991502,1669
1736.3966693544012,1659
1738.4005546868639,1753
1740.4039340544127,1728
1742.406807715001,1774
1744.4091759266616,1730
1746.4110389475054,1718
1748.4123970357223,1700
1750.413250449582,1706
1752.4135994474318,1657
1754.4134442876993,1685
1756.4127852288902,1670
1758.4116225295893,1690
1760.4099564484595,1720
1762.407787244244,1642
1764.405115175764,1665
1766.4019405019203,1651
1768.3982634816916,1649
1770.3940843741357,1663
1772.3894034383907,1649
1774.3842209336717,1672
1776.378537119274,1646
1778.372352254571,1582
1780.3656665990156,1637
1782.3584804121397,1637
1784.3507939535534,1582
1786.3426074829463,1655
1788.3339212600863,1658
1790.3247355448211,1702
1792.3150505970766,1704
1794.3048666768573,1603
1796.2941840442477,1648
1798.2830029594106,1652
1800.2713236825884,1620
1802.2591464741004,1597
1804.2464715943465,1621
1806.2332993038058,1574
1808.2196298630352,1596
1810.2054635326708,1585
1812.190800573428,1644
1814.175641246101,1624
1816.1599858115628,1586
1818.1438345307652,1629
1820.127187664738,1615
1822.1100454745924,1652
1824.092408221516,1592
1826.0742761667766,1575
1828.055649571721,1642
1830.0365286977735,1619
1832.0169138064398,1565
1833.9968051593014,1605
1835.9762030180214,1615
1837.9551076443408,1663
1839.9335193000788,1614
1841.9114382471344,1677
1843.888864747485,1657
1845.8657990631878,1673
1847.842241456378,1567
1849.8181921892697,1554
1851.7936515241558,1580
1853.7686197234098,1634
1855.7430970494815,1614
1857.7170837649014,1571
1859.6905801322787,1570
1861.6635864143004,1598
1863.6361028737338,1576
1865.608129773424,1622
1867.5796673762961,1590
1869.5507159453537,1632
1871.521275743678,1604
1873.4913470344313,1635
1875.4609300808534,1665
1877.4300251462632,1621
1879.3986324940588,1657
1881.366752387717,1671
1883.3343850907936,1705
1885.3015308669228,1691
1887.268189979819,1611
1889.2343626932739,1642
1891.2000492711595,1685
1893.1652499774254,1606
1895.1299650761011,1646
1897.0941948312952,1654
1899.0579395071945,1693
1901.0211993680641,1594
1902.98397467825,1651
1904.9462657021745,1721
1906.9080727043415,1641
1908.869395949332,1643
1910.8302357018065,1601
1912.790592226504,1590
1914.7504657882428,1565
1916.7098566519212,1580
1918.6687650825133,1638
1920.6271913450764,1634
1922.5851357047422,1710
1924.5425984267245,1628
1926.499579776314,1586
1928.4560800188833,1661
1930.4120994198802,1671
1932.367638244833,1627
1934.32269675935,1666
1936.2772752291175,1613
1938.231373919899,1653
1940.1849930975404,1616
1942.1381330279637,1576
1944.0907939771696,1624
1946.0429762112412,1587
1947.9946799963363,1570
1949.9459055986945,1636
1951.896653284633,1616
1953.8469233205478,1541
1955.7967159729142,1640
1957.7460315082863,1584
1959.6948701932974,1588
1961.6432322946594,1598
1963.5911180791632,1581
1965.5385278136787,1524
1967.4854617651545,1542
1969.4319202006182,1563
1971.377903387176,1561
1973.3234115920136,1614
1975.268445082395,1576
1977.2130041256642,1531
1979.1570889892423,1615
1981.1006999406304,1554
1983.04383724741,1605
1984.986501177238,1565
1986.928691997853,1583
1988.8704099770712,1572
1990.811655382789,1557
1992.7524284829801,1543
1994.692729545698,1538
1996.6325588390755,1490
1998.5719166313224,1560
2000.5108031907307,1546
2002.4492187856677,1569
2004.387163684583,1612
2006.3246381560011,1489
2008.2616424685298,1585
2010.1981768908527,1536
2012.1342416917332,1534
2014.069837140014,1511
2016.0049635046162,1553
2017.9396210545406,1537
2019.8738100588666,1541
2021.8075307867502,1548
2023.740783507431,1520
2025.6735684902228,1596
2027.6058860045214,1527
2029.5377363198004,1496
2031.4691197056118,1497
2033.4000364315875,1479
2035.3304867674374,1507
2037.260470982952,1526
2039.189989347998,1566
2041.1190421325232,1553
2043.047629606554,1560
2044.9757520401945,1535
2046.9034097036288,1543
2048.8306028671195,1521
2050.7573318010086,1565
2052.683596775716,1525
2054.609398061742,1489
2056.5347359296647,1490
2058.4596106501403,1479
2060.384022493906,1535
2062.3079717317764,1533
2064.231458634646,1565
2066.1544834734873,1483
2068.077046519352,1530
2069.99914804337,1465
2071.9207883167524,1506
2073.8419676107865,1442
2075.7626861968406,1504
2077.6829443463607,1466
2079.6027423308715,1465
2081.522080421977,1520
2083.440958891362,1466
2085.359378010786,1481
2087.2773380520907,1519
2089.194839287196,1505
2091.111881988101,1460
2093.0284664268825,1505
2094.9445928756973,1537
2096.86026160678,1500
2098.775472892446,1491
2100.690227005088,1512
2102.604524217178,1523
2104.5183648012676,1570
2106.431749029985,1485
2108.34467717604,1510
2110.2571495122206,1552
2112.169166311393,1545
2114.080727846503,1504
2115.9918343905747,1545
2117.902486216711,1535
2119.8126835980956,1496
2121.722426807987,1547
2123.6317161197285,1570
2125.5405518067364,1556
2127.448934142509,1599
2129.356863400624,1610
2131.264339854737,1581
2133.1713637785815,1546
2135.077935445972,1546
2136.9840551308002,1541
2138.889723107037,1572
2140.7949396487334,1535
2142.699705030018,1590
2144.6040195250994,1517
2146.507883408264,1501
2148.4112969538774,1510
2150.3142604363848,1507
2152.2167741303097,1572
2154.1188383102535,1570
2156.0204532508997,1552
2157.9216192270064,1537
2159.822336513414,1502
2161.7226053850413,1524
2163.622426116884,1573
2165.5217989840185,1566
2167.4207242616,1551
2169.319202224862,1609
2171.2172331491165,1565
2173.1148173097563,1576
2175.0119549822507,1590
2176.90864644215,1539
2178.8048919650823,1567
2180.7006918267534,1573
2182.596046302952,1559
2184.4909556695407,1599
2186.3854202024645,1558
2188.279440177746,1597
2190.173015871487,1575
2192.066147559868,1578
2193.958835519149,1664
2195.851080025667,1581
2197.7428813558417,1545
2199.6342397861667,1666
2201.5251555932186,1625
2203.415629053651,1598
2205.3056604441986,1627
2207.19525004167,1616
2209.084398122958,1586
2210.9731049650327,1598
2212.861370844941,1636
2214.749196039812,1596
2216.636580826851,1635
2218.523525483344,1653
2220.410030286655,1609
2222.296095514226,1625
2224.1817214435805,1571
2226.066908352319,1622
2227.951656518121,1602
2229.835966218746,1614
2231.71983773203,1672
2233.6032713358913,1597
2235.486267308324,1624
2237.3688259274036,1583
2239.2509474712824,1629
2241.132632218193,1573
2243.013880446447,1632
2244.8946924344323,1623
2246.7750684606203,1497
2248.6550088035574,1648
2250.534513741871,1650
2252.413583554265,1634
2254.292218519526,1623
2256.170418916517,1599
2258.0481850241786,1637
2259.925517121534,1508
2261.8024154876825,1587
2263.678880401803,1600
2265.5549121431536,1541
2267.430510991071,1534
2269.305677224971,1636
2271.180411124348,1605
2273.0547129687766,1604
2274.9285830379076,1544
2276.8020216114737,1617
2278.6750289692845,1602
2280.5476053912294,1596
2282.4197511572766,1637
2284.2914665474727,1628
2286.162751841943,1668
2288.0336073208937,1637
2289.904033264608,1690
2291.774029953448,1684
2293.6435976678554,1632
2295.5127366883517,1567
2297.381447295534,1593
2299.2497297700825,1539
2301.1175843927526,1577
2302.9850114443825,1483
2304.852011205885,1467
2306.7185839582553,1442
2308.5847299825664,1440
2310.4504495599676,1467
2312.3157429716925,1448
2314.1806104990483,1397
2316.0450524234247,1389
2317.9090690262888,1444
2319.772660589186,1405
2321.635827393742,1363
2323.498569721661,1388
2325.3608878547248,1391
2327.2227820747967,1414
2329.0842526638157,1452
2330.945299903803,1363
2332.805924076857,1363
2334.6661254651535,1402
2336.525904350951,1341
2338.3852610165827,1360
2340.244195744464,1366
2342.102708817088,1421
2343.9608005170253,1422
2345.8184711269287,1417
2347.675720929526,1421
2349.532550207628,1416
2351.38895924412,1419
2353.24494832197,1439
2355.100517724223,1426
2356.955667734004,1439
2358.810398634514,1412
2360.664710709037,1365
2362.5186042409337,1408
2364.3720795136437,1453
2366.225136810686,1441
2368.0777764156583,1505
2369.929998612237,1397
2371.7818036841777,1432
2373.633191915315,1438
2375.484163589562,1442
2377.3347189909114,1437
2379.184858403434,1438
2381.03458211128,1493
2382.8838903986775,1424
2384.732783549936,1497
2386.5812618494406,1473
2388.4293255816588,1500
2390.2769750311327,1465
2392.1242104824883,1506
2393.971032220427,1479
2395.8174405297295,1426
2397.6634356952563,1473
2399.509018001947,1452
2401.3541877348193,1404
2403.1989451789705,1474
2405.043290619576,1451
2406.8872243418905,1459
2408.730746631247,1403
2410.5738577730594,1488
2412.4165580528183,1417
2414.258847756095,1480
2416.100727168537,1485
2417.9421965758734,1453
2419.783256263912,1443
2421.623906518538,1452
2423.4641476257157,1406
2425.303979871491,1465
2427.143403541984,1479
2428.9824189233977,1462
2430.821026302012,1516
2432.6592259641866,1493
2434.497018196361,1514
2436.33440328505,1451
2438.171381516851,1477
2440.00795317844,1510
2441.844118556569,1478
2443.6798779380724,1515
2445.5152316098606,1501
2447.3501798589255,1458
2449.1847229723357,1484
2451.0188612372403,1449
2452.8525949408663,1515
2454.6859243705203,1556
2456.518849813587,1425
2458.3513715575314,1520
2460.183489889895,1464
2462.015205098301,1472
2463.8465174704493,1503
2465.67742729412,1466
2467.5079348571717,1518
2469.338040447542,1484
2471.1677443532476,1499
2472.9970468623833,1521
2474.825948263123,1542
2476.6544488437207,1460
2478.482548892508,1528
2480.310248697896,1490
2482.137548548374,1516
2483.9644487325118,1511
2485.790949538956,1496
2487.617051256433,1466
2489.44275417375,1499
2491.26805857979,1486
2493.0929647635157,1525
2494.917473013971,1567
2496.741583620276,1547
2498.5652968716304,1589
2500.3886130573137,1545
2502.2115324666834,1524
2504.0340553891765,1546
2505.856182114308,1565
2507.6779129316733,1552
2509.499248130945,1524
2511.3201880018764,1596
2513.140732834298,1597
2514.9608829181198,1554
2516.780638543331,1530
2518.6,1552
2520.418967578273,1582
2522.237541568376,1524
2524.0557222606144,1549
2525.8735099453706,1570
2527.6909049131086,1630
2529.507907454368,1630
2531.32451785977,1634
2533.140736420014,1576
2534.9565634258774,1638
2536.771999168218,1637
2538.5870439379714,1658
2540.4016980261526,1620
2542.2159617238544,1685
2544.02983532225,1663
2545.8433191125914,1724
2547.656413386209,1708
2549.4691184345115,1654
2551.2814345489874,1692
2553.093362021204,1773
2554.904901142808,1704
2556.716052205523,1786
2558.526815501153,1694
2560.3371913215824,1796
2562.147179958771,1807
2563.956781704761,1797
2565.7659968516705,1786
2567.5748256916986,1809
2569.3832685171224,1833
2571.1913256202984,1854
2572.9989972936614,1853
2574.806283829725,1912
2576.613185521084,1850
2578.4197026604074,1943
2580.2258355404483,1819
2582.031584454035,1903
2583.836949694077,1908
2585.6419315535613,1970
2587.4465303255533,1933
2589.2507463032002,1944
2591.0545797797245,1909
2592.8580310484303,1939
2594.6611004026995,1994
2596.463788135992,1910
2598.266094541849,1989
2600.0680199138874,1888
2601.869564545807,1993
2603.670728731383,2002
2605.4715127644704,2029
2607.2719169390048,2064
2609.071941548998,1984
2610.8715868885433,1996
2612.670853251811,2000
2614.469740933052,2037
2616.268250226594,1942
2618.0663814268455,1911
2619.864134828292,1969
2621.6615107255006,1900
2623.458509413115,1936
2625.2551311858597,1951
2627.0513763385347,1889
2628.8472451660223,1853
2630.6427379632833,1869
2632.4378550253564,1841
2634.232596647359,1775
2636.026963124488,1872
2637.8209547520187,1769
2639.6145718253065,1805
2641.407814639785,1787
2643.200683490966,1802
2644.9931786744414,1873
2646.7853004858807,1786
2648.577049221034,1761
2650.3684251757277,1660
2652.1594286458712,1704
2653.9500599274484,1710
2655.740319316525,1690
2657.5302071092437,1652
2659.3197236018286,1637
2661.10886909058,1703
2662.8976438718782,1674
2664.686048242183,1655
2666.4740824980327,1582
2668.2617469360443,1646
2670.0490418529134,1658
2671.8359675454153,1630
2673.622524310403,1612
2675.408712444811,1621
2677.1945322456495,1584
2678.979984010009,1619
2680.76506803506,1554
2682.5497846180497,1460
2684.334134056306,1519
2686.1181166472343,1580
2687.9017326883213,1566
2689.6849824771293,1523
2691.4678663113013,1513
2693.2503844885596,1522
2695.032537306705,1525
2696.8143250636167,1494
2698.5957480572542,1524
2700.3768065856534,1488
2702.1575009469316,1462
2703.937831439283,1542
2705.717798360982,1393
2707.4974020103837,1476
2709.276642685917,1443
2711.055520686095,1414
2712.834036309506,1447
2714.612189854819,1499
2716.389981620782,1420
2718.1674119062204,1436
2719.944481010041,1434
2721.721189231226,1452
2723.4975368688415,1457
2725.273524222027,1415
2727.0491515900053,1517
2728.824419272075,1475
2730.5993275676146,1441
2732.3738767760838,1429
2734.148067197016,1464
2735.921899130031,1415
2737.6953728748194,1400
2739.468488731156,1409
2741.2412469988926,1404
2743.0136479779617,1381
2744.785691968372,1405
2746.5573792702116,1437
2748.3287101836504,1437
2750.099685008934,1393
2751.870304046388,1456
2753.640567596418,1364
2755.4104759595057,1413
2757.1800294362156,1363
2758.949228327187,1424
2760.7180729331412,1432
2762.486563554877,1386
2764.254700493272,1388
2766.022484049284,1376
2767.789914523947,1402
2769.5569922183786,1367
2771.3237174337705,1341
2773.090090471394,1457
2774.8561116326036,1404
2776.6217812188274,1404
2778.3870995315756,1409
2780.1520668724356,1375
2781.9166835430747,1370
2783.6809498452394,1417
2785.444866080754,1378
2787.2084325515225,1371
2788.971649559527,1394
2790.73451740683,1374
2792.4970363955713,1360
2794.2592068279705,1375
2796.0210290063264,1343
2797.7825032330147,1355
2799.543629810493,1358
2801.304409041296,1399
2803.0648412280366,1364
2804.8249266734088,1436
2806.5846656801846,1347
2808.344058551212,1391
2810.1031055894246,1419
2811.8618070978273,1461
2813.6201633795085,1383
2815.378174737636,1384
2817.1358414754536,1367
2818.893163896285,1393
2820.6501423035334,1378
2822.4067770006814,1456
2824.1630682912883,1365
2825.9190164789957,1398
2827.6746218675207,1356
2829.429884760661,1411
2831.184805462294,1357
2832.9393842763743,1413
2834.693621506936,1380
2836.4475174580916,1358
2838.201072434034,1396
2839.954286739034,1358
2841.707160677441,1406
2843.459694553685,1433
2845.2118886722724,1371
2846.96374333779,1369
2848.7152588549034,1403
2850.4664355283567,1473
2852.217273662973,1352
2853.9677735636546,1387
2855.7179355353833,1374
2857.4677598832186,1424
2859.217246912299,1370
2860.9663969278427,1316
2862.715210235146,1301
2864.4636871395846,1403
2866.211827946614,1333
2867.9596329617652,1318
2869.7071024906536,1390
2871.4542368389684,1350
2873.20103631248,1455
2874.947501217038,1377
2876.6936318585695,1343
2878.4394285430812,1374
2880.1848915766604,1361
2881.9300212654707,1383
2883.6748179157553,1338
2885.4192818338374,1363
2887.1634133261173,1321
2888.907212699077,1395
2890.6506802592744,1337
2892.393816313348,1399
2894.1366211680142,1371
2895.8790951300693,1393
2897.621238506388,1361
2899.363051603925,1346
2901.1045347297118,1344
2902.8456881908596,1364
2904.58651229456,1371
2906.327007348081,1314
2908.067173658772,1305
2909.8070115340597,1336
2911.5465212814497,1334
2913.285703208527,1371
2915.0245576229563,1299
2916.7630848324807,1342
2918.5012851449196,1392
2920.2391588681758,1334
2921.976706310227,1349
2923.7139277791334,1364
2925.4508235830313,1342
2927.187394030137,1325
2928.923639428745,1375
2930.6595600872306,1304
2932.395156314046,1379
2934.1304284177218,1411
2935.8653767068713,1373
2937.6000014901815,1386
2939.3343030764227,1370
2941.068281774442,1407
2942.8019378931644,1393
2944.5352717415976,1379
2946.2682836288236,1379
2948.0009738640065,1371
2949.7333427563885,1323
2951.465390615289,1377
2953.1971177501086,1434
2954.9285244703265,1366
2956.6596110855,1380
2958.3903779052657,1426
2960.1208252393385,1368
2961.8509533975125,1356
2963.5807626896617,1389
2965.3102534257378,1382
2967.0394259157715,1344
2968.768280469873,1365
2970.496817398232,1339
2972.2250370111146,1356
2973.952939618869,1451
2975.6805255319196,1375
2977.4077950607707,1432
2979.134748516006,1437
2980.861386208289,1371
2982.587708448359,1349
2984.313715547037,1355
2986.039407815222,1396
2987.764785563891,1403
2989.489849104102,1359
2991.2145987469908,1341
2992.9390348037705,1383
2994.6631575857346,1367
2996.3869674042576,1363
2998.1104645707887,1354
2999.83364939686,1349
3001.5565221940783,1333
3003.2790832741334,1387
3005.0013329487924,1356
3006.7232715298996,1336
3008.4448993293804,1333
3010.166216659239,1306
3011.887223831558,1372
3013.607921158498,1356
3015.3283089522993,1377
3017.0483875252826,1320
3018.7681571898443,1270
3020.4876182584626,1298
3022.2067710436927,1305
3023.9256158581707,1293
3025.644153014609,1315
3027.362382825801,1340
3029.0803056046193,1374
3030.797921664012,1310
3032.5152313170106,1388
3034.2322348767225,1324
3035.9489326563353,1340
3037.665324969115,1376
3039.3814121284063,1359
3041.097194447633,1330
3042.812672240299,1361
3044.5278458199855,1379
3046.2427155003525,1337
3047.9572815951406,1311
3049.671544418167,1399
3051.38550428333,1362
3053.0991615046073,1362
3054.812516396051,1391
3056.5255692717974,1373
3058.2383204460575,1351
3059.9507702331257,1344
3061.662918947372,1389
3063.3747669032446,1311
3065.0863144152736,1369
3066.7975617980674,1365
3068.508509366309,1318
3070.219157434767,1322
3071.9295063182844,1336
3073.639556331785,1383
3075.3493077902704,1396
3077.058761008821,1384
3078.7679163025964,1402
3080.476773986837,1344
3082.1853343768594,1437
3083.89359778806,1352
3085.6015645359153,1345
3087.3092349359786,1313
3089.016609303884,1389
3090.7236879553434,1358
3092.4304712061476,1364
3094.136959372166,1372
3095.843152769349,1370
3097.5490517137237,1364
3099.2546565213966,1286
3100.959967508554,1358
3102.66498499146,1379
3104.3697092864577,1342
3106.0741407099695,1365
3107.778279578498,1342
3109.482126208622,1329
3111.1856809170004,1381
3112.8889440203716,1364
3114.5919158355528,1380
3116.294596679439,1376
3117.996986869006,1390
3119.6990867213062,1393
3121.4008965534726,1296
3123.102416682717,1329
3124.803647426329,1348
3126.5045891016784,1392
3128.205242026213,1362
3129.90560651746,1372
3131.605682893025,1356
3133.3054714705922,1335
3135.0049725679282,1375
3136.7041865028714,1378
3138.4031135933465,1335
3140.101754157353,1367
3141.800108512971,1343
3143.498176978357,1320
3145.1959598717494,1326
3146.8934575114636,1361
3148.5906702158954,1372
3150.2875983035183,1343
3151.9842420928853,1326
3153.680601902627,1410
3155.376678051456,1348
3157.07247085816,1329
3158.767980641609,1360
3160.463207720748,1335
3162.158152414606,1334
3163.8528150422862,1374
3165.5471959229726,1355
3167.2412953759303,1387
3168.9351137204976,1372
3170.628651276098,1338
3172.3219083622307,1383
3174.014885298474,1355
3175.707582404485,1329
3177.4000000000005,1348
3179.092138404835,1310
3180.7839979388846,1358
3182.47557892212,1309
3184.166881674594,1384
3185.8579065164386,1360
3187.5486537678626,1358
3189.2391237491547,1313
3190.9293167806827,1373
3192.6192331828934,1330
3194.3088732763117,1349
3195.998237381542,1368
3197.687325819268,1323
3199.376138910251,1325
3201.064676975334,1308
3202.7529403354347,1341
3204.4409293115523,1352
3206.1286442247647,1265
3207.816085396229,1291
3209.5032531471825,1297
3211.190147798936,1242
3212.8767696728846,1279
3214.5631190905015,1278
3216.2491963733373,1343
3217.9350018430214,1319
3219.6205358212637,1295
3221.305798629851,1294
3222.990790590651,1246
3224.6755120256103,1351
3226.359963256751,1285
3228.0441446061795,1219
3229.7280563960758,1313
3231.411698948703,1263
3233.0950725863995,1311
3234.778177631587,1340
3236.461014406761,1253
3238.1435832345005,1338
3239.8258844374595,1298
3241.507918338374,1321
3243.1896852600576,1245
3244.8711855254023,1306
3246.552419457381,1290
3248.233387379042,1258
3249.914089613516,1280
3251.59452648401,1301
3253.274698313813,1251
3254.95460542629,1332
3256.6342481448855,1323
3258.313626793125,1324
3259.9927416946084,1289
3261.6715931730196,1283
3263.3501815521176,1306
3265.0285071557437,1233
3266.706570307815,1281
3268.3843713323286,1282
3270.0619105533615,1290
3271.739188295068,1290
3273.4162048816834,1348
3275.0929606375184,1270
3276.769455886966,1292
3278.445690954498,1288
3280.1216661646613,1293
3281.797381842087,1310
3283.4728383114807,1309
3285.1480358976296,1296
3286.8229749253996,1271
3288.4976557197333,1301
3290.172078605655,1218
3291.846243908266,1290
3293.5201519527463,1287
3295.193803064357,1273
3296.8671975684374,1314
3298.5403357904024,1298
3300.21321805575,1278
3301.8858446900567,1286
3303.558216018975,1289
3305.23033236824,1285
3306.9021940636603,1311
3308.57380143113,1351
3310.2451547966184,1278
3311.916254486174,1292
3313.5871008259246,1352
3315.2576941420766,1298
3316.9280347609147,1293
3318.5981230088046,1288
3320.2679592121895,1293
3321.9375436975924,1309
3323.606876791612,1275
3325.27595882093,1306
3326.944790112305,1308
3328.6133709925753,1261
3330.2817017886573,1256
3331.949782827547,1287
3333.617614436319,1315
3335.2851969421245,1335
3336.952530672199,1243
3338.619615953853,1296
3340.286453114475,1344
3341.9530424815357,1264
3343.619384382583,1296
3345.2854791452437,1259
3346.951327097224,1311
3348.6169285663073,1330
3350.2822838803577,1329
3351.947393367319,1346
3353.61225735521,1256
3355.2768761721345,1341
3356.9412501462693,1266
3358.605379605873,1323
3360.2692648792827,1294
3361.9329062949146,1271
3363.596304181263,1239
