CollectionTime,6/28/2024 1:47:34 PM
ExposureUsed,3
CalibratedSpectrum
-962.7078968117929,590
-959.9714848408522,612
-957.2358232597828,595
-954.5009119013725,563
-951.7667505983302,589
-949.0333391832855,623
-946.3006774887896,613
-943.5687653473143,646
-940.837602591253,628
-938.1071890529199,611
-935.3775245645503,617
-932.6486089583007,628
-929.9204420662485,606
-927.1930237203925,611
-924.4663537526524,614
-921.7404319948689,630
-919.0152582788041,621
-916.2908324361409,615
-913.5671542984834,636
-910.8442236973568,622
-908.1220404642074,605
-905.4006044304027,602
-902.679915427231,591
-899.959973285902,618
-897.2407778375464,649
-894.5223289132158,595
-891.8046263438832,588
-889.0876699604426,562
-886.3714595937089,610
-883.6559950744183,591
-880.9412762332282,534
-878.2273029007168,566
-875.5140749073835,571
-872.8015920836489,578
-870.0898542598545,578
-867.3788612662631,536
-864.6686129330585,552
-861.9591090903457,580
-859.2503495681506,573
-856.5423341964203,539
-853.8350628050229,607
-851.1285352237478,582
-848.4227512823054,595
-845.7177108103272,556
-843.0134136373656,573
-840.3098595928943,597
-837.6070485063082,597
-834.9049802069229,556
-832.2036545239757,551
-829.5030712866244,561
-826.8032303239481,566
-824.1041314649472,575
-821.4057745385428,555
-818.7081593735775,580
-816.0112857988148,554
-813.3151536429393,579
-810.6197627345566,591
-807.9251129021936,614
-805.2312039742981,592
-802.5380357792392,583
-799.8456081453069,581
-797.1539209007124,579
-794.462973873588,577
-791.772766891987,557
-789.083299783884,553
-786.3945723771743,591
-783.7065844996748,557
-781.0193359791231,568
-778.3328266431781,577
-775.6470563194197,612
-772.9620248353489,601
-770.2777320183878,579
-767.5941776958798,584
-764.9113616950891,569
-762.2292838432011,569
-759.5479439673222,593
-756.8673418944801,564
-754.1874774516235,587
-751.5083504656222,581
-748.8299607632671,598
-746.15230817127,598
-743.475392516264,592
-740.7992136248035,627
-738.1237713233636,583
-735.4490654383407,599
-732.7750957960521,585
-730.1018622227365,619
-727.4293645445534,615
-724.7576025875837,628
-722.0865761778291,613
-719.4162851412126,619
-716.7467293035781,591
-714.0779084906909,591
-711.409822528237,646
-708.7424712418238,618
-706.0758544569796,627
-703.4099719991541,629
-700.7448236937178,655
-698.0804093659622,648
-695.4167288411002,606
-692.7537819442656,653
-690.0915685005134,592
-687.4300883348199,629
-684.7693412720819,622
-682.1093271371178,611
-679.4500457546669,614
-676.7914969493897,629
-674.1336805458676,646
-671.4765963686034,674
-668.8202442420206,682
-666.1646239904642,651
-663.5097354382001,650
-660.8555784094151,662
-658.2021527282176,694
-655.5494582186366,707
-652.8974947046223,698
-650.2462620100463,657
-647.5957599587009,645
-644.9459883742998,661
-642.2969470804776,663
-639.6486359007902,712
-637.0010546587141,701
-634.3542031776476,703
-631.7080812809096,688
-629.0626887917401,690
-626.4180255333008,677
-623.7740913286734,642
-621.1308860008619,691
-618.4884093727904,694
-615.8466612673046,665
-613.2056415071715,655
-610.5653499150785,685
-607.9257863136347,647
-605.28695052537,664
-602.6488423727357,653
-600.0114616781036,699
-597.3748082637674,683
-594.7388819519412,697
-592.1036825647604,680
-589.4692099242818,673
-586.8354638524829,688
-584.2024441712624,667
-581.5701507024403,673
-578.9385832677575,647
-576.3077416888759,709
-573.6776257873787,675
-571.0482353847704,687
-568.4195703024757,713
-565.7916303618415,717
-563.164415384135,719
-560.5379251905453,717
-557.9121596021815,698
-555.2871184400748,732
-552.6628015251767,737
-550.0392086783606,696
-547.4163397204204,739
-544.794194472071,730
-542.1727727539491,760
-539.5520743866118,758
-536.9320991905377,767
-534.3128469861261,828
-531.6943175936979,787
-529.0765108334947,773
-526.4594265256793,892
-523.8430644903358,1010
-521.2274245474689,1127
-518.612506517005,1240
-515.9983102187913,1342
-513.3848354725959,1455
-510.77208209810846,1601
-508.16004991493924,1706
-505.5487387426199,1882
-502.9381484006032,1944
-500.3282787082628,2008
-497.71912948489364,1941
-495.1107005497117,1741
-492.5029917218539,1539
-489.8960028203786,1321
-487.28973366426493,1150
-484.68418407241325,1000
-482.07935386364494,949
-479.47524285670266,975
-476.87185087025,948
-474.2691777228715,957
-471.66722323307334,950
-469.0659872192821,907
-466.4654694998459,923
-463.86566989303384,915
-461.26658821703614,904
-458.66822428996414,894
-456.07057792985,890
-453.4736489546475,900
-450.877437182231,947
-448.28194243039627,878
-445.68716451686,850
-443.09310325926003,834
-440.49975847515555,791
-437.9071299820263,838
-435.31521759727354,882
-432.72402113821954,830
-430.13354042210767,846
-427.5437752661022,881
-424.95472548728867,888
-422.36639090267386,848
-419.7787713291855,907
-417.1918665836721,878
-414.60567648290385,946
-412.0202008435715,931
-409.4354394822874,955
-406.8513922155845,899
-404.26805885991723,907
-401.685439231661,905
-399.103533147112,905
-396.522340422488,900
-393.9418608739278,874
-391.3620943174908,875
-388.7830405691583,896
-386.2046994448317,900
-383.6270707603344,817
-381.05015433141045,744
-378.473949973725,720
-375.8984575028645,676
-373.32367673433623,670
-370.74960748356875,645
-368.1762495659117,590
-365.60360279663576,588
-363.03166699093265,529
-360.4604419639154,533
-357.8899275306178,539
-355.32012350599507,499
-352.7510297049233,513
-350.1826459421999,533
-347.61497203254316,519
-345.04800779059235,472
-342.4817530309082,483
-339.91620756797226,474
-337.35137121618743,459
-334.7872437898774,456
-332.22382510328725,478
-329.66111497058273,481
-327.09911320585127,513
-324.53781962310075,506
-321.9772340362607,515
-319.4173562591816,536
-316.8581861056348,515
-314.2997233893127,539
-311.7419679238294,556
-309.1849195227194,513
-306.62857799943856,491
-304.0729431673641,478
-301.51801483979375,494
-298.963792829947,508
-296.41027695096386,525
-293.85746701590574,532
-291.3053628377552,542
-288.7539642294155,514
-286.2032710037115,559
-283.65328297338897,531
-281.1039999511146,547
-278.5554217494762,588
-276.007548180983,621
-273.4603790580651,575
-270.9139141930734,588
-268.3681533982807,584
-265.8230964858798,613
-263.27874326798565,658
-260.7350935566336,647
-258.1921471637804,660
-255.6499039013039,608
-253.10836358100266,628
-250.56752601459698,624
-248.02739101372765,756
-245.48795838995704,758
-242.94922795476816,762
-240.41119951956557,731
-237.8738728956746,681
-235.33724789434166,830
-232.80132432673452,884
-230.2661020039418,812
-227.73158073697357,638
-225.19776033676033,644
-222.66464061415422,715
-220.1322213799284,709
-217.60050244477725,734
-215.06948361931552,717
-212.53916471408013,731
-210.00954553952818,704
-207.48062590603843,770
-204.9524056239104,828
-202.4248845033651,739
-199.8980623545441,718
-197.37193898751036,641
-194.84651421224817,754
-192.32178783866232,783
-189.79775967657952,748
-187.27442953574644,819
-184.7517972258321,784
-182.2298625564256,892
-179.7086253370378,849
-177.18808537710026,824
-174.66824248596583,790
-172.14909647290835,869
-169.6306471471229,881
-167.11289431772548,863
-164.59583779375328,819
-162.07947738416453,804
-159.5638128978386,834
-157.04884414357605,906
-154.53457093009854,1000
-152.02099306604828,1046
-149.50811035998936,901
-146.99592262040665,894
-144.48442965570587,969
-141.97363127421409,1019
-139.46352728417958,915
-136.95411749377126,945
-134.44540171107985,1051
-131.93737974411636,1072
-129.43005140081357,1087
-126.92341648902493,1117
-124.41747481652521,1176
-121.91222619101006,1174
-119.40767042009657,1059
-116.90380731132257,1128
-114.40063667214702,1069
-111.8981583099503,1181
-109.3963720320337,1297
-106.89527764561933,1522
-104.39487495785067,1598
-101.89516377579241,1369
-99.39614390642998,1388
-96.89781515667039,1503
-94.40017733334128,1725
-91.90323024319173,1654
-89.40697369289148,1699
-86.91140748903172,1587
-84.41653143812482,1457
-81.92234534660395,1645
-79.42884902082358,1934
-76.93604226705907,2143
-74.4439248915071,1857
-71.95249670028534,1701
-69.46175749943245,1917
-66.97170709490854,2365
-64.48234529259423,2716
-61.99367189829195,2202
-59.50568671772464,2142
-57.01838955653636,2455
-54.53178022029283,2779
-52.045858514480074,2845
-49.560624244506016,2921
-47.07607721569923,3026
-44.59221723330904,2985
-42.10904410250669,2999
-39.62655762838392,3523
-37.14475761595372,4230
-34.66364387015028,5033
-32.18321619582866,5786
-29.70347439776515,6194
-27.224418280657005,7865
-24.74604764912317,11787
-22.26836230770266,19926
-19.7913620608565,33910
-17.315046712966478,43249
-14.83941606833514,45716
-12.36446993118659,65031
-9.89020810566592,65031
-7.416630395839093,65031
-4.94373660569363,65031
-2.471526539137585,65031
-6.821210263296962E-13,65031
2.47084320796705,65031
4.941003281093458,65031
7.410480415786196,65031
9.879274808531363,65031
12.347386655893956,65031
14.814816154518212,65031
17.28156350112681,65031
19.74762889252179,65031
22.21301252558385,65031
24.67771459727237,33492
27.141735304626195,10193
29.605074844762612,8048
32.06773341487792,7759
34.52971121224755,7935
36.99100843422559,7243
39.45162527824516,7363
41.91156194181792,8440
44.370818622535126,14111
46.82939551806646,17931
49.287292826160524,16806
51.74451074464503,15075
54.201049471426245,10968
56.65690920448981,6874
59.112090141899785,5234
61.56659248179983,4046
64.02041642241159,3178
66.4735621620365,3009
68.92602989905402,2642
71.37781983192338,2231
73.82893215918205,2287
76.27936707944684,2317
78.72912479141326,2226
81.17820549385567,2403
83.62660938562783,2400
86.07433666566146,1979
88.5213875329681,2052
90.96776218663751,2079
93.41346082583925,1767
95.85848364982041,1888
98.30283085790859,1635
100.7465026495089,1539
103.18949922410604,1821
105.63182078126385,1856
108.07346752062438,1568
110.51443964190923,1501
112.95473734491827,1382
115.39436082953114,1266
117.83331029570547,1422
120.27158594347827,1600
122.7091879729652,1339
125.1461165843615,1203
127.58237197794062,1323
130.01795435405518,1328
132.4528639131364,1269
134.88710085569494,1181
137.32066538231982,1256
139.75355769367923,1409
142.1857779905207,1279
144.61732647366978,1269
147.04820334403132,1323
149.47840880258934,1248
151.90794305040674,1361
154.33680628862487,1590
156.76499871846443,1436
159.19252054122433,1502
161.61937195828352,1517
164.04555317109896,1589
166.47106438120693,1701
168.89590579022217,1953
171.320077599839,2038
173.7435800118302,2042
176.16641322804742,1939
178.58857745042144,1952
181.01007288096173,2079
183.43089972175687,2234
185.85105817497413,2162
188.27054844285988,2122
190.6893707277394,2147
193.10752523201643,2104
195.5250121581745,2291
197.9418317087751,2328
200.3579840864594,2233
202.7734694939469,2167
205.18828813403627,2202
207.6024402096051,2206
210.01592592360964,2223
212.42874547908548,2188
214.84089907914665,2243
217.2523869269868,2195
219.66320922587727,2259
222.0733661791695,2208
224.48285799029293,2273
226.8916848627572,2395
229.29984700014882,2364
231.7073446061355,2448
234.11417788446204,2584
236.520347038953,2494
238.92585227351185,2564
241.33069379212054,2557
243.73487179884035,2554
246.1383864978112,2543
248.541238093252,2514
250.9434267894609,2577
253.34495279081432,2681
255.74581630176783,2720
258.1460175268563,2839
260.54555667069314,2828
262.9444339379703,2722
265.3426495334594,2758
267.7402036620107,2630
270.1370965285529,2483
272.53332833809407,2516
274.9288992957214,2496
277.32380960660055,2408
279.718059475976,2430
282.1116491091717,2443
284.5045787115897,2275
286.89684848871195,2306
289.2884586460981,2358
291.67940938938807,2318
294.0697009242996,2388
296.4593334566299,2406
298.84830719225477,2326
301.23662233712923,2339
303.6242790972866,2231
306.01127767884,2248
308.39761828798066,2344
310.78330113097934,2116
313.16832641418534,2186
315.5526943440269,2118
317.9364051270112,2045
320.3194589697242,2138
322.70185607883093,2105
325.0835966610754,2042
327.4646809232805,2007
329.8451090723478,2018
332.2248813152577,2084
334.6039978590701,1962
336.9824589109231,2088
339.36026467803447,1974
341.7374153677,2014
344.113911187295,1866
346.48975234427337,1899
348.8649390461686,1934
351.2394715005918,1964
353.61334991523415,1940
355.9865744978655,1914
358.35914545633375,1923
360.73106299856715,1880
363.10232733257146,1997
365.47293866643247,1920
367.84289720831396,1829
370.2122031664593,1883
372.5808567491905,1796
374.9488581649083,1889
377.31620762209275,1785
379.6829053293021,1831
382.0489514951745,1845
384.4143463284262,1899
386.7790900378528,1835
389.14318283232853,1857
391.50662492080653,1787
393.86941651231916,1791
396.23155781597745,1754
398.5930490409713,1793
400.9538903965696,1767
403.3140820921202,1734
405.6736243370498,1731
408.03251734086336,1747
410.3907613131465,1759
412.74835646356166,1835
415.10530300185144,1782
417.4616011378372,1760
419.81725108141893,1822
422.1722530425758,1765
424.5266072313656,1780
426.880313857925,1761
429.2333731324701,1819
431.58578526529516,1770
433.9375504667738,1768
436.2886689473588,1678
438.63914091758113,1754
440.9889665880513,1725
443.33814616945835,1697
445.68667987257015,1758
448.03456790823395,1715
450.3818104873759,1696
452.72840782100013,1697
455.07436012019105,1665
457.41966759611057,1675
459.7643304600007,1734
462.10834892318155,1635
464.4517231970525,1717
466.79445349309174,1698
469.1365400228566,1681
471.4779829979826,1729
473.81878263018564,1704
476.15893913125876,1748
478.4984527130747,1739
480.8373235875855,1793
483.17555196682144,1855
485.5131380628919,1901
487.8500820879857,1964
490.1863842543697,2077
492.52204477439034,2204
494.8570638604725,2436
497.1914417251204,2715
499.52517858091653,2985
501.85827464052306,3330
504.19073011668036,3596
506.5225452222086,3638
508.85372017000566,3705
511.18425517304956,3680
513.514150444396,3679
515.8434061971808,4018
518.1720226446176,4168
520.4999999999999,4270
522.8273384766991,4547
525.1540382881666,4554
527.480099647932,4351
529.8055227696037,3369
532.1303078668694,2424
534.454455153496,1947
536.777964843328,1835
539.1008371502907,1680
541.4230722883866,1732
543.744670471698,1662
546.0656319143858,1631
548.3859568306899,1654
550.7056454349294,1587
553.0246979415016,1586
555.3431145648834,1528
557.6608955196306,1572
559.978041020377,1535
562.2945512818363,1510
564.6104265188006,1517
566.9256669461412,1505
569.2402727788082,1538
571.5542442318302,1559
573.8675815203156,1503
576.1802848594508,1595
578.4923544645015,1451
580.8037905508126,1484
583.114593333807,1535
585.4247630289875,1531
587.7342998519354,1552
590.0432040183106,1574
592.3514757438526,1548
594.6591152443794,1509
596.9661227357875,1560
599.2724984340531,1547
601.578242555231,1551
603.8833553154542,1570
606.1878369309362,1587
608.4916876179676,1568
610.7949075929192,1593
613.0974970722403,1579
615.3994562724587,1597
617.7007854101818,1552
620.0014847020951,1571
622.3015543649641,1582
624.6009946156324,1563
626.8998056710224,1500
629.1979877481361,1516
631.4955410640538,1588
633.7924658359349,1593
636.0887622810175,1544
638.3844306166192,1611
640.6794710601358,1573
642.9738838290426,1565
645.2676691408932,1562
647.5608272133207,1618
649.853358264037,1553
652.1452625108324,1602
654.4365401715764,1571
656.7271914642178,1568
659.0172166067838,1579
661.3066158173809,1602
663.5953893141935,1623
665.8835373154867,1636
668.1710600396028,1615
670.4579577049639,1608
672.7442305300709,1608
675.0298787335033,1584
677.3149025339197,1624
679.599302150058,1696
681.8830778007342,1655
684.1662297048437,1599
686.4487580813608,1732
688.7306631493387,1609
691.0119451279091,1609
693.2926042362834,1635
695.5726406937516,1587
697.8520547196814,1625
700.1308465335215,1625
702.4090163547982,1539
704.6865644031171,1609
706.9634908981619,1562
709.2397960596965,1586
711.5154801075631,1570
713.7905432616823,1637
716.0649857420548,1588
718.3388077687592,1606
720.612009561953,1594
722.8845913418733,1617
725.1565533288352,1609
727.427895743234,1532
729.6986188055427,1615
731.9687227363137,1547
734.238207756178,1547
736.5070740858458,1600
738.7753219461066,1664
741.0429515578281,1569
743.3099631419569,1568
745.5763569195191,1624
747.8421331116193,1625
750.1072919394409,1638
752.3718336242467,1614
754.6357583873777,1631
756.8990664502545,1550
759.1617580343765,1587
761.423833361321,1573
763.6852926527457,1592
765.9461361303862,1592
768.206364016058,1624
770.4659765316536,1617
772.7249738991469,1616
774.9833563405886,1637
777.2411240781092,1646
779.4982773339183,1686
781.7548163303044,1651
784.010741289634,1658
786.2660524343538,1657
788.5207499869881,1618
790.7748341701416,1643
793.0283052064964,1636
795.2811633188143,1587
797.5334087299362,1658
799.7850416627813,1621
802.0360623403484,1648
804.2864709857143,1669
806.5362678220353,1650
808.7854530725468,1588
811.0340269605625,1674
813.2819897094754,1661
815.5293415427581,1595
817.77608268396,1687
820.0222133567116,1663
822.2677337847211,1700
824.5126441917765,1672
826.7569448017433,1619
829.0006358385675,1582
831.2437175262731,1658
833.4861900889629,1650
835.7280537508192,1644
837.9693087361026,1600
840.2099552691533,1669
842.4499935743896,1627
844.689423876309,1623
846.9282463994886,1651
849.1664613685833,1626
851.4040690083276,1583
853.6410695435349,1609
855.877463199097,1649
858.1132501999847,1660
860.3484307712487,1677
862.5830051380175,1660
864.8169735254988,1593
867.0503361589791,1651
869.2830932638243,1629
871.5152450654786,1634
873.7467917894654,1657
875.9777336613873,1646
878.2080709069252,1697
880.4378037518389,1724
882.666932421968,1651
884.8954571432301,1623
887.1233781416219,1598
889.3506956432192,1683
891.5774098741766,1653
893.803521060728,1670
896.0290294291852,1707
898.2539352059397,1625
900.4782386174619,1682
902.7019398903011,1667
904.925039251085,1713
907.147536926521,1670
909.3694331433943,1674
911.59072812857,1657
913.8114221089921,1624
916.0315153116827,1691
918.2510079637437,1649
920.4699002923547,1633
922.6881925247761,1644
924.905884888345,1682
927.1229776104793,1704
929.3394709186747,1605
931.555365040506,1609
933.7706602036275,1738
935.9853566357709,1650
938.1994545647489,1720
940.4129542184515,1711
942.6258558248488,1755
944.8381596119883,1668
947.0498658079974,1668
949.2609746410825,1614
951.4714863395287,1667
953.6814011316998,1653
955.8907192460387,1672
958.0994409110671,1650
960.3075663553858,1704
962.5150958076741,1636
964.7220294966913,1574
966.928367651274,1578
969.1341105003388,1664
971.3392582728806,1604
973.5438111979742,1565
975.747769504772,1602
977.9511334225061,1601
980.153903180487,1595
982.3560790081052,1524
984.5576611348289,1578
986.7586497902058,1507
988.9590452038618,1499
991.158847605503,1471
993.3580572249133,1530
995.5566742919558,1490
997.7546990365728,1501
999.952131688785,1521
1002.1489724786926,1440
1004.3452216364743,1354
1006.5408793923874,1387
1008.7359459767691,1394
1010.9304216200343,1451
1013.1243065526781,1390
1015.3176010052733,1374
1017.510305208472,1316
1019.7024193930064,1293
1021.8939437896848,1383
1024.0848786293977,1339
1026.2752241431122,1318
1028.4649805618747,1348
1030.6541481168115,1326
1032.842727039127,1306
1035.0307175601051,1344
1037.2181199111074,1334
1039.4049343235752,1297
1041.591161029029,1292
1043.7768002590683,1249
1045.9618522453698,1278
1048.1463172196918,1308
1050.3301954138697,1309
1052.513487059818,1304
1054.69619238953,1316
1056.8783116350783,1338
1059.0598450286152,1306
1061.2407928023704,1299
1063.4211551886528,1327
1065.6009324198508,1309
1067.780124728432,1270
1069.9587323469414,1262
1072.1367555080046,1256
1074.314194444325,1218
1076.4910493886855,1267
1078.667320573947,1302
1080.843008233051,1212
1083.0181125990161,1243
1085.1926339049414,1254
1087.3665723840027,1222
1089.5399282694575,1220
1091.7127017946405,1299
1093.8848931929647,1221
1096.0565026979243,1255
1098.2275305430899,1236
1100.3979769621128,1184
1102.567842188722,1239
1104.737126456726,1200
1106.9058300000124,1203
1109.0739530525475,1259
1111.2414958483764,1289
1113.4084586216231,1249
1115.5748416064907,1253
1117.7406450372605,1241
1119.9058691482942,1198
1122.0705141740304,1283
1124.2345803489884,1210
1126.3980679077658,1223
1128.5609770850388,1196
1130.7233081155623,1196
1132.8850612341707,1194
1135.0462366757774,1155
1137.2068346753745,1174
1139.3668554680326,1206
1141.526299288901,1188
1143.68516637321,1230
1145.8434569562655,1213
1148.001171273455,1151
1150.158309560244,1127
1152.3148720521767,1171
1154.470858984876,1168
1156.626270594044,1238
1158.7811071154629,1257
1160.9353687849912,1229
1163.089055838569,1270
1165.242168512213,1180
1167.3947070420209,1215
1169.5466716641677,1167
1171.6980626149075,1224
1173.8488801305748,1166
1175.9991244475814,1147
1178.1487958024186,1170
1180.2978944316555,1167
1182.4464205719428,1152
1184.5943744600072,1237
1186.7417563326567,1135
1188.8885664267755,1182
1191.0348049793297,1260
1193.1804722273619,1174
1195.325568407995,1196
1197.4700937584303,1202
1199.614048515948,1224
1201.7574329179074,1202
1203.900247201746,1153
1206.042491604982,1190
1208.1841663652099,1154
1210.3252717201053,1162
1212.465807907422,1219
1214.6057751649923,1187
1216.7451737307279,1198
1218.8840038426192,1153
1221.0222657387353,1207
1223.1599596572241,1216
1225.2970858363137,1155
1227.4336445143094,1187
1229.5696359295966,1159
1231.705060320639,1203
1233.8399179259786,1182
1235.9742089842384,1259
1238.107933734118,1234
1240.2410924143974,1271
1242.373685263935,1175
1244.5057125216676,1191
1246.6371744266116,1178
1248.7680712178621,1224
1250.898403134593,1188
1253.028170416058,1228
1255.1573733015875,1211
1257.2860120305932,1232
1259.4140868425648,1249
1261.54159797707,1203
1263.6685456737569,1246
1265.7949301723515,1222
1267.9207517126597,1222
1270.046010534565,1294
1272.1707068780306,1215
1274.2948409830983,1243
1276.4184130898889,1252
1278.541423438603,1219
1280.6638722695184,1262
1282.785759822993,1259
1284.9070863394636,1234
1287.0278520594447,1212
1289.1480572235314,1283
1291.2677020723963,1244
1293.3867868467923,1240
1295.5053117875495,1321
1297.623277135579,1316
1299.740683131868,1280
1301.8575300174857,1277
1303.973818033578,1296
1306.0895474213703,1321
1308.2047184221678,1307
1310.3193312773528,1327
1312.4333862283888,1306
1314.5468835168163,1280
1316.659823384255,1275
1318.7722060724045,1288
1320.8840318230418,1299
1322.9953008780249,1284
1325.1060134792888,1338
1327.2161698688478,1284
1329.3257702887959,1294
1331.4348149813054,1266
1333.5433041886276,1359
1335.6512381530933,1335
1337.7586171171101,1365
1339.8654413231675,1335
1341.9717110138317,1302
1344.0774264317488,1310
1346.1825878196432,1350
1348.2871954203192,1294
1350.3912494766587,1300
1352.4947502316231,1295
1354.5976979282532,1279
1356.7000928096686,1258
1358.8019351190665,1220
1360.9032250997243,1256
1363.0039629949988,1277
1365.1041490483235,1334
1367.2037835032133,1293
1369.3028666032606,1296
1371.401398592137,1290
1373.4993797135926,1261
1375.5968102114575,1281
1377.6936903296396,1273
1379.7900203121262,1286
1381.8858004029835,1282
1383.9810308463561,1264
1386.075711886469,1272
1388.1698437676241,1251
1390.2634267342032,1245
1392.356461030667,1338
1394.4489469015557,1283
1396.5408845914872,1337
1398.6322743451592,1296
1400.7231164073469,1309
1402.813411022907,1268
1404.903158436773,1335
1406.9923588939578,1307
1409.0810126395531,1281
1411.1691199187303,1316
1413.2566809767386,1291
1415.343696058907,1289
1417.4301654106425,1312
1419.5160892774315,1337
1421.6014679048399,1238
1423.6863015385125,1295
1425.7705904241707,1350
1427.8543348076178,1371
1429.9375349347342,1332
1432.0201910514802,1319
1434.102303403894,1314
1436.1838722380944,1378
1438.2648978002767,1356
1440.3453803367174,1350
1442.4253200937692,1346
1444.5047173178677,1389
1446.5835722555234,1386
1448.6618851533285,1402
1450.739656257952,1374
1452.8168858161434,1428
1454.8935740747306,1408
1456.96972128062,1403
1459.045327680797,1449
1461.120393522327,1445
1463.1949190523528,1455
1465.2689045180973,1431
1467.3423501668608,1485
1469.415256246024,1528
1471.4876230030463,1443
1473.559450685465,1464
1475.6307395408976,1487
1477.7014898170391,1561
1479.771701761665,1582
1481.8413756226287,1582
1483.9105116478618,1551
1485.9791100853772,1568
1488.0471711832643,1622
1490.1146951896926,1588
1492.1816823529098,1611
1494.2481329212433,1612
1496.3140471430984,1653
1498.3794252669609,1640
1500.4442675413939,1609
1502.5085742150404,1647
1504.572345536622,1596
1506.6355817549388,1677
1508.6982831188702,1584
1510.7604498773744,1608
1512.8220822794883,1639
1514.8831805743293,1687
1516.9437450110909,1671
1519.003775839048,1699
1521.0632733075522,1711
1523.1222376660367,1666
1525.1806691640113,1705
1527.2385680510652,1638
1529.2959345768668,1710
1531.3527689911643,1713
1533.4090715437833,1752
1535.4648424846291,1728
1537.5200820636855,1782
1539.5747905310159,1752
1541.6289681367616,1690
1543.6826151311434,1731
1545.7357317644614,1787
1547.7883182870937,1715
1549.8403749494987,1812
1551.8919020022113,1851
1553.9428996958477,1889
1555.9933682811015,1871
1558.0433080087469,1893
1560.0927191296346,1940
1562.1416018946961,1960
1564.1899565549415,1963
1566.2377833614592,1930
1568.2850825654164,1982
1570.3318544180606,2031
1572.3780991707158,1983
1574.423817074788,1938
1576.4690083817595,1906
1578.5136733431923,1921
1580.5578122107272,1821
1582.601425236085,1764
1584.6445126710646,1744
1586.6870747675434,1746
1588.7291117774776,1738
1590.7706239529034,1650
1592.8116115459347,1626
1594.8520748087658,1535
1596.8920139936686,1599
1598.9314293529933,1494
1600.9703211391711,1456
1603.008689604711,1430
1605.0465350022005,1497
1607.0838575843068,1409
1609.1206576037753,1348
1611.1569353134305,1362
1613.1926909661765,1368
1615.2279248149953,1337
1617.2626371129481,1305
1619.2968281131757,1327
1621.3304980688963,1294
1623.3636472334088,1301
1625.39627586009,1266
1627.428384202396,1324
1629.459972513861,1274
1631.4910410480993,1331
1633.5215900588028,1263
1635.551619799744,1268
1637.5811305247717,1207
1639.6101224878166,1255
1641.6385959428862,1237
1643.6665511440683,1241
1645.693988345528,1221
1647.7209078015112,1189
1649.7473097663405,1237
1651.7731944944203,1222
1653.7985622402307,1250
1655.823413258333,1221
1657.847747803366,1232
1659.8715661300494,1224
1661.8948684931793,1211
1663.9176551476316,1244
1665.9399263483624,1235
1667.9616823504057,1261
1669.982923408873,1246
1672.0036497789574,1188
1674.0238617159293,1201
1676.043559475138,1195
1678.0627433120121,1214
1680.081413482059,1222
1682.0995702408654,1165
1684.117213844096,1220
1686.134344547495,1227
1688.1509626068864,1221
1690.1670682781705,1222
1692.182661817329,1170
1694.1977434804217,1192
1696.2123135235875,1206
1698.226372203043,1240
1700.2399197750851,1209
1702.2529564960905,1224
1704.2654826225112,1194
1706.277498410882,1205
1708.2890041178139,1203
1710.2999999999988,1174
1712.3104863142066,1192
1714.3204633172854,1177
1716.329931266163,1209
1718.3388904178469,1189
1720.3473410294214,1204
1722.3552833580516,1148
1724.3627176609807,1159
1726.3696441955308,1208
1728.3760632191033,1219
1730.3819749891782,1210
1732.3873797633146,1186
1734.3922777991502,1169
1736.3966693544012,1186
1738.4005546868639,1137
1740.4039340544127,1112
1742.406807715001,1171
1744.4091759266616,1225
1746.4110389475054,1151
1748.4123970357223,1188
1750.413250449582,1146
1752.4135994474318,1148
1754.4134442876993,1196
1756.4127852288902,1197
1758.4116225295893,1152
1760.4099564484595,1091
1762.407787244244,1111
1764.405115175764,1166
1766.4019405019203,1260
1768.3982634816916,1156
1770.3940843741357,1183
1772.3894034383907,1182
1774.3842209336717,1145
1776.378537119274,1144
1778.372352254571,1136
1780.3656665990156,1150
1782.3584804121397,1138
1784.3507939535534,1144
1786.3426074829463,1151
1788.3339212600863,1156
1790.3247355448211,1119
1792.3150505970766,1208
1794.3048666768573,1088
1796.2941840442477,1125
1798.2830029594106,1157
1800.2713236825884,1189
1802.2591464741004,1204
1804.2464715943465,1068
1806.2332993038058,1088
1808.2196298630352,1123
1810.2054635326708,1135
1812.190800573428,1154
1814.175641246101,1186
1816.1599858115628,1145
1818.1438345307652,1115
1820.127187664738,1139
1822.1100454745924,1149
1824.092408221516,1184
1826.0742761667766,1180
1828.055649571721,1098
1830.0365286977735,1126
1832.0169138064398,1154
1833.9968051593014,1128
1835.9762030180214,1151
1837.9551076443408,1153
1839.9335193000788,1103
1841.9114382471344,1149
1843.888864747485,1204
1845.8657990631878,1157
1847.842241456378,1203
1849.8181921892697,1110
1851.7936515241558,1120
1853.7686197234098,1177
1855.7430970494815,1119
1857.7170837649014,1203
1859.6905801322787,1166
1861.6635864143004,1139
1863.6361028737338,1137
1865.608129773424,1115
1867.5796673762961,1177
1869.5507159453537,1147
1871.521275743678,1135
1873.4913470344313,1146
1875.4609300808534,1162
1877.4300251462632,1138
1879.3986324940588,1118
1881.366752387717,1184
1883.3343850907936,1161
1885.3015308669228,1177
1887.268189979819,1185
1889.2343626932739,1185
1891.2000492711595,1177
1893.1652499774254,1190
1895.1299650761011,1146
1897.0941948312952,1172
1899.0579395071945,1128
1901.0211993680641,1149
1902.98397467825,1149
1904.9462657021745,1147
1906.9080727043415,1188
1908.869395949332,1136
1910.8302357018065,1173
1912.790592226504,1187
1914.7504657882428,1155
1916.7098566519212,1146
1918.6687650825133,1194
1920.6271913450764,1190
1922.5851357047422,1151
1924.5425984267245,1159
1926.499579776314,1089
1928.4560800188833,1161
1930.4120994198802,1166
1932.367638244833,1133
1934.32269675935,1110
1936.2772752291175,1140
1938.231373919899,1184
1940.1849930975404,1145
1942.1381330279637,1166
1944.0907939771696,1124
1946.0429762112412,1161
1947.9946799963363,1194
1949.9459055986945,1154
1951.896653284633,1177
1953.8469233205478,1160
1955.7967159729142,1125
1957.7460315082863,1124
1959.6948701932974,1096
1961.6432322946594,1140
1963.5911180791632,1108
1965.5385278136787,1115
1967.4854617651545,1128
1969.4319202006182,1207
1971.377903387176,1127
1973.3234115920136,1204
1975.268445082395,1186
1977.2130041256642,1132
1979.1570889892423,1163
1981.1006999406304,1134
1983.04383724741,1166
1984.986501177238,1160
1986.928691997853,1156
1988.8704099770712,1134
1990.811655382789,1122
1992.7524284829801,1112
1994.692729545698,1145
1996.6325588390755,1095
1998.5719166313224,1123
2000.5108031907307,1113
2002.4492187856677,1132
2004.387163684583,1176
2006.3246381560011,1192
2008.2616424685298,1131
2010.1981768908527,1156
2012.1342416917332,1107
2014.069837140014,1183
2016.0049635046162,1177
2017.9396210545406,1100
2019.8738100588666,1134
2021.8075307867502,1110
2023.740783507431,1126
2025.6735684902228,1143
2027.6058860045214,1110
2029.5377363198004,1144
2031.4691197056118,1129
2033.4000364315875,1105
2035.3304867674374,1092
2037.260470982952,1118
2039.189989347998,1134
2041.1190421325232,1113
2043.047629606554,1114
2044.9757520401945,1104
2046.9034097036288,1136
2048.8306028671195,1168
2050.7573318010086,1083
2052.683596775716,1090
2054.609398061742,1095
2056.5347359296647,1104
2058.4596106501403,1115
2060.384022493906,1145
2062.3079717317764,1165
2064.231458634646,1112
2066.1544834734873,1140
2068.077046519352,1184
2069.99914804337,1103
2071.9207883167524,1124
2073.8419676107865,1123
2075.7626861968406,1130
2077.6829443463607,1135
2079.6027423308715,1165
2081.522080421977,1168
2083.440958891362,1168
2085.359378010786,1149
2087.2773380520907,1139
2089.194839287196,1121
2091.111881988101,1096
2093.0284664268825,1135
2094.9445928756973,1113
2096.86026160678,1126
2098.775472892446,1156
2100.690227005088,1098
2102.604524217178,1172
2104.5183648012676,1139
2106.431749029985,1118
2108.34467717604,1140
2110.2571495122206,1138
2112.169166311393,1094
2114.080727846503,1184
2115.9918343905747,1147
2117.902486216711,1089
2119.8126835980956,1120
2121.722426807987,1114
2123.6317161197285,1113
2125.5405518067364,1138
2127.448934142509,1141
2129.356863400624,1133
2131.264339854737,1148
2133.1713637785815,1168
2135.077935445972,1148
2136.9840551308002,1082
2138.889723107037,1121
2140.7949396487334,1179
2142.699705030018,1164
2144.6040195250994,1138
2146.507883408264,1115
2148.4112969538774,1192
2150.3142604363848,1116
2152.2167741303097,1133
2154.1188383102535,1150
2156.0204532508997,1133
2157.9216192270064,1141
2159.822336513414,1127
2161.7226053850413,1105
2163.622426116884,1135
2165.5217989840185,1179
2167.4207242616,1136
2169.319202224862,1129
2171.2172331491165,1132
2173.1148173097563,1074
2175.0119549822507,1099
2176.90864644215,1167
2178.8048919650823,1129
2180.7006918267534,1098
2182.596046302952,1114
2184.4909556695407,1143
2186.3854202024645,1133
2188.279440177746,1169
2190.173015871487,1139
2192.066147559868,1117
2193.958835519149,1105
2195.851080025667,1106
2197.7428813558417,1080
2199.6342397861667,1122
2201.5251555932186,1095
2203.415629053651,1129
2205.3056604441986,1125
2207.19525004167,1148
2209.084398122958,1118
2210.9731049650327,1105
2212.861370844941,1104
2214.749196039812,1036
2216.636580826851,1142
2218.523525483344,1162
2220.410030286655,1125
2222.296095514226,1125
2224.1817214435805,1193
2226.066908352319,1139
2227.951656518121,1162
2229.835966218746,1102
2231.71983773203,1134
2233.6032713358913,1182
2235.486267308324,1155
2237.3688259274036,1109
2239.2509474712824,1157
2241.132632218193,1118
2243.013880446447,1174
2244.8946924344323,1116
2246.7750684606203,1098
2248.6550088035574,1113
2250.534513741871,1155
2252.413583554265,1163
2254.292218519526,1140
2256.170418916517,1095
2258.0481850241786,1165
2259.925517121534,1075
2261.8024154876825,1117
2263.678880401803,1135
2265.5549121431536,1119
2267.430510991071,1126
2269.305677224971,1207
2271.180411124348,1108
2273.0547129687766,1143
2274.9285830379076,1120
2276.8020216114737,1153
2278.6750289692845,1134
2280.5476053912294,1123
2282.4197511572766,1112
2284.2914665474727,1121
2286.162751841943,1131
2288.0336073208937,1105
2289.904033264608,1142
2291.774029953448,1182
2293.6435976678554,1110
2295.5127366883517,1141
2297.381447295534,1146
2299.2497297700825,1148
2301.1175843927526,1132
2302.9850114443825,1130
2304.852011205885,1118
2306.7185839582553,1137
2308.5847299825664,1187
2310.4504495599676,1152
2312.3157429716925,1140
2314.1806104990483,1179
2316.0450524234247,1172
2317.9090690262888,1149
2319.772660589186,1154
2321.635827393742,1131
2323.498569721661,1146
2325.3608878547248,1093
2327.2227820747967,1133
2329.0842526638157,1159
2330.945299903803,1113
2332.805924076857,1132
2334.6661254651535,1188
2336.525904350951,1126
2338.3852610165827,1129
2340.244195744464,1124
2342.102708817088,1141
2343.9608005170253,1144
2345.8184711269287,1188
2347.675720929526,1132
2349.532550207628,1152
2351.38895924412,1104
2353.24494832197,1113
2355.100517724223,1139
2356.955667734004,1099
2358.810398634514,1124
2360.664710709037,1114
2362.5186042409337,1174
2364.3720795136437,1130
2366.225136810686,1191
2368.0777764156583,1149
2369.929998612237,1173
2371.7818036841777,1152
2373.633191915315,1172
2375.484163589562,1142
2377.3347189909114,1133
2379.184858403434,1147
2381.03458211128,1149
2382.8838903986775,1142
2384.732783549936,1144
2386.5812618494406,1177
2388.4293255816588,1192
2390.2769750311327,1087
2392.1242104824883,1218
2393.971032220427,1186
2395.8174405297295,1224
2397.6634356952563,1134
2399.509018001947,1176
2401.3541877348193,1179
2403.1989451789705,1177
2405.043290619576,1155
2406.8872243418905,1177
2408.730746631247,1197
2410.5738577730594,1162
2412.4165580528183,1154
2414.258847756095,1181
2416.100727168537,1224
2417.9421965758734,1156
2419.783256263912,1174
2421.623906518538,1158
2423.4641476257157,1200
2425.303979871491,1166
2427.143403541984,1204
2428.9824189233977,1178
2430.821026302012,1195
2432.6592259641866,1184
2434.497018196361,1186
2436.33440328505,1230
2438.171381516851,1171
2440.00795317844,1198
2441.844118556569,1158
2443.6798779380724,1213
2445.5152316098606,1201
2447.3501798589255,1187
2449.1847229723357,1156
2451.0188612372403,1175
2452.8525949408663,1200
2454.6859243705203,1237
2456.518849813587,1182
2458.3513715575314,1206
2460.183489889895,1188
2462.015205098301,1211
2463.8465174704493,1161
2465.67742729412,1145
2467.5079348571717,1161
2469.338040447542,1161
2471.1677443532476,1110
2472.9970468623833,1172
2474.825948263123,1180
2476.6544488437207,1176
2478.482548892508,1187
2480.310248697896,1164
2482.137548548374,1199
2483.9644487325118,1190
2485.790949538956,1167
2487.617051256433,1169
2489.44275417375,1204
2491.26805857979,1133
2493.0929647635157,1147
2494.917473013971,1154
2496.741583620276,1215
2498.5652968716304,1155
2500.3886130573137,1166
2502.2115324666834,1205
2504.0340553891765,1182
2505.856182114308,1208
2507.6779129316733,1231
2509.499248130945,1210
2511.3201880018764,1228
2513.140732834298,1178
2514.9608829181198,1211
2516.780638543331,1171
2518.6,1213
2520.418967578273,1202
2522.237541568376,1186
2524.0557222606144,1211
2525.8735099453706,1200
2527.6909049131086,1181
2529.507907454368,1258
2531.32451785977,1189
2533.140736420014,1196
2534.9565634258774,1166
2536.771999168218,1240
2538.5870439379714,1216
2540.4016980261526,1226
2542.2159617238544,1201
2544.02983532225,1201
2545.8433191125914,1240
2547.656413386209,1212
2549.4691184345115,1266
2551.2814345489874,1235
2553.093362021204,1232
2554.904901142808,1233
2556.716052205523,1299
2558.526815501153,1200
2560.3371913215824,1243
2562.147179958771,1280
2563.956781704761,1262
2565.7659968516705,1284
2567.5748256916986,1281
2569.3832685171224,1303
2571.1913256202984,1316
2572.9989972936614,1235
2574.806283829725,1287
2576.613185521084,1292
2578.4197026604074,1283
2580.2258355404483,1303
2582.031584454035,1319
2583.836949694077,1334
2585.6419315535613,1278
2587.4465303255533,1358
2589.2507463032002,1322
2591.0545797797245,1290
2592.8580310484303,1316
2594.6611004026995,1301
2596.463788135992,1329
2598.266094541849,1356
2600.0680199138874,1386
2601.869564545807,1299
2603.670728731383,1290
2605.4715127644704,1321
2607.2719169390048,1268
2609.071941548998,1298
2610.8715868885433,1277
2612.670853251811,1304
2614.469740933052,1330
2616.268250226594,1296
2618.0663814268455,1236
2619.864134828292,1327
2621.6615107255006,1267
2623.458509413115,1278
2625.2551311858597,1290
2627.0513763385347,1283
2628.8472451660223,1281
2630.6427379632833,1262
2632.4378550253564,1262
2634.232596647359,1256
2636.026963124488,1248
2637.8209547520187,1282
2639.6145718253065,1217
2641.407814639785,1202
2643.200683490966,1239
2644.9931786744414,1244
2646.7853004858807,1211
2648.577049221034,1253
2650.3684251757277,1186
2652.1594286458712,1239
2653.9500599274484,1218
2655.740319316525,1217
2657.5302071092437,1191
2659.3197236018286,1194
2661.10886909058,1219
2662.8976438718782,1185
2664.686048242183,1198
2666.4740824980327,1177
2668.2617469360443,1190
2670.0490418529134,1189
2671.8359675454153,1234
2673.622524310403,1154
2675.408712444811,1238
2677.1945322456495,1164
2678.979984010009,1129
2680.76506803506,1156
2682.5497846180497,1160
2684.334134056306,1192
2686.1181166472343,1199
2687.9017326883213,1136
2689.6849824771293,1183
2691.4678663113013,1217
2693.2503844885596,1156
2695.032537306705,1128
2696.8143250636167,1204
2698.5957480572542,1173
2700.3768065856534,1195
2702.1575009469316,1159
2703.937831439283,1164
2705.717798360982,1210
2707.4974020103837,1139
2709.276642685917,1173
2711.055520686095,1129
2712.834036309506,1112
2714.612189854819,1103
2716.389981620782,1143
2718.1674119062204,1137
2719.944481010041,1151
2721.721189231226,1120
2723.4975368688415,1114
2725.273524222027,1122
2727.0491515900053,1111
2728.824419272075,1177
2730.5993275676146,1097
2732.3738767760838,1092
2734.148067197016,1157
2735.921899130031,1084
2737.6953728748194,1135
2739.468488731156,1137
2741.2412469988926,1146
2743.0136479779617,1087
2744.785691968372,1156
2746.5573792702116,1149
2748.3287101836504,1104
2750.099685008934,1103
2751.870304046388,1113
2753.640567596418,1116
2755.4104759595057,1110
2757.1800294362156,1132
2758.949228327187,1148
2760.7180729331412,1116
2762.486563554877,1123
2764.254700493272,1144
2766.022484049284,1106
2767.789914523947,1115
2769.5569922183786,1128
2771.3237174337705,1124
2773.090090471394,1124
2774.8561116326036,1137
2776.6217812188274,1112
2778.3870995315756,1132
2780.1520668724356,1086
2781.9166835430747,1077
2783.6809498452394,1130
2785.444866080754,1200
2787.2084325515225,1083
2788.971649559527,1102
2790.73451740683,1147
2792.4970363955713,1148
2794.2592068279705,1170
2796.0210290063264,1133
2797.7825032330147,1122
2799.543629810493,1107
2801.304409041296,1115
2803.0648412280366,1116
2804.8249266734088,1122
2806.5846656801846,1095
2808.344058551212,1099
2810.1031055894246,1169
2811.8618070978273,1109
2813.6201633795085,1125
2815.378174737636,1109
2817.1358414754536,1155
2818.893163896285,1123
2820.6501423035334,1103
2822.4067770006814,1112
2824.1630682912883,1105
2825.9190164789957,1091
2827.6746218675207,1127
2829.429884760661,1118
2831.184805462294,1161
2832.9393842763743,1111
2834.693621506936,1109
2836.4475174580916,1128
2838.201072434034,1134
2839.954286739034,1191
2841.707160677441,1132
2843.459694553685,1097
2845.2118886722724,1068
2846.96374333779,1126
2848.7152588549034,1149
2850.4664355283567,1177
2852.217273662973,1104
2853.9677735636546,1151
2855.7179355353833,1118
2857.4677598832186,1135
2859.217246912299,1138
2860.9663969278427,1145
2862.715210235146,1126
2864.4636871395846,1132
2866.211827946614,1150
2867.9596329617652,1170
2869.7071024906536,1136
2871.4542368389684,1106
2873.20103631248,1123
2874.947501217038,1114
2876.6936318585695,1122
2878.4394285430812,1127
2880.1848915766604,1148
2881.9300212654707,1089
2883.6748179157553,1105
2885.4192818338374,1133
2887.1634133261173,1121
2888.907212699077,1116
2890.6506802592744,1152
2892.393816313348,1085
2894.1366211680142,1099
2895.8790951300693,1164
2897.621238506388,1110
2899.363051603925,1070
2901.1045347297118,1098
2902.8456881908596,1123
2904.58651229456,1134
2906.327007348081,1143
2908.067173658772,1123
2909.8070115340597,1134
2911.5465212814497,1082
2913.285703208527,1089
2915.0245576229563,1074
2916.7630848324807,1058
2918.5012851449196,1152
2920.2391588681758,1115
2921.976706310227,1101
2923.7139277791334,1101
2925.4508235830313,1092
2927.187394030137,1133
2928.923639428745,1178
2930.6595600872306,1161
2932.395156314046,1090
2934.1304284177218,1144
2935.8653767068713,1148
2937.6000014901815,1140
2939.3343030764227,1159
2941.068281774442,1114
2942.8019378931644,1129
2944.5352717415976,1114
2946.2682836288236,1123
2948.0009738640065,1106
2949.7333427563885,1096
2951.465390615289,1128
2953.1971177501086,1144
2954.9285244703265,1121
2956.6596110855,1094
2958.3903779052657,1136
2960.1208252393385,1149
2961.8509533975125,1087
2963.5807626896617,1083
2965.3102534257378,1109
2967.0394259157715,1107
2968.768280469873,1076
2970.496817398232,1074
2972.2250370111146,1073
2973.952939618869,1144
2975.6805255319196,1118
2977.4077950607707,1116
2979.134748516006,1122
2980.861386208289,1171
2982.587708448359,1118
2984.313715547037,1154
2986.039407815222,1105
2987.764785563891,1126
2989.489849104102,1125
2991.2145987469908,1099
2992.9390348037705,1068
2994.6631575857346,1104
2996.3869674042576,1092
2998.1104645707887,1094
2999.83364939686,1117
3001.5565221940783,1093
3003.2790832741334,1187
3005.0013329487924,1100
3006.7232715298996,1071
3008.4448993293804,1107
3010.166216659239,1127
3011.887223831558,1061
3013.607921158498,1113
3015.3283089522993,1064
3017.0483875252826,1113
3018.7681571898443,1096
3020.4876182584626,1080
3022.2067710436927,1130
3023.9256158581707,1108
3025.644153014609,1142
3027.362382825801,1128
3029.0803056046193,1086
3030.797921664012,1087
3032.5152313170106,1131
3034.2322348767225,1113
3035.9489326563353,1091
3037.665324969115,1145
3039.3814121284063,1068
3041.097194447633,1157
3042.812672240299,1118
3044.5278458199855,1104
3046.2427155003525,1141
3047.9572815951406,1144
3049.671544418167,1145
3051.38550428333,1128
3053.0991615046073,1066
3054.812516396051,1128
3056.5255692717974,1117
3058.2383204460575,1104
3059.9507702331257,1092
3061.662918947372,1093
3063.3747669032446,1119
3065.0863144152736,1088
3066.7975617980674,1148
3068.508509366309,1102
3070.219157434767,1157
3071.9295063182844,1186
3073.639556331785,1132
3075.3493077902704,1127
3077.058761008821,1108
3078.7679163025964,1095
3080.476773986837,1069
3082.1853343768594,1090
3083.89359778806,1112
3085.6015645359153,1120
3087.3092349359786,1132
3089.016609303884,1126
3090.7236879553434,1083
3092.4304712061476,1056
3094.136959372166,1067
3095.843152769349,1100
3097.5490517137237,1107
3099.2546565213966,1083
3100.959967508554,1118
3102.66498499146,1106
3104.3697092864577,1113
3106.0741407099695,1107
3107.778279578498,1090
3109.482126208622,1129
3111.1856809170004,1120
3112.8889440203716,1127
3114.5919158355528,1136
3116.294596679439,1135
3117.996986869006,1113
3119.6990867213062,1072
3121.4008965534726,1103
3123.102416682717,1150
3124.803647426329,1129
3126.5045891016784,1091
3128.205242026213,1176
3129.90560651746,1181
3131.605682893025,1154
3133.3054714705922,1114
3135.0049725679282,1185
3136.7041865028714,1152
3138.4031135933465,1171
3140.101754157353,1123
3141.800108512971,1136
3143.498176978357,1118
3145.1959598717494,1121
3146.8934575114636,1133
3148.5906702158954,1108
3150.2875983035183,1104
3151.9842420928853,1102
3153.680601902627,1119
3155.376678051456,1157
3157.07247085816,1077
3158.767980641609,1098
3160.463207720748,1092
3162.158152414606,1164
3163.8528150422862,1161
3165.5471959229726,1107
3167.2412953759303,1145
3168.9351137204976,1097
3170.628651276098,1131
3172.3219083622307,1106
3174.014885298474,1104
3175.707582404485,1112
3177.4000000000005,1134
3179.092138404835,1127
3180.7839979388846,1093
3182.47557892212,1112
3184.166881674594,1126
3185.8579065164386,1079
3187.5486537678626,1056
3189.2391237491547,1166
3190.9293167806827,1102
3192.6192331828934,1064
3194.3088732763117,1064
3195.998237381542,1120
3197.687325819268,1123
3199.376138910251,1134
3201.064676975334,1093
3202.7529403354347,1107
3204.4409293115523,1074
3206.1286442247647,1134
3207.816085396229,1105
3209.5032531471825,1066
3211.190147798936,1061
3212.8767696728846,1113
3214.5631190905015,1118
3216.2491963733373,1087
3217.9350018430214,1078
3219.6205358212637,1075
3221.305798629851,1074
3222.990790590651,1097
3224.6755120256103,1041
3226.359963256751,1161
3228.0441446061795,1044
3229.7280563960758,1068
3231.411698948703,1097
3233.0950725863995,1080
3234.778177631587,1121
3236.461014406761,1115
3238.1435832345005,1119
3239.8258844374595,1114
3241.507918338374,1117
3243.1896852600576,1056
3244.8711855254023,1112
3246.552419457381,1112
3248.233387379042,1059
3249.914089613516,1100
3251.59452648401,1094
3253.274698313813,1121
3254.95460542629,1069
3256.6342481448855,1055
3258.313626793125,1022
3259.9927416946084,1037
3261.6715931730196,1076
3263.3501815521176,1020
3265.0285071557437,1064
3266.706570307815,1070
3268.3843713323286,1050
3270.0619105533615,1044
3271.739188295068,1122
3273.4162048816834,1134
3275.0929606375184,1122
3276.769455886966,1123
3278.445690954498,1126
3280.1216661646613,1160
3281.797381842087,1110
3283.4728383114807,1070
3285.1480358976296,1036
3286.8229749253996,1094
3288.4976557197333,1068
3290.172078605655,1112
3291.846243908266,1118
3293.5201519527463,1027
3295.193803064357,1096
3296.8671975684374,1063
3298.5403357904024,1086
3300.21321805575,1130
3301.8858446900567,1123
3303.558216018975,1102
3305.23033236824,1084
3306.9021940636603,1134
3308.57380143113,1089
3310.2451547966184,1079
3311.916254486174,1095
3313.5871008259246,1099
3315.2576941420766,1094
3316.9280347609147,1045
3318.5981230088046,1092
3320.2679592121895,1092
3321.9375436975924,1136
3323.606876791612,1091
3325.27595882093,1042
3326.944790112305,1058
3328.6133709925753,1038
3330.2817017886573,1106
3331.949782827547,1085
3333.617614436319,1103
3335.2851969421245,1075
3336.952530672199,1067
3338.619615953853,1084
3340.286453114475,1105
3341.9530424815357,1157
3343.619384382583,1105
3345.2854791452437,1128
3346.951327097224,1139
3348.6169285663073,1147
3350.2822838803577,1103
3351.947393367319,1133
3353.61225735521,1087
3355.2768761721345,1099
3356.9412501462693,1085
3358.605379605873,1111
3360.2692648792827,1107
3361.9329062949146,1042
3363.596304181263,1081
