CollectionTime,7/9/2024 4:20:54 PM
ExposureUsed,3
CalibratedSpectrum
-962.7078968117929,555
-959.9714848408522,585
-957.2358232597828,586
-954.5009119013725,587
-951.7667505983302,563
-949.0333391832855,564
-946.3006774887896,605
-943.5687653473143,602
-940.837602591253,597
-938.1071890529199,587
-935.3775245645503,575
-932.6486089583007,579
-929.9204420662485,595
-927.1930237203925,599
-924.4663537526524,598
-921.7404319948689,582
-919.0152582788041,615
-916.2908324361409,613
-913.5671542984834,594
-910.8442236973568,578
-908.1220404642074,606
-905.4006044304027,582
-902.679915427231,603
-899.959973285902,550
-897.2407778375464,591
-894.5223289132158,599
-891.8046263438832,611
-889.0876699604426,630
-886.3714595937089,575
-883.6559950744183,560
-880.9412762332282,589
-878.2273029007168,608
-875.5140749073835,615
-872.8015920836489,588
-870.0898542598545,587
-867.3788612662631,588
-864.6686129330585,606
-861.9591090903457,609
-859.2503495681506,587
-856.5423341964203,588
-853.8350628050229,596
-851.1285352237478,591
-848.4227512823054,600
-845.7177108103272,626
-843.0134136373656,591
-840.3098595928943,582
-837.6070485063082,613
-834.9049802069229,604
-832.2036545239757,615
-829.5030712866244,618
-826.8032303239481,622
-824.1041314649472,611
-821.4057745385428,619
-818.7081593735775,632
-816.0112857988148,592
-813.3151536429393,585
-810.6197627345566,630
-807.9251129021936,610
-805.2312039742981,586
-802.5380357792392,624
-799.8456081453069,639
-797.1539209007124,655
-794.462973873588,615
-791.772766891987,655
-789.083299783884,663
-786.3945723771743,630
-783.7065844996748,654
-781.0193359791231,621
-778.3328266431781,608
-775.6470563194197,626
-772.9620248353489,620
-770.2777320183878,639
-767.5941776958798,639
-764.9113616950891,630
-762.2292838432011,622
-759.5479439673222,629
-756.8673418944801,632
-754.1874774516235,641
-751.5083504656222,644
-748.8299607632671,623
-746.15230817127,638
-743.475392516264,655
-740.7992136248035,659
-738.1237713233636,643
-735.4490654383407,627
-732.7750957960521,658
-730.1018622227365,692
-727.4293645445534,645
-724.7576025875837,686
-722.0865761778291,665
-719.4162851412126,636
-716.7467293035781,679
-714.0779084906909,662
-711.409822528237,678
-708.7424712418238,643
-706.0758544569796,687
-703.4099719991541,663
-700.7448236937178,666
-698.0804093659622,671
-695.4167288411002,707
-692.7537819442656,671
-690.0915685005134,660
-687.4300883348199,677
-684.7693412720819,683
-682.1093271371178,677
-679.4500457546669,674
-676.7914969493897,695
-674.1336805458676,671
-671.4765963686034,697
-668.8202442420206,700
-666.1646239904642,677
-663.5097354382001,671
-660.8555784094151,665
-658.2021527282176,697
-655.5494582186366,673
-652.8974947046223,712
-650.2462620100463,726
-647.5957599587009,735
-644.9459883742998,726
-642.2969470804776,700
-639.6486359007902,736
-637.0010546587141,728
-634.3542031776476,708
-631.7080812809096,705
-629.0626887917401,731
-626.4180255333008,683
-623.7740913286734,738
-621.1308860008619,699
-618.4884093727904,723
-615.8466612673046,725
-613.2056415071715,720
-610.5653499150785,716
-607.9257863136347,730
-605.28695052537,738
-602.6488423727357,727
-600.0114616781036,741
-597.3748082637674,715
-594.7388819519412,755
-592.1036825647604,779
-589.4692099242818,759
-586.8354638524829,748
-584.2024441712624,742
-581.5701507024403,738
-578.9385832677575,755
-576.3077416888759,754
-573.6776257873787,776
-571.0482353847704,795
-568.4195703024757,787
-565.7916303618415,782
-563.164415384135,749
-560.5379251905453,764
-557.9121596021815,738
-555.2871184400748,773
-552.6628015251767,778
-550.0392086783606,783
-547.4163397204204,784
-544.794194472071,775
-542.1727727539491,779
-539.5520743866118,753
-536.9320991905377,799
-534.3128469861261,783
-531.6943175936979,833
-529.0765108334947,851
-526.4594265256793,907
-523.8430644903358,1015
-521.2274245474689,1057
-518.612506517005,1082
-515.9983102187913,1044
-513.3848354725959,1095
-510.77208209810846,1107
-508.16004991493924,1199
-505.5487387426199,1291
-502.9381484006032,1407
-500.3282787082628,1391
-497.71912948489364,1319
-495.1107005497117,1246
-492.5029917218539,1127
-489.8960028203786,1037
-487.28973366426493,959
-484.68418407241325,955
-482.07935386364494,894
-479.47524285670266,881
-476.87185087025,906
-474.2691777228715,888
-471.66722323307334,910
-469.0659872192821,960
-466.4654694998459,871
-463.86566989303384,915
-461.26658821703614,927
-458.66822428996414,905
-456.07057792985,897
-453.4736489546475,905
-450.877437182231,933
-448.28194243039627,891
-445.68716451686,894
-443.09310325926003,901
-440.49975847515555,916
-437.9071299820263,906
-435.31521759727354,911
-432.72402113821954,911
-430.13354042210767,967
-427.5437752661022,910
-424.95472548728867,940
-422.36639090267386,936
-419.7787713291855,923
-417.1918665836721,992
-414.60567648290385,1014
-412.0202008435715,967
-409.4354394822874,991
-406.8513922155845,981
-404.26805885991723,995
-401.685439231661,998
-399.103533147112,1003
-396.522340422488,974
-393.9418608739278,948
-391.3620943174908,950
-388.7830405691583,919
-386.2046994448317,865
-383.6270707603344,863
-381.05015433141045,848
-378.473949973725,750
-375.8984575028645,727
-373.32367673433623,636
-370.74960748356875,659
-368.1762495659117,621
-365.60360279663576,600
-363.03166699093265,533
-360.4604419639154,522
-357.8899275306178,462
-355.32012350599507,469
-352.7510297049233,455
-350.1826459421999,457
-347.61497203254316,457
-345.04800779059235,435
-342.4817530309082,468
-339.91620756797226,444
-337.35137121618743,457
-334.7872437898774,427
-332.22382510328725,447
-329.66111497058273,455
-327.09911320585127,429
-324.53781962310075,445
-321.9772340362607,468
-319.4173562591816,454
-316.8581861056348,436
-314.2997233893127,458
-311.7419679238294,451
-309.1849195227194,453
-306.62857799943856,454
-304.0729431673641,471
-301.51801483979375,482
-298.963792829947,475
-296.41027695096386,457
-293.85746701590574,459
-291.3053628377552,511
-288.7539642294155,489
-286.2032710037115,483
-283.65328297338897,483
-281.1039999511146,491
-278.5554217494762,523
-276.007548180983,572
-273.4603790580651,529
-270.9139141930734,502
-268.3681533982807,481
-265.8230964858798,483
-263.27874326798565,503
-260.7350935566336,507
-258.1921471637804,535
-255.6499039013039,540
-253.10836358100266,523
-250.56752601459698,539
-248.02739101372765,531
-245.48795838995704,541
-242.94922795476816,555
-240.41119951956557,534
-237.8738728956746,599
-235.33724789434166,593
-232.80132432673452,579
-230.2661020039418,568
-227.73158073697357,598
-225.19776033676033,623
-222.66464061415422,619
-220.1322213799284,557
-217.60050244477725,587
-215.06948361931552,586
-212.53916471408013,627
-210.00954553952818,617
-207.48062590603843,578
-204.9524056239104,595
-202.4248845033651,637
-199.8980623545441,594
-197.37193898751036,599
-194.84651421224817,603
-192.32178783866232,610
-189.79775967657952,672
-187.27442953574644,728
-184.7517972258321,656
-182.2298625564256,651
-179.7086253370378,657
-177.18808537710026,642
-174.66824248596583,644
-172.14909647290835,683
-169.6306471471229,655
-167.11289431772548,647
-164.59583779375328,682
-162.07947738416453,693
-159.5638128978386,735
-157.04884414357605,805
-154.53457093009854,790
-152.02099306604828,814
-149.50811035998936,724
-146.99592262040665,679
-144.48442965570587,708
-141.97363127421409,769
-139.46352728417958,817
-136.95411749377126,871
-134.44540171107985,794
-131.93737974411636,745
-129.43005140081357,750
-126.92341648902493,1022
-124.41747481652521,1428
-121.91222619101006,1803
-119.40767042009657,1921
-116.90380731132257,2036
-114.40063667214702,2368
-111.8981583099503,2498
-109.3963720320337,2147
-106.89527764561933,1696
-104.39487495785067,1230
-101.89516377579241,1390
-99.39614390642998,1897
-96.89781515667039,2131
-94.40017733334128,2368
-91.90323024319173,3211
-89.40697369289148,4057
-86.91140748903172,4256
-84.41653143812482,3718
-81.92234534660395,2535
-79.42884902082358,1992
-76.93604226705907,3073
-74.4439248915071,5723
-71.95249670028534,8192
-69.46175749943245,9452
-66.97170709490854,9843
-64.48234529259423,9859
-61.99367189829195,9245
-59.50568671772464,7934
-57.01838955653636,6907
-54.53178022029283,6767
-52.045858514480074,7118
-49.560624244506016,7272
-47.07607721569923,8712
-44.59221723330904,8668
-42.10904410250669,7909
-39.62655762838392,7056
-37.14475761595372,5889
-34.66364387015028,5678
-32.18321619582866,6090
-29.70347439776515,7283
-27.224418280657005,8353
-24.74604764912317,8765
-22.26836230770266,11912
-19.7913620608565,20307
-17.315046712966478,34667
-14.83941606833514,47579
-12.36446993118659,62235
-9.89020810566592,65039
-7.416630395839093,65039
-4.94373660569363,65039
-2.471526539137585,65039
-6.821210263296962E-13,65039
2.47084320796705,65039
4.941003281093458,65039
7.410480415786196,65039
9.879274808531363,65039
12.347386655893956,65039
14.814816154518212,65039
17.28156350112681,65039
19.74762889252179,65039
22.21301252558385,65039
24.67771459727237,20082
27.141735304626195,3396
29.605074844762612,1985
32.06773341487792,1913
34.52971121224755,2099
36.99100843422559,1790
39.45162527824516,1383
41.91156194181792,1293
44.370818622535126,1298
46.82939551806646,1181
49.287292826160524,1104
51.74451074464503,1095
54.201049471426245,1112
56.65690920448981,1167
59.112090141899785,1031
61.56659248179983,857
64.02041642241159,946
66.4735621620365,934
68.92602989905402,871
71.37781983192338,842
73.82893215918205,965
76.27936707944684,1023
78.72912479141326,1020
81.17820549385567,984
83.62660938562783,955
86.07433666566146,835
88.5213875329681,758
90.96776218663751,805
93.41346082583925,771
95.85848364982041,756
98.30283085790859,896
100.7465026495089,932
103.18949922410604,907
105.63182078126385,925
108.07346752062438,1018
110.51443964190923,811
112.95473734491827,761
115.39436082953114,782
117.83331029570547,770
120.27158594347827,735
122.7091879729652,798
125.1461165843615,750
127.58237197794062,748
130.01795435405518,793
132.4528639131364,875
134.88710085569494,829
137.32066538231982,764
139.75355769367923,716
142.1857779905207,770
144.61732647366978,748
147.04820334403132,764
149.47840880258934,777
151.90794305040674,748
154.33680628862487,887
156.76499871846443,1028
159.19252054122433,1107
161.61937195828352,1177
164.04555317109896,1409
166.47106438120693,1493
168.89590579022217,1596
171.320077599839,1720
173.7435800118302,1784
176.16641322804742,1787
178.58857745042144,1916
181.01007288096173,2002
183.43089972175687,1959
185.85105817497413,2148
188.27054844285988,2182
190.6893707277394,2055
193.10752523201643,2140
195.5250121581745,2255
197.9418317087751,2230
200.3579840864594,2262
202.7734694939469,2288
205.18828813403627,2330
207.6024402096051,2398
210.01592592360964,2371
212.42874547908548,2414
214.84089907914665,2457
217.2523869269868,2394
219.66320922587727,2491
222.0733661791695,2419
224.48285799029293,2468
226.8916848627572,2428
229.29984700014882,2392
231.7073446061355,2480
234.11417788446204,2460
236.520347038953,2465
238.92585227351185,2452
241.33069379212054,2471
243.73487179884035,2524
246.1383864978112,2519
248.541238093252,2459
250.9434267894609,2482
253.34495279081432,2551
255.74581630176783,2520
258.1460175268563,2476
260.54555667069314,2489
262.9444339379703,2456
265.3426495334594,2455
267.7402036620107,2441
270.1370965285529,2506
272.53332833809407,2483
274.9288992957214,2410
277.32380960660055,2421
279.718059475976,2364
282.1116491091717,2513
284.5045787115897,2439
286.89684848871195,2401
289.2884586460981,2435
291.67940938938807,2417
294.0697009242996,2507
296.4593334566299,2491
298.84830719225477,2416
301.23662233712923,2323
303.6242790972866,2403
306.01127767884,2335
308.39761828798066,2259
310.78330113097934,2373
313.16832641418534,2346
315.5526943440269,2335
317.9364051270112,2277
320.3194589697242,2270
322.70185607883093,2246
325.0835966610754,2225
327.4646809232805,2235
329.8451090723478,2291
332.2248813152577,2229
334.6039978590701,2216
336.9824589109231,2233
339.36026467803447,2198
341.7374153677,2205
344.113911187295,2218
346.48975234427337,2291
348.8649390461686,2187
351.2394715005918,2234
353.61334991523415,2201
355.9865744978655,2197
358.35914545633375,2139
360.73106299856715,2151
363.10232733257146,2181
365.47293866643247,2155
367.84289720831396,2159
370.2122031664593,2186
372.5808567491905,2164
374.9488581649083,2162
377.31620762209275,2080
379.6829053293021,2183
382.0489514951745,2071
384.4143463284262,2074
386.7790900378528,2073
389.14318283232853,2117
391.50662492080653,2060
393.86941651231916,2118
396.23155781597745,2159
398.5930490409713,2087
400.9538903965696,2095
403.3140820921202,2096
405.6736243370498,2079
408.03251734086336,2042
410.3907613131465,2059
412.74835646356166,2115
415.10530300185144,2010
417.4616011378372,2058
419.81725108141893,2018
422.1722530425758,1925
424.5266072313656,2027
426.880313857925,2007
429.2333731324701,2079
431.58578526529516,2065
433.9375504667738,2029
436.2886689473588,2061
438.63914091758113,2053
440.9889665880513,2038
443.33814616945835,1927
445.68667987257015,2033
448.03456790823395,2004
450.3818104873759,2025
452.72840782100013,2068
455.07436012019105,2050
457.41966759611057,2053
459.7643304600007,2011
462.10834892318155,2043
464.4517231970525,1996
466.79445349309174,2003
469.1365400228566,2043
471.4779829979826,2017
473.81878263018564,2011
476.15893913125876,1986
478.4984527130747,2054
480.8373235875855,2081
483.17555196682144,2181
485.5131380628919,2208
487.8500820879857,2256
490.1863842543697,2169
492.52204477439034,2398
494.8570638604725,2563
497.1914417251204,2727
499.52517858091653,3008
501.85827464052306,3150
504.19073011668036,3256
506.5225452222086,3316
508.85372017000566,3298
511.18425517304956,3260
513.514150444396,3378
515.8434061971808,3926
518.1720226446176,4811
520.4999999999999,5158
522.8273384766991,4710
525.1540382881666,4269
527.480099647932,3648
529.8055227696037,3133
532.1303078668694,2644
534.454455153496,2293
536.777964843328,2245
539.1008371502907,2104
541.4230722883866,2131
543.744670471698,2068
546.0656319143858,2100
548.3859568306899,2081
550.7056454349294,2061
553.0246979415016,1982
555.3431145648834,2033
557.6608955196306,2051
559.978041020377,2019
562.2945512818363,2015
564.6104265188006,2028
566.9256669461412,2044
569.2402727788082,2107
571.5542442318302,2082
573.8675815203156,2038
576.1802848594508,1995
578.4923544645015,2050
580.8037905508126,2063
583.114593333807,2015
585.4247630289875,2112
587.7342998519354,2074
590.0432040183106,2040
592.3514757438526,2064
594.6591152443794,2056
596.9661227357875,2122
599.2724984340531,2092
601.578242555231,2097
603.8833553154542,2050
606.1878369309362,2120
608.4916876179676,2050
610.7949075929192,2123
613.0974970722403,2078
615.3994562724587,2138
617.7007854101818,2089
620.0014847020951,2076
622.3015543649641,1991
624.6009946156324,2107
626.8998056710224,2192
629.1979877481361,2100
631.4955410640538,2071
633.7924658359349,2043
636.0887622810175,2066
638.3844306166192,2103
640.6794710601358,2013
642.9738838290426,2056
645.2676691408932,2130
647.5608272133207,2069
649.853358264037,2099
652.1452625108324,2142
654.4365401715764,2194
656.7271914642178,2085
659.0172166067838,2103
661.3066158173809,2175
663.5953893141935,2078
665.8835373154867,2083
668.1710600396028,2128
670.4579577049639,2101
672.7442305300709,2146
675.0298787335033,2188
677.3149025339197,2081
679.599302150058,2067
681.8830778007342,2148
684.1662297048437,2192
686.4487580813608,2146
688.7306631493387,2253
691.0119451279091,2163
693.2926042362834,2158
695.5726406937516,2116
697.8520547196814,2141
700.1308465335215,2173
702.4090163547982,2150
704.6865644031171,2149
706.9634908981619,2101
709.2397960596965,2120
711.5154801075631,2092
713.7905432616823,2087
716.0649857420548,2033
718.3388077687592,2068
720.612009561953,2164
722.8845913418733,2158
725.1565533288352,2188
727.427895743234,2154
729.6986188055427,2147
731.9687227363137,2124
734.238207756178,2157
736.5070740858458,2116
738.7753219461066,2103
741.0429515578281,2148
743.3099631419569,2172
745.5763569195191,2231
747.8421331116193,2150
750.1072919394409,2123
752.3718336242467,2185
754.6357583873777,2200
756.8990664502545,2140
759.1617580343765,2259
761.423833361321,2158
763.6852926527457,2206
765.9461361303862,2153
768.206364016058,2141
770.4659765316536,2183
772.7249738991469,2123
774.9833563405886,2173
777.2411240781092,2249
779.4982773339183,2187
781.7548163303044,2229
784.010741289634,2234
786.2660524343538,2270
788.5207499869881,2223
790.7748341701416,2221
793.0283052064964,2202
795.2811633188143,2158
797.5334087299362,2185
799.7850416627813,2196
802.0360623403484,2192
804.2864709857143,2243
806.5362678220353,2308
808.7854530725468,2145
811.0340269605625,2164
813.2819897094754,2211
815.5293415427581,2286
817.77608268396,2208
820.0222133567116,2212
822.2677337847211,2243
824.5126441917765,2258
826.7569448017433,2261
829.0006358385675,2205
831.2437175262731,2174
833.4861900889629,2153
835.7280537508192,2146
837.9693087361026,2183
840.2099552691533,2292
842.4499935743896,2127
844.689423876309,2210
846.9282463994886,2172
849.1664613685833,2245
851.4040690083276,2263
853.6410695435349,2213
855.877463199097,2270
858.1132501999847,2173
860.3484307712487,2240
862.5830051380175,2234
864.8169735254988,2286
867.0503361589791,2286
869.2830932638243,2259
871.5152450654786,2216
873.7467917894654,2327
875.9777336613873,2283
878.2080709069252,2306
880.4378037518389,2272
882.666932421968,2249
884.8954571432301,2240
887.1233781416219,2272
889.3506956432192,2233
891.5774098741766,2286
893.803521060728,2296
896.0290294291852,2266
898.2539352059397,2403
900.4782386174619,2303
902.7019398903011,2257
904.925039251085,2297
907.147536926521,2276
909.3694331433943,2245
911.59072812857,2289
913.8114221089921,2236
916.0315153116827,2274
918.2510079637437,2263
920.4699002923547,2286
922.6881925247761,2168
924.905884888345,2166
927.1229776104793,2214
929.3394709186747,2162
931.555365040506,2176
933.7706602036275,2151
935.9853566357709,2269
938.1994545647489,2175
940.4129542184515,2244
942.6258558248488,2244
944.8381596119883,2220
947.0498658079974,2247
949.2609746410825,2237
951.4714863395287,2164
953.6814011316998,2198
955.8907192460387,2239
958.0994409110671,2215
960.3075663553858,2181
962.5150958076741,2173
964.7220294966913,2249
966.928367651274,2153
969.1341105003388,2101
971.3392582728806,2189
973.5438111979742,2160
975.747769504772,2099
977.9511334225061,2194
980.153903180487,2143
982.3560790081052,2124
984.5576611348289,2187
986.7586497902058,2207
988.9590452038618,2155
991.158847605503,2092
993.3580572249133,2067
995.5566742919558,2062
997.7546990365728,2059
999.952131688785,2023
1002.1489724786926,2064
1004.3452216364743,2044
1006.5408793923874,1999
1008.7359459767691,2018
1010.9304216200343,1959
1013.1243065526781,1996
1015.3176010052733,2008
1017.510305208472,1970
1019.7024193930064,1968
1021.8939437896848,1960
1024.0848786293977,1927
1026.2752241431122,1961
1028.4649805618747,1928
1030.6541481168115,2008
1032.842727039127,1889
1035.0307175601051,1967
1037.2181199111074,2002
1039.4049343235752,1867
1041.591161029029,1840
1043.7768002590683,1939
1045.9618522453698,1881
1048.1463172196918,1919
1050.3301954138697,1907
1052.513487059818,1901
1054.69619238953,1954
1056.8783116350783,1887
1059.0598450286152,1984
1061.2407928023704,1899
1063.4211551886528,1902
1065.6009324198508,1906
1067.780124728432,1949
1069.9587323469414,1920
1072.1367555080046,1844
1074.314194444325,1846
1076.4910493886855,1933
1078.667320573947,1846
1080.843008233051,1879
1083.0181125990161,1876
1085.1926339049414,1981
1087.3665723840027,1916
1089.5399282694575,1936
1091.7127017946405,1891
1093.8848931929647,1895
1096.0565026979243,1851
1098.2275305430899,1910
1100.3979769621128,1857
1102.567842188722,1871
1104.737126456726,1881
1106.9058300000124,1836
1109.0739530525475,1817
1111.2414958483764,1908
1113.4084586216231,1895
1115.5748416064907,1878
1117.7406450372605,1858
1119.9058691482942,1904
1122.0705141740304,1907
1124.2345803489884,1868
1126.3980679077658,1878
1128.5609770850388,1843
1130.7233081155623,1854
1132.8850612341707,1896
1135.0462366757774,1910
1137.2068346753745,1796
1139.3668554680326,1862
1141.526299288901,1901
1143.68516637321,1831
1145.8434569562655,1865
1148.001171273455,1830
1150.158309560244,1860
1152.3148720521767,1856
1154.470858984876,1760
1156.626270594044,1868
1158.7811071154629,1813
1160.9353687849912,1846
1163.089055838569,1829
1165.242168512213,1768
1167.3947070420209,1794
1169.5466716641677,1801
1171.6980626149075,1820
1173.8488801305748,1826
1175.9991244475814,1877
1178.1487958024186,1811
1180.2978944316555,1822
1182.4464205719428,1824
1184.5943744600072,1855
1186.7417563326567,1814
1188.8885664267755,1832
1191.0348049793297,1709
1193.1804722273619,1800
1195.325568407995,1800
1197.4700937584303,1893
1199.614048515948,1877
1201.7574329179074,1864
1203.900247201746,1850
1206.042491604982,1810
1208.1841663652099,1860
1210.3252717201053,1861
1212.465807907422,1874
1214.6057751649923,1885
1216.7451737307279,1832
1218.8840038426192,1873
1221.0222657387353,1864
1223.1599596572241,1894
1225.2970858363137,1875
1227.4336445143094,1875
1229.5696359295966,1957
1231.705060320639,1833
1233.8399179259786,1927
1235.9742089842384,1821
1238.107933734118,1822
1240.2410924143974,1909
1242.373685263935,1902
1244.5057125216676,1877
1246.6371744266116,1872
1248.7680712178621,1889
1250.898403134593,1916
1253.028170416058,1917
1255.1573733015875,1864
1257.2860120305932,1901
1259.4140868425648,1844
1261.54159797707,1907
1263.6685456737569,1968
1265.7949301723515,1911
1267.9207517126597,1905
1270.046010534565,1915
1272.1707068780306,1898
1274.2948409830983,1879
1276.4184130898889,1927
1278.541423438603,1897
1280.6638722695184,1933
1282.785759822993,1934
1284.9070863394636,1944
1287.0278520594447,1953
1289.1480572235314,1958
1291.2677020723963,1970
1293.3867868467923,2033
1295.5053117875495,1951
1297.623277135579,2025
1299.740683131868,2029
1301.8575300174857,2044
1303.973818033578,2052
1306.0895474213703,1964
1308.2047184221678,2009
1310.3193312773528,1966
1312.4333862283888,2080
1314.5468835168163,2004
1316.659823384255,2047
1318.7722060724045,2037
1320.8840318230418,2034
1322.9953008780249,2094
1325.1060134792888,2074
1327.2161698688478,2062
1329.3257702887959,2038
1331.4348149813054,2054
1333.5433041886276,2039
1335.6512381530933,2033
1337.7586171171101,2110
1339.8654413231675,2023
1341.9717110138317,2015
1344.0774264317488,2102
1346.1825878196432,2022
1348.2871954203192,2038
1350.3912494766587,2046
1352.4947502316231,2005
1354.5976979282532,1983
1356.7000928096686,1995
1358.8019351190665,2016
1360.9032250997243,2054
1363.0039629949988,2041
1365.1041490483235,2044
1367.2037835032133,2051
1369.3028666032606,2108
1371.401398592137,2020
1373.4993797135926,1974
1375.5968102114575,2065
1377.6936903296396,1980
1379.7900203121262,2027
1381.8858004029835,1989
1383.9810308463561,2022
1386.075711886469,1948
1388.1698437676241,2075
1390.2634267342032,2021
1392.356461030667,2015
1394.4489469015557,2012
1396.5408845914872,2056
1398.6322743451592,2075
1400.7231164073469,2014
1402.813411022907,2035
1404.903158436773,2024
1406.9923588939578,1994
1409.0810126395531,1977
1411.1691199187303,2011
1413.2566809767386,2099
1415.343696058907,2027
1417.4301654106425,1944
1419.5160892774315,2000
1421.6014679048399,2067
1423.6863015385125,2060
1425.7705904241707,2027
1427.8543348076178,2030
1429.9375349347342,2029
1432.0201910514802,2049
1434.102303403894,2085
1436.1838722380944,2159
1438.2648978002767,2132
1440.3453803367174,2052
1442.4253200937692,2099
1444.5047173178677,2092
1446.5835722555234,2078
1448.6618851533285,2129
1450.739656257952,2062
1452.8168858161434,2139
1454.8935740747306,2139
1456.96972128062,2154
1459.045327680797,2252
1461.120393522327,2142
1463.1949190523528,2253
1465.2689045180973,2240
1467.3423501668608,2282
1469.415256246024,2219
1471.4876230030463,2240
1473.559450685465,2278
1475.6307395408976,2245
1477.7014898170391,2260
1479.771701761665,2306
1481.8413756226287,2328
1483.9105116478618,2322
1485.9791100853772,2258
1488.0471711832643,2280
1490.1146951896926,2367
1492.1816823529098,2355
1494.2481329212433,2358
1496.3140471430984,2372
1498.3794252669609,2308
1500.4442675413939,2458
1502.5085742150404,2353
1504.572345536622,2374
1506.6355817549388,2383
1508.6982831188702,2378
1510.7604498773744,2401
1512.8220822794883,2406
1514.8831805743293,2418
1516.9437450110909,2452
1519.003775839048,2487
1521.0632733075522,2435
1523.1222376660367,2424
1525.1806691640113,2504
1527.2385680510652,2537
1529.2959345768668,2515
1531.3527689911643,2473
1533.4090715437833,2490
1535.4648424846291,2495
1537.5200820636855,2585
1539.5747905310159,2616
1541.6289681367616,2676
1543.6826151311434,2587
1545.7357317644614,2730
1547.7883182870937,2709
1549.8403749494987,2785
1551.8919020022113,2755
1553.9428996958477,2826
1555.9933682811015,2829
1558.0433080087469,2829
1560.0927191296346,2858
1562.1416018946961,2820
1564.1899565549415,2798
1566.2377833614592,2769
1568.2850825654164,2808
1570.3318544180606,2765
1572.3780991707158,2764
1574.423817074788,2706
1576.4690083817595,2696
1578.5136733431923,2612
1580.5578122107272,2577
1582.601425236085,2571
1584.6445126710646,2499
1586.6870747675434,2435
1588.7291117774776,2393
1590.7706239529034,2403
1592.8116115459347,2359
1594.8520748087658,2280
1596.8920139936686,2283
1598.9314293529933,2322
1600.9703211391711,2197
1603.008689604711,2274
1605.0465350022005,2153
1607.0838575843068,2187
1609.1206576037753,2170
1611.1569353134305,2088
1613.1926909661765,2153
1615.2279248149953,2104
1617.2626371129481,2069
1619.2968281131757,2028
1621.3304980688963,2079
1623.3636472334088,2033
1625.39627586009,2049
1627.428384202396,2110
1629.459972513861,2018
1631.4910410480993,2057
1633.5215900588028,2041
1635.551619799744,2070
1637.5811305247717,2014
1639.6101224878166,2003
1641.6385959428862,1956
1643.6665511440683,1937
1645.693988345528,2020
1647.7209078015112,2043
1649.7473097663405,1939
1651.7731944944203,1953
1653.7985622402307,1977
1655.823413258333,1928
1657.847747803366,1901
1659.8715661300494,1943
1661.8948684931793,2010
1663.9176551476316,1898
1665.9399263483624,1977
1667.9616823504057,1938
1669.982923408873,1892
1672.0036497789574,1873
1674.0238617159293,1933
1676.043559475138,1905
1678.0627433120121,1911
1680.081413482059,1930
1682.0995702408654,1891
1684.117213844096,1971
1686.134344547495,1940
1688.1509626068864,1940
1690.1670682781705,1897
1692.182661817329,1919
1694.1977434804217,1923
1696.2123135235875,1957
1698.226372203043,1920
1700.2399197750851,1959
1702.2529564960905,1950
1704.2654826225112,1996
1706.277498410882,1890
1708.2890041178139,1863
1710.2999999999988,1940
1712.3104863142066,1935
1714.3204633172854,1924
1716.329931266163,1876
1718.3388904178469,1943
1720.3473410294214,1892
1722.3552833580516,1858
1724.3627176609807,1948
1726.3696441955308,1870
1728.3760632191033,1931
1730.3819749891782,1908
1732.3873797633146,1886
1734.3922777991502,1873
1736.3966693544012,1891
1738.4005546868639,1891
1740.4039340544127,1824
1742.406807715001,1827
1744.4091759266616,1861
1746.4110389475054,1867
1748.4123970357223,1850
1750.413250449582,1882
1752.4135994474318,1866
1754.4134442876993,1917
1756.4127852288902,1908
1758.4116225295893,1933
1760.4099564484595,1845
1762.407787244244,1879
1764.405115175764,1882
1766.4019405019203,1883
1768.3982634816916,1871
1770.3940843741357,1898
1772.3894034383907,1855
1774.3842209336717,1884
1776.378537119274,1844
1778.372352254571,1871
1780.3656665990156,1924
1782.3584804121397,1859
1784.3507939535534,1919
1786.3426074829463,1856
1788.3339212600863,1850
1790.3247355448211,1876
1792.3150505970766,1904
1794.3048666768573,1891
1796.2941840442477,1827
1798.2830029594106,1848
1800.2713236825884,1872
1802.2591464741004,1879
1804.2464715943465,1906
1806.2332993038058,1858
1808.2196298630352,1839
1810.2054635326708,1840
1812.190800573428,1952
1814.175641246101,1920
1816.1599858115628,1912
1818.1438345307652,1925
1820.127187664738,2008
1822.1100454745924,1912
1824.092408221516,1944
1826.0742761667766,1880
1828.055649571721,1836
1830.0365286977735,1896
1832.0169138064398,1904
1833.9968051593014,1891
1835.9762030180214,1838
1837.9551076443408,1876
1839.9335193000788,1869
1841.9114382471344,1853
1843.888864747485,1859
1845.8657990631878,1846
1847.842241456378,1917
1849.8181921892697,1895
1851.7936515241558,1876
1853.7686197234098,1893
1855.7430970494815,1851
1857.7170837649014,1871
1859.6905801322787,1884
1861.6635864143004,1890
1863.6361028737338,1819
1865.608129773424,1904
1867.5796673762961,1878
1869.5507159453537,1888
1871.521275743678,1877
1873.4913470344313,1864
1875.4609300808534,1913
1877.4300251462632,1911
1879.3986324940588,1870
1881.366752387717,1861
1883.3343850907936,1861
1885.3015308669228,1863
1887.268189979819,1982
1889.2343626932739,1892
1891.2000492711595,1861
1893.1652499774254,1894
1895.1299650761011,1921
1897.0941948312952,1914
1899.0579395071945,1993
1901.0211993680641,1906
1902.98397467825,1963
1904.9462657021745,1868
1906.9080727043415,1892
1908.869395949332,1902
1910.8302357018065,1944
1912.790592226504,1846
1914.7504657882428,1973
1916.7098566519212,1852
1918.6687650825133,1885
1920.6271913450764,1889
1922.5851357047422,1902
1924.5425984267245,1929
1926.499579776314,1901
1928.4560800188833,1907
1930.4120994198802,1859
1932.367638244833,1930
1934.32269675935,1867
1936.2772752291175,1873
1938.231373919899,1924
1940.1849930975404,1887
1942.1381330279637,1874
1944.0907939771696,1909
1946.0429762112412,1950
1947.9946799963363,1834
1949.9459055986945,1874
1951.896653284633,1919
1953.8469233205478,1887
1955.7967159729142,1845
1957.7460315082863,1904
1959.6948701932974,1943
1961.6432322946594,1884
1963.5911180791632,1950
1965.5385278136787,1911
1967.4854617651545,1899
1969.4319202006182,1917
1971.377903387176,1901
1973.3234115920136,1858
1975.268445082395,1848
1977.2130041256642,1851
1979.1570889892423,1851
1981.1006999406304,1890
1983.04383724741,1940
1984.986501177238,1915
1986.928691997853,1936
1988.8704099770712,1849
1990.811655382789,1847
1992.7524284829801,1877
1994.692729545698,1912
1996.6325588390755,1954
1998.5719166313224,1933
2000.5108031907307,1945
2002.4492187856677,1979
2004.387163684583,1949
2006.3246381560011,1918
2008.2616424685298,1868
2010.1981768908527,1911
2012.1342416917332,1943
2014.069837140014,1927
2016.0049635046162,1863
2017.9396210545406,1900
2019.8738100588666,1837
2021.8075307867502,1892
2023.740783507431,1889
2025.6735684902228,1850
2027.6058860045214,1929
2029.5377363198004,1895
2031.4691197056118,1931
2033.4000364315875,1948
2035.3304867674374,1926
2037.260470982952,1949
2039.189989347998,1884
2041.1190421325232,1880
2043.047629606554,1902
2044.9757520401945,1880
2046.9034097036288,1874
2048.8306028671195,1875
2050.7573318010086,1912
2052.683596775716,1865
2054.609398061742,1898
2056.5347359296647,1936
2058.4596106501403,1918
2060.384022493906,1916
2062.3079717317764,1887
2064.231458634646,1842
2066.1544834734873,1790
2068.077046519352,1888
2069.99914804337,1868
2071.9207883167524,1842
2073.8419676107865,1934
2075.7626861968406,1859
2077.6829443463607,1949
2079.6027423308715,1948
2081.522080421977,1914
2083.440958891362,1908
2085.359378010786,1919
2087.2773380520907,1911
2089.194839287196,1896
2091.111881988101,1906
2093.0284664268825,1915
2094.9445928756973,1849
2096.86026160678,1944
2098.775472892446,1888
2100.690227005088,1928
2102.604524217178,1946
2104.5183648012676,1869
2106.431749029985,1914
2108.34467717604,1876
2110.2571495122206,1895
2112.169166311393,1986
2114.080727846503,1922
2115.9918343905747,1905
2117.902486216711,1902
2119.8126835980956,1889
2121.722426807987,1893
2123.6317161197285,1894
2125.5405518067364,1951
2127.448934142509,1935
2129.356863400624,1929
2131.264339854737,1904
2133.1713637785815,1931
2135.077935445972,1921
2136.9840551308002,1984
2138.889723107037,1941
2140.7949396487334,1977
2142.699705030018,1902
2144.6040195250994,1980
2146.507883408264,1915
2148.4112969538774,1905
2150.3142604363848,1966
2152.2167741303097,1921
2154.1188383102535,1988
2156.0204532508997,1933
2157.9216192270064,1942
2159.822336513414,2016
2161.7226053850413,1881
2163.622426116884,1915
2165.5217989840185,1903
2167.4207242616,1934
2169.319202224862,1920
2171.2172331491165,1954
2173.1148173097563,1901
2175.0119549822507,1935
2176.90864644215,1927
2178.8048919650823,1910
2180.7006918267534,1931
2182.596046302952,1952
2184.4909556695407,1934
2186.3854202024645,1908
2188.279440177746,1976
2190.173015871487,1970
2192.066147559868,1923
2193.958835519149,1912
2195.851080025667,1975
2197.7428813558417,1928
2199.6342397861667,1981
2201.5251555932186,1973
2203.415629053651,1978
2205.3056604441986,1909
2207.19525004167,1950
2209.084398122958,1977
2210.9731049650327,1984
2212.861370844941,1982
2214.749196039812,2003
2216.636580826851,1975
2218.523525483344,2054
2220.410030286655,1911
2222.296095514226,2018
2224.1817214435805,1973
2226.066908352319,2021
2227.951656518121,2022
2229.835966218746,1937
2231.71983773203,2019
2233.6032713358913,2013
2235.486267308324,1888
2237.3688259274036,1984
2239.2509474712824,2016
2241.132632218193,2027
2243.013880446447,2064
2244.8946924344323,2080
2246.7750684606203,2009
2248.6550088035574,1963
2250.534513741871,1994
2252.413583554265,2024
2254.292218519526,2013
2256.170418916517,1978
2258.0481850241786,1967
2259.925517121534,1970
2261.8024154876825,1987
2263.678880401803,2025
2265.5549121431536,1951
2267.430510991071,2004
2269.305677224971,1990
2271.180411124348,1963
2273.0547129687766,1966
2274.9285830379076,1975
2276.8020216114737,1994
2278.6750289692845,2009
2280.5476053912294,2000
2282.4197511572766,1963
2284.2914665474727,1983
2286.162751841943,2034
2288.0336073208937,2082
2289.904033264608,2017
2291.774029953448,2059
2293.6435976678554,1997
2295.5127366883517,1969
2297.381447295534,1983
2299.2497297700825,1933
2301.1175843927526,1952
2302.9850114443825,1919
2304.852011205885,1874
2306.7185839582553,1883
2308.5847299825664,1837
2310.4504495599676,1870
2312.3157429716925,1858
2314.1806104990483,1836
2316.0450524234247,1925
2317.9090690262888,1786
2319.772660589186,1832
2321.635827393742,1881
2323.498569721661,1830
2325.3608878547248,1841
2327.2227820747967,1873
2329.0842526638157,1838
2330.945299903803,1814
2332.805924076857,1907
2334.6661254651535,1854
2336.525904350951,1781
2338.3852610165827,1790
2340.244195744464,1893
2342.102708817088,1870
2343.9608005170253,1830
2345.8184711269287,1788
2347.675720929526,1808
2349.532550207628,1825
2351.38895924412,1776
2353.24494832197,1841
2355.100517724223,1797
2356.955667734004,1877
2358.810398634514,1851
2360.664710709037,1883
2362.5186042409337,1805
2364.3720795136437,1830
2366.225136810686,1882
2368.0777764156583,1817
2369.929998612237,1826
2371.7818036841777,1809
2373.633191915315,1842
2375.484163589562,1854
2377.3347189909114,1848
2379.184858403434,1876
2381.03458211128,1859
2382.8838903986775,1851
2384.732783549936,1853
2386.5812618494406,1892
2388.4293255816588,1872
2390.2769750311327,1875
2392.1242104824883,1890
2393.971032220427,1887
2395.8174405297295,1784
2397.6634356952563,1861
2399.509018001947,1827
2401.3541877348193,1896
2403.1989451789705,1873
2405.043290619576,1849
2406.8872243418905,1836
2408.730746631247,1858
2410.5738577730594,1783
2412.4165580528183,1894
2414.258847756095,1873
2416.100727168537,1854
2417.9421965758734,1849
2419.783256263912,1896
2421.623906518538,1894
2423.4641476257157,1944
2425.303979871491,1889
2427.143403541984,1848
2428.9824189233977,1879
2430.821026302012,1896
2432.6592259641866,1881
2434.497018196361,1873
2436.33440328505,1832
2438.171381516851,1912
2440.00795317844,1960
2441.844118556569,1899
2443.6798779380724,1919
2445.5152316098606,1832
2447.3501798589255,1859
2449.1847229723357,1971
2451.0188612372403,1831
2452.8525949408663,1912
2454.6859243705203,1828
2456.518849813587,1912
2458.3513715575314,1900
2460.183489889895,1916
2462.015205098301,1908
2463.8465174704493,1883
2465.67742729412,1906
2467.5079348571717,1896
2469.338040447542,1903
2471.1677443532476,1868
2472.9970468623833,1935
2474.825948263123,1821
2476.6544488437207,1914
2478.482548892508,1931
2480.310248697896,1839
2482.137548548374,1861
2483.9644487325118,1850
2485.790949538956,1847
2487.617051256433,1878
2489.44275417375,1836
2491.26805857979,1885
2493.0929647635157,1866
2494.917473013971,1924
2496.741583620276,1901
2498.5652968716304,1873
2500.3886130573137,1949
2502.2115324666834,1952
2504.0340553891765,1853
2505.856182114308,1901
2507.6779129316733,1896
2509.499248130945,1934
2511.3201880018764,1860
2513.140732834298,1876
2514.9608829181198,1815
2516.780638543331,1912
2518.6,1876
2520.418967578273,1892
2522.237541568376,1922
2524.0557222606144,1928
2525.8735099453706,1860
2527.6909049131086,1898
2529.507907454368,1942
2531.32451785977,1949
2533.140736420014,1919
2534.9565634258774,1905
2536.771999168218,1915
2538.5870439379714,1927
2540.4016980261526,1996
2542.2159617238544,2025
2544.02983532225,1968
2545.8433191125914,1988
2547.656413386209,1970
2549.4691184345115,2010
2551.2814345489874,1942
2553.093362021204,1956
2554.904901142808,1997
2556.716052205523,1977
2558.526815501153,2011
2560.3371913215824,1951
2562.147179958771,1958
2563.956781704761,1975
2565.7659968516705,1988
2567.5748256916986,1960
2569.3832685171224,1995
2571.1913256202984,1974
2572.9989972936614,1994
2574.806283829725,1997
2576.613185521084,1970
2578.4197026604074,1986
2580.2258355404483,2061
2582.031584454035,1950
2583.836949694077,2010
2585.6419315535613,2029
2587.4465303255533,2038
2589.2507463032002,1925
2591.0545797797245,2054
2592.8580310484303,2057
2594.6611004026995,2096
2596.463788135992,2049
2598.266094541849,2071
2600.0680199138874,2095
2601.869564545807,2065
2603.670728731383,2013
2605.4715127644704,2035
2607.2719169390048,1971
2609.071941548998,2076
2610.8715868885433,2015
2612.670853251811,2066
2614.469740933052,2047
2616.268250226594,2037
2618.0663814268455,2062
2619.864134828292,2004
2621.6615107255006,2076
2623.458509413115,2005
2625.2551311858597,2018
2627.0513763385347,2045
2628.8472451660223,2065
2630.6427379632833,1999
2632.4378550253564,1982
2634.232596647359,2032
2636.026963124488,1990
2637.8209547520187,2019
2639.6145718253065,2042
2641.407814639785,2034
2643.200683490966,2034
2644.9931786744414,2036
2646.7853004858807,1919
2648.577049221034,2049
2650.3684251757277,1976
2652.1594286458712,2019
2653.9500599274484,1999
2655.740319316525,1986
2657.5302071092437,1958
2659.3197236018286,1987
2661.10886909058,1972
2662.8976438718782,1975
2664.686048242183,1962
2666.4740824980327,1937
2668.2617469360443,1973
2670.0490418529134,1960
2671.8359675454153,1931
2673.622524310403,1994
2675.408712444811,1910
2677.1945322456495,1970
2678.979984010009,1943
2680.76506803506,1947
2682.5497846180497,1954
2684.334134056306,2013
2686.1181166472343,2000
2687.9017326883213,1850
2689.6849824771293,1926
2691.4678663113013,1887
2693.2503844885596,1918
2695.032537306705,1904
2696.8143250636167,1912
2698.5957480572542,1923
2700.3768065856534,1953
2702.1575009469316,1916
2703.937831439283,1866
2705.717798360982,1885
2707.4974020103837,1931
2709.276642685917,1851
2711.055520686095,1901
2712.834036309506,1930
2714.612189854819,1940
2716.389981620782,1866
2718.1674119062204,1860
2719.944481010041,1872
2721.721189231226,1930
2723.4975368688415,1878
2725.273524222027,1956
2727.0491515900053,1947
2728.824419272075,1860
2730.5993275676146,1875
2732.3738767760838,1790
2734.148067197016,1906
2735.921899130031,1933
2737.6953728748194,1916
2739.468488731156,1913
2741.2412469988926,1876
2743.0136479779617,1845
2744.785691968372,1905
2746.5573792702116,1818
2748.3287101836504,1843
2750.099685008934,1902
2751.870304046388,1865
2753.640567596418,1879
2755.4104759595057,1873
2757.1800294362156,1906
2758.949228327187,1887
2760.7180729331412,1900
2762.486563554877,1929
2764.254700493272,1892
2766.022484049284,1809
2767.789914523947,1891
2769.5569922183786,1854
2771.3237174337705,1872
2773.090090471394,1813
2774.8561116326036,1837
2776.6217812188274,1871
2778.3870995315756,1854
2780.1520668724356,1889
2781.9166835430747,1932
2783.6809498452394,1843
2785.444866080754,1938
2787.2084325515225,1889
2788.971649559527,1856
2790.73451740683,1886
2792.4970363955713,1851
2794.2592068279705,1887
2796.0210290063264,1884
2797.7825032330147,1973
2799.543629810493,1902
2801.304409041296,1887
2803.0648412280366,1799
2804.8249266734088,1824
2806.5846656801846,1921
2808.344058551212,1942
2810.1031055894246,1874
2811.8618070978273,1951
2813.6201633795085,1818
2815.378174737636,1895
2817.1358414754536,1898
2818.893163896285,1953
2820.6501423035334,1916
2822.4067770006814,1914
2824.1630682912883,1819
2825.9190164789957,1920
2827.6746218675207,1878
2829.429884760661,1877
2831.184805462294,1835
2832.9393842763743,1914
2834.693621506936,1934
2836.4475174580916,1900
2838.201072434034,1954
2839.954286739034,1876
2841.707160677441,1881
2843.459694553685,1885
2845.2118886722724,1928
2846.96374333779,1921
2848.7152588549034,1914
2850.4664355283567,1933
2852.217273662973,1910
2853.9677735636546,1968
2855.7179355353833,1963
2857.4677598832186,1808
2859.217246912299,1857
2860.9663969278427,1897
2862.715210235146,1928
2864.4636871395846,1831
2866.211827946614,1847
2867.9596329617652,1905
2869.7071024906536,1909
2871.4542368389684,1917
2873.20103631248,1868
2874.947501217038,1887
2876.6936318585695,1867
2878.4394285430812,1825
2880.1848915766604,1926
2881.9300212654707,1857
2883.6748179157553,1959
2885.4192818338374,1864
2887.1634133261173,1837
2888.907212699077,1915
2890.6506802592744,1916
2892.393816313348,1832
2894.1366211680142,1924
2895.8790951300693,1870
2897.621238506388,1930
2899.363051603925,1872
2901.1045347297118,1943
2902.8456881908596,1879
2904.58651229456,1900
2906.327007348081,1875
2908.067173658772,1853
2909.8070115340597,1892
2911.5465212814497,1854
2913.285703208527,1879
2915.0245576229563,1852
2916.7630848324807,1913
2918.5012851449196,1891
2920.2391588681758,1930
2921.976706310227,1848
2923.7139277791334,1901
2925.4508235830313,1846
2927.187394030137,1871
2928.923639428745,1886
2930.6595600872306,1944
2932.395156314046,1907
2934.1304284177218,1923
2935.8653767068713,1847
2937.6000014901815,1903
2939.3343030764227,1881
2941.068281774442,1904
2942.8019378931644,1922
2944.5352717415976,1963
2946.2682836288236,1888
2948.0009738640065,1914
2949.7333427563885,1877
2951.465390615289,1868
2953.1971177501086,1883
2954.9285244703265,1924
2956.6596110855,1978
2958.3903779052657,1853
2960.1208252393385,1931
2961.8509533975125,1838
2963.5807626896617,1835
2965.3102534257378,1835
2967.0394259157715,1880
2968.768280469873,1936
2970.496817398232,1912
2972.2250370111146,1855
2973.952939618869,1952
2975.6805255319196,1900
2977.4077950607707,1910
2979.134748516006,1936
2980.861386208289,1908
2982.587708448359,2000
2984.313715547037,1915
2986.039407815222,1852
2987.764785563891,1938
2989.489849104102,1902
2991.2145987469908,1923
2992.9390348037705,1849
2994.6631575857346,1885
2996.3869674042576,1915
2998.1104645707887,1886
2999.83364939686,1829
3001.5565221940783,1891
3003.2790832741334,1953
3005.0013329487924,1864
3006.7232715298996,1874
3008.4448993293804,1903
3010.166216659239,1872
3011.887223831558,1832
3013.607921158498,1882
3015.3283089522993,1864
3017.0483875252826,1842
3018.7681571898443,1917
3020.4876182584626,1923
3022.2067710436927,1911
3023.9256158581707,1895
3025.644153014609,1953
3027.362382825801,1905
3029.0803056046193,1887
3030.797921664012,1891
3032.5152313170106,1937
3034.2322348767225,1924
3035.9489326563353,1912
3037.665324969115,1941
3039.3814121284063,1913
3041.097194447633,1859
3042.812672240299,1953
3044.5278458199855,1859
3046.2427155003525,1908
3047.9572815951406,1882
3049.671544418167,1928
3051.38550428333,1831
3053.0991615046073,1839
3054.812516396051,1887
3056.5255692717974,1887
3058.2383204460575,1816
3059.9507702331257,1905
3061.662918947372,1885
3063.3747669032446,1924
3065.0863144152736,1938
3066.7975617980674,1924
3068.508509366309,1864
3070.219157434767,1873
3071.9295063182844,1918
3073.639556331785,1861
3075.3493077902704,1965
3077.058761008821,1962
3078.7679163025964,1955
3080.476773986837,1914
3082.1853343768594,1884
3083.89359778806,1818
3085.6015645359153,1849
3087.3092349359786,1927
3089.016609303884,1884
3090.7236879553434,1893
3092.4304712061476,1865
3094.136959372166,1860
3095.843152769349,1855
3097.5490517137237,1890
3099.2546565213966,1852
3100.959967508554,1911
3102.66498499146,1881
3104.3697092864577,1888
3106.0741407099695,1954
3107.778279578498,1901
3109.482126208622,1928
3111.1856809170004,1922
3112.8889440203716,1943
3114.5919158355528,1923
3116.294596679439,1909
3117.996986869006,1968
3119.6990867213062,1987
3121.4008965534726,1938
3123.102416682717,1910
3124.803647426329,1990
3126.5045891016784,1969
3128.205242026213,1930
3129.90560651746,1901
3131.605682893025,1883
3133.3054714705922,1979
3135.0049725679282,1935
3136.7041865028714,1888
3138.4031135933465,1940
3140.101754157353,1909
3141.800108512971,1946
3143.498176978357,1918
3145.1959598717494,1992
3146.8934575114636,1924
3148.5906702158954,1877
3150.2875983035183,1872
3151.9842420928853,1952
3153.680601902627,1960
3155.376678051456,1927
3157.07247085816,1885
3158.767980641609,1876
3160.463207720748,1964
3162.158152414606,1886
3163.8528150422862,1915
3165.5471959229726,1935
3167.2412953759303,1922
3168.9351137204976,1939
3170.628651276098,1915
3172.3219083622307,1942
3174.014885298474,1914
3175.707582404485,1982
3177.4000000000005,1997
3179.092138404835,1923
3180.7839979388846,1884
3182.47557892212,1945
3184.166881674594,1909
3185.8579065164386,1956
3187.5486537678626,1972
3189.2391237491547,1920
3190.9293167806827,1912
3192.6192331828934,1972
3194.3088732763117,1953
3195.998237381542,1887
3197.687325819268,1909
3199.376138910251,1851
3201.064676975334,1883
3202.7529403354347,1953
3204.4409293115523,1958
3206.1286442247647,1928
3207.816085396229,1880
3209.5032531471825,1807
3211.190147798936,1886
3212.8767696728846,1862
3214.5631190905015,1947
3216.2491963733373,1911
3217.9350018430214,1909
3219.6205358212637,1900
3221.305798629851,1898
3222.990790590651,1930
3224.6755120256103,1892
3226.359963256751,1848
3228.0441446061795,1879
3229.7280563960758,1904
3231.411698948703,1871
3233.0950725863995,1909
3234.778177631587,1970
3236.461014406761,1936
3238.1435832345005,1960
3239.8258844374595,1994
3241.507918338374,1906
3243.1896852600576,1865
3244.8711855254023,1966
3246.552419457381,1909
3248.233387379042,1913
3249.914089613516,1913
3251.59452648401,1874
3253.274698313813,1995
3254.95460542629,1913
3256.6342481448855,1932
3258.313626793125,1952
3259.9927416946084,1885
3261.6715931730196,1944
3263.3501815521176,1916
3265.0285071557437,1933
3266.706570307815,1935
3268.3843713323286,1919
3270.0619105533615,1902
3271.739188295068,1965
3273.4162048816834,1943
3275.0929606375184,1870
3276.769455886966,1889
3278.445690954498,1849
3280.1216661646613,1956
3281.797381842087,1986
3283.4728383114807,1960
3285.1480358976296,1824
3286.8229749253996,1987
3288.4976557197333,1950
3290.172078605655,1910
3291.846243908266,1937
3293.5201519527463,1936
3295.193803064357,1925
3296.8671975684374,1892
3298.5403357904024,1917
3300.21321805575,1979
3301.8858446900567,1910
3303.558216018975,1936
3305.23033236824,1925
3306.9021940636603,1930
3308.57380143113,1907
3310.2451547966184,1976
3311.916254486174,1952
3313.5871008259246,1925
3315.2576941420766,1901
3316.9280347609147,1969
3318.5981230088046,1968
3320.2679592121895,1984
3321.9375436975924,1836
3323.606876791612,1875
3325.27595882093,1907
3326.944790112305,1931
3328.6133709925753,1922
3330.2817017886573,1952
3331.949782827547,1914
3333.617614436319,1880
3335.2851969421245,1894
3336.952530672199,1974
3338.619615953853,2019
3340.286453114475,1966
3341.9530424815357,1896
3343.619384382583,1958
3345.2854791452437,1926
3346.951327097224,1981
3348.6169285663073,1955
3350.2822838803577,1968
3351.947393367319,1955
3353.61225735521,1963
3355.2768761721345,1940
3356.9412501462693,1960
3358.605379605873,1947
3360.2692648792827,1980
3361.9329062949146,1990
3363.596304181263,1948
