CollectionTime,7/10/2024 3:17:54 PM
ExposureUsed,3
CalibratedSpectrum
-962.7078968117929,1108
-959.9714848408522,1196
-957.2358232597828,1176
-954.5009119013725,1212
-951.7667505983302,1191
-949.0333391832855,1248
-946.3006774887896,1220
-943.5687653473143,1176
-940.837602591253,1238
-938.1071890529199,1212
-935.3775245645503,1198
-932.6486089583007,1219
-929.9204420662485,1214
-927.1930237203925,1288
-924.4663537526524,1218
-921.7404319948689,1189
-919.0152582788041,1228
-916.2908324361409,1272
-913.5671542984834,1248
-910.8442236973568,1259
-908.1220404642074,1171
-905.4006044304027,1219
-902.679915427231,1246
-899.959973285902,1269
-897.2407778375464,1210
-894.5223289132158,1224
-891.8046263438832,1236
-889.0876699604426,1198
-886.3714595937089,1237
-883.6559950744183,1216
-880.9412762332282,1227
-878.2273029007168,1188
-875.5140749073835,1241
-872.8015920836489,1264
-870.0898542598545,1252
-867.3788612662631,1227
-864.6686129330585,1241
-861.9591090903457,1272
-859.2503495681506,1223
-856.5423341964203,1244
-853.8350628050229,1161
-851.1285352237478,1272
-848.4227512823054,1224
-845.7177108103272,1224
-843.0134136373656,1272
-840.3098595928943,1265
-837.6070485063082,1305
-834.9049802069229,1318
-832.2036545239757,1203
-829.5030712866244,1231
-826.8032303239481,1266
-824.1041314649472,1293
-821.4057745385428,1214
-818.7081593735775,1193
-816.0112857988148,1249
-813.3151536429393,1305
-810.6197627345566,1285
-807.9251129021936,1261
-805.2312039742981,1289
-802.5380357792392,1282
-799.8456081453069,1241
-797.1539209007124,1274
-794.462973873588,1348
-791.772766891987,1315
-789.083299783884,1328
-786.3945723771743,1305
-783.7065844996748,1297
-781.0193359791231,1256
-778.3328266431781,1273
-775.6470563194197,1262
-772.9620248353489,1311
-770.2777320183878,1279
-767.5941776958798,1264
-764.9113616950891,1306
-762.2292838432011,1328
-759.5479439673222,1293
-756.8673418944801,1327
-754.1874774516235,1322
-751.5083504656222,1283
-748.8299607632671,1385
-746.15230817127,1382
-743.475392516264,1386
-740.7992136248035,1331
-738.1237713233636,1339
-735.4490654383407,1365
-732.7750957960521,1330
-730.1018622227365,1365
-727.4293645445534,1411
-724.7576025875837,1382
-722.0865761778291,1381
-719.4162851412126,1363
-716.7467293035781,1376
-714.0779084906909,1396
-711.409822528237,1431
-708.7424712418238,1380
-706.0758544569796,1399
-703.4099719991541,1345
-700.7448236937178,1411
-698.0804093659622,1433
-695.4167288411002,1365
-692.7537819442656,1395
-690.0915685005134,1400
-687.4300883348199,1374
-684.7693412720819,1430
-682.1093271371178,1388
-679.4500457546669,1396
-676.7914969493897,1475
-674.1336805458676,1427
-671.4765963686034,1449
-668.8202442420206,1465
-666.1646239904642,1496
-663.5097354382001,1482
-660.8555784094151,1380
-658.2021527282176,1436
-655.5494582186366,1456
-652.8974947046223,1518
-650.2462620100463,1442
-647.5957599587009,1517
-644.9459883742998,1519
-642.2969470804776,1536
-639.6486359007902,1486
-637.0010546587141,1473
-634.3542031776476,1476
-631.7080812809096,1583
-629.0626887917401,1464
-626.4180255333008,1507
-623.7740913286734,1478
-621.1308860008619,1575
-618.4884093727904,1538
-615.8466612673046,1539
-613.2056415071715,1513
-610.5653499150785,1549
-607.9257863136347,1535
-605.28695052537,1528
-602.6488423727357,1543
-600.0114616781036,1540
-597.3748082637674,1546
-594.7388819519412,1581
-592.1036825647604,1553
-589.4692099242818,1676
-586.8354638524829,1583
-584.2024441712624,1621
-581.5701507024403,1610
-578.9385832677575,1620
-576.3077416888759,1625
-573.6776257873787,1619
-571.0482353847704,1523
-568.4195703024757,1588
-565.7916303618415,1665
-563.164415384135,1634
-560.5379251905453,1595
-557.9121596021815,1687
-555.2871184400748,1638
-552.6628015251767,1571
-550.0392086783606,1616
-547.4163397204204,1583
-544.794194472071,1657
-542.1727727539491,1689
-539.5520743866118,1664
-536.9320991905377,1677
-534.3128469861261,1754
-531.6943175936979,1702
-529.0765108334947,1713
-526.4594265256793,1785
-523.8430644903358,1905
-521.2274245474689,2011
-518.612506517005,2069
-515.9983102187913,1988
-513.3848354725959,2080
-510.77208209810846,2110
-508.16004991493924,2201
-505.5487387426199,2452
-502.9381484006032,2520
-500.3282787082628,2515
-497.71912948489364,2531
-495.1107005497117,2457
-492.5029917218539,2350
-489.8960028203786,2164
-487.28973366426493,1989
-484.68418407241325,1954
-482.07935386364494,1870
-479.47524285670266,1876
-476.87185087025,1895
-474.2691777228715,1867
-471.66722323307334,1876
-469.0659872192821,1846
-466.4654694998459,1875
-463.86566989303384,1865
-461.26658821703614,1835
-458.66822428996414,1903
-456.07057792985,1961
-453.4736489546475,1876
-450.877437182231,1915
-448.28194243039627,1903
-445.68716451686,1842
-443.09310325926003,1781
-440.49975847515555,1836
-437.9071299820263,1772
-435.31521759727354,1790
-432.72402113821954,1934
-430.13354042210767,1933
-427.5437752661022,1786
-424.95472548728867,1861
-422.36639090267386,1910
-419.7787713291855,1950
-417.1918665836721,1959
-414.60567648290385,1994
-412.0202008435715,1980
-409.4354394822874,2048
-406.8513922155845,2087
-404.26805885991723,2003
-401.685439231661,2027
-399.103533147112,2038
-396.522340422488,2104
-393.9418608739278,1879
-391.3620943174908,1795
-388.7830405691583,1875
-386.2046994448317,1767
-383.6270707603344,1738
-381.05015433141045,1603
-378.473949973725,1409
-375.8984575028645,1269
-373.32367673433623,1137
-370.74960748356875,1036
-368.1762495659117,975
-365.60360279663576,836
-363.03166699093265,736
-360.4604419639154,690
-357.8899275306178,612
-355.32012350599507,550
-352.7510297049233,545
-350.1826459421999,523
-347.61497203254316,480
-345.04800779059235,502
-342.4817530309082,503
-339.91620756797226,529
-337.35137121618743,522
-334.7872437898774,556
-332.22382510328725,605
-329.66111497058273,550
-327.09911320585127,512
-324.53781962310075,555
-321.9772340362607,555
-319.4173562591816,516
-316.8581861056348,490
-314.2997233893127,496
-311.7419679238294,493
-309.1849195227194,519
-306.62857799943856,545
-304.0729431673641,585
-301.51801483979375,607
-298.963792829947,596
-296.41027695096386,645
-293.85746701590574,662
-291.3053628377552,611
-288.7539642294155,613
-286.2032710037115,569
-283.65328297338897,530
-281.1039999511146,606
-278.5554217494762,687
-276.007548180983,648
-273.4603790580651,570
-270.9139141930734,600
-268.3681533982807,597
-265.8230964858798,585
-263.27874326798565,655
-260.7350935566336,719
-258.1921471637804,758
-255.6499039013039,777
-253.10836358100266,652
-250.56752601459698,667
-248.02739101372765,644
-245.48795838995704,669
-242.94922795476816,619
-240.41119951956557,649
-237.8738728956746,720
-235.33724789434166,656
-232.80132432673452,615
-230.2661020039418,649
-227.73158073697357,685
-225.19776033676033,680
-222.66464061415422,640
-220.1322213799284,694
-217.60050244477725,661
-215.06948361931552,660
-212.53916471408013,724
-210.00954553952818,767
-207.48062590603843,686
-204.9524056239104,677
-202.4248845033651,744
-199.8980623545441,763
-197.37193898751036,810
-194.84651421224817,711
-192.32178783866232,805
-189.79775967657952,753
-187.27442953574644,792
-184.7517972258321,853
-182.2298625564256,804
-179.7086253370378,878
-177.18808537710026,786
-174.66824248596583,777
-172.14909647290835,768
-169.6306471471229,709
-167.11289431772548,820
-164.59583779375328,955
-162.07947738416453,886
-159.5638128978386,876
-157.04884414357605,1021
-154.53457093009854,924
-152.02099306604828,931
-149.50811035998936,892
-146.99592262040665,842
-144.48442965570587,879
-141.97363127421409,898
-139.46352728417958,985
-136.95411749377126,1042
-134.44540171107985,1075
-131.93737974411636,997
-129.43005140081357,989
-126.92341648902493,1243
-124.41747481652521,1762
-121.91222619101006,1780
-119.40767042009657,1798
-116.90380731132257,2194
-114.40063667214702,2543
-111.8981583099503,2841
-109.3963720320337,2195
-106.89527764561933,1748
-104.39487495785067,1989
-101.89516377579241,2810
-99.39614390642998,3900
-96.89781515667039,3940
-94.40017733334128,3556
-91.90323024319173,2759
-89.40697369289148,3080
-86.91140748903172,3748
-84.41653143812482,4881
-81.92234534660395,5852
-79.42884902082358,5217
-76.93604226705907,6388
-74.4439248915071,9519
-71.95249670028534,14600
-69.46175749943245,18464
-66.97170709490854,20973
-64.48234529259423,19812
-61.99367189829195,16324
-59.50568671772464,12430
-57.01838955653636,12148
-54.53178022029283,13870
-52.045858514480074,15063
-49.560624244506016,16318
-47.07607721569923,17958
-44.59221723330904,18397
-42.10904410250669,15592
-39.62655762838392,13059
-37.14475761595372,11817
-34.66364387015028,9889
-32.18321619582866,10406
-29.70347439776515,11845
-27.224418280657005,10639
-24.74604764912317,10942
-22.26836230770266,14701
-19.7913620608565,24442
-17.315046712966478,43895
-14.83941606833514,62283
-12.36446993118659,65040
-9.89020810566592,65040
-7.416630395839093,65040
-4.94373660569363,65040
-2.471526539137585,65040
-6.821210263296962E-13,65040
2.47084320796705,65040
4.941003281093458,65040
7.410480415786196,65040
9.879274808531363,65040
12.347386655893956,65040
14.814816154518212,65040
17.28156350112681,65040
19.74762889252179,65040
22.21301252558385,65040
24.67771459727237,21234
27.141735304626195,4582
29.605074844762612,3028
32.06773341487792,2079
34.52971121224755,2083
36.99100843422559,2771
39.45162527824516,2659
41.91156194181792,2454
44.370818622535126,2202
46.82939551806646,1761
49.287292826160524,1828
51.74451074464503,2171
54.201049471426245,2735
56.65690920448981,2613
59.112090141899785,1882
61.56659248179983,1527
64.02041642241159,1480
66.4735621620365,1438
68.92602989905402,1323
71.37781983192338,1116
73.82893215918205,1210
76.27936707944684,1257
78.72912479141326,1571
81.17820549385567,1481
83.62660938562783,1514
86.07433666566146,1539
88.5213875329681,1184
90.96776218663751,1144
93.41346082583925,1092
95.85848364982041,1313
98.30283085790859,1373
100.7465026495089,1379
103.18949922410604,1329
105.63182078126385,1478
108.07346752062438,1689
110.51443964190923,1766
112.95473734491827,1275
115.39436082953114,1221
117.83331029570547,1209
120.27158594347827,1244
122.7091879729652,1491
125.1461165843615,1463
127.58237197794062,1354
130.01795435405518,1004
132.4528639131364,1041
134.88710085569494,1050
137.32066538231982,910
139.75355769367923,949
142.1857779905207,971
144.61732647366978,1074
147.04820334403132,963
149.47840880258934,992
151.90794305040674,1038
154.33680628862487,1364
156.76499871846443,1599
159.19252054122433,1839
161.61937195828352,1935
164.04555317109896,2148
166.47106438120693,2553
168.89590579022217,2856
171.320077599839,3033
173.7435800118302,3135
176.16641322804742,3207
178.58857745042144,3262
181.01007288096173,3446
183.43089972175687,3635
185.85105817497413,3637
188.27054844285988,3660
190.6893707277394,3917
193.10752523201643,3922
195.5250121581745,4116
197.9418317087751,4172
200.3579840864594,4191
202.7734694939469,4290
205.18828813403627,4230
207.6024402096051,4336
210.01592592360964,4306
212.42874547908548,4298
214.84089907914665,4323
217.2523869269868,4295
219.66320922587727,4278
222.0733661791695,4298
224.48285799029293,4382
226.8916848627572,4354
229.29984700014882,4349
231.7073446061355,4261
234.11417788446204,4305
236.520347038953,4434
238.92585227351185,4473
241.33069379212054,4468
243.73487179884035,4539
246.1383864978112,4500
248.541238093252,4539
250.9434267894609,4489
253.34495279081432,4495
255.74581630176783,4583
258.1460175268563,4557
260.54555667069314,4618
262.9444339379703,4468
265.3426495334594,4424
267.7402036620107,4548
270.1370965285529,4346
272.53332833809407,4411
274.9288992957214,4389
277.32380960660055,4345
279.718059475976,4312
282.1116491091717,4269
284.5045787115897,4320
286.89684848871195,4341
289.2884586460981,4251
291.67940938938807,4307
294.0697009242996,4339
296.4593334566299,4301
298.84830719225477,4338
301.23662233712923,4300
303.6242790972866,4431
306.01127767884,4168
308.39761828798066,4194
310.78330113097934,4378
313.16832641418534,4309
315.5526943440269,4141
317.9364051270112,4217
320.3194589697242,4082
322.70185607883093,4117
325.0835966610754,4002
327.4646809232805,3978
329.8451090723478,4096
332.2248813152577,4003
334.6039978590701,4043
336.9824589109231,3957
339.36026467803447,4039
341.7374153677,4013
344.113911187295,3988
346.48975234427337,4094
348.8649390461686,4001
351.2394715005918,3999
353.61334991523415,4027
355.9865744978655,3844
358.35914545633375,3922
360.73106299856715,3948
363.10232733257146,3964
365.47293866643247,4005
367.84289720831396,4051
370.2122031664593,3963
372.5808567491905,4004
374.9488581649083,3968
377.31620762209275,3926
379.6829053293021,3944
382.0489514951745,3845
384.4143463284262,3799
386.7790900378528,3919
389.14318283232853,3938
391.50662492080653,3880
393.86941651231916,3906
396.23155781597745,3923
398.5930490409713,3873
400.9538903965696,4022
403.3140820921202,3935
405.6736243370498,3856
408.03251734086336,3789
410.3907613131465,3942
412.74835646356166,3885
415.10530300185144,3889
417.4616011378372,3892
419.81725108141893,3755
422.1722530425758,3923
424.5266072313656,3746
426.880313857925,3854
429.2333731324701,3925
431.58578526529516,3801
433.9375504667738,3895
436.2886689473588,3848
438.63914091758113,3921
440.9889665880513,3845
443.33814616945835,3833
445.68667987257015,3807
448.03456790823395,3775
450.3818104873759,3732
452.72840782100013,3800
455.07436012019105,3802
457.41966759611057,3910
459.7643304600007,3916
462.10834892318155,3837
464.4517231970525,3846
466.79445349309174,3847
469.1365400228566,3874
471.4779829979826,3853
473.81878263018564,3793
476.15893913125876,3917
478.4984527130747,3879
480.8373235875855,4067
483.17555196682144,4092
485.5131380628919,4020
487.8500820879857,3925
490.1863842543697,4224
492.52204477439034,4354
494.8570638604725,4566
497.1914417251204,4792
499.52517858091653,5032
501.85827464052306,5325
504.19073011668036,5472
506.5225452222086,5427
508.85372017000566,5396
511.18425517304956,5423
513.514150444396,5280
515.8434061971808,5627
518.1720226446176,6443
520.4999999999999,6635
522.8273384766991,6524
525.1540382881666,6189
527.480099647932,5805
529.8055227696037,5288
532.1303078668694,4556
534.454455153496,4259
536.777964843328,4150
539.1008371502907,4067
541.4230722883866,3977
543.744670471698,3954
546.0656319143858,4092
548.3859568306899,3985
550.7056454349294,4036
553.0246979415016,3926
555.3431145648834,4011
557.6608955196306,3967
559.978041020377,3913
562.2945512818363,3966
564.6104265188006,3876
566.9256669461412,4031
569.2402727788082,4043
571.5542442318302,4059
573.8675815203156,4091
576.1802848594508,4021
578.4923544645015,4134
580.8037905508126,4111
583.114593333807,4209
585.4247630289875,4164
587.7342998519354,4051
590.0432040183106,4131
592.3514757438526,4163
594.6591152443794,3957
596.9661227357875,4097
599.2724984340531,4047
601.578242555231,4101
603.8833553154542,4059
606.1878369309362,4085
608.4916876179676,4112
610.7949075929192,4079
613.0974970722403,4074
615.3994562724587,4156
617.7007854101818,4024
620.0014847020951,4022
622.3015543649641,4022
624.6009946156324,4044
626.8998056710224,3917
629.1979877481361,4034
631.4955410640538,4108
633.7924658359349,4086
636.0887622810175,4188
638.3844306166192,4000
640.6794710601358,4050
642.9738838290426,4083
645.2676691408932,4215
647.5608272133207,4137
649.853358264037,4158
652.1452625108324,4023
654.4365401715764,4056
656.7271914642178,4107
659.0172166067838,4140
661.3066158173809,4231
663.5953893141935,4197
665.8835373154867,4121
668.1710600396028,4114
670.4579577049639,4126
672.7442305300709,4037
675.0298787335033,4158
677.3149025339197,4166
679.599302150058,4150
681.8830778007342,4072
684.1662297048437,4031
686.4487580813608,4149
688.7306631493387,4196
691.0119451279091,4245
693.2926042362834,4282
695.5726406937516,4137
697.8520547196814,4284
700.1308465335215,4134
702.4090163547982,4112
704.6865644031171,4162
706.9634908981619,4220
709.2397960596965,4138
711.5154801075631,4095
713.7905432616823,4103
716.0649857420548,4084
718.3388077687592,4132
720.612009561953,4166
722.8845913418733,4096
725.1565533288352,4202
727.427895743234,4060
729.6986188055427,4175
731.9687227363137,4199
734.238207756178,4229
736.5070740858458,4277
738.7753219461066,4074
741.0429515578281,4314
743.3099631419569,4252
745.5763569195191,4265
747.8421331116193,4109
750.1072919394409,4115
752.3718336242467,4195
754.6357583873777,4184
756.8990664502545,4156
759.1617580343765,4228
761.423833361321,4195
763.6852926527457,4219
765.9461361303862,4130
768.206364016058,4076
770.4659765316536,4121
772.7249738991469,4220
774.9833563405886,4265
777.2411240781092,4256
779.4982773339183,4243
781.7548163303044,4240
784.010741289634,4227
786.2660524343538,4158
788.5207499869881,4209
790.7748341701416,4245
793.0283052064964,4161
795.2811633188143,4231
797.5334087299362,4160
799.7850416627813,4228
802.0360623403484,4296
804.2864709857143,4314
806.5362678220353,4224
808.7854530725468,4184
811.0340269605625,4195
813.2819897094754,4286
815.5293415427581,4220
817.77608268396,4295
820.0222133567116,4282
822.2677337847211,4280
824.5126441917765,4365
826.7569448017433,4310
829.0006358385675,4150
831.2437175262731,4260
833.4861900889629,4303
835.7280537508192,4247
837.9693087361026,4202
840.2099552691533,4224
842.4499935743896,4330
844.689423876309,4271
846.9282463994886,4309
849.1664613685833,4347
851.4040690083276,4291
853.6410695435349,4241
855.877463199097,4168
858.1132501999847,4196
860.3484307712487,4358
862.5830051380175,4189
864.8169735254988,4312
867.0503361589791,4364
869.2830932638243,4294
871.5152450654786,4352
873.7467917894654,4435
875.9777336613873,4403
878.2080709069252,4350
880.4378037518389,4260
882.666932421968,4402
884.8954571432301,4322
887.1233781416219,4363
889.3506956432192,4394
891.5774098741766,4358
893.803521060728,4380
896.0290294291852,4282
898.2539352059397,4397
900.4782386174619,4313
902.7019398903011,4353
904.925039251085,4354
907.147536926521,4287
909.3694331433943,4402
911.59072812857,4367
913.8114221089921,4377
916.0315153116827,4335
918.2510079637437,4237
920.4699002923547,4284
922.6881925247761,4273
924.905884888345,4336
927.1229776104793,4417
929.3394709186747,4270
931.555365040506,4364
933.7706602036275,4408
935.9853566357709,4225
938.1994545647489,4240
940.4129542184515,4225
942.6258558248488,4415
944.8381596119883,4323
947.0498658079974,4188
949.2609746410825,4227
951.4714863395287,4235
953.6814011316998,4331
955.8907192460387,4384
958.0994409110671,4307
960.3075663553858,4327
962.5150958076741,4291
964.7220294966913,4261
966.928367651274,4258
969.1341105003388,4215
971.3392582728806,4300
973.5438111979742,4337
975.747769504772,4288
977.9511334225061,4180
980.153903180487,4281
982.3560790081052,4175
984.5576611348289,4128
986.7586497902058,4222
988.9590452038618,4156
991.158847605503,4224
993.3580572249133,4190
995.5566742919558,4200
997.7546990365728,4185
999.952131688785,4137
1002.1489724786926,4051
1004.3452216364743,4150
1006.5408793923874,4103
1008.7359459767691,4029
1010.9304216200343,4077
1013.1243065526781,4178
1015.3176010052733,3953
1017.510305208472,4049
1019.7024193930064,4123
1021.8939437896848,3903
1024.0848786293977,3956
1026.2752241431122,3936
1028.4649805618747,3912
1030.6541481168115,3961
1032.842727039127,3984
1035.0307175601051,4084
1037.2181199111074,3992
1039.4049343235752,3983
1041.591161029029,4031
1043.7768002590683,4071
1045.9618522453698,3946
1048.1463172196918,4006
1050.3301954138697,3950
1052.513487059818,4012
1054.69619238953,4072
1056.8783116350783,4027
1059.0598450286152,4021
1061.2407928023704,3964
1063.4211551886528,4017
1065.6009324198508,3942
1067.780124728432,3950
1069.9587323469414,3993
1072.1367555080046,4202
1074.314194444325,4069
1076.4910493886855,4067
1078.667320573947,3925
1080.843008233051,3926
1083.0181125990161,4039
1085.1926339049414,3988
1087.3665723840027,3953
1089.5399282694575,3936
1091.7127017946405,3900
1093.8848931929647,4003
1096.0565026979243,3989
1098.2275305430899,3932
1100.3979769621128,3947
1102.567842188722,3942
1104.737126456726,3912
1106.9058300000124,3949
1109.0739530525475,3952
1111.2414958483764,3924
1113.4084586216231,3997
1115.5748416064907,3940
1117.7406450372605,3998
1119.9058691482942,3951
1122.0705141740304,3912
1124.2345803489884,3981
1126.3980679077658,4010
1128.5609770850388,3866
1130.7233081155623,4078
1132.8850612341707,4107
1135.0462366757774,3948
1137.2068346753745,3998
1139.3668554680326,3933
1141.526299288901,3971
1143.68516637321,3945
1145.8434569562655,3943
1148.001171273455,4062
1150.158309560244,3846
1152.3148720521767,3969
1154.470858984876,3901
1156.626270594044,4004
1158.7811071154629,3966
1160.9353687849912,3907
1163.089055838569,3993
1165.242168512213,3864
1167.3947070420209,3899
1169.5466716641677,3910
1171.6980626149075,3876
1173.8488801305748,3902
1175.9991244475814,3962
1178.1487958024186,3889
1180.2978944316555,3806
1182.4464205719428,4010
1184.5943744600072,3953
1186.7417563326567,3866
1188.8885664267755,3923
1191.0348049793297,3834
1193.1804722273619,3872
1195.325568407995,3868
1197.4700937584303,3891
1199.614048515948,4019
1201.7574329179074,3960
1203.900247201746,3894
1206.042491604982,3951
1208.1841663652099,3899
1210.3252717201053,3907
1212.465807907422,3823
1214.6057751649923,3922
1216.7451737307279,3948
1218.8840038426192,3948
1221.0222657387353,3902
1223.1599596572241,4049
1225.2970858363137,3971
1227.4336445143094,4020
1229.5696359295966,3956
1231.705060320639,3935
1233.8399179259786,3867
1235.9742089842384,4038
1238.107933734118,4100
1240.2410924143974,4022
1242.373685263935,3984
1244.5057125216676,3986
1246.6371744266116,4125
1248.7680712178621,4029
1250.898403134593,3900
1253.028170416058,3961
1255.1573733015875,4005
1257.2860120305932,4041
1259.4140868425648,3911
1261.54159797707,3958
1263.6685456737569,3996
1265.7949301723515,4119
1267.9207517126597,3968
1270.046010534565,3987
1272.1707068780306,4039
1274.2948409830983,3993
1276.4184130898889,4081
1278.541423438603,4065
1280.6638722695184,4012
1282.785759822993,4021
1284.9070863394636,4115
1287.0278520594447,4108
1289.1480572235314,4147
1291.2677020723963,4119
1293.3867868467923,4036
1295.5053117875495,4255
1297.623277135579,4069
1299.740683131868,4107
1301.8575300174857,4198
1303.973818033578,4138
1306.0895474213703,4119
1308.2047184221678,4257
1310.3193312773528,4287
1312.4333862283888,4149
1314.5468835168163,4199
1316.659823384255,4135
1318.7722060724045,4217
1320.8840318230418,4284
1322.9953008780249,4211
1325.1060134792888,4196
1327.2161698688478,4051
1329.3257702887959,4074
1331.4348149813054,4059
1333.5433041886276,4120
1335.6512381530933,4190
1337.7586171171101,4105
1339.8654413231675,4174
1341.9717110138317,4143
1344.0774264317488,4194
1346.1825878196432,4148
1348.2871954203192,4193
1350.3912494766587,4135
1352.4947502316231,4142
1354.5976979282532,4071
1356.7000928096686,4204
1358.8019351190665,4133
1360.9032250997243,4162
1363.0039629949988,4110
1365.1041490483235,4170
1367.2037835032133,4117
1369.3028666032606,4087
1371.401398592137,4224
1373.4993797135926,4130
1375.5968102114575,4183
1377.6936903296396,4187
1379.7900203121262,4205
1381.8858004029835,4168
1383.9810308463561,4180
1386.075711886469,4158
1388.1698437676241,4077
1390.2634267342032,4288
1392.356461030667,4218
1394.4489469015557,4252
1396.5408845914872,4201
1398.6322743451592,4158
1400.7231164073469,4179
1402.813411022907,4121
1404.903158436773,4237
1406.9923588939578,4197
1409.0810126395531,4173
1411.1691199187303,4179
1413.2566809767386,4150
1415.343696058907,4266
1417.4301654106425,4261
1419.5160892774315,4221
1421.6014679048399,4260
1423.6863015385125,4203
1425.7705904241707,4219
1427.8543348076178,4270
1429.9375349347342,4271
1432.0201910514802,4241
1434.102303403894,4284
1436.1838722380944,4415
1438.2648978002767,4323
1440.3453803367174,4299
1442.4253200937692,4314
1444.5047173178677,4276
1446.5835722555234,4359
1448.6618851533285,4382
1450.739656257952,4460
1452.8168858161434,4380
1454.8935740747306,4409
1456.96972128062,4495
1459.045327680797,4407
1461.120393522327,4547
1463.1949190523528,4551
1465.2689045180973,4466
1467.3423501668608,4506
1469.415256246024,4510
1471.4876230030463,4507
1473.559450685465,4675
1475.6307395408976,4613
1477.7014898170391,4711
1479.771701761665,4733
1481.8413756226287,4635
1483.9105116478618,4699
1485.9791100853772,4753
1488.0471711832643,4781
1490.1146951896926,4818
1492.1816823529098,4745
1494.2481329212433,4659
1496.3140471430984,4781
1498.3794252669609,4734
1500.4442675413939,4888
1502.5085742150404,4763
1504.572345536622,4841
1506.6355817549388,4945
1508.6982831188702,4884
1510.7604498773744,4894
1512.8220822794883,4936
1514.8831805743293,5038
1516.9437450110909,4984
1519.003775839048,4991
1521.0632733075522,4969
1523.1222376660367,4961
1525.1806691640113,5080
1527.2385680510652,4948
1529.2959345768668,4965
1531.3527689911643,5112
1533.4090715437833,5093
1535.4648424846291,5221
1537.5200820636855,5048
1539.5747905310159,5305
1541.6289681367616,5192
1543.6826151311434,5216
1545.7357317644614,5145
1547.7883182870937,5198
1549.8403749494987,5289
1551.8919020022113,5169
1553.9428996958477,5324
1555.9933682811015,5488
1558.0433080087469,5465
1560.0927191296346,5412
1562.1416018946961,5577
1564.1899565549415,5584
1566.2377833614592,5494
1568.2850825654164,5409
1570.3318544180606,5464
1572.3780991707158,5302
1574.423817074788,5267
1576.4690083817595,5426
1578.5136733431923,5230
1580.5578122107272,5201
1582.601425236085,4976
1584.6445126710646,5046
1586.6870747675434,4891
1588.7291117774776,4800
1590.7706239529034,4718
1592.8116115459347,4600
1594.8520748087658,4636
1596.8920139936686,4572
1598.9314293529933,4499
1600.9703211391711,4402
1603.008689604711,4457
1605.0465350022005,4416
1607.0838575843068,4362
1609.1206576037753,4351
1611.1569353134305,4408
1613.1926909661765,4459
1615.2279248149953,4293
1617.2626371129481,4326
1619.2968281131757,4264
1621.3304980688963,4362
1623.3636472334088,4303
1625.39627586009,4403
1627.428384202396,4156
1629.459972513861,4321
1631.4910410480993,4243
1633.5215900588028,4278
1635.551619799744,4350
1637.5811305247717,4241
1639.6101224878166,4225
1641.6385959428862,4115
1643.6665511440683,4285
1645.693988345528,4102
1647.7209078015112,4166
1649.7473097663405,4130
1651.7731944944203,4095
1653.7985622402307,4203
1655.823413258333,4165
1657.847747803366,4185
1659.8715661300494,4180
1661.8948684931793,4109
1663.9176551476316,4159
1665.9399263483624,4138
1667.9616823504057,4103
1669.982923408873,4082
1672.0036497789574,4120
1674.0238617159293,4123
1676.043559475138,4088
1678.0627433120121,4130
1680.081413482059,4113
1682.0995702408654,4073
1684.117213844096,4171
1686.134344547495,4010
1688.1509626068864,3994
1690.1670682781705,3979
1692.182661817329,4112
1694.1977434804217,4129
1696.2123135235875,4065
1698.226372203043,4090
1700.2399197750851,3994
1702.2529564960905,4004
1704.2654826225112,4139
1706.277498410882,4057
1708.2890041178139,4031
1710.2999999999988,4008
1712.3104863142066,4132
1714.3204633172854,4194
1716.329931266163,4057
1718.3388904178469,4200
1720.3473410294214,4060
1722.3552833580516,4056
1724.3627176609807,3979
1726.3696441955308,3945
1728.3760632191033,4061
1730.3819749891782,4026
1732.3873797633146,4040
1734.3922777991502,4084
1736.3966693544012,4111
1738.4005546868639,4084
1740.4039340544127,4152
1742.406807715001,4039
1744.4091759266616,4071
1746.4110389475054,3987
1748.4123970357223,4095
1750.413250449582,4060
1752.4135994474318,4055
1754.4134442876993,4142
1756.4127852288902,4000
1758.4116225295893,3946
1760.4099564484595,3943
1762.407787244244,3979
1764.405115175764,3949
1766.4019405019203,3864
1768.3982634816916,4073
1770.3940843741357,4073
1772.3894034383907,3992
1774.3842209336717,4094
1776.378537119274,4007
1778.372352254571,4053
1780.3656665990156,3967
1782.3584804121397,3968
1784.3507939535534,4076
1786.3426074829463,4009
1788.3339212600863,4034
1790.3247355448211,4078
1792.3150505970766,4031
1794.3048666768573,3991
1796.2941840442477,3990
1798.2830029594106,3986
1800.2713236825884,3988
1802.2591464741004,3973
1804.2464715943465,4020
1806.2332993038058,4133
1808.2196298630352,4084
1810.2054635326708,4038
1812.190800573428,4008
1814.175641246101,4009
1816.1599858115628,3903
1818.1438345307652,4146
1820.127187664738,3996
1822.1100454745924,4023
1824.092408221516,4072
1826.0742761667766,3988
1828.055649571721,4085
1830.0365286977735,4046
1832.0169138064398,4051
1833.9968051593014,4013
1835.9762030180214,4008
1837.9551076443408,4114
1839.9335193000788,4038
1841.9114382471344,4026
1843.888864747485,3971
1845.8657990631878,3968
1847.842241456378,4036
1849.8181921892697,4019
1851.7936515241558,3947
1853.7686197234098,4103
1855.7430970494815,4050
1857.7170837649014,4049
1859.6905801322787,3964
1861.6635864143004,3924
1863.6361028737338,3997
1865.608129773424,4107
1867.5796673762961,4068
1869.5507159453537,4037
1871.521275743678,4015
1873.4913470344313,4046
1875.4609300808534,4063
1877.4300251462632,4104
1879.3986324940588,4028
1881.366752387717,4019
1883.3343850907936,4127
1885.3015308669228,4079
1887.268189979819,4040
1889.2343626932739,4043
1891.2000492711595,4024
1893.1652499774254,4042
1895.1299650761011,4045
1897.0941948312952,3986
1899.0579395071945,4059
1901.0211993680641,4008
1902.98397467825,3962
1904.9462657021745,3966
1906.9080727043415,4064
1908.869395949332,4144
1910.8302357018065,3993
1912.790592226504,3974
1914.7504657882428,4082
1916.7098566519212,3988
1918.6687650825133,4023
1920.6271913450764,4073
1922.5851357047422,3942
1924.5425984267245,4041
1926.499579776314,3961
1928.4560800188833,4060
1930.4120994198802,4003
1932.367638244833,4003
1934.32269675935,4071
1936.2772752291175,4022
1938.231373919899,4081
1940.1849930975404,4153
1942.1381330279637,4056
1944.0907939771696,4045
1946.0429762112412,4136
1947.9946799963363,3999
1949.9459055986945,4051
1951.896653284633,4099
1953.8469233205478,3962
1955.7967159729142,4027
1957.7460315082863,4017
1959.6948701932974,4031
1961.6432322946594,4023
1963.5911180791632,4063
1965.5385278136787,4060
1967.4854617651545,3989
1969.4319202006182,3924
1971.377903387176,4049
1973.3234115920136,3965
1975.268445082395,4026
1977.2130041256642,4029
1979.1570889892423,4027
1981.1006999406304,3984
1983.04383724741,4050
1984.986501177238,4038
1986.928691997853,3959
1988.8704099770712,4034
1990.811655382789,4020
1992.7524284829801,3999
1994.692729545698,3975
1996.6325588390755,4002
1998.5719166313224,3908
2000.5108031907307,3991
2002.4492187856677,3936
2004.387163684583,4042
2006.3246381560011,4102
2008.2616424685298,3941
2010.1981768908527,4058
2012.1342416917332,4013
2014.069837140014,3997
2016.0049635046162,3958
2017.9396210545406,3989
2019.8738100588666,3923
2021.8075307867502,3934
2023.740783507431,3903
2025.6735684902228,3895
2027.6058860045214,3869
2029.5377363198004,3990
2031.4691197056118,4086
2033.4000364315875,4031
2035.3304867674374,3985
2037.260470982952,4064
2039.189989347998,3979
2041.1190421325232,3901
2043.047629606554,3884
2044.9757520401945,3905
2046.9034097036288,3993
2048.8306028671195,3968
2050.7573318010086,3965
2052.683596775716,3758
2054.609398061742,3836
2056.5347359296647,3936
2058.4596106501403,4055
2060.384022493906,4085
2062.3079717317764,4009
2064.231458634646,4013
2066.1544834734873,4023
2068.077046519352,3982
2069.99914804337,4068
2071.9207883167524,4065
2073.8419676107865,3968
2075.7626861968406,4055
2077.6829443463607,4100
2079.6027423308715,4065
2081.522080421977,3947
2083.440958891362,3983
2085.359378010786,3948
2087.2773380520907,3960
2089.194839287196,4076
2091.111881988101,4004
2093.0284664268825,3908
2094.9445928756973,3963
2096.86026160678,3974
2098.775472892446,3915
2100.690227005088,3895
2102.604524217178,3958
2104.5183648012676,3769
2106.431749029985,3987
2108.34467717604,3969
2110.2571495122206,3974
2112.169166311393,4029
2114.080727846503,3910
2115.9918343905747,3932
2117.902486216711,3924
2119.8126835980956,3966
2121.722426807987,3875
2123.6317161197285,3921
2125.5405518067364,4031
2127.448934142509,3972
2129.356863400624,3877
2131.264339854737,4010
2133.1713637785815,3943
2135.077935445972,3955
2136.9840551308002,4050
2138.889723107037,4023
2140.7949396487334,4029
2142.699705030018,3976
2144.6040195250994,4006
2146.507883408264,4040
2148.4112969538774,3975
2150.3142604363848,4042
2152.2167741303097,4018
2154.1188383102535,4056
2156.0204532508997,4063
2157.9216192270064,3979
2159.822336513414,4050
2161.7226053850413,4087
2163.622426116884,4043
2165.5217989840185,4076
2167.4207242616,3973
2169.319202224862,3945
2171.2172331491165,4049
2173.1148173097563,4035
2175.0119549822507,3985
2176.90864644215,4019
2178.8048919650823,3992
2180.7006918267534,3975
2182.596046302952,4061
2184.4909556695407,4052
2186.3854202024645,4117
2188.279440177746,4020
2190.173015871487,4043
2192.066147559868,4017
2193.958835519149,4039
2195.851080025667,3944
2197.7428813558417,4051
2199.6342397861667,4037
2201.5251555932186,3995
2203.415629053651,3977
2205.3056604441986,4131
2207.19525004167,3996
2209.084398122958,4110
2210.9731049650327,4044
2212.861370844941,3991
2214.749196039812,4045
2216.636580826851,4109
2218.523525483344,4053
2220.410030286655,4135
2222.296095514226,4110
2224.1817214435805,4018
2226.066908352319,4082
2227.951656518121,3916
2229.835966218746,4012
2231.71983773203,4100
2233.6032713358913,4046
2235.486267308324,3981
2237.3688259274036,4076
2239.2509474712824,3934
2241.132632218193,3983
2243.013880446447,4035
2244.8946924344323,4060
2246.7750684606203,4005
2248.6550088035574,3956
2250.534513741871,4048
2252.413583554265,3943
2254.292218519526,3956
2256.170418916517,4103
2258.0481850241786,4032
2259.925517121534,4030
2261.8024154876825,3977
2263.678880401803,3979
2265.5549121431536,4041
2267.430510991071,4081
2269.305677224971,3993
2271.180411124348,4049
2273.0547129687766,3950
2274.9285830379076,4059
2276.8020216114737,4005
2278.6750289692845,3964
2280.5476053912294,3973
2282.4197511572766,3935
2284.2914665474727,4051
2286.162751841943,4121
2288.0336073208937,4084
2289.904033264608,4105
2291.774029953448,4036
2293.6435976678554,3983
2295.5127366883517,3927
2297.381447295534,4011
2299.2497297700825,3912
2301.1175843927526,3952
2302.9850114443825,3875
2304.852011205885,3911
2306.7185839582553,3848
2308.5847299825664,3872
2310.4504495599676,3879
2312.3157429716925,3785
2314.1806104990483,3847
2316.0450524234247,3781
2317.9090690262888,3886
2319.772660589186,3851
2321.635827393742,3805
2323.498569721661,3650
2325.3608878547248,3825
2327.2227820747967,3816
2329.0842526638157,3771
2330.945299903803,3722
2332.805924076857,3788
2334.6661254651535,3782
2336.525904350951,3850
2338.3852610165827,3737
2340.244195744464,3888
2342.102708817088,3855
2343.9608005170253,3886
2345.8184711269287,3710
2347.675720929526,3864
2349.532550207628,3825
2351.38895924412,3730
2353.24494832197,3826
2355.100517724223,3829
2356.955667734004,3813
2358.810398634514,3779
2360.664710709037,3856
2362.5186042409337,3832
2364.3720795136437,3817
2366.225136810686,3896
2368.0777764156583,3854
2369.929998612237,3752
2371.7818036841777,3762
2373.633191915315,3762
2375.484163589562,3832
2377.3347189909114,3775
2379.184858403434,3773
2381.03458211128,3929
2382.8838903986775,3813
2384.732783549936,3840
2386.5812618494406,3849
2388.4293255816588,3893
2390.2769750311327,3796
2392.1242104824883,3802
2393.971032220427,3817
2395.8174405297295,3843
2397.6634356952563,3862
2399.509018001947,3832
2401.3541877348193,3846
2403.1989451789705,3831
2405.043290619576,3830
2406.8872243418905,3780
2408.730746631247,3791
2410.5738577730594,3752
2412.4165580528183,3782
2414.258847756095,3765
2416.100727168537,3704
2417.9421965758734,3786
2419.783256263912,3832
2421.623906518538,3788
2423.4641476257157,3748
2425.303979871491,3754
2427.143403541984,3781
2428.9824189233977,3778
2430.821026302012,3673
2432.6592259641866,3717
2434.497018196361,3821
2436.33440328505,3766
2438.171381516851,3908
2440.00795317844,3680
2441.844118556569,3671
2443.6798779380724,3698
2445.5152316098606,3712
2447.3501798589255,3802
2449.1847229723357,3770
2451.0188612372403,3865
2452.8525949408663,3804
2454.6859243705203,3780
2456.518849813587,3734
2458.3513715575314,3733
2460.183489889895,3746
2462.015205098301,3751
2463.8465174704493,3763
2465.67742729412,3737
2467.5079348571717,3747
2469.338040447542,3868
2471.1677443532476,3705
2472.9970468623833,3768
2474.825948263123,3701
2476.6544488437207,3777
2478.482548892508,3746
2480.310248697896,3752
2482.137548548374,3849
2483.9644487325118,3786
2485.790949538956,3898
2487.617051256433,3849
2489.44275417375,3754
2491.26805857979,3809
2493.0929647635157,3856
2494.917473013971,3762
2496.741583620276,3915
2498.5652968716304,3852
2500.3886130573137,3800
2502.2115324666834,3798
2504.0340553891765,3848
2505.856182114308,3848
2507.6779129316733,3848
2509.499248130945,3851
2511.3201880018764,3824
2513.140732834298,3759
2514.9608829181198,3763
2516.780638543331,3834
2518.6,3811
2520.418967578273,3783
2522.237541568376,3761
2524.0557222606144,3844
2525.8735099453706,3860
2527.6909049131086,3787
2529.507907454368,3726
2531.32451785977,3823
2533.140736420014,3809
2534.9565634258774,3787
2536.771999168218,3817
2538.5870439379714,3906
2540.4016980261526,3750
2542.2159617238544,3898
2544.02983532225,3762
2545.8433191125914,3842
2547.656413386209,3823
2549.4691184345115,3825
2551.2814345489874,3836
2553.093362021204,3962
2554.904901142808,3905
2556.716052205523,3909
2558.526815501153,4054
2560.3371913215824,3883
2562.147179958771,3767
2563.956781704761,3926
2565.7659968516705,3861
2567.5748256916986,3839
2569.3832685171224,3863
2571.1913256202984,3804
2572.9989972936614,3852
2574.806283829725,3912
2576.613185521084,3902
2578.4197026604074,3908
2580.2258355404483,3967
2582.031584454035,3941
2583.836949694077,3860
2585.6419315535613,3901
2587.4465303255533,3831
2589.2507463032002,3910
2591.0545797797245,3937
2592.8580310484303,3975
2594.6611004026995,4006
2596.463788135992,3932
2598.266094541849,3985
2600.0680199138874,3907
2601.869564545807,3982
2603.670728731383,3982
2605.4715127644704,3925
2607.2719169390048,4077
2609.071941548998,3963
2610.8715868885433,3907
2612.670853251811,3931
2614.469740933052,3952
2616.268250226594,3871
2618.0663814268455,3808
2619.864134828292,3989
2621.6615107255006,4019
2623.458509413115,3991
2625.2551311858597,3902
2627.0513763385347,3821
2628.8472451660223,3929
2630.6427379632833,3841
2632.4378550253564,3942
2634.232596647359,3973
2636.026963124488,3874
2637.8209547520187,3827
2639.6145718253065,3886
2641.407814639785,3960
2643.200683490966,3896
2644.9931786744414,3770
2646.7853004858807,3778
2648.577049221034,3834
2650.3684251757277,3739
2652.1594286458712,3801
2653.9500599274484,3740
2655.740319316525,3692
2657.5302071092437,3840
2659.3197236018286,3717
2661.10886909058,3827
2662.8976438718782,3832
2664.686048242183,3769
2666.4740824980327,3828
2668.2617469360443,3861
2670.0490418529134,3791
2671.8359675454153,3838
2673.622524310403,3676
2675.408712444811,3729
2677.1945322456495,3804
2678.979984010009,3812
2680.76506803506,3756
2682.5497846180497,3734
2684.334134056306,3817
2686.1181166472343,3671
2687.9017326883213,3663
2689.6849824771293,3775
2691.4678663113013,3742
2693.2503844885596,3723
2695.032537306705,3697
2696.8143250636167,3666
2698.5957480572542,3648
2700.3768065856534,3695
2702.1575009469316,3794
2703.937831439283,3692
2705.717798360982,3692
2707.4974020103837,3735
2709.276642685917,3693
2711.055520686095,3682
2712.834036309506,3624
2714.612189854819,3709
2716.389981620782,3631
2718.1674119062204,3560
2719.944481010041,3690
2721.721189231226,3583
2723.4975368688415,3643
2725.273524222027,3665
2727.0491515900053,3608
2728.824419272075,3688
2730.5993275676146,3693
2732.3738767760838,3609
2734.148067197016,3665
2735.921899130031,3651
2737.6953728748194,3641
2739.468488731156,3558
2741.2412469988926,3603
2743.0136479779617,3526
2744.785691968372,3656
2746.5573792702116,3703
2748.3287101836504,3732
2750.099685008934,3581
2751.870304046388,3572
2753.640567596418,3591
2755.4104759595057,3558
2757.1800294362156,3708
2758.949228327187,3553
2760.7180729331412,3656
2762.486563554877,3648
2764.254700493272,3592
2766.022484049284,3532
2767.789914523947,3537
2769.5569922183786,3614
2771.3237174337705,3692
2773.090090471394,3652
2774.8561116326036,3577
2776.6217812188274,3597
2778.3870995315756,3573
2780.1520668724356,3614
2781.9166835430747,3667
2783.6809498452394,3648
2785.444866080754,3604
2787.2084325515225,3608
2788.971649559527,3531
2790.73451740683,3632
2792.4970363955713,3579
2794.2592068279705,3598
2796.0210290063264,3666
2797.7825032330147,3569
2799.543629810493,3563
2801.304409041296,3555
2803.0648412280366,3612
2804.8249266734088,3686
2806.5846656801846,3632
2808.344058551212,3549
2810.1031055894246,3542
2811.8618070978273,3538
2813.6201633795085,3577
2815.378174737636,3638
2817.1358414754536,3575
2818.893163896285,3563
2820.6501423035334,3810
2822.4067770006814,3609
2824.1630682912883,3620
2825.9190164789957,3593
2827.6746218675207,3618
2829.429884760661,3696
2831.184805462294,3611
2832.9393842763743,3702
2834.693621506936,3683
2836.4475174580916,3617
2838.201072434034,3665
2839.954286739034,3612
2841.707160677441,3632
2843.459694553685,3598
2845.2118886722724,3548
2846.96374333779,3610
2848.7152588549034,3607
2850.4664355283567,3603
2852.217273662973,3612
2853.9677735636546,3569
2855.7179355353833,3525
2857.4677598832186,3537
2859.217246912299,3616
2860.9663969278427,3655
2862.715210235146,3543
2864.4636871395846,3682
2866.211827946614,3587
2867.9596329617652,3487
2869.7071024906536,3594
2871.4542368389684,3585
2873.20103631248,3471
2874.947501217038,3615
2876.6936318585695,3562
2878.4394285430812,3614
2880.1848915766604,3517
2881.9300212654707,3583
2883.6748179157553,3540
2885.4192818338374,3556
2887.1634133261173,3690
2888.907212699077,3620
2890.6506802592744,3606
2892.393816313348,3568
2894.1366211680142,3606
2895.8790951300693,3642
2897.621238506388,3448
2899.363051603925,3569
2901.1045347297118,3586
2902.8456881908596,3482
2904.58651229456,3583
2906.327007348081,3527
2908.067173658772,3566
2909.8070115340597,3571
2911.5465212814497,3613
2913.285703208527,3446
2915.0245576229563,3439
2916.7630848324807,3482
2918.5012851449196,3525
2920.2391588681758,3392
2921.976706310227,3513
2923.7139277791334,3461
2925.4508235830313,3587
2927.187394030137,3534
2928.923639428745,3517
2930.6595600872306,3479
2932.395156314046,3442
2934.1304284177218,3487
2935.8653767068713,3537
2937.6000014901815,3504
2939.3343030764227,3565
2941.068281774442,3467
2942.8019378931644,3435
2944.5352717415976,3524
2946.2682836288236,3534
2948.0009738640065,3450
2949.7333427563885,3500
2951.465390615289,3540
2953.1971177501086,3534
2954.9285244703265,3459
2956.6596110855,3518
2958.3903779052657,3574
2960.1208252393385,3488
2961.8509533975125,3539
2963.5807626896617,3436
2965.3102534257378,3607
2967.0394259157715,3537
2968.768280469873,3510
2970.496817398232,3489
2972.2250370111146,3521
2973.952939618869,3554
2975.6805255319196,3468
2977.4077950607707,3484
2979.134748516006,3532
2980.861386208289,3565
2982.587708448359,3520
2984.313715547037,3557
2986.039407815222,3466
2987.764785563891,3440
2989.489849104102,3555
2991.2145987469908,3560
2992.9390348037705,3504
2994.6631575857346,3471
2996.3869674042576,3527
2998.1104645707887,3435
2999.83364939686,3464
3001.5565221940783,3448
3003.2790832741334,3454
3005.0013329487924,3496
3006.7232715298996,3408
3008.4448993293804,3486
3010.166216659239,3482
3011.887223831558,3416
3013.607921158498,3428
3015.3283089522993,3361
3017.0483875252826,3446
3018.7681571898443,3456
3020.4876182584626,3479
3022.2067710436927,3478
3023.9256158581707,3453
3025.644153014609,3432
3027.362382825801,3360
3029.0803056046193,3383
3030.797921664012,3444
3032.5152313170106,3456
3034.2322348767225,3464
3035.9489326563353,3372
3037.665324969115,3455
3039.3814121284063,3314
3041.097194447633,3424
3042.812672240299,3480
3044.5278458199855,3473
3046.2427155003525,3481
3047.9572815951406,3402
3049.671544418167,3408
3051.38550428333,3491
3053.0991615046073,3324
3054.812516396051,3372
3056.5255692717974,3436
3058.2383204460575,3366
3059.9507702331257,3309
3061.662918947372,3424
3063.3747669032446,3294
3065.0863144152736,3370
3066.7975617980674,3405
3068.508509366309,3334
3070.219157434767,3280
3071.9295063182844,3445
3073.639556331785,3377
3075.3493077902704,3344
3077.058761008821,3413
3078.7679163025964,3432
3080.476773986837,3436
3082.1853343768594,3441
3083.89359778806,3402
3085.6015645359153,3324
3087.3092349359786,3520
3089.016609303884,3434
3090.7236879553434,3492
3092.4304712061476,3410
3094.136959372166,3423
3095.843152769349,3312
3097.5490517137237,3360
3099.2546565213966,3358
3100.959967508554,3290
3102.66498499146,3423
3104.3697092864577,3398
3106.0741407099695,3474
3107.778279578498,3419
3109.482126208622,3429
3111.1856809170004,3312
3112.8889440203716,3406
3114.5919158355528,3367
3116.294596679439,3453
3117.996986869006,3395
3119.6990867213062,3452
3121.4008965534726,3378
3123.102416682717,3444
3124.803647426329,3462
3126.5045891016784,3451
3128.205242026213,3346
3129.90560651746,3343
3131.605682893025,3417
3133.3054714705922,3419
3135.0049725679282,3515
3136.7041865028714,3356
3138.4031135933465,3421
3140.101754157353,3369
3141.800108512971,3311
3143.498176978357,3348
3145.1959598717494,3356
3146.8934575114636,3370
3148.5906702158954,3243
3150.2875983035183,3243
3151.9842420928853,3355
3153.680601902627,3273
3155.376678051456,3272
3157.07247085816,3363
3158.767980641609,3344
3160.463207720748,3307
3162.158152414606,3351
3163.8528150422862,3356
3165.5471959229726,3284
3167.2412953759303,3431
3168.9351137204976,3387
3170.628651276098,3289
3172.3219083622307,3398
3174.014885298474,3360
3175.707582404485,3302
3177.4000000000005,3273
3179.092138404835,3393
3180.7839979388846,3365
3182.47557892212,3360
3184.166881674594,3373
3185.8579065164386,3330
3187.5486537678626,3309
3189.2391237491547,3319
3190.9293167806827,3367
3192.6192331828934,3323
3194.3088732763117,3280
3195.998237381542,3277
3197.687325819268,3280
3199.376138910251,3261
3201.064676975334,3237
3202.7529403354347,3224
3204.4409293115523,3278
3206.1286442247647,3281
3207.816085396229,3226
3209.5032531471825,3132
3211.190147798936,3157
3212.8767696728846,3275
3214.5631190905015,3237
3216.2491963733373,3251
3217.9350018430214,3281
3219.6205358212637,3201
3221.305798629851,3327
3222.990790590651,3133
3224.6755120256103,3225
3226.359963256751,3218
3228.0441446061795,3169
3229.7280563960758,3223
3231.411698948703,3261
3233.0950725863995,3251
3234.778177631587,3250
3236.461014406761,3298
3238.1435832345005,3291
3239.8258844374595,3334
3241.507918338374,3302
3243.1896852600576,3310
3244.8711855254023,3407
3246.552419457381,3298
3248.233387379042,3342
3249.914089613516,3133
3251.59452648401,3249
3253.274698313813,3219
3254.95460542629,3194
3256.6342481448855,3323
3258.313626793125,3150
3259.9927416946084,3170
3261.6715931730196,3158
3263.3501815521176,3197
3265.0285071557437,3158
3266.706570307815,3162
3268.3843713323286,3259
3270.0619105533615,3239
3271.739188295068,3142
3273.4162048816834,3178
3275.0929606375184,3235
3276.769455886966,3289
3278.445690954498,3142
3280.1216661646613,3281
3281.797381842087,3236
3283.4728383114807,3274
3285.1480358976296,3206
3286.8229749253996,3271
3288.4976557197333,3169
3290.172078605655,3256
3291.846243908266,3095
3293.5201519527463,3127
3295.193803064357,3138
3296.8671975684374,3100
3298.5403357904024,3188
3300.21321805575,3153
3301.8858446900567,3148
3303.558216018975,3133
3305.23033236824,3221
3306.9021940636603,3270
3308.57380143113,3303
3310.2451547966184,3196
3311.916254486174,3202
3313.5871008259246,3119
3315.2576941420766,3170
3316.9280347609147,3233
3318.5981230088046,3104
3320.2679592121895,3124
3321.9375436975924,3069
3323.606876791612,3263
3325.27595882093,3215
3326.944790112305,3063
3328.6133709925753,3103
3330.2817017886573,3191
3331.949782827547,3125
3333.617614436319,3114
3335.2851969421245,3172
3336.952530672199,3191
3338.619615953853,3328
3340.286453114475,3205
3341.9530424815357,3111
3343.619384382583,3180
3345.2854791452437,3259
3346.951327097224,3239
3348.6169285663073,3274
3350.2822838803577,3139
3351.947393367319,3181
3353.61225735521,3233
3355.2768761721345,3215
3356.9412501462693,3060
3358.605379605873,3191
3360.2692648792827,3185
3361.9329062949146,3158
3363.596304181263,3043
