CollectionTime,7/10/2024 3:18:27 PM
ExposureUsed,3
CalibratedSpectrum
-962.7078968117929,1896
-959.9714848408522,2040
-957.2358232597828,2108
-954.5009119013725,2091
-951.7667505983302,2123
-949.0333391832855,2080
-946.3006774887896,2168
-943.5687653473143,2100
-940.837602591253,2046
-938.1071890529199,2036
-935.3775245645503,2077
-932.6486089583007,2145
-929.9204420662485,2186
-927.1930237203925,2104
-924.4663537526524,2168
-921.7404319948689,2073
-919.0152582788041,2181
-916.2908324361409,2247
-913.5671542984834,2119
-910.8442236973568,2105
-908.1220404642074,2058
-905.4006044304027,2124
-902.679915427231,2130
-899.959973285902,2125
-897.2407778375464,2098
-894.5223289132158,2177
-891.8046263438832,2174
-889.0876699604426,2084
-886.3714595937089,2042
-883.6559950744183,2200
-880.9412762332282,2132
-878.2273029007168,2171
-875.5140749073835,2062
-872.8015920836489,2124
-870.0898542598545,2135
-867.3788612662631,2181
-864.6686129330585,2110
-861.9591090903457,2156
-859.2503495681506,2201
-856.5423341964203,2094
-853.8350628050229,2193
-851.1285352237478,2168
-848.4227512823054,2152
-845.7177108103272,2217
-843.0134136373656,2181
-840.3098595928943,2244
-837.6070485063082,2196
-834.9049802069229,2194
-832.2036545239757,2205
-829.5030712866244,2138
-826.8032303239481,2149
-824.1041314649472,2239
-821.4057745385428,2160
-818.7081593735775,2174
-816.0112857988148,2258
-813.3151536429393,2200
-810.6197627345566,2163
-807.9251129021936,2241
-805.2312039742981,2217
-802.5380357792392,2125
-799.8456081453069,2239
-797.1539209007124,2272
-794.462973873588,2342
-791.772766891987,2257
-789.083299783884,2258
-786.3945723771743,2310
-783.7065844996748,2220
-781.0193359791231,2321
-778.3328266431781,2315
-775.6470563194197,2308
-772.9620248353489,2244
-770.2777320183878,2236
-767.5941776958798,2240
-764.9113616950891,2261
-762.2292838432011,2276
-759.5479439673222,2323
-756.8673418944801,2290
-754.1874774516235,2305
-751.5083504656222,2338
-748.8299607632671,2371
-746.15230817127,2447
-743.475392516264,2258
-740.7992136248035,2241
-738.1237713233636,2324
-735.4490654383407,2317
-732.7750957960521,2392
-730.1018622227365,2281
-727.4293645445534,2362
-724.7576025875837,2253
-722.0865761778291,2355
-719.4162851412126,2358
-716.7467293035781,2349
-714.0779084906909,2309
-711.409822528237,2346
-708.7424712418238,2372
-706.0758544569796,2310
-703.4099719991541,2338
-700.7448236937178,2414
-698.0804093659622,2445
-695.4167288411002,2345
-692.7537819442656,2376
-690.0915685005134,2377
-687.4300883348199,2368
-684.7693412720819,2365
-682.1093271371178,2385
-679.4500457546669,2502
-676.7914969493897,2440
-674.1336805458676,2426
-671.4765963686034,2404
-668.8202442420206,2476
-666.1646239904642,2410
-663.5097354382001,2493
-660.8555784094151,2464
-658.2021527282176,2395
-655.5494582186366,2468
-652.8974947046223,2457
-650.2462620100463,2436
-647.5957599587009,2449
-644.9459883742998,2507
-642.2969470804776,2543
-639.6486359007902,2602
-637.0010546587141,2473
-634.3542031776476,2515
-631.7080812809096,2512
-629.0626887917401,2506
-626.4180255333008,2557
-623.7740913286734,2583
-621.1308860008619,2505
-618.4884093727904,2608
-615.8466612673046,2591
-613.2056415071715,2526
-610.5653499150785,2496
-607.9257863136347,2575
-605.28695052537,2619
-602.6488423727357,2540
-600.0114616781036,2633
-597.3748082637674,2723
-594.7388819519412,2538
-592.1036825647604,2589
-589.4692099242818,2665
-586.8354638524829,2650
-584.2024441712624,2696
-581.5701507024403,2580
-578.9385832677575,2687
-576.3077416888759,2632
-573.6776257873787,2693
-571.0482353847704,2677
-568.4195703024757,2615
-565.7916303618415,2666
-563.164415384135,2708
-560.5379251905453,2615
-557.9121596021815,2634
-555.2871184400748,2674
-552.6628015251767,2705
-550.0392086783606,2678
-547.4163397204204,2654
-544.794194472071,2677
-542.1727727539491,2648
-539.5520743866118,2656
-536.9320991905377,2701
-534.3128469861261,2713
-531.6943175936979,2713
-529.0765108334947,2748
-526.4594265256793,2728
-523.8430644903358,2886
-521.2274245474689,3085
-518.612506517005,3122
-515.9983102187913,3108
-513.3848354725959,3187
-510.77208209810846,3210
-508.16004991493924,3312
-505.5487387426199,3350
-502.9381484006032,3490
-500.3282787082628,3634
-497.71912948489364,3556
-495.1107005497117,3520
-492.5029917218539,3451
-489.8960028203786,3177
-487.28973366426493,3139
-484.68418407241325,3072
-482.07935386364494,2964
-479.47524285670266,3029
-476.87185087025,2969
-474.2691777228715,2991
-471.66722323307334,2988
-469.0659872192821,2992
-466.4654694998459,3037
-463.86566989303384,2984
-461.26658821703614,2903
-458.66822428996414,3011
-456.07057792985,2931
-453.4736489546475,3010
-450.877437182231,3044
-448.28194243039627,2905
-445.68716451686,2943
-443.09310325926003,2856
-440.49975847515555,2861
-437.9071299820263,2847
-435.31521759727354,2848
-432.72402113821954,2907
-430.13354042210767,2910
-427.5437752661022,2837
-424.95472548728867,2916
-422.36639090267386,2932
-419.7787713291855,2987
-417.1918665836721,3113
-414.60567648290385,3096
-412.0202008435715,3075
-409.4354394822874,3025
-406.8513922155845,3147
-404.26805885991723,3070
-401.685439231661,3005
-399.103533147112,3083
-396.522340422488,3055
-393.9418608739278,3029
-391.3620943174908,3012
-388.7830405691583,2908
-386.2046994448317,2726
-383.6270707603344,2556
-381.05015433141045,2382
-378.473949973725,2187
-375.8984575028645,1962
-373.32367673433623,1778
-370.74960748356875,1581
-368.1762495659117,1387
-365.60360279663576,1205
-363.03166699093265,969
-360.4604419639154,856
-357.8899275306178,719
-355.32012350599507,635
-352.7510297049233,600
-350.1826459421999,572
-347.61497203254316,557
-345.04800779059235,605
-342.4817530309082,583
-339.91620756797226,599
-337.35137121618743,564
-334.7872437898774,593
-332.22382510328725,704
-329.66111497058273,584
-327.09911320585127,561
-324.53781962310075,629
-321.9772340362607,573
-319.4173562591816,512
-316.8581861056348,515
-314.2997233893127,565
-311.7419679238294,538
-309.1849195227194,552
-306.62857799943856,585
-304.0729431673641,597
-301.51801483979375,656
-298.963792829947,621
-296.41027695096386,586
-293.85746701590574,626
-291.3053628377552,673
-288.7539642294155,633
-286.2032710037115,614
-283.65328297338897,593
-281.1039999511146,638
-278.5554217494762,747
-276.007548180983,743
-273.4603790580651,680
-270.9139141930734,617
-268.3681533982807,615
-265.8230964858798,583
-263.27874326798565,667
-260.7350935566336,728
-258.1921471637804,719
-255.6499039013039,723
-253.10836358100266,717
-250.56752601459698,623
-248.02739101372765,708
-245.48795838995704,768
-242.94922795476816,641
-240.41119951956557,652
-237.8738728956746,745
-235.33724789434166,712
-232.80132432673452,674
-230.2661020039418,702
-227.73158073697357,679
-225.19776033676033,669
-222.66464061415422,753
-220.1322213799284,819
-217.60050244477725,709
-215.06948361931552,686
-212.53916471408013,835
-210.00954553952818,874
-207.48062590603843,822
-204.9524056239104,765
-202.4248845033651,825
-199.8980623545441,827
-197.37193898751036,843
-194.84651421224817,756
-192.32178783866232,838
-189.79775967657952,817
-187.27442953574644,835
-184.7517972258321,946
-182.2298625564256,894
-179.7086253370378,999
-177.18808537710026,922
-174.66824248596583,814
-172.14909647290835,791
-169.6306471471229,800
-167.11289431772548,897
-164.59583779375328,977
-162.07947738416453,973
-159.5638128978386,942
-157.04884414357605,1127
-154.53457093009854,1030
-152.02099306604828,958
-149.50811035998936,903
-146.99592262040665,870
-144.48442965570587,962
-141.97363127421409,1071
-139.46352728417958,1169
-136.95411749377126,1162
-134.44540171107985,1175
-131.93737974411636,987
-129.43005140081357,1036
-126.92341648902493,1418
-124.41747481652521,2067
-121.91222619101006,2442
-119.40767042009657,2516
-116.90380731132257,2925
-114.40063667214702,3029
-111.8981583099503,3336
-109.3963720320337,2934
-106.89527764561933,2710
-104.39487495785067,2930
-101.89516377579241,3629
-99.39614390642998,3927
-96.89781515667039,3438
-94.40017733334128,3462
-91.90323024319173,5582
-89.40697369289148,9473
-86.91140748903172,12373
-84.41653143812482,12724
-81.92234534660395,9448
-79.42884902082358,5049
-76.93604226705907,5054
-74.4439248915071,9250
-71.95249670028534,15840
-69.46175749943245,20393
-66.97170709490854,21812
-64.48234529259423,20107
-61.99367189829195,15503
-59.50568671772464,12547
-57.01838955653636,12474
-54.53178022029283,14516
-52.045858514480074,14724
-49.560624244506016,16054
-47.07607721569923,18076
-44.59221723330904,18086
-42.10904410250669,15090
-39.62655762838392,11985
-37.14475761595372,11051
-34.66364387015028,9287
-32.18321619582866,9051
-29.70347439776515,11005
-27.224418280657005,11227
-24.74604764912317,11870
-22.26836230770266,16364
-19.7913620608565,29782
-17.315046712966478,54788
-14.83941606833514,65040
-12.36446993118659,65040
-9.89020810566592,65040
-7.416630395839093,65040
-4.94373660569363,65040
-2.471526539137585,65040
-6.821210263296962E-13,65040
2.47084320796705,65040
4.941003281093458,65040
7.410480415786196,65040
9.879274808531363,65040
12.347386655893956,65040
14.814816154518212,65040
17.28156350112681,65040
19.74762889252179,65040
22.21301252558385,65040
24.67771459727237,21768
27.141735304626195,5184
29.605074844762612,3232
32.06773341487792,2453
34.52971121224755,2588
36.99100843422559,3222
39.45162527824516,3057
41.91156194181792,2570
44.370818622535126,2191
46.82939551806646,1890
49.287292826160524,1809
51.74451074464503,2376
54.201049471426245,2986
56.65690920448981,2966
59.112090141899785,2080
61.56659248179983,1520
64.02041642241159,1481
66.4735621620365,1613
68.92602989905402,1582
71.37781983192338,1417
73.82893215918205,1624
76.27936707944684,1632
78.72912479141326,1676
81.17820549385567,1490
83.62660938562783,1573
86.07433666566146,1703
88.5213875329681,1367
90.96776218663751,1282
93.41346082583925,1066
95.85848364982041,1280
98.30283085790859,1568
100.7465026495089,1634
103.18949922410604,1503
105.63182078126385,1563
108.07346752062438,1623
110.51443964190923,1552
112.95473734491827,1317
115.39436082953114,1292
117.83331029570547,1397
120.27158594347827,1428
122.7091879729652,1426
125.1461165843615,1359
127.58237197794062,1163
130.01795435405518,1000
132.4528639131364,1091
134.88710085569494,1099
137.32066538231982,965
139.75355769367923,980
142.1857779905207,1059
144.61732647366978,1147
147.04820334403132,1128
149.47840880258934,1153
151.90794305040674,1294
154.33680628862487,1531
156.76499871846443,1760
159.19252054122433,1957
161.61937195828352,2109
164.04555317109896,2457
166.47106438120693,2894
168.89590579022217,3180
171.320077599839,3400
173.7435800118302,3552
176.16641322804742,3698
178.58857745042144,3953
181.01007288096173,4157
183.43089972175687,4331
185.85105817497413,4222
188.27054844285988,4490
190.6893707277394,4798
193.10752523201643,4996
195.5250121581745,5021
197.9418317087751,5209
200.3579840864594,5278
202.7734694939469,5235
205.18828813403627,5283
207.6024402096051,5413
210.01592592360964,5497
212.42874547908548,5421
214.84089907914665,5489
217.2523869269868,5447
219.66320922587727,5458
222.0733661791695,5351
224.48285799029293,5458
226.8916848627572,5442
229.29984700014882,5421
231.7073446061355,5655
234.11417788446204,5466
236.520347038953,5511
238.92585227351185,5715
241.33069379212054,5578
243.73487179884035,5645
246.1383864978112,5792
248.541238093252,5690
250.9434267894609,5604
253.34495279081432,5728
255.74581630176783,5674
258.1460175268563,5616
260.54555667069314,5562
262.9444339379703,5712
265.3426495334594,5538
267.7402036620107,5637
270.1370965285529,5606
272.53332833809407,5547
274.9288992957214,5426
277.32380960660055,5308
279.718059475976,5448
282.1116491091717,5415
284.5045787115897,5446
286.89684848871195,5301
289.2884586460981,5430
291.67940938938807,5429
294.0697009242996,5453
296.4593334566299,5461
298.84830719225477,5472
301.23662233712923,5539
303.6242790972866,5374
306.01127767884,5315
308.39761828798066,5389
310.78330113097934,5305
313.16832641418534,5370
315.5526943440269,5167
317.9364051270112,5376
320.3194589697242,5359
322.70185607883093,5353
325.0835966610754,5186
327.4646809232805,5161
329.8451090723478,5245
332.2248813152577,5111
334.6039978590701,5267
336.9824589109231,5176
339.36026467803447,5150
341.7374153677,5208
344.113911187295,5161
346.48975234427337,5233
348.8649390461686,5219
351.2394715005918,5184
353.61334991523415,5140
355.9865744978655,5164
358.35914545633375,5172
360.73106299856715,5153
363.10232733257146,5119
365.47293866643247,5215
367.84289720831396,5114
370.2122031664593,5130
372.5808567491905,5033
374.9488581649083,5060
377.31620762209275,5048
379.6829053293021,5109
382.0489514951745,4932
384.4143463284262,5089
386.7790900378528,4980
389.14318283232853,5024
391.50662492080653,5182
393.86941651231916,5119
396.23155781597745,5091
398.5930490409713,5056
400.9538903965696,5012
403.3140820921202,5147
405.6736243370498,5140
408.03251734086336,5050
410.3907613131465,5116
412.74835646356166,5161
415.10530300185144,4978
417.4616011378372,5050
419.81725108141893,5133
422.1722530425758,4986
424.5266072313656,5030
426.880313857925,5020
429.2333731324701,5024
431.58578526529516,5080
433.9375504667738,5071
436.2886689473588,5057
438.63914091758113,5015
440.9889665880513,5140
443.33814616945835,4935
445.68667987257015,4942
448.03456790823395,4852
450.3818104873759,4781
452.72840782100013,4948
455.07436012019105,5007
457.41966759611057,5032
459.7643304600007,5096
462.10834892318155,5049
464.4517231970525,5070
466.79445349309174,5009
469.1365400228566,5106
471.4779829979826,5066
473.81878263018564,4998
476.15893913125876,5028
478.4984527130747,5103
480.8373235875855,5176
483.17555196682144,5027
485.5131380628919,5292
487.8500820879857,5342
490.1863842543697,5287
492.52204477439034,5604
494.8570638604725,5900
497.1914417251204,6169
499.52517858091653,6349
501.85827464052306,6484
504.19073011668036,6614
506.5225452222086,6387
508.85372017000566,6437
511.18425517304956,6335
513.514150444396,6411
515.8434061971808,6968
518.1720226446176,7642
520.4999999999999,7874
522.8273384766991,7692
525.1540382881666,7349
527.480099647932,6936
529.8055227696037,6413
532.1303078668694,5925
534.454455153496,5541
536.777964843328,5369
539.1008371502907,5212
541.4230722883866,5159
543.744670471698,5368
546.0656319143858,5134
548.3859568306899,5276
550.7056454349294,5229
553.0246979415016,5194
555.3431145648834,5171
557.6608955196306,5216
559.978041020377,5063
562.2945512818363,5096
564.6104265188006,5129
566.9256669461412,5252
569.2402727788082,5255
571.5542442318302,5270
573.8675815203156,5079
576.1802848594508,5223
578.4923544645015,5243
580.8037905508126,5230
583.114593333807,5260
585.4247630289875,5272
587.7342998519354,5254
590.0432040183106,5237
592.3514757438526,5296
594.6591152443794,5279
596.9661227357875,5204
599.2724984340531,5263
601.578242555231,5219
603.8833553154542,5127
606.1878369309362,5210
608.4916876179676,5241
610.7949075929192,5266
613.0974970722403,5177
615.3994562724587,5206
617.7007854101818,5249
620.0014847020951,5277
622.3015543649641,5211
624.6009946156324,5066
626.8998056710224,5325
629.1979877481361,5243
631.4955410640538,5228
633.7924658359349,5224
636.0887622810175,5244
638.3844306166192,5218
640.6794710601358,5213
642.9738838290426,5332
645.2676691408932,5288
647.5608272133207,5277
649.853358264037,5298
652.1452625108324,5348
654.4365401715764,5418
656.7271914642178,5410
659.0172166067838,5351
661.3066158173809,5330
663.5953893141935,5301
665.8835373154867,5180
668.1710600396028,5337
670.4579577049639,5338
672.7442305300709,5314
675.0298787335033,5366
677.3149025339197,5362
679.599302150058,5236
681.8830778007342,5340
684.1662297048437,5402
686.4487580813608,5384
688.7306631493387,5253
691.0119451279091,5335
693.2926042362834,5432
695.5726406937516,5361
697.8520547196814,5376
700.1308465335215,5434
702.4090163547982,5451
704.6865644031171,5279
706.9634908981619,5277
709.2397960596965,5427
711.5154801075631,5275
713.7905432616823,5338
716.0649857420548,5430
718.3388077687592,5327
720.612009561953,5299
722.8845913418733,5347
725.1565533288352,5430
727.427895743234,5430
729.6986188055427,5302
731.9687227363137,5372
734.238207756178,5366
736.5070740858458,5243
738.7753219461066,5339
741.0429515578281,5412
743.3099631419569,5433
745.5763569195191,5356
747.8421331116193,5436
750.1072919394409,5381
752.3718336242467,5393
754.6357583873777,5412
756.8990664502545,5332
759.1617580343765,5400
761.423833361321,5457
763.6852926527457,5417
765.9461361303862,5393
768.206364016058,5438
770.4659765316536,5330
772.7249738991469,5480
774.9833563405886,5397
777.2411240781092,5511
779.4982773339183,5431
781.7548163303044,5474
784.010741289634,5465
786.2660524343538,5422
788.5207499869881,5484
790.7748341701416,5375
793.0283052064964,5308
795.2811633188143,5464
797.5334087299362,5500
799.7850416627813,5462
802.0360623403484,5457
804.2864709857143,5472
806.5362678220353,5371
808.7854530725468,5539
811.0340269605625,5548
813.2819897094754,5442
815.5293415427581,5548
817.77608268396,5416
820.0222133567116,5415
822.2677337847211,5483
824.5126441917765,5449
826.7569448017433,5477
829.0006358385675,5403
831.2437175262731,5517
833.4861900889629,5416
835.7280537508192,5508
837.9693087361026,5491
840.2099552691533,5396
842.4499935743896,5464
844.689423876309,5409
846.9282463994886,5565
849.1664613685833,5425
851.4040690083276,5450
853.6410695435349,5466
855.877463199097,5461
858.1132501999847,5422
860.3484307712487,5478
862.5830051380175,5588
864.8169735254988,5526
867.0503361589791,5515
869.2830932638243,5528
871.5152450654786,5617
873.7467917894654,5545
875.9777336613873,5485
878.2080709069252,5643
880.4378037518389,5494
882.666932421968,5409
884.8954571432301,5604
887.1233781416219,5738
889.3506956432192,5622
891.5774098741766,5622
893.803521060728,5678
896.0290294291852,5662
898.2539352059397,5547
900.4782386174619,5700
902.7019398903011,5586
904.925039251085,5654
907.147536926521,5534
909.3694331433943,5595
911.59072812857,5521
913.8114221089921,5630
916.0315153116827,5591
918.2510079637437,5509
920.4699002923547,5566
922.6881925247761,5454
924.905884888345,5482
927.1229776104793,5453
929.3394709186747,5467
931.555365040506,5429
933.7706602036275,5448
935.9853566357709,5591
938.1994545647489,5542
940.4129542184515,5589
942.6258558248488,5625
944.8381596119883,5475
947.0498658079974,5442
949.2609746410825,5495
951.4714863395287,5463
953.6814011316998,5558
955.8907192460387,5573
958.0994409110671,5483
960.3075663553858,5494
962.5150958076741,5449
964.7220294966913,5530
966.928367651274,5425
969.1341105003388,5395
971.3392582728806,5514
973.5438111979742,5526
975.747769504772,5367
977.9511334225061,5402
980.153903180487,5418
982.3560790081052,5500
984.5576611348289,5412
986.7586497902058,5383
988.9590452038618,5389
991.158847605503,5447
993.3580572249133,5462
995.5566742919558,5356
997.7546990365728,5335
999.952131688785,5318
1002.1489724786926,5285
1004.3452216364743,5392
1006.5408793923874,5270
1008.7359459767691,5383
1010.9304216200343,5212
1013.1243065526781,5248
1015.3176010052733,5290
1017.510305208472,5213
1019.7024193930064,5191
1021.8939437896848,5208
1024.0848786293977,5269
1026.2752241431122,5235
1028.4649805618747,5293
1030.6541481168115,5191
1032.842727039127,5296
1035.0307175601051,5222
1037.2181199111074,5206
1039.4049343235752,5213
1041.591161029029,5120
1043.7768002590683,5384
1045.9618522453698,5224
1048.1463172196918,5275
1050.3301954138697,5303
1052.513487059818,5293
1054.69619238953,5245
1056.8783116350783,5176
1059.0598450286152,5263
1061.2407928023704,5297
1063.4211551886528,5368
1065.6009324198508,5283
1067.780124728432,5371
1069.9587323469414,5307
1072.1367555080046,5292
1074.314194444325,5312
1076.4910493886855,5244
1078.667320573947,5251
1080.843008233051,5269
1083.0181125990161,5181
1085.1926339049414,5216
1087.3665723840027,5289
1089.5399282694575,5303
1091.7127017946405,5183
1093.8848931929647,5125
1096.0565026979243,5202
1098.2275305430899,5158
1100.3979769621128,5269
1102.567842188722,5203
1104.737126456726,5293
1106.9058300000124,5247
1109.0739530525475,5139
1111.2414958483764,5269
1113.4084586216231,5256
1115.5748416064907,5200
1117.7406450372605,5233
1119.9058691482942,5114
1122.0705141740304,5176
1124.2345803489884,5222
1126.3980679077658,5193
1128.5609770850388,5288
1130.7233081155623,5299
1132.8850612341707,5318
1135.0462366757774,5239
1137.2068346753745,5254
1139.3668554680326,5276
1141.526299288901,5261
1143.68516637321,5292
1145.8434569562655,5252
1148.001171273455,5175
1150.158309560244,5210
1152.3148720521767,5347
1154.470858984876,5241
1156.626270594044,5227
1158.7811071154629,5241
1160.9353687849912,5242
1163.089055838569,5173
1165.242168512213,5194
1167.3947070420209,5173
1169.5466716641677,5237
1171.6980626149075,5282
1173.8488801305748,5239
1175.9991244475814,5157
1178.1487958024186,5288
1180.2978944316555,5220
1182.4464205719428,5242
1184.5943744600072,5346
1186.7417563326567,5108
1188.8885664267755,5111
1191.0348049793297,5109
1193.1804722273619,5296
1195.325568407995,5154
1197.4700937584303,5313
1199.614048515948,5215
1201.7574329179074,5275
1203.900247201746,5374
1206.042491604982,5218
1208.1841663652099,5177
1210.3252717201053,5304
1212.465807907422,5339
1214.6057751649923,5288
1216.7451737307279,5265
1218.8840038426192,5288
1221.0222657387353,5386
1223.1599596572241,5336
1225.2970858363137,5409
1227.4336445143094,5253
1229.5696359295966,5269
1231.705060320639,5253
1233.8399179259786,5353
1235.9742089842384,5351
1238.107933734118,5343
1240.2410924143974,5450
1242.373685263935,5319
1244.5057125216676,5308
1246.6371744266116,5370
1248.7680712178621,5390
1250.898403134593,5238
1253.028170416058,5324
1255.1573733015875,5395
1257.2860120305932,5409
1259.4140868425648,5371
1261.54159797707,5390
1263.6685456737569,5359
1265.7949301723515,5351
1267.9207517126597,5443
1270.046010534565,5288
1272.1707068780306,5353
1274.2948409830983,5354
1276.4184130898889,5342
1278.541423438603,5500
1280.6638722695184,5358
1282.785759822993,5428
1284.9070863394636,5345
1287.0278520594447,5492
1289.1480572235314,5446
1291.2677020723963,5451
1293.3867868467923,5442
1295.5053117875495,5479
1297.623277135579,5554
1299.740683131868,5472
1301.8575300174857,5445
1303.973818033578,5468
1306.0895474213703,5521
1308.2047184221678,5613
1310.3193312773528,5593
1312.4333862283888,5497
1314.5468835168163,5587
1316.659823384255,5419
1318.7722060724045,5472
1320.8840318230418,5677
1322.9953008780249,5461
1325.1060134792888,5485
1327.2161698688478,5565
1329.3257702887959,5564
1331.4348149813054,5520
1333.5433041886276,5493
1335.6512381530933,5527
1337.7586171171101,5468
1339.8654413231675,5457
1341.9717110138317,5527
1344.0774264317488,5567
1346.1825878196432,5355
1348.2871954203192,5421
1350.3912494766587,5560
1352.4947502316231,5441
1354.5976979282532,5484
1356.7000928096686,5432
1358.8019351190665,5471
1360.9032250997243,5467
1363.0039629949988,5610
1365.1041490483235,5537
1367.2037835032133,5564
1369.3028666032606,5483
1371.401398592137,5544
1373.4993797135926,5560
1375.5968102114575,5638
1377.6936903296396,5523
1379.7900203121262,5460
1381.8858004029835,5601
1383.9810308463561,5626
1386.075711886469,5637
1388.1698437676241,5594
1390.2634267342032,5560
1392.356461030667,5652
1394.4489469015557,5613
1396.5408845914872,5515
1398.6322743451592,5565
1400.7231164073469,5610
1402.813411022907,5646
1404.903158436773,5671
1406.9923588939578,5693
1409.0810126395531,5727
1411.1691199187303,5604
1413.2566809767386,5660
1415.343696058907,5614
1417.4301654106425,5583
1419.5160892774315,5602
1421.6014679048399,5511
1423.6863015385125,5700
1425.7705904241707,5691
1427.8543348076178,5664
1429.9375349347342,5676
1432.0201910514802,5660
1434.102303403894,5691
1436.1838722380944,5732
1438.2648978002767,5758
1440.3453803367174,5665
1442.4253200937692,5684
1444.5047173178677,5848
1446.5835722555234,5737
1448.6618851533285,5990
1450.739656257952,5787
1452.8168858161434,5774
1454.8935740747306,5867
1456.96972128062,5867
1459.045327680797,5768
1461.120393522327,5932
1463.1949190523528,5925
1465.2689045180973,6013
1467.3423501668608,5899
1469.415256246024,5959
1471.4876230030463,6038
1473.559450685465,6134
1475.6307395408976,5984
1477.7014898170391,6027
1479.771701761665,6206
1481.8413756226287,6167
1483.9105116478618,6105
1485.9791100853772,6113
1488.0471711832643,6083
1490.1146951896926,6127
1492.1816823529098,6257
1494.2481329212433,6193
1496.3140471430984,6262
1498.3794252669609,6322
1500.4442675413939,6318
1502.5085742150404,6354
1504.572345536622,6381
1506.6355817549388,6387
1508.6982831188702,6464
1510.7604498773744,6430
1512.8220822794883,6469
1514.8831805743293,6248
1516.9437450110909,6400
1519.003775839048,6474
1521.0632733075522,6499
1523.1222376660367,6548
1525.1806691640113,6540
1527.2385680510652,6429
1529.2959345768668,6525
1531.3527689911643,6532
1533.4090715437833,6577
1535.4648424846291,6655
1537.5200820636855,6638
1539.5747905310159,6762
1541.6289681367616,6775
1543.6826151311434,6753
1545.7357317644614,6844
1547.7883182870937,6713
1549.8403749494987,6898
1551.8919020022113,6851
1553.9428996958477,6965
1555.9933682811015,7006
1558.0433080087469,6979
1560.0927191296346,7128
1562.1416018946961,7048
1564.1899565549415,7002
1566.2377833614592,6997
1568.2850825654164,6946
1570.3318544180606,6979
1572.3780991707158,6804
1574.423817074788,6863
1576.4690083817595,6707
1578.5136733431923,6699
1580.5578122107272,6462
1582.601425236085,6539
1584.6445126710646,6489
1586.6870747675434,6291
1588.7291117774776,6225
1590.7706239529034,6111
1592.8116115459347,6069
1594.8520748087658,6006
1596.8920139936686,6028
1598.9314293529933,5908
1600.9703211391711,5976
1603.008689604711,5910
1605.0465350022005,5987
1607.0838575843068,5948
1609.1206576037753,5751
1611.1569353134305,5871
1613.1926909661765,5778
1615.2279248149953,5859
1617.2626371129481,5788
1619.2968281131757,5694
1621.3304980688963,5836
1623.3636472334088,5645
1625.39627586009,5689
1627.428384202396,5596
1629.459972513861,5721
1631.4910410480993,5698
1633.5215900588028,5826
1635.551619799744,5834
1637.5811305247717,5803
1639.6101224878166,5754
1641.6385959428862,5859
1643.6665511440683,5681
1645.693988345528,5679
1647.7209078015112,5630
1649.7473097663405,5758
1651.7731944944203,5614
1653.7985622402307,5546
1655.823413258333,5679
1657.847747803366,5588
1659.8715661300494,5689
1661.8948684931793,5470
1663.9176551476316,5652
1665.9399263483624,5601
1667.9616823504057,5525
1669.982923408873,5686
1672.0036497789574,5577
1674.0238617159293,5503
1676.043559475138,5513
1678.0627433120121,5564
1680.081413482059,5511
1682.0995702408654,5631
1684.117213844096,5614
1686.134344547495,5493
1688.1509626068864,5503
1690.1670682781705,5621
1692.182661817329,5481
1694.1977434804217,5705
1696.2123135235875,5544
1698.226372203043,5532
1700.2399197750851,5602
1702.2529564960905,5546
1704.2654826225112,5534
1706.277498410882,5603
1708.2890041178139,5634
1710.2999999999988,5575
1712.3104863142066,5534
1714.3204633172854,5637
1716.329931266163,5562
1718.3388904178469,5549
1720.3473410294214,5578
1722.3552833580516,5580
1724.3627176609807,5612
1726.3696441955308,5644
1728.3760632191033,5599
1730.3819749891782,5548
1732.3873797633146,5453
1734.3922777991502,5602
1736.3966693544012,5520
1738.4005546868639,5550
1740.4039340544127,5642
1742.406807715001,5580
1744.4091759266616,5489
1746.4110389475054,5445
1748.4123970357223,5628
1750.413250449582,5546
1752.4135994474318,5610
1754.4134442876993,5499
1756.4127852288902,5485
1758.4116225295893,5491
1760.4099564484595,5504
1762.407787244244,5564
1764.405115175764,5715
1766.4019405019203,5555
1768.3982634816916,5484
1770.3940843741357,5459
1772.3894034383907,5560
1774.3842209336717,5460
1776.378537119274,5533
1778.372352254571,5511
1780.3656665990156,5391
1782.3584804121397,5526
1784.3507939535534,5447
1786.3426074829463,5438
1788.3339212600863,5546
1790.3247355448211,5541
1792.3150505970766,5583
1794.3048666768573,5542
1796.2941840442477,5484
1798.2830029594106,5574
1800.2713236825884,5638
1802.2591464741004,5547
1804.2464715943465,5521
1806.2332993038058,5503
1808.2196298630352,5508
1810.2054635326708,5540
1812.190800573428,5530
1814.175641246101,5536
1816.1599858115628,5590
1818.1438345307652,5629
1820.127187664738,5548
1822.1100454745924,5601
1824.092408221516,5663
1826.0742761667766,5471
1828.055649571721,5574
1830.0365286977735,5384
1832.0169138064398,5656
1833.9968051593014,5528
1835.9762030180214,5463
1837.9551076443408,5593
1839.9335193000788,5539
1841.9114382471344,5537
1843.888864747485,5516
1845.8657990631878,5483
1847.842241456378,5480
1849.8181921892697,5500
1851.7936515241558,5535
1853.7686197234098,5427
1855.7430970494815,5537
1857.7170837649014,5500
1859.6905801322787,5491
1861.6635864143004,5598
1863.6361028737338,5635
1865.608129773424,5467
1867.5796673762961,5534
1869.5507159453537,5514
1871.521275743678,5518
1873.4913470344313,5555
1875.4609300808534,5505
1877.4300251462632,5482
1879.3986324940588,5624
1881.366752387717,5479
1883.3343850907936,5588
1885.3015308669228,5571
1887.268189979819,5600
1889.2343626932739,5538
1891.2000492711595,5574
1893.1652499774254,5577
1895.1299650761011,5575
1897.0941948312952,5621
1899.0579395071945,5546
1901.0211993680641,5612
1902.98397467825,5733
1904.9462657021745,5586
1906.9080727043415,5616
1908.869395949332,5452
1910.8302357018065,5514
1912.790592226504,5609
1914.7504657882428,5474
1916.7098566519212,5495
1918.6687650825133,5673
1920.6271913450764,5502
1922.5851357047422,5663
1924.5425984267245,5753
1926.499579776314,5574
1928.4560800188833,5494
1930.4120994198802,5632
1932.367638244833,5626
1934.32269675935,5403
1936.2772752291175,5599
1938.231373919899,5547
1940.1849930975404,5520
1942.1381330279637,5605
1944.0907939771696,5564
1946.0429762112412,5601
1947.9946799963363,5634
1949.9459055986945,5454
1951.896653284633,5608
1953.8469233205478,5654
1955.7967159729142,5627
1957.7460315082863,5525
1959.6948701932974,5512
1961.6432322946594,5497
1963.5911180791632,5589
1965.5385278136787,5676
1967.4854617651545,5464
1969.4319202006182,5530
1971.377903387176,5517
1973.3234115920136,5575
1975.268445082395,5513
1977.2130041256642,5707
1979.1570889892423,5679
1981.1006999406304,5495
1983.04383724741,5612
1984.986501177238,5638
1986.928691997853,5605
1988.8704099770712,5500
1990.811655382789,5530
1992.7524284829801,5684
1994.692729545698,5634
1996.6325588390755,5585
1998.5719166313224,5677
2000.5108031907307,5568
2002.4492187856677,5579
2004.387163684583,5515
2006.3246381560011,5516
2008.2616424685298,5489
2010.1981768908527,5565
2012.1342416917332,5574
2014.069837140014,5592
2016.0049635046162,5654
2017.9396210545406,5544
2019.8738100588666,5614
2021.8075307867502,5575
2023.740783507431,5611
2025.6735684902228,5555
2027.6058860045214,5581
2029.5377363198004,5515
2031.4691197056118,5559
2033.4000364315875,5547
2035.3304867674374,5557
2037.260470982952,5544
2039.189989347998,5645
2041.1190421325232,5456
2043.047629606554,5535
2044.9757520401945,5482
2046.9034097036288,5503
2048.8306028671195,5584
2050.7573318010086,5495
2052.683596775716,5564
2054.609398061742,5570
2056.5347359296647,5610
2058.4596106501403,5571
2060.384022493906,5578
2062.3079717317764,5653
2064.231458634646,5505
2066.1544834734873,5633
2068.077046519352,5516
2069.99914804337,5560
2071.9207883167524,5553
2073.8419676107865,5465
2075.7626861968406,5629
2077.6829443463607,5462
2079.6027423308715,5588
2081.522080421977,5566
2083.440958891362,5620
2085.359378010786,5537
2087.2773380520907,5489
2089.194839287196,5576
2091.111881988101,5399
2093.0284664268825,5609
2094.9445928756973,5430
2096.86026160678,5610
2098.775472892446,5565
2100.690227005088,5476
2102.604524217178,5649
2104.5183648012676,5525
2106.431749029985,5588
2108.34467717604,5615
2110.2571495122206,5617
2112.169166311393,5720
2114.080727846503,5421
2115.9918343905747,5492
2117.902486216711,5442
2119.8126835980956,5508
2121.722426807987,5611
2123.6317161197285,5615
2125.5405518067364,5533
2127.448934142509,5707
2129.356863400624,5617
2131.264339854737,5636
2133.1713637785815,5604
2135.077935445972,5664
2136.9840551308002,5634
2138.889723107037,5600
2140.7949396487334,5563
2142.699705030018,5502
2144.6040195250994,5578
2146.507883408264,5695
2148.4112969538774,5701
2150.3142604363848,5600
2152.2167741303097,5635
2154.1188383102535,5684
2156.0204532508997,5568
2157.9216192270064,5672
2159.822336513414,5688
2161.7226053850413,5592
2163.622426116884,5636
2165.5217989840185,5778
2167.4207242616,5641
2169.319202224862,5790
2171.2172331491165,5627
2173.1148173097563,5562
2175.0119549822507,5677
2176.90864644215,5673
2178.8048919650823,5660
2180.7006918267534,5647
2182.596046302952,5649
2184.4909556695407,5754
2186.3854202024645,5675
2188.279440177746,5619
2190.173015871487,5639
2192.066147559868,5570
2193.958835519149,5568
2195.851080025667,5655
2197.7428813558417,5833
2199.6342397861667,5732
2201.5251555932186,5647
2203.415629053651,5608
2205.3056604441986,5717
2207.19525004167,5592
2209.084398122958,5787
2210.9731049650327,5732
2212.861370844941,5708
2214.749196039812,5731
2216.636580826851,5751
2218.523525483344,5802
2220.410030286655,5860
2222.296095514226,5821
2224.1817214435805,5784
2226.066908352319,5721
2227.951656518121,5819
2229.835966218746,5708
2231.71983773203,5622
2233.6032713358913,5698
2235.486267308324,5710
2237.3688259274036,5722
2239.2509474712824,5710
2241.132632218193,5635
2243.013880446447,5644
2244.8946924344323,5669
2246.7750684606203,5753
2248.6550088035574,5688
2250.534513741871,5706
2252.413583554265,5737
2254.292218519526,5612
2256.170418916517,5658
2258.0481850241786,5691
2259.925517121534,5640
2261.8024154876825,5621
2263.678880401803,5590
2265.5549121431536,5787
2267.430510991071,5793
2269.305677224971,5696
2271.180411124348,5608
2273.0547129687766,5676
2274.9285830379076,5645
2276.8020216114737,5647
2278.6750289692845,5787
2280.5476053912294,5753
2282.4197511572766,5764
2284.2914665474727,5662
2286.162751841943,5706
2288.0336073208937,5755
2289.904033264608,5675
2291.774029953448,5754
2293.6435976678554,5721
2295.5127366883517,5645
2297.381447295534,5694
2299.2497297700825,5680
2301.1175843927526,5492
2302.9850114443825,5623
2304.852011205885,5501
2306.7185839582553,5623
2308.5847299825664,5647
2310.4504495599676,5533
2312.3157429716925,5444
2314.1806104990483,5602
2316.0450524234247,5641
2317.9090690262888,5573
2319.772660589186,5529
2321.635827393742,5615
2323.498569721661,5599
2325.3608878547248,5510
2327.2227820747967,5474
2329.0842526638157,5390
2330.945299903803,5494
2332.805924076857,5473
2334.6661254651535,5543
2336.525904350951,5554
2338.3852610165827,5504
2340.244195744464,5504
2342.102708817088,5443
2343.9608005170253,5499
2345.8184711269287,5532
2347.675720929526,5428
2349.532550207628,5403
2351.38895924412,5505
2353.24494832197,5516
2355.100517724223,5548
2356.955667734004,5460
2358.810398634514,5474
2360.664710709037,5554
2362.5186042409337,5534
2364.3720795136437,5522
2366.225136810686,5568
2368.0777764156583,5469
2369.929998612237,5563
2371.7818036841777,5479
2373.633191915315,5482
2375.484163589562,5456
2377.3347189909114,5388
2379.184858403434,5431
2381.03458211128,5449
2382.8838903986775,5523
2384.732783549936,5550
2386.5812618494406,5561
2388.4293255816588,5577
2390.2769750311327,5489
2392.1242104824883,5475
2393.971032220427,5504
2395.8174405297295,5514
2397.6634356952563,5524
2399.509018001947,5512
2401.3541877348193,5476
2403.1989451789705,5592
2405.043290619576,5349
2406.8872243418905,5633
2408.730746631247,5518
2410.5738577730594,5568
2412.4165580528183,5427
2414.258847756095,5622
2416.100727168537,5566
2417.9421965758734,5419
2419.783256263912,5500
2421.623906518538,5568
2423.4641476257157,5430
2425.303979871491,5567
2427.143403541984,5563
2428.9824189233977,5522
2430.821026302012,5523
2432.6592259641866,5441
2434.497018196361,5558
2436.33440328505,5529
2438.171381516851,5490
2440.00795317844,5462
2441.844118556569,5500
2443.6798779380724,5524
2445.5152316098606,5512
2447.3501798589255,5432
2449.1847229723357,5521
2451.0188612372403,5358
2452.8525949408663,5324
2454.6859243705203,5621
2456.518849813587,5444
2458.3513715575314,5599
2460.183489889895,5603
2462.015205098301,5408
2463.8465174704493,5482
2465.67742729412,5576
2467.5079348571717,5495
2469.338040447542,5537
2471.1677443532476,5419
2472.9970468623833,5459
2474.825948263123,5433
2476.6544488437207,5542
2478.482548892508,5528
2480.310248697896,5611
2482.137548548374,5475
2483.9644487325118,5520
2485.790949538956,5538
2487.617051256433,5541
2489.44275417375,5440
2491.26805857979,5550
2493.0929647635157,5692
2494.917473013971,5430
2496.741583620276,5501
2498.5652968716304,5500
2500.3886130573137,5629
2502.2115324666834,5564
2504.0340553891765,5501
2505.856182114308,5638
2507.6779129316733,5506
2509.499248130945,5580
2511.3201880018764,5548
2513.140732834298,5617
2514.9608829181198,5547
2516.780638543331,5467
2518.6,5430
2520.418967578273,5520
2522.237541568376,5537
2524.0557222606144,5540
2525.8735099453706,5516
2527.6909049131086,5560
2529.507907454368,5433
2531.32451785977,5450
2533.140736420014,5611
2534.9565634258774,5549
2536.771999168218,5466
2538.5870439379714,5677
2540.4016980261526,5589
2542.2159617238544,5599
2544.02983532225,5600
2545.8433191125914,5550
2547.656413386209,5482
2549.4691184345115,5612
2551.2814345489874,5574
2553.093362021204,5655
2554.904901142808,5537
2556.716052205523,5561
2558.526815501153,5603
2560.3371913215824,5571
2562.147179958771,5638
2563.956781704761,5584
2565.7659968516705,5602
2567.5748256916986,5600
2569.3832685171224,5599
2571.1913256202984,5426
2572.9989972936614,5607
2574.806283829725,5677
2576.613185521084,5662
2578.4197026604074,5697
2580.2258355404483,5604
2582.031584454035,5672
2583.836949694077,5567
2585.6419315535613,5670
2587.4465303255533,5627
2589.2507463032002,5667
2591.0545797797245,5641
2592.8580310484303,5648
2594.6611004026995,5543
2596.463788135992,5659
2598.266094541849,5736
2600.0680199138874,5635
2601.869564545807,5712
2603.670728731383,5624
2605.4715127644704,5677
2607.2719169390048,5625
2609.071941548998,5668
2610.8715868885433,5617
2612.670853251811,5703
2614.469740933052,5631
2616.268250226594,5723
2618.0663814268455,5552
2619.864134828292,5528
2621.6615107255006,5625
2623.458509413115,5684
2625.2551311858597,5572
2627.0513763385347,5537
2628.8472451660223,5537
2630.6427379632833,5644
2632.4378550253564,5605
2634.232596647359,5643
2636.026963124488,5569
2637.8209547520187,5537
2639.6145718253065,5492
2641.407814639785,5556
2643.200683490966,5521
2644.9931786744414,5531
2646.7853004858807,5632
2648.577049221034,5458
2650.3684251757277,5682
2652.1594286458712,5464
2653.9500599274484,5511
2655.740319316525,5569
2657.5302071092437,5417
2659.3197236018286,5476
2661.10886909058,5470
2662.8976438718782,5489
2664.686048242183,5466
2666.4740824980327,5653
2668.2617469360443,5543
2670.0490418529134,5514
2671.8359675454153,5406
2673.622524310403,5534
2675.408712444811,5514
2677.1945322456495,5541
2678.979984010009,5387
2680.76506803506,5568
2682.5497846180497,5366
2684.334134056306,5437
2686.1181166472343,5486
2687.9017326883213,5417
2689.6849824771293,5425
2691.4678663113013,5579
2693.2503844885596,5386
2695.032537306705,5397
2696.8143250636167,5384
2698.5957480572542,5436
2700.3768065856534,5419
2702.1575009469316,5523
2703.937831439283,5431
2705.717798360982,5474
2707.4974020103837,5383
2709.276642685917,5366
2711.055520686095,5383
2712.834036309506,5366
2714.612189854819,5418
2716.389981620782,5472
2718.1674119062204,5388
2719.944481010041,5417
2721.721189231226,5434
2723.4975368688415,5359
2725.273524222027,5457
2727.0491515900053,5382
2728.824419272075,5370
2730.5993275676146,5422
2732.3738767760838,5372
2734.148067197016,5549
2735.921899130031,5402
2737.6953728748194,5446
2739.468488731156,5406
2741.2412469988926,5376
2743.0136479779617,5442
2744.785691968372,5394
2746.5573792702116,5357
2748.3287101836504,5227
2750.099685008934,5389
2751.870304046388,5227
2753.640567596418,5320
2755.4104759595057,5361
2757.1800294362156,5474
2758.949228327187,5311
2760.7180729331412,5414
2762.486563554877,5396
2764.254700493272,5411
2766.022484049284,5315
2767.789914523947,5245
2769.5569922183786,5324
2771.3237174337705,5347
2773.090090471394,5366
2774.8561116326036,5409
2776.6217812188274,5285
2778.3870995315756,5258
2780.1520668724356,5337
2781.9166835430747,5446
2783.6809498452394,5481
2785.444866080754,5398
2787.2084325515225,5322
2788.971649559527,5435
2790.73451740683,5354
2792.4970363955713,5298
2794.2592068279705,5300
2796.0210290063264,5214
2797.7825032330147,5388
2799.543629810493,5338
2801.304409041296,5396
2803.0648412280366,5400
2804.8249266734088,5368
2806.5846656801846,5447
2808.344058551212,5405
2810.1031055894246,5384
2811.8618070978273,5285
2813.6201633795085,5505
2815.378174737636,5424
2817.1358414754536,5303
2818.893163896285,5500
2820.6501423035334,5366
2822.4067770006814,5401
2824.1630682912883,5303
2825.9190164789957,5361
2827.6746218675207,5377
2829.429884760661,5422
2831.184805462294,5336
2832.9393842763743,5495
2834.693621506936,5394
2836.4475174580916,5275
2838.201072434034,5350
2839.954286739034,5446
2841.707160677441,5352
2843.459694553685,5473
2845.2118886722724,5411
2846.96374333779,5363
2848.7152588549034,5441
2850.4664355283567,5303
2852.217273662973,5400
2853.9677735636546,5394
2855.7179355353833,5440
2857.4677598832186,5497
2859.217246912299,5377
2860.9663969278427,5340
2862.715210235146,5304
2864.4636871395846,5261
2866.211827946614,5452
2867.9596329617652,5290
2869.7071024906536,5280
2871.4542368389684,5423
2873.20103631248,5288
2874.947501217038,5471
2876.6936318585695,5484
2878.4394285430812,5351
2880.1848915766604,5364
2881.9300212654707,5372
2883.6748179157553,5412
2885.4192818338374,5288
2887.1634133261173,5380
2888.907212699077,5355
2890.6506802592744,5240
2892.393816313348,5386
2894.1366211680142,5394
2895.8790951300693,5304
2897.621238506388,5386
2899.363051603925,5337
2901.1045347297118,5346
2902.8456881908596,5378
2904.58651229456,5353
2906.327007348081,5329
2908.067173658772,5356
2909.8070115340597,5220
2911.5465212814497,5335
2913.285703208527,5192
2915.0245576229563,5286
2916.7630848324807,5223
2918.5012851449196,5270
2920.2391588681758,5178
2921.976706310227,5247
2923.7139277791334,5351
2925.4508235830313,5371
2927.187394030137,5380
2928.923639428745,5179
2930.6595600872306,5356
2932.395156314046,5301
2934.1304284177218,5381
2935.8653767068713,5402
2937.6000014901815,5411
2939.3343030764227,5433
2941.068281774442,5401
2942.8019378931644,5348
2944.5352717415976,5442
2946.2682836288236,5399
2948.0009738640065,5391
2949.7333427563885,5320
2951.465390615289,5274
2953.1971177501086,5343
2954.9285244703265,5295
2956.6596110855,5295
2958.3903779052657,5306
2960.1208252393385,5266
2961.8509533975125,5317
2963.5807626896617,5332
2965.3102534257378,5314
2967.0394259157715,5421
2968.768280469873,5275
2970.496817398232,5231
2972.2250370111146,5349
2973.952939618869,5173
2975.6805255319196,5373
2977.4077950607707,5313
2979.134748516006,5337
2980.861386208289,5497
2982.587708448359,5403
2984.313715547037,5282
2986.039407815222,5380
2987.764785563891,5446
2989.489849104102,5332
2991.2145987469908,5415
2992.9390348037705,5306
2994.6631575857346,5481
2996.3869674042576,5283
2998.1104645707887,5348
2999.83364939686,5316
3001.5565221940783,5392
3003.2790832741334,5447
3005.0013329487924,5325
3006.7232715298996,5333
3008.4448993293804,5286
3010.166216659239,5295
3011.887223831558,5389
3013.607921158498,5298
3015.3283089522993,5201
3017.0483875252826,5242
3018.7681571898443,5290
3020.4876182584626,5212
3022.2067710436927,5382
3023.9256158581707,5352
3025.644153014609,5321
3027.362382825801,5300
3029.0803056046193,5384
3030.797921664012,5353
3032.5152313170106,5228
3034.2322348767225,5333
3035.9489326563353,5245
3037.665324969115,5243
3039.3814121284063,5312
3041.097194447633,5258
3042.812672240299,5319
3044.5278458199855,5487
3046.2427155003525,5307
3047.9572815951406,5465
3049.671544418167,5427
3051.38550428333,5302
3053.0991615046073,5302
3054.812516396051,5324
3056.5255692717974,5382
3058.2383204460575,5254
3059.9507702331257,5319
3061.662918947372,5400
3063.3747669032446,5166
3065.0863144152736,5289
3066.7975617980674,5386
3068.508509366309,5251
3070.219157434767,5389
3071.9295063182844,5342
3073.639556331785,5418
3075.3493077902704,5460
3077.058761008821,5303
3078.7679163025964,5344
3080.476773986837,5342
3082.1853343768594,5258
3083.89359778806,5242
3085.6015645359153,5304
3087.3092349359786,5290
3089.016609303884,5452
3090.7236879553434,5399
3092.4304712061476,5167
3094.136959372166,5328
3095.843152769349,5318
3097.5490517137237,5387
3099.2546565213966,5345
3100.959967508554,5242
3102.66498499146,5470
3104.3697092864577,5353
3106.0741407099695,5320
3107.778279578498,5346
3109.482126208622,5414
3111.1856809170004,5313
3112.8889440203716,5372
3114.5919158355528,5260
3116.294596679439,5437
3117.996986869006,5429
3119.6990867213062,5311
3121.4008965534726,5280
3123.102416682717,5471
3124.803647426329,5297
3126.5045891016784,5344
3128.205242026213,5381
3129.90560651746,5368
3131.605682893025,5401
3133.3054714705922,5390
3135.0049725679282,5415
3136.7041865028714,5193
3138.4031135933465,5384
3140.101754157353,5240
3141.800108512971,5397
3143.498176978357,5348
3145.1959598717494,5254
3146.8934575114636,5205
3148.5906702158954,5301
3150.2875983035183,5275
3151.9842420928853,5135
3153.680601902627,5394
3155.376678051456,5337
3157.07247085816,5240
3158.767980641609,5493
3160.463207720748,5312
3162.158152414606,5163
3163.8528150422862,5212
3165.5471959229726,5244
3167.2412953759303,5295
3168.9351137204976,5422
3170.628651276098,5317
3172.3219083622307,5285
3174.014885298474,5293
3175.707582404485,5460
3177.4000000000005,5317
3179.092138404835,5403
3180.7839979388846,5402
3182.47557892212,5432
3184.166881674594,5518
3185.8579065164386,5341
3187.5486537678626,5345
3189.2391237491547,5450
3190.9293167806827,5376
3192.6192331828934,5254
3194.3088732763117,5416
3195.998237381542,5422
3197.687325819268,5294
3199.376138910251,5256
3201.064676975334,5251
3202.7529403354347,5378
3204.4409293115523,5290
3206.1286442247647,5399
3207.816085396229,5314
3209.5032531471825,5207
3211.190147798936,5227
3212.8767696728846,5106
3214.5631190905015,5235
3216.2491963733373,5280
3217.9350018430214,5239
3219.6205358212637,5217
3221.305798629851,5195
3222.990790590651,5241
3224.6755120256103,5241
3226.359963256751,5242
3228.0441446061795,5229
3229.7280563960758,5246
3231.411698948703,5189
3233.0950725863995,5280
3234.778177631587,5338
3236.461014406761,5328
3238.1435832345005,5322
3239.8258844374595,5291
3241.507918338374,5253
3243.1896852600576,5288
3244.8711855254023,5318
3246.552419457381,5361
3248.233387379042,5441
3249.914089613516,5260
3251.59452648401,5454
3253.274698313813,5315
3254.95460542629,5354
3256.6342481448855,5186
3258.313626793125,5171
3259.9927416946084,5101
3261.6715931730196,5290
3263.3501815521176,5270
3265.0285071557437,5258
3266.706570307815,5219
3268.3843713323286,5166
3270.0619105533615,5163
3271.739188295068,5204
3273.4162048816834,5214
3275.0929606375184,5349
3276.769455886966,5262
3278.445690954498,5244
3280.1216661646613,5514
3281.797381842087,5434
3283.4728383114807,5413
3285.1480358976296,5202
3286.8229749253996,5340
3288.4976557197333,5293
3290.172078605655,5335
3291.846243908266,5262
3293.5201519527463,5265
3295.193803064357,5275
3296.8671975684374,5166
3298.5403357904024,5403
3300.21321805575,5226
3301.8858446900567,5267
3303.558216018975,5237
3305.23033236824,5352
3306.9021940636603,5345
3308.57380143113,5279
3310.2451547966184,5237
3311.916254486174,5439
3313.5871008259246,5291
3315.2576941420766,5282
3316.9280347609147,5144
3318.5981230088046,5336
3320.2679592121895,5176
3321.9375436975924,5216
3323.606876791612,5136
3325.27595882093,5287
3326.944790112305,5185
3328.6133709925753,5295
3330.2817017886573,5280
3331.949782827547,5146
3333.617614436319,5173
3335.2851969421245,5281
3336.952530672199,5380
3338.619615953853,5408
3340.286453114475,5472
3341.9530424815357,5403
3343.619384382583,5266
3345.2854791452437,5216
3346.951327097224,5361
3348.6169285663073,5362
3350.2822838803577,5338
3351.947393367319,5389
3353.61225735521,5334
3355.2768761721345,5351
3356.9412501462693,5417
3358.605379605873,5361
3360.2692648792827,5307
3361.9329062949146,5307
3363.596304181263,5365
