CollectionTime,7/10/2024 3:13:44 PM
ExposureUsed,30
CalibratedSpectrum
-962.7078968117929,768
-959.9714848408522,869
-957.2358232597828,864
-954.5009119013725,829
-951.7667505983302,847
-949.0333391832855,861
-946.3006774887896,883
-943.5687653473143,904
-940.837602591253,884
-938.1071890529199,857
-935.3775245645503,822
-932.6486089583007,870
-929.9204420662485,840
-927.1930237203925,874
-924.4663537526524,868
-921.7404319948689,799
-919.0152582788041,883
-916.2908324361409,1150
-913.5671542984834,959
-910.8442236973568,814
-908.1220404642074,820
-905.4006044304027,848
-902.679915427231,848
-899.959973285902,827
-897.2407778375464,874
-894.5223289132158,848
-891.8046263438832,830
-889.0876699604426,841
-886.3714595937089,850
-883.6559950744183,857
-880.9412762332282,858
-878.2273029007168,835
-875.5140749073835,799
-872.8015920836489,855
-870.0898542598545,855
-867.3788612662631,895
-864.6686129330585,883
-861.9591090903457,941
-859.2503495681506,930
-856.5423341964203,863
-853.8350628050229,909
-851.1285352237478,902
-848.4227512823054,946
-845.7177108103272,943
-843.0134136373656,893
-840.3098595928943,972
-837.6070485063082,1029
-834.9049802069229,1000
-832.2036545239757,936
-829.5030712866244,890
-826.8032303239481,858
-824.1041314649472,953
-821.4057745385428,982
-818.7081593735775,976
-816.0112857988148,869
-813.3151536429393,918
-810.6197627345566,970
-807.9251129021936,938
-805.2312039742981,953
-802.5380357792392,997
-799.8456081453069,1002
-797.1539209007124,912
-794.462973873588,1029
-791.772766891987,1053
-789.083299783884,1046
-786.3945723771743,1001
-783.7065844996748,948
-781.0193359791231,970
-778.3328266431781,969
-775.6470563194197,945
-772.9620248353489,910
-770.2777320183878,964
-767.5941776958798,991
-764.9113616950891,1003
-762.2292838432011,951
-759.5479439673222,978
-756.8673418944801,966
-754.1874774516235,970
-751.5083504656222,1075
-748.8299607632671,1061
-746.15230817127,1019
-743.475392516264,1049
-740.7992136248035,1087
-738.1237713233636,1075
-735.4490654383407,1111
-732.7750957960521,1108
-730.1018622227365,1099
-727.4293645445534,1030
-724.7576025875837,1057
-722.0865761778291,995
-719.4162851412126,1079
-716.7467293035781,1078
-714.0779084906909,1125
-711.409822528237,1074
-708.7424712418238,1060
-706.0758544569796,1021
-703.4099719991541,1070
-700.7448236937178,1129
-698.0804093659622,1113
-695.4167288411002,1145
-692.7537819442656,1066
-690.0915685005134,1123
-687.4300883348199,1071
-684.7693412720819,1110
-682.1093271371178,1142
-679.4500457546669,1113
-676.7914969493897,1157
-674.1336805458676,1095
-671.4765963686034,1159
-668.8202442420206,1171
-666.1646239904642,1146
-663.5097354382001,1155
-660.8555784094151,1124
-658.2021527282176,1143
-655.5494582186366,1108
-652.8974947046223,1099
-650.2462620100463,1130
-647.5957599587009,1162
-644.9459883742998,1190
-642.2969470804776,1193
-639.6486359007902,1212
-637.0010546587141,1133
-634.3542031776476,1157
-631.7080812809096,1234
-629.0626887917401,1177
-626.4180255333008,1204
-623.7740913286734,1199
-621.1308860008619,1300
-618.4884093727904,1220
-615.8466612673046,1215
-613.2056415071715,1183
-610.5653499150785,1194
-607.9257863136347,1252
-605.28695052537,1210
-602.6488423727357,1253
-600.0114616781036,1202
-597.3748082637674,1263
-594.7388819519412,1304
-592.1036825647604,1319
-589.4692099242818,1334
-586.8354638524829,1294
-584.2024441712624,1225
-581.5701507024403,1285
-578.9385832677575,1393
-576.3077416888759,1405
-573.6776257873787,1403
-571.0482353847704,1342
-568.4195703024757,1298
-565.7916303618415,1266
-563.164415384135,1287
-560.5379251905453,1296
-557.9121596021815,1329
-555.2871184400748,1314
-552.6628015251767,1374
-550.0392086783606,1338
-547.4163397204204,1391
-544.794194472071,1434
-542.1727727539491,1499
-539.5520743866118,1532
-536.9320991905377,1508
-534.3128469861261,1501
-531.6943175936979,1512
-529.0765108334947,1522
-526.4594265256793,1666
-523.8430644903358,1954
-521.2274245474689,2449
-518.612506517005,2983
-515.9983102187913,2767
-513.3848354725959,2730
-510.77208209810846,2442
-508.16004991493924,2177
-505.5487387426199,1842
-502.9381484006032,1724
-500.3282787082628,1656
-497.71912948489364,1573
-495.1107005497117,1502
-492.5029917218539,1510
-489.8960028203786,1489
-487.28973366426493,1531
-484.68418407241325,1471
-482.07935386364494,1494
-479.47524285670266,1466
-476.87185087025,1588
-474.2691777228715,1616
-471.66722323307334,1689
-469.0659872192821,1614
-466.4654694998459,1654
-463.86566989303384,1669
-461.26658821703614,1618
-458.66822428996414,1578
-456.07057792985,1661
-453.4736489546475,1781
-450.877437182231,1696
-448.28194243039627,1652
-445.68716451686,1691
-443.09310325926003,1731
-440.49975847515555,1651
-437.9071299820263,1676
-435.31521759727354,1681
-432.72402113821954,1789
-430.13354042210767,1794
-427.5437752661022,1810
-424.95472548728867,1698
-422.36639090267386,1814
-419.7787713291855,1823
-417.1918665836721,1839
-414.60567648290385,1860
-412.0202008435715,1882
-409.4354394822874,1918
-406.8513922155845,1848
-404.26805885991723,1913
-401.685439231661,1856
-399.103533147112,1857
-396.522340422488,1953
-393.9418608739278,1945
-391.3620943174908,1827
-388.7830405691583,1714
-386.2046994448317,1702
-383.6270707603344,1726
-381.05015433141045,1688
-378.473949973725,1505
-375.8984575028645,1498
-373.32367673433623,1423
-370.74960748356875,1297
-368.1762495659117,1392
-365.60360279663576,1279
-363.03166699093265,1079
-360.4604419639154,991
-357.8899275306178,952
-355.32012350599507,904
-352.7510297049233,909
-350.1826459421999,902
-347.61497203254316,828
-345.04800779059235,864
-342.4817530309082,957
-339.91620756797226,907
-337.35137121618743,935
-334.7872437898774,1000
-332.22382510328725,1055
-329.66111497058273,938
-327.09911320585127,926
-324.53781962310075,936
-321.9772340362607,845
-319.4173562591816,786
-316.8581861056348,831
-314.2997233893127,805
-311.7419679238294,830
-309.1849195227194,850
-306.62857799943856,1004
-304.0729431673641,1064
-301.51801483979375,1041
-298.963792829947,1079
-296.41027695096386,1008
-293.85746701590574,978
-291.3053628377552,982
-288.7539642294155,1047
-286.2032710037115,1034
-283.65328297338897,974
-281.1039999511146,1000
-278.5554217494762,1101
-276.007548180983,1254
-273.4603790580651,1165
-270.9139141930734,1060
-268.3681533982807,1018
-265.8230964858798,988
-263.27874326798565,1116
-260.7350935566336,1238
-258.1921471637804,1198
-255.6499039013039,1230
-253.10836358100266,1280
-250.56752601459698,1184
-248.02739101372765,1174
-245.48795838995704,1337
-242.94922795476816,1342
-240.41119951956557,1239
-237.8738728956746,1283
-235.33724789434166,1308
-232.80132432673452,1274
-230.2661020039418,1161
-227.73158073697357,1178
-225.19776033676033,1178
-222.66464061415422,1278
-220.1322213799284,1375
-217.60050244477725,1233
-215.06948361931552,1206
-212.53916471408013,1334
-210.00954553952818,1590
-207.48062590603843,1514
-204.9524056239104,1544
-202.4248845033651,1459
-199.8980623545441,1474
-197.37193898751036,1386
-194.84651421224817,1310
-192.32178783866232,1458
-189.79775967657952,1369
-187.27442953574644,1528
-184.7517972258321,1497
-182.2298625564256,1481
-179.7086253370378,1484
-177.18808537710026,1455
-174.66824248596583,1538
-172.14909647290835,1425
-169.6306471471229,1615
-167.11289431772548,1669
-164.59583779375328,1674
-162.07947738416453,1624
-159.5638128978386,1753
-157.04884414357605,2089
-154.53457093009854,2138
-152.02099306604828,1993
-149.50811035998936,1797
-146.99592262040665,1781
-144.48442965570587,2127
-141.97363127421409,2864
-139.46352728417958,2682
-136.95411749377126,2446
-134.44540171107985,2165
-131.93737974411636,1807
-129.43005140081357,1684
-126.92341648902493,2510
-124.41747481652521,4269
-121.91222619101006,6049
-119.40767042009657,6251
-116.90380731132257,5885
-114.40063667214702,5314
-111.8981583099503,5189
-109.3963720320337,5311
-106.89527764561933,7156
-104.39487495785067,9664
-101.89516377579241,11416
-99.39614390642998,10927
-96.89781515667039,10180
-94.40017733334128,14742
-91.90323024319173,26139
-89.40697369289148,36496
-86.91140748903172,35032
-84.41653143812482,26350
-81.92234534660395,14222
-79.42884902082358,10451
-76.93604226705907,17382
-74.4439248915071,28692
-71.95249670028534,35534
-69.46175749943245,34286
-66.97170709490854,30397
-64.48234529259423,23871
-61.99367189829195,17637
-59.50568671772464,15090
-57.01838955653636,15547
-54.53178022029283,17413
-52.045858514480074,17964
-49.560624244506016,21073
-47.07607721569923,22055
-44.59221723330904,22991
-42.10904410250669,22010
-39.62655762838392,21770
-37.14475761595372,22573
-34.66364387015028,19964
-32.18321619582866,16943
-29.70347439776515,18040
-27.224418280657005,17232
-24.74604764912317,19359
-22.26836230770266,31208
-19.7913620608565,60350
-17.315046712966478,65045
-14.83941606833514,65045
-12.36446993118659,65045
-9.89020810566592,65045
-7.416630395839093,65045
-4.94373660569363,65045
-2.471526539137585,65045
-6.821210263296962E-13,65045
2.47084320796705,65045
4.941003281093458,65045
7.410480415786196,65045
9.879274808531363,65045
12.347386655893956,65045
14.814816154518212,65045
17.28156350112681,65045
19.74762889252179,65045
22.21301252558385,65045
24.67771459727237,25530
27.141735304626195,8730
29.605074844762612,6596
32.06773341487792,6019
34.52971121224755,5281
36.99100843422559,5564
39.45162527824516,5293
41.91156194181792,4246
44.370818622535126,3626
46.82939551806646,3968
49.287292826160524,4350
51.74451074464503,5374
54.201049471426245,6223
56.65690920448981,5040
59.112090141899785,3913
61.56659248179983,2941
64.02041642241159,2434
66.4735621620365,2639
68.92602989905402,3456
71.37781983192338,3562
73.82893215918205,3856
76.27936707944684,3858
78.72912479141326,3260
81.17820549385567,3102
83.62660938562783,2741
86.07433666566146,2941
88.5213875329681,2169
90.96776218663751,2232
93.41346082583925,2236
95.85848364982041,2717
98.30283085790859,3091
100.7465026495089,2951
103.18949922410604,2536
105.63182078126385,2652
108.07346752062438,2601
110.51443964190923,2472
112.95473734491827,2209
115.39436082953114,2310
117.83331029570547,2736
120.27158594347827,2682
122.7091879729652,2612
125.1461165843615,2779
127.58237197794062,2450
130.01795435405518,1953
132.4528639131364,1971
134.88710085569494,2206
137.32066538231982,1819
139.75355769367923,1712
142.1857779905207,2069
144.61732647366978,2081
147.04820334403132,1728
149.47840880258934,1872
151.90794305040674,2222
154.33680628862487,2566
156.76499871846443,3031
159.19252054122433,3143
161.61937195828352,3506
164.04555317109896,4201
166.47106438120693,4872
168.89590579022217,5471
171.320077599839,5378
173.7435800118302,5233
176.16641322804742,5211
178.58857745042144,5385
181.01007288096173,5538
183.43089972175687,5747
185.85105817497413,5868
188.27054844285988,6279
190.6893707277394,6522
193.10752523201643,6750
195.5250121581745,6705
197.9418317087751,6681
200.3579840864594,6557
202.7734694939469,6537
205.18828813403627,6945
207.6024402096051,7364
210.01592592360964,7503
212.42874547908548,7603
214.84089907914665,7611
217.2523869269868,8108
219.66320922587727,8919
222.0733661791695,9695
224.48285799029293,10282
226.8916848627572,10459
229.29984700014882,11023
231.7073446061355,10877
234.11417788446204,10668
236.520347038953,9559
238.92585227351185,9320
241.33069379212054,8548
243.73487179884035,7918
246.1383864978112,7657
248.541238093252,7330
250.9434267894609,7152
253.34495279081432,7251
255.74581630176783,7329
258.1460175268563,7445
260.54555667069314,7518
262.9444339379703,8121
265.3426495334594,8250
267.7402036620107,8604
270.1370965285529,8490
272.53332833809407,8250
274.9288992957214,7687
277.32380960660055,7181
279.718059475976,6835
282.1116491091717,6475
284.5045787115897,6400
286.89684848871195,6280
289.2884586460981,6247
291.67940938938807,6271
294.0697009242996,6254
296.4593334566299,6239
298.84830719225477,6134
301.23662233712923,6166
303.6242790972866,6058
306.01127767884,6096
308.39761828798066,6119
310.78330113097934,6057
313.16832641418534,5809
315.5526943440269,5691
317.9364051270112,5680
320.3194589697242,5663
322.70185607883093,5746
325.0835966610754,5652
327.4646809232805,5565
329.8451090723478,5465
332.2248813152577,5563
334.6039978590701,5620
336.9824589109231,5578
339.36026467803447,5501
341.7374153677,5529
344.113911187295,5380
346.48975234427337,5593
348.8649390461686,5519
351.2394715005918,5448
353.61334991523415,5482
355.9865744978655,5337
358.35914545633375,5340
360.73106299856715,5450
363.10232733257146,5556
365.47293866643247,5454
367.84289720831396,5474
370.2122031664593,5360
372.5808567491905,5572
374.9488581649083,5452
377.31620762209275,5258
379.6829053293021,5147
382.0489514951745,5361
384.4143463284262,5296
386.7790900378528,5346
389.14318283232853,5171
391.50662492080653,5180
393.86941651231916,5292
396.23155781597745,5451
398.5930490409713,5389
400.9538903965696,5328
403.3140820921202,5265
405.6736243370498,5270
408.03251734086336,5223
410.3907613131465,5108
412.74835646356166,5310
415.10530300185144,5278
417.4616011378372,5106
419.81725108141893,5306
422.1722530425758,5257
424.5266072313656,5151
426.880313857925,5228
429.2333731324701,5272
431.58578526529516,5207
433.9375504667738,5144
436.2886689473588,5111
438.63914091758113,5217
440.9889665880513,5149
443.33814616945835,5213
445.68667987257015,5114
448.03456790823395,5125
450.3818104873759,5304
452.72840782100013,5163
455.07436012019105,5265
457.41966759611057,5238
459.7643304600007,5264
462.10834892318155,5253
464.4517231970525,5153
466.79445349309174,5057
469.1365400228566,5051
471.4779829979826,5183
473.81878263018564,5131
476.15893913125876,5138
478.4984527130747,5168
480.8373235875855,5118
483.17555196682144,5202
485.5131380628919,5177
487.8500820879857,5163
490.1863842543697,5217
492.52204477439034,5346
494.8570638604725,5199
497.1914417251204,5335
499.52517858091653,5462
501.85827464052306,5512
504.19073011668036,5609
506.5225452222086,5864
508.85372017000566,6117
511.18425517304956,7204
513.514150444396,9361
515.8434061971808,12447
518.1720226446176,14838
520.4999999999999,15223
522.8273384766991,14431
525.1540382881666,13303
527.480099647932,11252
529.8055227696037,8788
532.1303078668694,7118
534.454455153496,6177
536.777964843328,5904
539.1008371502907,5655
541.4230722883866,5553
543.744670471698,5517
546.0656319143858,5651
548.3859568306899,5489
550.7056454349294,5368
553.0246979415016,5268
555.3431145648834,5386
557.6608955196306,5267
559.978041020377,5284
562.2945512818363,5238
564.6104265188006,5227
566.9256669461412,5330
569.2402727788082,5330
571.5542442318302,5203
573.8675815203156,5373
576.1802848594508,5132
578.4923544645015,5253
580.8037905508126,5331
583.114593333807,5212
585.4247630289875,5320
587.7342998519354,5215
590.0432040183106,5206
592.3514757438526,5275
594.6591152443794,5296
596.9661227357875,5428
599.2724984340531,5262
601.578242555231,5160
603.8833553154542,5254
606.1878369309362,5281
608.4916876179676,5245
610.7949075929192,5295
613.0974970722403,5294
615.3994562724587,5260
617.7007854101818,5200
620.0014847020951,5244
622.3015543649641,5257
624.6009946156324,5383
626.8998056710224,5227
629.1979877481361,5324
631.4955410640538,5257
633.7924658359349,5181
636.0887622810175,5163
638.3844306166192,5183
640.6794710601358,5348
642.9738838290426,5378
645.2676691408932,5463
647.5608272133207,5402
649.853358264037,5302
652.1452625108324,5430
654.4365401715764,5513
656.7271914642178,5601
659.0172166067838,5803
661.3066158173809,5394
663.5953893141935,5452
665.8835373154867,5658
668.1710600396028,5579
670.4579577049639,5380
672.7442305300709,5543
675.0298787335033,5396
677.3149025339197,5393
679.599302150058,5373
681.8830778007342,5562
684.1662297048437,5546
686.4487580813608,5520
688.7306631493387,5486
691.0119451279091,5587
693.2926042362834,5581
695.5726406937516,5517
697.8520547196814,5431
700.1308465335215,5392
702.4090163547982,5387
704.6865644031171,5383
706.9634908981619,5436
709.2397960596965,5383
711.5154801075631,5531
713.7905432616823,5602
716.0649857420548,5363
718.3388077687592,5465
720.612009561953,5582
722.8845913418733,5525
725.1565533288352,5537
727.427895743234,5552
729.6986188055427,5527
731.9687227363137,5537
734.238207756178,5516
736.5070740858458,5601
738.7753219461066,5607
741.0429515578281,5411
743.3099631419569,5543
745.5763569195191,5528
747.8421331116193,5510
750.1072919394409,5552
752.3718336242467,5615
754.6357583873777,5574
756.8990664502545,5563
759.1617580343765,5550
761.423833361321,5514
763.6852926527457,5601
765.9461361303862,5606
768.206364016058,5518
770.4659765316536,5545
772.7249738991469,5676
774.9833563405886,5622
777.2411240781092,5655
779.4982773339183,5680
781.7548163303044,5666
784.010741289634,5540
786.2660524343538,6144
788.5207499869881,5788
790.7748341701416,5673
793.0283052064964,5727
795.2811633188143,5663
797.5334087299362,5512
799.7850416627813,5642
802.0360623403484,5603
804.2864709857143,5605
806.5362678220353,5697
808.7854530725468,5544
811.0340269605625,5694
813.2819897094754,5589
815.5293415427581,5613
817.77608268396,5732
820.0222133567116,5597
822.2677337847211,5653
824.5126441917765,5564
826.7569448017433,5628
829.0006358385675,5460
831.2437175262731,5564
833.4861900889629,5531
835.7280537508192,5651
837.9693087361026,5706
840.2099552691533,5759
842.4499935743896,5615
844.689423876309,5793
846.9282463994886,5757
849.1664613685833,5502
851.4040690083276,5616
853.6410695435349,5423
855.877463199097,5747
858.1132501999847,5631
860.3484307712487,5810
862.5830051380175,5592
864.8169735254988,5702
867.0503361589791,5696
869.2830932638243,5611
871.5152450654786,5709
873.7467917894654,5505
875.9777336613873,5716
878.2080709069252,5696
880.4378037518389,5765
882.666932421968,5587
884.8954571432301,5737
887.1233781416219,5620
889.3506956432192,5673
891.5774098741766,5665
893.803521060728,5691
896.0290294291852,5738
898.2539352059397,5617
900.4782386174619,5513
902.7019398903011,5613
904.925039251085,5577
907.147536926521,5488
909.3694331433943,5611
911.59072812857,5549
913.8114221089921,5605
916.0315153116827,5670
918.2510079637437,5606
920.4699002923547,5514
922.6881925247761,5602
924.905884888345,5520
927.1229776104793,5746
929.3394709186747,5629
931.555365040506,5735
933.7706602036275,5743
935.9853566357709,5579
938.1994545647489,5683
940.4129542184515,5800
942.6258558248488,5733
944.8381596119883,5626
947.0498658079974,5825
949.2609746410825,5707
951.4714863395287,5793
953.6814011316998,5883
955.8907192460387,5843
958.0994409110671,5835
960.3075663553858,5841
962.5150958076741,5873
964.7220294966913,5807
966.928367651274,5882
969.1341105003388,5838
971.3392582728806,5739
973.5438111979742,5715
975.747769504772,5693
977.9511334225061,5767
980.153903180487,5743
982.3560790081052,5856
984.5576611348289,5604
986.7586497902058,5485
988.9590452038618,5551
991.158847605503,5597
993.3580572249133,5532
995.5566742919558,5563
997.7546990365728,5413
999.952131688785,5337
1002.1489724786926,5261
1004.3452216364743,5317
1006.5408793923874,5237
1008.7359459767691,5319
1010.9304216200343,5142
1013.1243065526781,5236
1015.3176010052733,5226
1017.510305208472,5078
1019.7024193930064,5101
1021.8939437896848,4987
1024.0848786293977,5090
1026.2752241431122,5070
1028.4649805618747,5058
1030.6541481168115,5073
1032.842727039127,5096
1035.0307175601051,4889
1037.2181199111074,4964
1039.4049343235752,5102
1041.591161029029,5097
1043.7768002590683,5061
1045.9618522453698,5208
1048.1463172196918,5047
1050.3301954138697,5189
1052.513487059818,5076
1054.69619238953,5337
1056.8783116350783,5137
1059.0598450286152,5078
1061.2407928023704,5106
1063.4211551886528,5079
1065.6009324198508,5251
1067.780124728432,5090
1069.9587323469414,5126
1072.1367555080046,5200
1074.314194444325,4945
1076.4910493886855,5061
1078.667320573947,4925
1080.843008233051,5069
1083.0181125990161,5029
1085.1926339049414,4972
1087.3665723840027,4935
1089.5399282694575,4810
1091.7127017946405,4866
1093.8848931929647,4997
1096.0565026979243,4952
1098.2275305430899,4930
1100.3979769621128,4865
1102.567842188722,4904
1104.737126456726,4851
1106.9058300000124,4850
1109.0739530525475,4962
1111.2414958483764,4818
1113.4084586216231,4877
1115.5748416064907,4805
1117.7406450372605,4761
1119.9058691482942,4836
1122.0705141740304,4930
1124.2345803489884,4795
1126.3980679077658,4775
1128.5609770850388,4881
1130.7233081155623,4878
1132.8850612341707,4997
1135.0462366757774,4869
1137.2068346753745,4920
1139.3668554680326,4787
1141.526299288901,4888
1143.68516637321,4948
1145.8434569562655,4797
1148.001171273455,4892
1150.158309560244,4816
1152.3148720521767,4851
1154.470858984876,4901
1156.626270594044,4856
1158.7811071154629,4820
1160.9353687849912,4914
1163.089055838569,4858
1165.242168512213,4768
1167.3947070420209,4822
1169.5466716641677,4832
1171.6980626149075,4905
1173.8488801305748,4865
1175.9991244475814,4913
1178.1487958024186,4888
1180.2978944316555,4911
1182.4464205719428,4837
1184.5943744600072,4887
1186.7417563326567,4912
1188.8885664267755,4936
1191.0348049793297,4850
1193.1804722273619,4940
1195.325568407995,5080
1197.4700937584303,4812
1199.614048515948,4932
1201.7574329179074,4895
1203.900247201746,4890
1206.042491604982,5008
1208.1841663652099,4879
1210.3252717201053,4882
1212.465807907422,4887
1214.6057751649923,4987
1216.7451737307279,4994
1218.8840038426192,4972
1221.0222657387353,4928
1223.1599596572241,5064
1225.2970858363137,5156
1227.4336445143094,4970
1229.5696359295966,5244
1231.705060320639,5154
1233.8399179259786,5058
1235.9742089842384,5158
1238.107933734118,5055
1240.2410924143974,4958
1242.373685263935,5103
1244.5057125216676,5199
1246.6371744266116,5137
1248.7680712178621,5023
1250.898403134593,5073
1253.028170416058,5126
1255.1573733015875,5170
1257.2860120305932,5262
1259.4140868425648,5126
1261.54159797707,5185
1263.6685456737569,5229
1265.7949301723515,5184
1267.9207517126597,5262
1270.046010534565,5392
1272.1707068780306,5273
1274.2948409830983,5361
1276.4184130898889,5424
1278.541423438603,5368
1280.6638722695184,5311
1282.785759822993,5311
1284.9070863394636,5463
1287.0278520594447,5537
1289.1480572235314,5556
1291.2677020723963,5604
1293.3867868467923,5720
1295.5053117875495,5648
1297.623277135579,5717
1299.740683131868,5681
1301.8575300174857,5601
1303.973818033578,5844
1306.0895474213703,5977
1308.2047184221678,5931
1310.3193312773528,5949
1312.4333862283888,5914
1314.5468835168163,5880
1316.659823384255,5972
1318.7722060724045,5973
1320.8840318230418,5999
1322.9953008780249,6099
1325.1060134792888,6034
1327.2161698688478,6046
1329.3257702887959,6182
1331.4348149813054,6121
1333.5433041886276,6152
1335.6512381530933,5981
1337.7586171171101,6154
1339.8654413231675,6128
1341.9717110138317,6152
1344.0774264317488,5996
1346.1825878196432,5868
1348.2871954203192,5920
1350.3912494766587,5959
1352.4947502316231,6047
1354.5976979282532,6075
1356.7000928096686,6004
1358.8019351190665,5937
1360.9032250997243,6044
1363.0039629949988,5862
1365.1041490483235,5929
1367.2037835032133,5970
1369.3028666032606,5869
1371.401398592137,5968
1373.4993797135926,6002
1375.5968102114575,5958
1377.6936903296396,6093
1379.7900203121262,5952
1381.8858004029835,6149
1383.9810308463561,5951
1386.075711886469,5970
1388.1698437676241,6093
1390.2634267342032,6041
1392.356461030667,5901
1394.4489469015557,6016
1396.5408845914872,5949
1398.6322743451592,5986
1400.7231164073469,6097
1402.813411022907,6089
1404.903158436773,6124
1406.9923588939578,6111
1409.0810126395531,6186
1411.1691199187303,6319
1413.2566809767386,6232
1415.343696058907,6118
1417.4301654106425,6231
1419.5160892774315,6322
1421.6014679048399,6340
1423.6863015385125,6276
1425.7705904241707,6319
1427.8543348076178,6283
1429.9375349347342,6488
1432.0201910514802,6468
1434.102303403894,6494
1436.1838722380944,6565
1438.2648978002767,6605
1440.3453803367174,6622
1442.4253200937692,6690
1444.5047173178677,6957
1446.5835722555234,6793
1448.6618851533285,7074
1450.739656257952,6871
1452.8168858161434,7058
1454.8935740747306,7244
1456.96972128062,7176
1459.045327680797,7210
1461.120393522327,7521
1463.1949190523528,7430
1465.2689045180973,7586
1467.3423501668608,7496
1469.415256246024,7473
1471.4876230030463,7586
1473.559450685465,7745
1475.6307395408976,7791
1477.7014898170391,7705
1479.771701761665,8037
1481.8413756226287,8151
1483.9105116478618,8080
1485.9791100853772,8137
1488.0471711832643,8127
1490.1146951896926,8178
1492.1816823529098,8240
1494.2481329212433,8442
1496.3140471430984,8398
1498.3794252669609,8467
1500.4442675413939,8471
1502.5085742150404,8491
1504.572345536622,8750
1506.6355817549388,8765
1508.6982831188702,8795
1510.7604498773744,8933
1512.8220822794883,8868
1514.8831805743293,8854
1516.9437450110909,8946
1519.003775839048,9004
1521.0632733075522,8923
1523.1222376660367,9006
1525.1806691640113,9038
1527.2385680510652,8982
1529.2959345768668,9075
1531.3527689911643,9054
1533.4090715437833,9125
1535.4648424846291,9260
1537.5200820636855,9392
1539.5747905310159,9514
1541.6289681367616,9737
1543.6826151311434,9622
1545.7357317644614,9611
1547.7883182870937,9710
1549.8403749494987,9579
1551.8919020022113,9611
1553.9428996958477,9626
1555.9933682811015,9681
1558.0433080087469,9706
1560.0927191296346,10071
1562.1416018946961,10063
1564.1899565549415,10271
1566.2377833614592,10377
1568.2850825654164,10472
1570.3318544180606,10868
1572.3780991707158,11043
1574.423817074788,11397
1576.4690083817595,11658
1578.5136733431923,12367
1580.5578122107272,13215
1582.601425236085,13671
1584.6445126710646,14083
1586.6870747675434,14424
1588.7291117774776,14760
1590.7706239529034,14701
1592.8116115459347,13995
1594.8520748087658,13581
1596.8920139936686,12810
1598.9314293529933,11982
1600.9703211391711,11194
1603.008689604711,10565
1605.0465350022005,9824
1607.0838575843068,9376
1609.1206576037753,9139
1611.1569353134305,8518
1613.1926909661765,8067
1615.2279248149953,7856
1617.2626371129481,7668
1619.2968281131757,7350
1621.3304980688963,7110
1623.3636472334088,7081
1625.39627586009,6763
1627.428384202396,6717
1629.459972513861,6452
1631.4910410480993,6288
1633.5215900588028,6340
1635.551619799744,6134
1637.5811305247717,6246
1639.6101224878166,6074
1641.6385959428862,5956
1643.6665511440683,5812
1645.693988345528,5809
1647.7209078015112,5826
1649.7473097663405,5700
1651.7731944944203,5666
1653.7985622402307,5617
1655.823413258333,5578
1657.847747803366,5544
1659.8715661300494,5485
1661.8948684931793,5581
1663.9176551476316,5521
1665.9399263483624,5466
1667.9616823504057,5429
1669.982923408873,5407
1672.0036497789574,5473
1674.0238617159293,5437
1676.043559475138,5402
1678.0627433120121,5397
1680.081413482059,5395
1682.0995702408654,5445
1684.117213844096,5546
1686.134344547495,5418
1688.1509626068864,5353
1690.1670682781705,5473
1692.182661817329,5458
1694.1977434804217,5573
1696.2123135235875,5571
1698.226372203043,5513
1700.2399197750851,5569
1702.2529564960905,5668
1704.2654826225112,5555
1706.277498410882,5561
1708.2890041178139,5538
1710.2999999999988,5536
1712.3104863142066,5642
1714.3204633172854,5539
1716.329931266163,5569
1718.3388904178469,5506
1720.3473410294214,5561
1722.3552833580516,5634
1724.3627176609807,5517
1726.3696441955308,5503
1728.3760632191033,5615
1730.3819749891782,5508
1732.3873797633146,5493
1734.3922777991502,5385
1736.3966693544012,5399
1738.4005546868639,5412
1740.4039340544127,5337
1742.406807715001,5377
1744.4091759266616,5370
1746.4110389475054,5373
1748.4123970357223,5373
1750.413250449582,5294
1752.4135994474318,5279
1754.4134442876993,5373
1756.4127852288902,5207
1758.4116225295893,5227
1760.4099564484595,5284
1762.407787244244,5253
1764.405115175764,5269
1766.4019405019203,5216
1768.3982634816916,5232
1770.3940843741357,5098
1772.3894034383907,5182
1774.3842209336717,5272
1776.378537119274,5192
1778.372352254571,5072
1780.3656665990156,5142
1782.3584804121397,4969
1784.3507939535534,5194
1786.3426074829463,5115
1788.3339212600863,5095
1790.3247355448211,5158
1792.3150505970766,5126
1794.3048666768573,5132
1796.2941840442477,5043
1798.2830029594106,5091
1800.2713236825884,5107
1802.2591464741004,5114
1804.2464715943465,5073
1806.2332993038058,5136
1808.2196298630352,5052
1810.2054635326708,5006
1812.190800573428,5081
1814.175641246101,4968
1816.1599858115628,4927
1818.1438345307652,5056
1820.127187664738,5004
1822.1100454745924,5062
1824.092408221516,5084
1826.0742761667766,5085
1828.055649571721,5090
1830.0365286977735,4997
1832.0169138064398,4970
1833.9968051593014,5069
1835.9762030180214,5096
1837.9551076443408,4920
1839.9335193000788,5054
1841.9114382471344,5017
1843.888864747485,4931
1845.8657990631878,5048
1847.842241456378,4947
1849.8181921892697,5040
1851.7936515241558,5036
1853.7686197234098,4930
1855.7430970494815,4993
1857.7170837649014,5040
1859.6905801322787,4970
1861.6635864143004,4928
1863.6361028737338,5041
1865.608129773424,5051
1867.5796673762961,4987
1869.5507159453537,5009
1871.521275743678,5054
1873.4913470344313,5091
1875.4609300808534,5096
1877.4300251462632,4960
1879.3986324940588,5054
1881.366752387717,5051
1883.3343850907936,5089
1885.3015308669228,5119
1887.268189979819,5165
1889.2343626932739,5056
1891.2000492711595,5025
1893.1652499774254,5114
1895.1299650761011,5129
1897.0941948312952,5127
1899.0579395071945,5232
1901.0211993680641,5169
1902.98397467825,5157
1904.9462657021745,5336
1906.9080727043415,5201
1908.869395949332,5268
1910.8302357018065,5277
1912.790592226504,5345
1914.7504657882428,5305
1916.7098566519212,5353
1918.6687650825133,5162
1920.6271913450764,5392
1922.5851357047422,5440
1924.5425984267245,5482
1926.499579776314,5288
1928.4560800188833,5369
1930.4120994198802,5288
1932.367638244833,5318
1934.32269675935,5348
1936.2772752291175,5301
1938.231373919899,5305
1940.1849930975404,5352
1942.1381330279637,5220
1944.0907939771696,5380
1946.0429762112412,5179
1947.9946799963363,5191
1949.9459055986945,5077
1951.896653284633,5229
1953.8469233205478,5101
1955.7967159729142,5198
1957.7460315082863,5225
1959.6948701932974,5072
1961.6432322946594,5208
1963.5911180791632,5213
1965.5385278136787,5150
1967.4854617651545,5159
1969.4319202006182,5072
1971.377903387176,5105
1973.3234115920136,5128
1975.268445082395,5168
1977.2130041256642,5054
1979.1570889892423,5092
1981.1006999406304,5160
1983.04383724741,4927
1984.986501177238,5078
1986.928691997853,5024
1988.8704099770712,5010
1990.811655382789,5049
1992.7524284829801,4977
1994.692729545698,5002
1996.6325588390755,4927
1998.5719166313224,4961
2000.5108031907307,5013
2002.4492187856677,4921
2004.387163684583,4940
2006.3246381560011,4952
2008.2616424685298,4940
2010.1981768908527,4934
2012.1342416917332,4923
2014.069837140014,4805
2016.0049635046162,4931
2017.9396210545406,4877
2019.8738100588666,4733
2021.8075307867502,4854
2023.740783507431,4822
2025.6735684902228,4896
2027.6058860045214,4857
2029.5377363198004,4956
2031.4691197056118,4898
2033.4000364315875,4887
2035.3304867674374,4857
2037.260470982952,4892
2039.189989347998,4813
2041.1190421325232,4836
2043.047629606554,4800
2044.9757520401945,4887
2046.9034097036288,4910
2048.8306028671195,4876
2050.7573318010086,4818
2052.683596775716,4718
2054.609398061742,4687
2056.5347359296647,4865
2058.4596106501403,4772
2060.384022493906,4810
2062.3079717317764,4727
2064.231458634646,4716
2066.1544834734873,4784
2068.077046519352,4816
2069.99914804337,4877
2071.9207883167524,4766
2073.8419676107865,4748
2075.7626861968406,4702
2077.6829443463607,4624
2079.6027423308715,4896
2081.522080421977,4781
2083.440958891362,4684
2085.359378010786,4697
2087.2773380520907,4814
2089.194839287196,4821
2091.111881988101,4835
2093.0284664268825,4612
2094.9445928756973,4710
2096.86026160678,4810
2098.775472892446,4725
2100.690227005088,4811
2102.604524217178,4756
2104.5183648012676,4765
2106.431749029985,4812
2108.34467717604,4796
2110.2571495122206,4706
2112.169166311393,4648
2114.080727846503,4746
2115.9918343905747,4777
2117.902486216711,4861
2119.8126835980956,4785
2121.722426807987,4737
2123.6317161197285,4685
2125.5405518067364,4708
2127.448934142509,4728
2129.356863400624,4740
2131.264339854737,4810
2133.1713637785815,4669
2135.077935445972,4659
2136.9840551308002,4699
2138.889723107037,4856
2140.7949396487334,4601
2142.699705030018,4792
2144.6040195250994,4724
2146.507883408264,4711
2148.4112969538774,4785
2150.3142604363848,4705
2152.2167741303097,4606
2154.1188383102535,4698
2156.0204532508997,4720
2157.9216192270064,4638
2159.822336513414,4830
2161.7226053850413,4809
2163.622426116884,4746
2165.5217989840185,4822
2167.4207242616,4800
2169.319202224862,4721
2171.2172331491165,4728
2173.1148173097563,4812
2175.0119549822507,4691
2176.90864644215,4823
2178.8048919650823,4874
2180.7006918267534,4694
2182.596046302952,4791
2184.4909556695407,4757
2186.3854202024645,4809
2188.279440177746,4585
2190.173015871487,4708
2192.066147559868,4690
2193.958835519149,4698
2195.851080025667,4804
2197.7428813558417,4709
2199.6342397861667,4692
2201.5251555932186,4665
2203.415629053651,4757
2205.3056604441986,4756
2207.19525004167,4838
2209.084398122958,4802
2210.9731049650327,4638
2212.861370844941,4720
2214.749196039812,4736
2216.636580826851,4815
2218.523525483344,4720
2220.410030286655,4744
2222.296095514226,4798
2224.1817214435805,4840
2226.066908352319,4691
2227.951656518121,4788
2229.835966218746,4714
2231.71983773203,4797
2233.6032713358913,4716
2235.486267308324,4696
2237.3688259274036,4785
2239.2509474712824,4676
2241.132632218193,4759
2243.013880446447,4834
2244.8946924344323,4730
2246.7750684606203,4775
2248.6550088035574,4743
2250.534513741871,4833
2252.413583554265,4751
2254.292218519526,4786
2256.170418916517,4673
2258.0481850241786,4713
2259.925517121534,4739
2261.8024154876825,4654
2263.678880401803,4583
2265.5549121431536,4677
2267.430510991071,4699
2269.305677224971,4732
2271.180411124348,4671
2273.0547129687766,4699
2274.9285830379076,4654
2276.8020216114737,4644
2278.6750289692845,4583
2280.5476053912294,4668
2282.4197511572766,4657
2284.2914665474727,4718
2286.162751841943,4707
2288.0336073208937,4720
2289.904033264608,4843
2291.774029953448,4806
2293.6435976678554,4779
2295.5127366883517,4785
2297.381447295534,4776
2299.2497297700825,4680
2301.1175843927526,4627
2302.9850114443825,4741
2304.852011205885,4639
2306.7185839582553,4603
2308.5847299825664,4616
2310.4504495599676,4542
2312.3157429716925,4557
2314.1806104990483,4493
2316.0450524234247,4505
2317.9090690262888,4612
2319.772660589186,4460
2321.635827393742,4570
2323.498569721661,4520
2325.3608878547248,4501
2327.2227820747967,4573
2329.0842526638157,4520
2330.945299903803,4485
2332.805924076857,4522
2334.6661254651535,4455
2336.525904350951,4429
2338.3852610165827,4519
2340.244195744464,4507
2342.102708817088,4516
2343.9608005170253,4489
2345.8184711269287,4412
2347.675720929526,4684
2349.532550207628,4434
2351.38895924412,4451
2353.24494832197,4523
2355.100517724223,4533
2356.955667734004,4525
2358.810398634514,4591
2360.664710709037,4530
2362.5186042409337,4513
2364.3720795136437,4571
2366.225136810686,4629
2368.0777764156583,4623
2369.929998612237,4478
2371.7818036841777,4539
2373.633191915315,4543
2375.484163589562,4536
2377.3347189909114,4502
2379.184858403434,4648
2381.03458211128,4477
2382.8838903986775,4566
2384.732783549936,4593
2386.5812618494406,4581
2388.4293255816588,4623
2390.2769750311327,4570
2392.1242104824883,4540
2393.971032220427,4577
2395.8174405297295,4567
2397.6634356952563,4695
2399.509018001947,4594
2401.3541877348193,4572
2403.1989451789705,4648
2405.043290619576,4660
2406.8872243418905,4620
2408.730746631247,4548
2410.5738577730594,4535
2412.4165580528183,4552
2414.258847756095,4518
2416.100727168537,4549
2417.9421965758734,4570
2419.783256263912,4604
2421.623906518538,4724
2423.4641476257157,4649
2425.303979871491,4613
2427.143403541984,4587
2428.9824189233977,4716
2430.821026302012,4735
2432.6592259641866,4538
2434.497018196361,4526
2436.33440328505,4726
2438.171381516851,4619
2440.00795317844,4695
2441.844118556569,4627
2443.6798779380724,4618
2445.5152316098606,4638
2447.3501798589255,4561
2449.1847229723357,4611
2451.0188612372403,4568
2452.8525949408663,4645
2454.6859243705203,4708
2456.518849813587,4679
2458.3513715575314,4644
2460.183489889895,4711
2462.015205098301,4630
2463.8465174704493,4638
2465.67742729412,4574
2467.5079348571717,4688
2469.338040447542,4639
2471.1677443532476,4633
2472.9970468623833,4605
2474.825948263123,4625
2476.6544488437207,4696
2478.482548892508,4601
2480.310248697896,4505
2482.137548548374,4605
2483.9644487325118,4636
2485.790949538956,4591
2487.617051256433,4587
2489.44275417375,4642
2491.26805857979,4656
2493.0929647635157,4644
2494.917473013971,4672
2496.741583620276,4701
2498.5652968716304,4804
2500.3886130573137,4720
2502.2115324666834,4834
2504.0340553891765,4687
2505.856182114308,4669
2507.6779129316733,4655
2509.499248130945,4633
2511.3201880018764,4626
2513.140732834298,4806
2514.9608829181198,4712
2516.780638543331,4603
2518.6,4609
2520.418967578273,4634
2522.237541568376,4784
2524.0557222606144,4716
2525.8735099453706,4670
2527.6909049131086,4775
2529.507907454368,4611
2531.32451785977,4721
2533.140736420014,4789
2534.9565634258774,4735
2536.771999168218,4829
2538.5870439379714,4713
2540.4016980261526,4890
2542.2159617238544,4786
2544.02983532225,4784
2545.8433191125914,4729
2547.656413386209,4791
2549.4691184345115,4891
2551.2814345489874,4921
2553.093362021204,4888
2554.904901142808,4925
2556.716052205523,4788
2558.526815501153,4980
2560.3371913215824,4941
2562.147179958771,4929
2563.956781704761,5017
2565.7659968516705,4897
2567.5748256916986,5100
2569.3832685171224,5142
2571.1913256202984,5275
2572.9989972936614,5081
2574.806283829725,5142
2576.613185521084,5333
2578.4197026604074,5381
2580.2258355404483,5369
2582.031584454035,5505
2583.836949694077,5607
2585.6419315535613,5517
2587.4465303255533,5522
2589.2507463032002,5614
2591.0545797797245,5720
2592.8580310484303,5928
2594.6611004026995,5995
2596.463788135992,6146
2598.266094541849,6126
2600.0680199138874,6277
2601.869564545807,6497
2603.670728731383,6449
2605.4715127644704,6445
2607.2719169390048,6564
2609.071941548998,6647
2610.8715868885433,6703
2612.670853251811,6687
2614.469740933052,6717
2616.268250226594,6860
2618.0663814268455,6823
2619.864134828292,6705
2621.6615107255006,6917
2623.458509413115,6852
2625.2551311858597,6871
2627.0513763385347,6766
2628.8472451660223,6750
2630.6427379632833,6706
2632.4378550253564,6762
2634.232596647359,6596
2636.026963124488,6518
2637.8209547520187,6661
2639.6145718253065,6710
2641.407814639785,6533
2643.200683490966,6639
2644.9931786744414,6682
2646.7853004858807,6373
2648.577049221034,6358
2650.3684251757277,6263
2652.1594286458712,6141
2653.9500599274484,6156
2655.740319316525,5935
2657.5302071092437,5946
2659.3197236018286,6003
2661.10886909058,5785
2662.8976438718782,5802
2664.686048242183,5711
2666.4740824980327,5622
2668.2617469360443,5643
2670.0490418529134,5535
2671.8359675454153,5452
2673.622524310403,5351
2675.408712444811,5331
2677.1945322456495,5300
2678.979984010009,5317
2680.76506803506,5323
2682.5497846180497,5077
2684.334134056306,5145
2686.1181166472343,5120
2687.9017326883213,4994
2689.6849824771293,4945
2691.4678663113013,4872
2693.2503844885596,4844
2695.032537306705,4806
2696.8143250636167,4836
2698.5957480572542,4772
2700.3768065856534,4803
2702.1575009469316,4896
2703.937831439283,4702
2705.717798360982,4692
2707.4974020103837,4637
2709.276642685917,4525
2711.055520686095,4576
2712.834036309506,4552
2714.612189854819,4527
2716.389981620782,4560
2718.1674119062204,4605
2719.944481010041,4484
2721.721189231226,4464
2723.4975368688415,4599
2725.273524222027,4441
2727.0491515900053,4464
2728.824419272075,4433
2730.5993275676146,4341
2732.3738767760838,4378
2734.148067197016,4400
2735.921899130031,4360
2737.6953728748194,4367
2739.468488731156,4386
2741.2412469988926,4293
2743.0136479779617,4357
2744.785691968372,4376
2746.5573792702116,4461
2748.3287101836504,4344
2750.099685008934,4292
2751.870304046388,4132
2753.640567596418,4399
2755.4104759595057,4283
2757.1800294362156,4256
2758.949228327187,4290
2760.7180729331412,4318
2762.486563554877,4355
2764.254700493272,4253
2766.022484049284,4242
2767.789914523947,4187
2769.5569922183786,4180
2771.3237174337705,4290
2773.090090471394,4152
2774.8561116326036,4287
2776.6217812188274,4409
2778.3870995315756,4310
2780.1520668724356,4195
2781.9166835430747,4269
2783.6809498452394,4314
2785.444866080754,4320
2787.2084325515225,4186
2788.971649559527,4176
2790.73451740683,4158
2792.4970363955713,4196
2794.2592068279705,4315
2796.0210290063264,4172
2797.7825032330147,4280
2799.543629810493,4252
2801.304409041296,4361
2803.0648412280366,4254
2804.8249266734088,4244
2806.5846656801846,4146
2808.344058551212,4176
2810.1031055894246,4200
2811.8618070978273,4238
2813.6201633795085,4187
2815.378174737636,4150
2817.1358414754536,4153
2818.893163896285,4189
2820.6501423035334,4190
2822.4067770006814,4182
2824.1630682912883,4286
2825.9190164789957,4212
2827.6746218675207,4145
2829.429884760661,4099
2831.184805462294,4121
2832.9393842763743,4283
2834.693621506936,4221
2836.4475174580916,4257
2838.201072434034,4153
2839.954286739034,4210
2841.707160677441,4259
2843.459694553685,4167
2845.2118886722724,4215
2846.96374333779,4187
2848.7152588549034,4201
2850.4664355283567,4168
2852.217273662973,4245
2853.9677735636546,4186
2855.7179355353833,4232
2857.4677598832186,4220
2859.217246912299,4131
2860.9663969278427,4179
2862.715210235146,4135
2864.4636871395846,4116
2866.211827946614,4146
2867.9596329617652,4181
2869.7071024906536,4216
2871.4542368389684,4013
2873.20103631248,4112
2874.947501217038,4214
2876.6936318585695,4247
2878.4394285430812,4147
2880.1848915766604,4243
2881.9300212654707,4087
2883.6748179157553,4092
2885.4192818338374,4161
2887.1634133261173,4111
2888.907212699077,4004
2890.6506802592744,4096
2892.393816313348,4073
2894.1366211680142,4118
2895.8790951300693,4071
2897.621238506388,4164
2899.363051603925,4055
2901.1045347297118,4197
2902.8456881908596,4049
2904.58651229456,4152
2906.327007348081,4133
2908.067173658772,4110
2909.8070115340597,4109
2911.5465212814497,4171
2913.285703208527,4118
2915.0245576229563,4069
2916.7630848324807,3997
2918.5012851449196,4118
2920.2391588681758,3912
2921.976706310227,3962
2923.7139277791334,4036
2925.4508235830313,4081
2927.187394030137,4058
2928.923639428745,3945
2930.6595600872306,4080
2932.395156314046,4125
2934.1304284177218,4061
2935.8653767068713,4126
2937.6000014901815,4006
2939.3343030764227,4011
2941.068281774442,4097
2942.8019378931644,4101
2944.5352717415976,4179
2946.2682836288236,4086
2948.0009738640065,3956
2949.7333427563885,4134
2951.465390615289,3979
2953.1971177501086,4011
2954.9285244703265,3852
2956.6596110855,4080
2958.3903779052657,4020
2960.1208252393385,4036
2961.8509533975125,3921
2963.5807626896617,3914
2965.3102534257378,3896
2967.0394259157715,4022
2968.768280469873,3985
2970.496817398232,3950
2972.2250370111146,3949
2973.952939618869,3928
2975.6805255319196,4009
2977.4077950607707,3938
2979.134748516006,3916
2980.861386208289,3991
2982.587708448359,4043
2984.313715547037,4017
2986.039407815222,3953
2987.764785563891,4009
2989.489849104102,3884
2991.2145987469908,3917
2992.9390348037705,3984
2994.6631575857346,3986
2996.3869674042576,3974
2998.1104645707887,3985
2999.83364939686,3924
3001.5565221940783,3875
3003.2790832741334,3970
3005.0013329487924,3909
3006.7232715298996,3881
3008.4448993293804,3893
3010.166216659239,3847
3011.887223831558,3866
3013.607921158498,3947
3015.3283089522993,3907
3017.0483875252826,3840
3018.7681571898443,3939
3020.4876182584626,3801
3022.2067710436927,3820
3023.9256158581707,3800
3025.644153014609,3866
3027.362382825801,3869
3029.0803056046193,3867
3030.797921664012,3841
3032.5152313170106,3795
3034.2322348767225,3795
3035.9489326563353,3786
3037.665324969115,3880
3039.3814121284063,3929
3041.097194447633,3799
3042.812672240299,3688
3044.5278458199855,3897
3046.2427155003525,3854
3047.9572815951406,3849
3049.671544418167,3915
3051.38550428333,3905
3053.0991615046073,3817
3054.812516396051,3830
3056.5255692717974,3745
3058.2383204460575,3892
3059.9507702331257,3926
3061.662918947372,3852
3063.3747669032446,3885
3065.0863144152736,3826
3066.7975617980674,3781
3068.508509366309,3902
3070.219157434767,3836
3071.9295063182844,3809
3073.639556331785,3844
3075.3493077902704,3894
3077.058761008821,3880
3078.7679163025964,3870
3080.476773986837,3897
3082.1853343768594,3810
3083.89359778806,3806
3085.6015645359153,3853
3087.3092349359786,3759
3089.016609303884,3837
3090.7236879553434,3910
3092.4304712061476,3890
3094.136959372166,3716
3095.843152769349,3800
3097.5490517137237,3740
3099.2546565213966,3837
3100.959967508554,3850
3102.66498499146,3803
3104.3697092864577,3728
3106.0741407099695,3827
3107.778279578498,3958
3109.482126208622,3784
3111.1856809170004,3804
3112.8889440203716,3811
3114.5919158355528,3749
3116.294596679439,3855
3117.996986869006,3868
3119.6990867213062,3952
3121.4008965534726,3820
3123.102416682717,3930
3124.803647426329,3897
3126.5045891016784,3870
3128.205242026213,3919
3129.90560651746,3865
3131.605682893025,3958
3133.3054714705922,3857
3135.0049725679282,4050
3136.7041865028714,3886
3138.4031135933465,3906
3140.101754157353,3874
3141.800108512971,3842
3143.498176978357,3913
3145.1959598717494,3872
3146.8934575114636,3790
3148.5906702158954,3794
3150.2875983035183,3766
3151.9842420928853,3878
3153.680601902627,3978
3155.376678051456,3788
3157.07247085816,3844
3158.767980641609,3747
3160.463207720748,3776
3162.158152414606,3811
3163.8528150422862,3842
3165.5471959229726,3896
3167.2412953759303,3824
3168.9351137204976,3800
3170.628651276098,3761
3172.3219083622307,3806
3174.014885298474,3857
3175.707582404485,3862
3177.4000000000005,3953
3179.092138404835,3923
3180.7839979388846,3819
3182.47557892212,3766
3184.166881674594,3841
3185.8579065164386,3899
3187.5486537678626,3839
3189.2391237491547,3866
3190.9293167806827,3839
3192.6192331828934,3916
3194.3088732763117,3839
3195.998237381542,3800
3197.687325819268,3738
3199.376138910251,3802
3201.064676975334,3703
3202.7529403354347,3718
3204.4409293115523,3733
3206.1286442247647,3821
3207.816085396229,3747
3209.5032531471825,3729
3211.190147798936,3757
3212.8767696728846,3750
3214.5631190905015,3625
3216.2491963733373,3684
3217.9350018430214,3585
3219.6205358212637,3705
3221.305798629851,3687
3222.990790590651,3593
3224.6755120256103,3624
3226.359963256751,3578
3228.0441446061795,3695
3229.7280563960758,3655
3231.411698948703,3668
3233.0950725863995,3628
3234.778177631587,3672
3236.461014406761,3654
3238.1435832345005,3777
3239.8258844374595,3788
3241.507918338374,3663
3243.1896852600576,3718
3244.8711855254023,3602
3246.552419457381,3659
3248.233387379042,3657
3249.914089613516,3590
3251.59452648401,3618
3253.274698313813,3694
3254.95460542629,3613
3256.6342481448855,3673
3258.313626793125,3627
3259.9927416946084,3572
3261.6715931730196,3557
3263.3501815521176,3548
3265.0285071557437,3542
3266.706570307815,3599
3268.3843713323286,3538
3270.0619105533615,3597
3271.739188295068,3568
3273.4162048816834,3574
3275.0929606375184,3561
3276.769455886966,3641
3278.445690954498,3649
3280.1216661646613,3647
3281.797381842087,3660
3283.4728383114807,3670
3285.1480358976296,3633
3286.8229749253996,3615
3288.4976557197333,3601
3290.172078605655,3688
3291.846243908266,3552
3293.5201519527463,3554
3295.193803064357,3517
3296.8671975684374,3564
3298.5403357904024,3541
3300.21321805575,3560
3301.8858446900567,3668
3303.558216018975,3559
3305.23033236824,3572
3306.9021940636603,3579
3308.57380143113,3628
3310.2451547966184,3572
3311.916254486174,3624
3313.5871008259246,3572
3315.2576941420766,3628
3316.9280347609147,3602
3318.5981230088046,3559
3320.2679592121895,3546
3321.9375436975924,3441
3323.606876791612,3512
3325.27595882093,3620
3326.944790112305,3522
3328.6133709925753,3590
3330.2817017886573,3457
3331.949782827547,3557
3333.617614436319,3574
3335.2851969421245,3550
3336.952530672199,3453
3338.619615953853,3650
3340.286453114475,3651
3341.9530424815357,3638
3343.619384382583,3705
3345.2854791452437,3578
3346.951327097224,3582
3348.6169285663073,3581
3350.2822838803577,3537
3351.947393367319,3583
3353.61225735521,3573
3355.2768761721345,3544
3356.9412501462693,3544
3358.605379605873,3579
3360.2692648792827,3597
3361.9329062949146,3532
3363.596304181263,3467
