CollectionTime,7/11/2024 1:39:54 PM
ExposureUsed,3
CalibratedSpectrum
-962.7078968117929,451
-959.9714848408522,491
-957.2358232597828,495
-954.5009119013725,511
-951.7667505983302,506
-949.0333391832855,495
-946.3006774887896,505
-943.5687653473143,490
-940.837602591253,498
-938.1071890529199,497
-935.3775245645503,490
-932.6486089583007,519
-929.9204420662485,526
-927.1930237203925,523
-924.4663537526524,518
-921.7404319948689,492
-919.0152582788041,527
-916.2908324361409,537
-913.5671542984834,522
-910.8442236973568,528
-908.1220404642074,526
-905.4006044304027,497
-902.679915427231,521
-899.959973285902,500
-897.2407778375464,490
-894.5223289132158,511
-891.8046263438832,522
-889.0876699604426,497
-886.3714595937089,480
-883.6559950744183,512
-880.9412762332282,490
-878.2273029007168,505
-875.5140749073835,493
-872.8015920836489,474
-870.0898542598545,495
-867.3788612662631,484
-864.6686129330585,481
-861.9591090903457,486
-859.2503495681506,495
-856.5423341964203,508
-853.8350628050229,488
-851.1285352237478,494
-848.4227512823054,491
-845.7177108103272,489
-843.0134136373656,485
-840.3098595928943,507
-837.6070485063082,483
-834.9049802069229,504
-832.2036545239757,516
-829.5030712866244,509
-826.8032303239481,495
-824.1041314649472,507
-821.4057745385428,496
-818.7081593735775,509
-816.0112857988148,504
-813.3151536429393,520
-810.6197627345566,526
-807.9251129021936,519
-805.2312039742981,496
-802.5380357792392,484
-799.8456081453069,512
-797.1539209007124,521
-794.462973873588,529
-791.772766891987,513
-789.083299783884,513
-786.3945723771743,526
-783.7065844996748,523
-781.0193359791231,544
-778.3328266431781,513
-775.6470563194197,516
-772.9620248353489,510
-770.2777320183878,499
-767.5941776958798,527
-764.9113616950891,523
-762.2292838432011,522
-759.5479439673222,553
-756.8673418944801,515
-754.1874774516235,509
-751.5083504656222,525
-748.8299607632671,536
-746.15230817127,512
-743.475392516264,537
-740.7992136248035,551
-738.1237713233636,544
-735.4490654383407,507
-732.7750957960521,530
-730.1018622227365,545
-727.4293645445534,509
-724.7576025875837,538
-722.0865761778291,548
-719.4162851412126,520
-716.7467293035781,553
-714.0779084906909,559
-711.409822528237,565
-708.7424712418238,539
-706.0758544569796,535
-703.4099719991541,535
-700.7448236937178,553
-698.0804093659622,594
-695.4167288411002,570
-692.7537819442656,556
-690.0915685005134,551
-687.4300883348199,571
-684.7693412720819,574
-682.1093271371178,565
-679.4500457546669,554
-676.7914969493897,561
-674.1336805458676,560
-671.4765963686034,581
-668.8202442420206,602
-666.1646239904642,597
-663.5097354382001,574
-660.8555784094151,555
-658.2021527282176,583
-655.5494582186366,621
-652.8974947046223,598
-650.2462620100463,576
-647.5957599587009,581
-644.9459883742998,590
-642.2969470804776,587
-639.6486359007902,585
-637.0010546587141,603
-634.3542031776476,618
-631.7080812809096,603
-629.0626887917401,591
-626.4180255333008,581
-623.7740913286734,626
-621.1308860008619,579
-618.4884093727904,598
-615.8466612673046,591
-613.2056415071715,594
-610.5653499150785,604
-607.9257863136347,587
-605.28695052537,608
-602.6488423727357,599
-600.0114616781036,591
-597.3748082637674,593
-594.7388819519412,615
-592.1036825647604,612
-589.4692099242818,606
-586.8354638524829,586
-584.2024441712624,638
-581.5701507024403,607
-578.9385832677575,615
-576.3077416888759,614
-573.6776257873787,625
-571.0482353847704,595
-568.4195703024757,595
-565.7916303618415,624
-563.164415384135,629
-560.5379251905453,640
-557.9121596021815,604
-555.2871184400748,630
-552.6628015251767,595
-550.0392086783606,630
-547.4163397204204,636
-544.794194472071,652
-542.1727727539491,648
-539.5520743866118,602
-536.9320991905377,679
-534.3128469861261,654
-531.6943175936979,655
-529.0765108334947,704
-526.4594265256793,715
-523.8430644903358,763
-521.2274245474689,851
-518.612506517005,929
-515.9983102187913,894
-513.3848354725959,950
-510.77208209810846,923
-508.16004991493924,993
-505.5487387426199,1089
-502.9381484006032,1191
-500.3282787082628,1196
-497.71912948489364,1157
-495.1107005497117,1108
-492.5029917218539,975
-489.8960028203786,928
-487.28973366426493,843
-484.68418407241325,804
-482.07935386364494,754
-479.47524285670266,755
-476.87185087025,756
-474.2691777228715,757
-471.66722323307334,756
-469.0659872192821,798
-466.4654694998459,772
-463.86566989303384,763
-461.26658821703614,792
-458.66822428996414,771
-456.07057792985,759
-453.4736489546475,742
-450.877437182231,739
-448.28194243039627,743
-445.68716451686,756
-443.09310325926003,743
-440.49975847515555,745
-437.9071299820263,773
-435.31521759727354,735
-432.72402113821954,764
-430.13354042210767,796
-427.5437752661022,760
-424.95472548728867,780
-422.36639090267386,757
-419.7787713291855,788
-417.1918665836721,812
-414.60567648290385,774
-412.0202008435715,840
-409.4354394822874,797
-406.8513922155845,796
-404.26805885991723,813
-401.685439231661,818
-399.103533147112,815
-396.522340422488,790
-393.9418608739278,783
-391.3620943174908,779
-388.7830405691583,765
-386.2046994448317,770
-383.6270707603344,680
-381.05015433141045,688
-378.473949973725,645
-375.8984575028645,648
-373.32367673433623,581
-370.74960748356875,501
-368.1762495659117,530
-365.60360279663576,498
-363.03166699093265,467
-360.4604419639154,459
-357.8899275306178,454
-355.32012350599507,420
-352.7510297049233,438
-350.1826459421999,407
-347.61497203254316,409
-345.04800779059235,402
-342.4817530309082,421
-339.91620756797226,413
-337.35137121618743,421
-334.7872437898774,413
-332.22382510328725,442
-329.66111497058273,414
-327.09911320585127,407
-324.53781962310075,415
-321.9772340362607,419
-319.4173562591816,398
-316.8581861056348,412
-314.2997233893127,411
-311.7419679238294,401
-309.1849195227194,400
-306.62857799943856,411
-304.0729431673641,441
-301.51801483979375,448
-298.963792829947,429
-296.41027695096386,442
-293.85746701590574,434
-291.3053628377552,440
-288.7539642294155,493
-286.2032710037115,443
-283.65328297338897,436
-281.1039999511146,417
-278.5554217494762,467
-276.007548180983,444
-273.4603790580651,427
-270.9139141930734,431
-268.3681533982807,441
-265.8230964858798,459
-263.27874326798565,478
-260.7350935566336,457
-258.1921471637804,482
-255.6499039013039,470
-253.10836358100266,464
-250.56752601459698,472
-248.02739101372765,498
-245.48795838995704,497
-242.94922795476816,494
-240.41119951956557,460
-237.8738728956746,487
-235.33724789434166,527
-232.80132432673452,497
-230.2661020039418,468
-227.73158073697357,485
-225.19776033676033,478
-222.66464061415422,529
-220.1322213799284,488
-217.60050244477725,491
-215.06948361931552,510
-212.53916471408013,530
-210.00954553952818,565
-207.48062590603843,539
-204.9524056239104,520
-202.4248845033651,505
-199.8980623545441,526
-197.37193898751036,558
-194.84651421224817,565
-192.32178783866232,624
-189.79775967657952,604
-187.27442953574644,586
-184.7517972258321,617
-182.2298625564256,600
-179.7086253370378,562
-177.18808537710026,551
-174.66824248596583,604
-172.14909647290835,570
-169.6306471471229,637
-167.11289431772548,634
-164.59583779375328,622
-162.07947738416453,632
-159.5638128978386,618
-157.04884414357605,634
-154.53457093009854,654
-152.02099306604828,620
-149.50811035998936,576
-146.99592262040665,556
-144.48442965570587,597
-141.97363127421409,713
-139.46352728417958,708
-136.95411749377126,732
-134.44540171107985,669
-131.93737974411636,619
-129.43005140081357,652
-126.92341648902493,732
-124.41747481652521,1004
-121.91222619101006,1137
-119.40767042009657,1246
-116.90380731132257,1314
-114.40063667214702,1298
-111.8981583099503,1101
-109.3963720320337,893
-106.89527764561933,816
-104.39487495785067,1213
-101.89516377579241,1525
-99.39614390642998,1934
-96.89781515667039,2033
-94.40017733334128,1947
-91.90323024319173,1757
-89.40697369289148,1884
-86.91140748903172,2068
-84.41653143812482,2396
-81.92234534660395,2281
-79.42884902082358,1866
-76.93604226705907,2003
-74.4439248915071,3761
-71.95249670028534,6055
-69.46175749943245,8515
-66.97170709490854,10401
-64.48234529259423,10772
-61.99367189829195,9861
-59.50568671772464,9046
-57.01838955653636,8601
-54.53178022029283,7184
-52.045858514480074,5781
-49.560624244506016,5743
-47.07607721569923,5220
-44.59221723330904,5208
-42.10904410250669,5761
-39.62655762838392,6020
-37.14475761595372,5243
-34.66364387015028,4650
-32.18321619582866,4697
-29.70347439776515,5049
-27.224418280657005,5444
-24.74604764912317,6448
-22.26836230770266,10056
-19.7913620608565,18604
-17.315046712966478,30069
-14.83941606833514,38604
-12.36446993118659,55861
-9.89020810566592,65039
-7.416630395839093,65039
-4.94373660569363,65039
-2.471526539137585,65039
-6.821210263296962E-13,65039
2.47084320796705,65039
4.941003281093458,65039
7.410480415786196,65039
9.879274808531363,65039
12.347386655893956,65039
14.814816154518212,65039
17.28156350112681,65039
19.74762889252179,65039
22.21301252558385,20246
24.67771459727237,3365
27.141735304626195,1846
29.605074844762612,1443
32.06773341487792,1438
34.52971121224755,1348
36.99100843422559,1308
39.45162527824516,1351
41.91156194181792,1240
44.370818622535126,1039
46.82939551806646,1010
49.287292826160524,995
51.74451074464503,1145
54.201049471426245,1125
56.65690920448981,954
59.112090141899785,861
61.56659248179983,845
64.02041642241159,812
66.4735621620365,745
68.92602989905402,779
71.37781983192338,818
73.82893215918205,850
76.27936707944684,883
78.72912479141326,992
81.17820549385567,901
83.62660938562783,781
86.07433666566146,788
88.5213875329681,737
90.96776218663751,636
93.41346082583925,662
95.85848364982041,676
98.30283085790859,781
100.7465026495089,799
103.18949922410604,756
105.63182078126385,731
108.07346752062438,712
110.51443964190923,706
112.95473734491827,674
115.39436082953114,703
117.83331029570547,728
120.27158594347827,688
122.7091879729652,676
125.1461165843615,656
127.58237197794062,667
130.01795435405518,637
132.4528639131364,650
134.88710085569494,680
137.32066538231982,620
139.75355769367923,595
142.1857779905207,588
144.61732647366978,592
147.04820334403132,607
149.47840880258934,630
151.90794305040674,720
154.33680628862487,817
156.76499871846443,951
159.19252054122433,1012
161.61937195828352,1104
164.04555317109896,1213
166.47106438120693,1392
168.89590579022217,1486
171.320077599839,1537
173.7435800118302,1602
176.16641322804742,1746
178.58857745042144,1785
181.01007288096173,1923
183.43089972175687,1915
185.85105817497413,1878
188.27054844285988,1899
190.6893707277394,1936
193.10752523201643,1942
195.5250121581745,1988
197.9418317087751,2012
200.3579840864594,2101
202.7734694939469,2083
205.18828813403627,2075
207.6024402096051,2224
210.01592592360964,2227
212.42874547908548,2140
214.84089907914665,2158
217.2523869269868,2195
219.66320922587727,2135
222.0733661791695,2098
224.48285799029293,2118
226.8916848627572,2175
229.29984700014882,2240
231.7073446061355,2230
234.11417788446204,2223
236.520347038953,2233
238.92585227351185,2353
241.33069379212054,2334
243.73487179884035,2403
246.1383864978112,2398
248.541238093252,2433
250.9434267894609,2411
253.34495279081432,2550
255.74581630176783,2541
258.1460175268563,2568
260.54555667069314,2510
262.9444339379703,2574
265.3426495334594,2490
267.7402036620107,2393
270.1370965285529,2430
272.53332833809407,2423
274.9288992957214,2254
277.32380960660055,2062
279.718059475976,2111
282.1116491091717,2003
284.5045787115897,2007
286.89684848871195,2108
289.2884586460981,2063
291.67940938938807,2017
294.0697009242996,2069
296.4593334566299,2047
298.84830719225477,2041
301.23662233712923,2026
303.6242790972866,1971
306.01127767884,1990
308.39761828798066,1883
310.78330113097934,1992
313.16832641418534,1927
315.5526943440269,1879
317.9364051270112,1946
320.3194589697242,1858
322.70185607883093,1850
325.0835966610754,1848
327.4646809232805,1820
329.8451090723478,1806
332.2248813152577,1762
334.6039978590701,1821
336.9824589109231,1789
339.36026467803447,1751
341.7374153677,1762
344.113911187295,1790
346.48975234427337,1750
348.8649390461686,1724
351.2394715005918,1693
353.61334991523415,1786
355.9865744978655,1689
358.35914545633375,1704
360.73106299856715,1671
363.10232733257146,1749
365.47293866643247,1756
367.84289720831396,1645
370.2122031664593,1690
372.5808567491905,1659
374.9488581649083,1661
377.31620762209275,1646
379.6829053293021,1689
382.0489514951745,1600
384.4143463284262,1603
386.7790900378528,1561
389.14318283232853,1611
391.50662492080653,1631
393.86941651231916,1642
396.23155781597745,1672
398.5930490409713,1560
400.9538903965696,1625
403.3140820921202,1599
405.6736243370498,1593
408.03251734086336,1619
410.3907613131465,1596
412.74835646356166,1587
415.10530300185144,1621
417.4616011378372,1589
419.81725108141893,1605
422.1722530425758,1618
424.5266072313656,1568
426.880313857925,1649
429.2333731324701,1623
431.58578526529516,1627
433.9375504667738,1551
436.2886689473588,1578
438.63914091758113,1513
440.9889665880513,1581
443.33814616945835,1579
445.68667987257015,1489
448.03456790823395,1544
450.3818104873759,1527
452.72840782100013,1527
455.07436012019105,1438
457.41966759611057,1503
459.7643304600007,1520
462.10834892318155,1479
464.4517231970525,1590
466.79445349309174,1496
469.1365400228566,1542
471.4779829979826,1575
473.81878263018564,1552
476.15893913125876,1534
478.4984527130747,1549
480.8373235875855,1596
483.17555196682144,1616
485.5131380628919,1587
487.8500820879857,1617
490.1863842543697,1706
492.52204477439034,1771
494.8570638604725,1947
497.1914417251204,2065
499.52517858091653,2236
501.85827464052306,2474
504.19073011668036,2540
506.5225452222086,2598
508.85372017000566,2578
511.18425517304956,2663
513.514150444396,2658
515.8434061971808,2980
518.1720226446176,3451
520.4999999999999,3503
522.8273384766991,3444
525.1540382881666,3156
527.480099647932,2848
529.8055227696037,2450
532.1303078668694,1942
534.454455153496,1807
536.777964843328,1687
539.1008371502907,1653
541.4230722883866,1573
543.744670471698,1520
546.0656319143858,1549
548.3859568306899,1553
550.7056454349294,1509
553.0246979415016,1505
555.3431145648834,1525
557.6608955196306,1492
559.978041020377,1538
562.2945512818363,1597
564.6104265188006,1531
566.9256669461412,1541
569.2402727788082,1540
571.5542442318302,1544
573.8675815203156,1565
576.1802848594508,1550
578.4923544645015,1560
580.8037905508126,1565
583.114593333807,1611
585.4247630289875,1548
587.7342998519354,1557
590.0432040183106,1601
592.3514757438526,1565
594.6591152443794,1568
596.9661227357875,1619
599.2724984340531,1606
601.578242555231,1573
603.8833553154542,1611
606.1878369309362,1565
608.4916876179676,1525
610.7949075929192,1521
613.0974970722403,1548
615.3994562724587,1557
617.7007854101818,1527
620.0014847020951,1573
622.3015543649641,1479
624.6009946156324,1572
626.8998056710224,1575
629.1979877481361,1578
631.4955410640538,1604
633.7924658359349,1599
636.0887622810175,1572
638.3844306166192,1550
640.6794710601358,1643
642.9738838290426,1662
645.2676691408932,1625
647.5608272133207,1622
649.853358264037,1624
652.1452625108324,1590
654.4365401715764,1622
656.7271914642178,1638
659.0172166067838,1624
661.3066158173809,1705
663.5953893141935,1653
665.8835373154867,1646
668.1710600396028,1647
670.4579577049639,1610
672.7442305300709,1601
675.0298787335033,1641
677.3149025339197,1684
679.599302150058,1570
681.8830778007342,1627
684.1662297048437,1610
686.4487580813608,1662
688.7306631493387,1643
691.0119451279091,1624
693.2926042362834,1577
695.5726406937516,1614
697.8520547196814,1651
700.1308465335215,1653
702.4090163547982,1628
704.6865644031171,1557
706.9634908981619,1623
709.2397960596965,1584
711.5154801075631,1633
713.7905432616823,1602
716.0649857420548,1572
718.3388077687592,1609
720.612009561953,1569
722.8845913418733,1660
725.1565533288352,1639
727.427895743234,1577
729.6986188055427,1576
731.9687227363137,1614
734.238207756178,1593
736.5070740858458,1590
738.7753219461066,1556
741.0429515578281,1625
743.3099631419569,1654
745.5763569195191,1649
747.8421331116193,1667
750.1072919394409,1622
752.3718336242467,1620
754.6357583873777,1563
756.8990664502545,1583
759.1617580343765,1622
761.423833361321,1663
763.6852926527457,1634
765.9461361303862,1594
768.206364016058,1577
770.4659765316536,1566
772.7249738991469,1668
774.9833563405886,1596
777.2411240781092,1648
779.4982773339183,1619
781.7548163303044,1660
784.010741289634,1587
786.2660524343538,1693
788.5207499869881,1634
790.7748341701416,1654
793.0283052064964,1626
795.2811633188143,1668
797.5334087299362,1636
799.7850416627813,1694
802.0360623403484,1696
804.2864709857143,1677
806.5362678220353,1611
808.7854530725468,1623
811.0340269605625,1623
813.2819897094754,1632
815.5293415427581,1685
817.77608268396,1616
820.0222133567116,1627
822.2677337847211,1675
824.5126441917765,1633
826.7569448017433,1671
829.0006358385675,1622
831.2437175262731,1680
833.4861900889629,1655
835.7280537508192,1683
837.9693087361026,1645
840.2099552691533,1555
842.4499935743896,1616
844.689423876309,1668
846.9282463994886,1694
849.1664613685833,1623
851.4040690083276,1632
853.6410695435349,1599
855.877463199097,1606
858.1132501999847,1674
860.3484307712487,1635
862.5830051380175,1646
864.8169735254988,1655
867.0503361589791,1649
869.2830932638243,1654
871.5152450654786,1654
873.7467917894654,1690
875.9777336613873,1638
878.2080709069252,1666
880.4378037518389,1710
882.666932421968,1613
884.8954571432301,1703
887.1233781416219,1772
889.3506956432192,1692
891.5774098741766,1695
893.803521060728,1660
896.0290294291852,1690
898.2539352059397,1658
900.4782386174619,1675
902.7019398903011,1724
904.925039251085,1710
907.147536926521,1724
909.3694331433943,1628
911.59072812857,1635
913.8114221089921,1566
916.0315153116827,1618
918.2510079637437,1648
920.4699002923547,1667
922.6881925247761,1619
924.905884888345,1620
927.1229776104793,1677
929.3394709186747,1609
931.555365040506,1648
933.7706602036275,1674
935.9853566357709,1596
938.1994545647489,1679
940.4129542184515,1663
942.6258558248488,1629
944.8381596119883,1642
947.0498658079974,1651
949.2609746410825,1602
951.4714863395287,1623
953.6814011316998,1665
955.8907192460387,1602
958.0994409110671,1589
960.3075663553858,1558
962.5150958076741,1643
964.7220294966913,1571
966.928367651274,1531
969.1341105003388,1611
971.3392582728806,1595
973.5438111979742,1547
975.747769504772,1561
977.9511334225061,1551
980.153903180487,1591
982.3560790081052,1525
984.5576611348289,1526
986.7586497902058,1573
988.9590452038618,1553
991.158847605503,1574
993.3580572249133,1590
995.5566742919558,1561
997.7546990365728,1507
999.952131688785,1505
1002.1489724786926,1437
1004.3452216364743,1445
1006.5408793923874,1429
1008.7359459767691,1428
1010.9304216200343,1400
1013.1243065526781,1366
1015.3176010052733,1435
1017.510305208472,1433
1019.7024193930064,1360
1021.8939437896848,1393
1024.0848786293977,1404
1026.2752241431122,1365
1028.4649805618747,1333
1030.6541481168115,1357
1032.842727039127,1332
1035.0307175601051,1410
1037.2181199111074,1362
1039.4049343235752,1282
1041.591161029029,1348
1043.7768002590683,1365
1045.9618522453698,1349
1048.1463172196918,1338
1050.3301954138697,1339
1052.513487059818,1357
1054.69619238953,1337
1056.8783116350783,1338
1059.0598450286152,1312
1061.2407928023704,1312
1063.4211551886528,1369
1065.6009324198508,1363
1067.780124728432,1304
1069.9587323469414,1369
1072.1367555080046,1292
1074.314194444325,1301
1076.4910493886855,1355
1078.667320573947,1313
1080.843008233051,1338
1083.0181125990161,1289
1085.1926339049414,1270
1087.3665723840027,1321
1089.5399282694575,1261
1091.7127017946405,1345
1093.8848931929647,1311
1096.0565026979243,1283
1098.2275305430899,1319
1100.3979769621128,1230
1102.567842188722,1271
1104.737126456726,1287
1106.9058300000124,1270
1109.0739530525475,1267
1111.2414958483764,1214
1113.4084586216231,1249
1115.5748416064907,1252
1117.7406450372605,1227
1119.9058691482942,1255
1122.0705141740304,1254
1124.2345803489884,1271
1126.3980679077658,1237
1128.5609770850388,1281
1130.7233081155623,1283
1132.8850612341707,1245
1135.0462366757774,1245
1137.2068346753745,1265
1139.3668554680326,1318
1141.526299288901,1283
1143.68516637321,1230
1145.8434569562655,1288
1148.001171273455,1232
1150.158309560244,1214
1152.3148720521767,1228
1154.470858984876,1236
1156.626270594044,1239
1158.7811071154629,1216
1160.9353687849912,1243
1163.089055838569,1209
1165.242168512213,1206
1167.3947070420209,1196
1169.5466716641677,1250
1171.6980626149075,1258
1173.8488801305748,1237
1175.9991244475814,1258
1178.1487958024186,1193
1180.2978944316555,1217
1182.4464205719428,1249
1184.5943744600072,1219
1186.7417563326567,1168
1188.8885664267755,1201
1191.0348049793297,1295
1193.1804722273619,1269
1195.325568407995,1159
1197.4700937584303,1224
1199.614048515948,1218
1201.7574329179074,1180
1203.900247201746,1236
1206.042491604982,1243
1208.1841663652099,1231
1210.3252717201053,1228
1212.465807907422,1195
1214.6057751649923,1287
1216.7451737307279,1232
1218.8840038426192,1229
1221.0222657387353,1215
1223.1599596572241,1255
1225.2970858363137,1282
1227.4336445143094,1222
1229.5696359295966,1247
1231.705060320639,1241
1233.8399179259786,1228
1235.9742089842384,1288
1238.107933734118,1257
1240.2410924143974,1273
1242.373685263935,1294
1244.5057125216676,1265
1246.6371744266116,1247
1248.7680712178621,1282
1250.898403134593,1269
1253.028170416058,1233
1255.1573733015875,1221
1257.2860120305932,1315
1259.4140868425648,1255
1261.54159797707,1270
1263.6685456737569,1221
1265.7949301723515,1296
1267.9207517126597,1316
1270.046010534565,1291
1272.1707068780306,1324
1274.2948409830983,1308
1276.4184130898889,1333
1278.541423438603,1295
1280.6638722695184,1305
1282.785759822993,1344
1284.9070863394636,1362
1287.0278520594447,1279
1289.1480572235314,1345
1291.2677020723963,1314
1293.3867868467923,1307
1295.5053117875495,1364
1297.623277135579,1343
1299.740683131868,1372
1301.8575300174857,1437
1303.973818033578,1378
1306.0895474213703,1375
1308.2047184221678,1374
1310.3193312773528,1391
1312.4333862283888,1377
1314.5468835168163,1392
1316.659823384255,1382
1318.7722060724045,1407
1320.8840318230418,1416
1322.9953008780249,1379
1325.1060134792888,1401
1327.2161698688478,1439
1329.3257702887959,1433
1331.4348149813054,1467
1333.5433041886276,1392
1335.6512381530933,1404
1337.7586171171101,1406
1339.8654413231675,1395
1341.9717110138317,1449
1344.0774264317488,1452
1346.1825878196432,1413
1348.2871954203192,1456
1350.3912494766587,1370
1352.4947502316231,1386
1354.5976979282532,1374
1356.7000928096686,1318
1358.8019351190665,1377
1360.9032250997243,1311
1363.0039629949988,1425
1365.1041490483235,1421
1367.2037835032133,1388
1369.3028666032606,1410
1371.401398592137,1315
1373.4993797135926,1418
1375.5968102114575,1396
1377.6936903296396,1348
1379.7900203121262,1367
1381.8858004029835,1381
1383.9810308463561,1436
1386.075711886469,1403
1388.1698437676241,1386
1390.2634267342032,1367
1392.356461030667,1361
1394.4489469015557,1434
1396.5408845914872,1401
1398.6322743451592,1396
1400.7231164073469,1433
1402.813411022907,1438
1404.903158436773,1424
1406.9923588939578,1451
1409.0810126395531,1432
1411.1691199187303,1481
1413.2566809767386,1423
1415.343696058907,1404
1417.4301654106425,1451
1419.5160892774315,1475
1421.6014679048399,1447
1423.6863015385125,1475
1425.7705904241707,1502
1427.8543348076178,1478
1429.9375349347342,1525
1432.0201910514802,1472
1434.102303403894,1547
1436.1838722380944,1511
1438.2648978002767,1531
1440.3453803367174,1579
1442.4253200937692,1623
1444.5047173178677,1658
1446.5835722555234,1581
1448.6618851533285,1590
1450.739656257952,1724
1452.8168858161434,1639
1454.8935740747306,1671
1456.96972128062,1741
1459.045327680797,1724
1461.120393522327,1793
1463.1949190523528,1782
1465.2689045180973,1764
1467.3423501668608,1796
1469.415256246024,1825
1471.4876230030463,1816
1473.559450685465,1900
1475.6307395408976,1894
1477.7014898170391,1924
1479.771701761665,2001
1481.8413756226287,2006
1483.9105116478618,1998
1485.9791100853772,2108
1488.0471711832643,2012
1490.1146951896926,2076
1492.1816823529098,2075
1494.2481329212433,2152
1496.3140471430984,2108
1498.3794252669609,2121
1500.4442675413939,2139
1502.5085742150404,2191
1504.572345536622,2160
1506.6355817549388,2270
1508.6982831188702,2200
1510.7604498773744,2218
1512.8220822794883,2298
1514.8831805743293,2252
1516.9437450110909,2280
1519.003775839048,2229
1521.0632733075522,2290
1523.1222376660367,2340
1525.1806691640113,2457
1527.2385680510652,2289
1529.2959345768668,2387
1531.3527689911643,2413
1533.4090715437833,2317
1535.4648424846291,2457
1537.5200820636855,2549
1539.5747905310159,2575
1541.6289681367616,2454
1543.6826151311434,2528
1545.7357317644614,2528
1547.7883182870937,2525
1549.8403749494987,2618
1551.8919020022113,2615
1553.9428996958477,2648
1555.9933682811015,2694
1558.0433080087469,2828
1560.0927191296346,2870
1562.1416018946961,2879
1564.1899565549415,2818
1566.2377833614592,2773
1568.2850825654164,2762
1570.3318544180606,2788
1572.3780991707158,2716
1574.423817074788,2636
1576.4690083817595,2570
1578.5136733431923,2516
1580.5578122107272,2352
1582.601425236085,2277
1584.6445126710646,2256
1586.6870747675434,2108
1588.7291117774776,2062
1590.7706239529034,2008
1592.8116115459347,1947
1594.8520748087658,1910
1596.8920139936686,1832
1598.9314293529933,1768
1600.9703211391711,1728
1603.008689604711,1685
1605.0465350022005,1690
1607.0838575843068,1703
1609.1206576037753,1624
1611.1569353134305,1612
1613.1926909661765,1537
1615.2279248149953,1535
1617.2626371129481,1536
1619.2968281131757,1519
1621.3304980688963,1491
1623.3636472334088,1532
1625.39627586009,1457
1627.428384202396,1436
1629.459972513861,1400
1631.4910410480993,1437
1633.5215900588028,1339
1635.551619799744,1405
1637.5811305247717,1338
1639.6101224878166,1353
1641.6385959428862,1384
1643.6665511440683,1339
1645.693988345528,1330
1647.7209078015112,1324
1649.7473097663405,1346
1651.7731944944203,1348
1653.7985622402307,1304
1655.823413258333,1306
1657.847747803366,1366
1659.8715661300494,1344
1661.8948684931793,1278
1663.9176551476316,1261
1665.9399263483624,1278
1667.9616823504057,1324
1669.982923408873,1268
1672.0036497789574,1296
1674.0238617159293,1287
1676.043559475138,1274
1678.0627433120121,1338
1680.081413482059,1273
1682.0995702408654,1329
1684.117213844096,1297
1686.134344547495,1331
1688.1509626068864,1321
1690.1670682781705,1241
1692.182661817329,1217
1694.1977434804217,1265
1696.2123135235875,1287
1698.226372203043,1361
1700.2399197750851,1308
1702.2529564960905,1297
1704.2654826225112,1308
1706.277498410882,1340
1708.2890041178139,1332
1710.2999999999988,1320
1712.3104863142066,1214
1714.3204633172854,1239
1716.329931266163,1249
1718.3388904178469,1286
1720.3473410294214,1247
1722.3552833580516,1249
1724.3627176609807,1222
1726.3696441955308,1225
1728.3760632191033,1262
1730.3819749891782,1259
1732.3873797633146,1279
1734.3922777991502,1283
1736.3966693544012,1216
1738.4005546868639,1273
1740.4039340544127,1231
1742.406807715001,1238
1744.4091759266616,1196
1746.4110389475054,1240
1748.4123970357223,1205
1750.413250449582,1243
1752.4135994474318,1215
1754.4134442876993,1152
1756.4127852288902,1212
1758.4116225295893,1218
1760.4099564484595,1254
1762.407787244244,1222
1764.405115175764,1195
1766.4019405019203,1177
1768.3982634816916,1200
1770.3940843741357,1190
1772.3894034383907,1179
1774.3842209336717,1199
1776.378537119274,1184
1778.372352254571,1238
1780.3656665990156,1217
1782.3584804121397,1211
1784.3507939535534,1181
1786.3426074829463,1205
1788.3339212600863,1176
1790.3247355448211,1167
1792.3150505970766,1236
1794.3048666768573,1242
1796.2941840442477,1187
1798.2830029594106,1173
1800.2713236825884,1201
1802.2591464741004,1194
1804.2464715943465,1212
1806.2332993038058,1218
1808.2196298630352,1195
1810.2054635326708,1130
1812.190800573428,1156
1814.175641246101,1177
1816.1599858115628,1205
1818.1438345307652,1167
1820.127187664738,1244
1822.1100454745924,1189
1824.092408221516,1197
1826.0742761667766,1177
1828.055649571721,1155
1830.0365286977735,1193
1832.0169138064398,1160
1833.9968051593014,1171
1835.9762030180214,1148
1837.9551076443408,1150
1839.9335193000788,1194
1841.9114382471344,1226
1843.888864747485,1180
1845.8657990631878,1203
1847.842241456378,1100
1849.8181921892697,1152
1851.7936515241558,1149
1853.7686197234098,1144
1855.7430970494815,1187
1857.7170837649014,1201
1859.6905801322787,1173
1861.6635864143004,1136
1863.6361028737338,1207
1865.608129773424,1127
1867.5796673762961,1181
1869.5507159453537,1212
1871.521275743678,1209
1873.4913470344313,1227
1875.4609300808534,1190
1877.4300251462632,1200
1879.3986324940588,1243
1881.366752387717,1161
1883.3343850907936,1180
1885.3015308669228,1207
1887.268189979819,1205
1889.2343626932739,1180
1891.2000492711595,1231
1893.1652499774254,1217
1895.1299650761011,1175
1897.0941948312952,1221
1899.0579395071945,1190
1901.0211993680641,1243
1902.98397467825,1232
1904.9462657021745,1227
1906.9080727043415,1231
1908.869395949332,1222
1910.8302357018065,1200
1912.790592226504,1206
1914.7504657882428,1230
1916.7098566519212,1232
1918.6687650825133,1158
1920.6271913450764,1181
1922.5851357047422,1167
1924.5425984267245,1233
1926.499579776314,1185
1928.4560800188833,1159
1930.4120994198802,1147
1932.367638244833,1205
1934.32269675935,1222
1936.2772752291175,1237
1938.231373919899,1203
1940.1849930975404,1202
1942.1381330279637,1224
1944.0907939771696,1226
1946.0429762112412,1179
1947.9946799963363,1250
1949.9459055986945,1203
1951.896653284633,1217
1953.8469233205478,1193
1955.7967159729142,1221
1957.7460315082863,1242
1959.6948701932974,1184
1961.6432322946594,1189
1963.5911180791632,1174
1965.5385278136787,1211
1967.4854617651545,1140
1969.4319202006182,1228
1971.377903387176,1169
1973.3234115920136,1202
1975.268445082395,1179
1977.2130041256642,1175
1979.1570889892423,1200
1981.1006999406304,1185
1983.04383724741,1169
1984.986501177238,1126
1986.928691997853,1145
1988.8704099770712,1199
1990.811655382789,1174
1992.7524284829801,1186
1994.692729545698,1162
1996.6325588390755,1200
1998.5719166313224,1224
2000.5108031907307,1208
2002.4492187856677,1169
2004.387163684583,1184
2006.3246381560011,1172
2008.2616424685298,1151
2010.1981768908527,1136
2012.1342416917332,1191
2014.069837140014,1151
2016.0049635046162,1152
2017.9396210545406,1143
2019.8738100588666,1167
2021.8075307867502,1115
2023.740783507431,1110
2025.6735684902228,1162
2027.6058860045214,1187
2029.5377363198004,1154
2031.4691197056118,1201
2033.4000364315875,1138
2035.3304867674374,1147
2037.260470982952,1123
2039.189989347998,1132
2041.1190421325232,1137
2043.047629606554,1175
2044.9757520401945,1154
2046.9034097036288,1175
2048.8306028671195,1139
2050.7573318010086,1142
2052.683596775716,1134
2054.609398061742,1148
2056.5347359296647,1100
2058.4596106501403,1170
2060.384022493906,1131
2062.3079717317764,1145
2064.231458634646,1200
2066.1544834734873,1177
2068.077046519352,1128
2069.99914804337,1154
2071.9207883167524,1154
2073.8419676107865,1129
2075.7626861968406,1089
2077.6829443463607,1164
2079.6027423308715,1145
2081.522080421977,1136
2083.440958891362,1138
2085.359378010786,1120
2087.2773380520907,1145
2089.194839287196,1131
2091.111881988101,1125
2093.0284664268825,1111
2094.9445928756973,1164
2096.86026160678,1128
2098.775472892446,1115
2100.690227005088,1165
2102.604524217178,1156
2104.5183648012676,1120
2106.431749029985,1184
2108.34467717604,1129
2110.2571495122206,1166
2112.169166311393,1136
2114.080727846503,1178
2115.9918343905747,1158
2117.902486216711,1148
2119.8126835980956,1106
2121.722426807987,1122
2123.6317161197285,1135
2125.5405518067364,1127
2127.448934142509,1145
2129.356863400624,1158
2131.264339854737,1159
2133.1713637785815,1116
2135.077935445972,1156
2136.9840551308002,1136
2138.889723107037,1144
2140.7949396487334,1156
2142.699705030018,1172
2144.6040195250994,1155
2146.507883408264,1099
2148.4112969538774,1135
2150.3142604363848,1159
2152.2167741303097,1128
2154.1188383102535,1170
2156.0204532508997,1140
2157.9216192270064,1131
2159.822336513414,1136
2161.7226053850413,1121
2163.622426116884,1168
2165.5217989840185,1183
2167.4207242616,1148
2169.319202224862,1175
2171.2172331491165,1177
2173.1148173097563,1181
2175.0119549822507,1125
2176.90864644215,1166
2178.8048919650823,1163
2180.7006918267534,1194
2182.596046302952,1197
2184.4909556695407,1172
2186.3854202024645,1174
2188.279440177746,1107
2190.173015871487,1144
2192.066147559868,1168
2193.958835519149,1192
2195.851080025667,1180
2197.7428813558417,1168
2199.6342397861667,1136
2201.5251555932186,1193
2203.415629053651,1178
2205.3056604441986,1170
2207.19525004167,1189
2209.084398122958,1187
2210.9731049650327,1231
2212.861370844941,1179
2214.749196039812,1211
2216.636580826851,1199
2218.523525483344,1170
2220.410030286655,1137
2222.296095514226,1227
2224.1817214435805,1162
2226.066908352319,1216
2227.951656518121,1207
2229.835966218746,1187
2231.71983773203,1239
2233.6032713358913,1191
2235.486267308324,1194
2237.3688259274036,1197
2239.2509474712824,1170
2241.132632218193,1209
2243.013880446447,1164
2244.8946924344323,1180
2246.7750684606203,1187
2248.6550088035574,1181
2250.534513741871,1192
2252.413583554265,1210
2254.292218519526,1172
2256.170418916517,1174
2258.0481850241786,1177
2259.925517121534,1177
2261.8024154876825,1150
2263.678880401803,1232
2265.5549121431536,1210
2267.430510991071,1265
2269.305677224971,1197
2271.180411124348,1172
2273.0547129687766,1191
2274.9285830379076,1227
2276.8020216114737,1200
2278.6750289692845,1195
2280.5476053912294,1167
2282.4197511572766,1257
2284.2914665474727,1244
2286.162751841943,1226
2288.0336073208937,1229
2289.904033264608,1220
2291.774029953448,1215
2293.6435976678554,1234
2295.5127366883517,1151
2297.381447295534,1203
2299.2497297700825,1141
2301.1175843927526,1216
2302.9850114443825,1135
2304.852011205885,1152
2306.7185839582553,1112
2308.5847299825664,1072
2310.4504495599676,1051
2312.3157429716925,1097
2314.1806104990483,1069
2316.0450524234247,1036
2317.9090690262888,1106
2319.772660589186,1065
2321.635827393742,1062
2323.498569721661,1111
2325.3608878547248,1079
2327.2227820747967,1090
2329.0842526638157,1083
2330.945299903803,1088
2332.805924076857,1104
2334.6661254651535,1053
2336.525904350951,1043
2338.3852610165827,1072
2340.244195744464,1062
2342.102708817088,1095
2343.9608005170253,1075
2345.8184711269287,1061
2347.675720929526,1091
2349.532550207628,1120
2351.38895924412,1111
2353.24494832197,1118
2355.100517724223,1057
2356.955667734004,1117
2358.810398634514,1090
2360.664710709037,1064
2362.5186042409337,1115
2364.3720795136437,1116
2366.225136810686,1072
2368.0777764156583,1106
2369.929998612237,1065
2371.7818036841777,1143
2373.633191915315,1101
2375.484163589562,1107
2377.3347189909114,1127
2379.184858403434,1108
2381.03458211128,1111
2382.8838903986775,1075
2384.732783549936,1083
2386.5812618494406,1141
2388.4293255816588,1079
2390.2769750311327,1110
2392.1242104824883,1102
2393.971032220427,1053
2395.8174405297295,1139
2397.6634356952563,1089
2399.509018001947,1111
2401.3541877348193,1100
2403.1989451789705,1096
2405.043290619576,1105
2406.8872243418905,1076
2408.730746631247,1120
2410.5738577730594,1086
2412.4165580528183,1087
2414.258847756095,1095
2416.100727168537,1070
2417.9421965758734,1058
2419.783256263912,1131
2421.623906518538,1105
2423.4641476257157,1113
2425.303979871491,1145
2427.143403541984,1085
2428.9824189233977,1135
2430.821026302012,1126
2432.6592259641866,1090
2434.497018196361,1124
2436.33440328505,1091
2438.171381516851,1050
2440.00795317844,1091
2441.844118556569,1066
2443.6798779380724,1051
2445.5152316098606,1091
2447.3501798589255,1122
2449.1847229723357,1112
2451.0188612372403,1125
2452.8525949408663,1153
2454.6859243705203,1084
2456.518849813587,1097
2458.3513715575314,1116
2460.183489889895,1142
2462.015205098301,1120
2463.8465174704493,1147
2465.67742729412,1120
2467.5079348571717,1065
2469.338040447542,1090
2471.1677443532476,1097
2472.9970468623833,1134
2474.825948263123,1110
2476.6544488437207,1058
2478.482548892508,1130
2480.310248697896,1062
2482.137548548374,1063
2483.9644487325118,1099
2485.790949538956,1100
2487.617051256433,1169
2489.44275417375,1118
2491.26805857979,1106
2493.0929647635157,1130
2494.917473013971,1121
2496.741583620276,1151
2498.5652968716304,1177
2500.3886130573137,1151
2502.2115324666834,1131
2504.0340553891765,1152
2505.856182114308,1165
2507.6779129316733,1153
2509.499248130945,1185
2511.3201880018764,1096
2513.140732834298,1211
2514.9608829181198,1172
2516.780638543331,1183
2518.6,1175
2520.418967578273,1193
2522.237541568376,1218
2524.0557222606144,1147
2525.8735099453706,1176
2527.6909049131086,1176
2529.507907454368,1194
2531.32451785977,1191
2533.140736420014,1243
2534.9565634258774,1246
2536.771999168218,1194
2538.5870439379714,1211
2540.4016980261526,1226
2542.2159617238544,1228
2544.02983532225,1230
2545.8433191125914,1244
2547.656413386209,1271
2549.4691184345115,1292
2551.2814345489874,1312
2553.093362021204,1309
2554.904901142808,1257
2556.716052205523,1310
2558.526815501153,1281
2560.3371913215824,1281
2562.147179958771,1317
2563.956781704761,1308
2565.7659968516705,1376
2567.5748256916986,1360
2569.3832685171224,1332
2571.1913256202984,1373
2572.9989972936614,1280
2574.806283829725,1424
2576.613185521084,1340
2578.4197026604074,1413
2580.2258355404483,1370
2582.031584454035,1413
2583.836949694077,1345
2585.6419315535613,1401
2587.4465303255533,1377
2589.2507463032002,1425
2591.0545797797245,1428
2592.8580310484303,1422
2594.6611004026995,1421
2596.463788135992,1373
2598.266094541849,1455
2600.0680199138874,1365
2601.869564545807,1402
2603.670728731383,1433
2605.4715127644704,1380
2607.2719169390048,1457
2609.071941548998,1442
2610.8715868885433,1432
2612.670853251811,1415
2614.469740933052,1371
2616.268250226594,1408
2618.0663814268455,1351
2619.864134828292,1462
2621.6615107255006,1379
2623.458509413115,1386
2625.2551311858597,1397
2627.0513763385347,1396
2628.8472451660223,1400
2630.6427379632833,1379
2632.4378550253564,1362
2634.232596647359,1369
2636.026963124488,1316
2637.8209547520187,1343
2639.6145718253065,1313
2641.407814639785,1371
2643.200683490966,1354
2644.9931786744414,1320
2646.7853004858807,1339
2648.577049221034,1291
2650.3684251757277,1241
2652.1594286458712,1315
2653.9500599274484,1304
2655.740319316525,1250
2657.5302071092437,1264
2659.3197236018286,1248
2661.10886909058,1278
2662.8976438718782,1262
2664.686048242183,1291
2666.4740824980327,1235
2668.2617469360443,1224
2670.0490418529134,1147
2671.8359675454153,1195
2673.622524310403,1134
2675.408712444811,1192
2677.1945322456495,1186
2678.979984010009,1139
2680.76506803506,1187
2682.5497846180497,1165
2684.334134056306,1109
2686.1181166472343,1142
2687.9017326883213,1118
2689.6849824771293,1131
2691.4678663113013,1117
2693.2503844885596,1132
2695.032537306705,1109
2696.8143250636167,1162
2698.5957480572542,1147
2700.3768065856534,1120
2702.1575009469316,1129
2703.937831439283,1075
2705.717798360982,1152
2707.4974020103837,1094
2709.276642685917,1122
2711.055520686095,1103
2712.834036309506,1089
2714.612189854819,1085
2716.389981620782,1097
2718.1674119062204,1135
2719.944481010041,1125
2721.721189231226,1072
2723.4975368688415,1086
2725.273524222027,1112
2727.0491515900053,1125
2728.824419272075,1099
2730.5993275676146,1051
2732.3738767760838,1081
2734.148067197016,1060
2735.921899130031,1117
2737.6953728748194,1052
2739.468488731156,1082
2741.2412469988926,1079
2743.0136479779617,1117
2744.785691968372,1115
2746.5573792702116,1062
2748.3287101836504,1092
2750.099685008934,1054
2751.870304046388,1018
2753.640567596418,1053
2755.4104759595057,1087
2757.1800294362156,1115
2758.949228327187,1068
2760.7180729331412,1102
2762.486563554877,1035
2764.254700493272,1025
2766.022484049284,1101
2767.789914523947,1058
2769.5569922183786,1124
2771.3237174337705,1084
2773.090090471394,1062
2774.8561116326036,1066
2776.6217812188274,1077
2778.3870995315756,1048
2780.1520668724356,1034
2781.9166835430747,1022
2783.6809498452394,1051
2785.444866080754,1031
2787.2084325515225,1068
2788.971649559527,1062
2790.73451740683,1051
2792.4970363955713,1030
2794.2592068279705,1068
2796.0210290063264,1073
2797.7825032330147,1079
2799.543629810493,1094
2801.304409041296,1117
2803.0648412280366,1114
2804.8249266734088,1060
2806.5846656801846,1024
2808.344058551212,1096
2810.1031055894246,1063
2811.8618070978273,1062
2813.6201633795085,1052
2815.378174737636,1057
2817.1358414754536,1038
2818.893163896285,1074
2820.6501423035334,1061
2822.4067770006814,1092
2824.1630682912883,1029
2825.9190164789957,1040
2827.6746218675207,1079
2829.429884760661,1076
2831.184805462294,1088
2832.9393842763743,1025
2834.693621506936,1071
2836.4475174580916,1031
2838.201072434034,1045
2839.954286739034,1069
2841.707160677441,1033
2843.459694553685,1089
2845.2118886722724,1080
2846.96374333779,1076
2848.7152588549034,1062
2850.4664355283567,1035
2852.217273662973,1029
2853.9677735636546,1035
2855.7179355353833,1074
2857.4677598832186,1096
2859.217246912299,1080
2860.9663969278427,1107
2862.715210235146,1027
2864.4636871395846,1093
2866.211827946614,1066
2867.9596329617652,1063
2869.7071024906536,1022
2871.4542368389684,1051
2873.20103631248,1071
2874.947501217038,1035
2876.6936318585695,1064
2878.4394285430812,1022
2880.1848915766604,1078
2881.9300212654707,1054
2883.6748179157553,1032
2885.4192818338374,1072
2887.1634133261173,1095
2888.907212699077,1060
2890.6506802592744,1014
2892.393816313348,1069
2894.1366211680142,1049
2895.8790951300693,1038
2897.621238506388,1007
2899.363051603925,1079
2901.1045347297118,1058
2902.8456881908596,1038
2904.58651229456,1039
2906.327007348081,1031
2908.067173658772,1023
2909.8070115340597,1046
2911.5465212814497,1080
2913.285703208527,1038
2915.0245576229563,1015
2916.7630848324807,1032
2918.5012851449196,1059
2920.2391588681758,1110
2921.976706310227,1020
2923.7139277791334,1088
2925.4508235830313,1025
2927.187394030137,1063
2928.923639428745,1049
2930.6595600872306,1031
2932.395156314046,1018
2934.1304284177218,1060
2935.8653767068713,1100
2937.6000014901815,1065
2939.3343030764227,1096
2941.068281774442,983
2942.8019378931644,1092
2944.5352717415976,1042
2946.2682836288236,1018
2948.0009738640065,1043
2949.7333427563885,1062
2951.465390615289,1063
2953.1971177501086,1076
2954.9285244703265,1073
2956.6596110855,1058
2958.3903779052657,1048
2960.1208252393385,1073
2961.8509533975125,1052
2963.5807626896617,1044
2965.3102534257378,1059
2967.0394259157715,1005
2968.768280469873,1027
2970.496817398232,1006
2972.2250370111146,1027
2973.952939618869,1074
2975.6805255319196,1056
2977.4077950607707,1040
2979.134748516006,1035
2980.861386208289,1034
2982.587708448359,1022
2984.313715547037,1005
2986.039407815222,1032
2987.764785563891,1029
2989.489849104102,1070
2991.2145987469908,1024
2992.9390348037705,1056
2994.6631575857346,1093
2996.3869674042576,1026
2998.1104645707887,1040
2999.83364939686,1031
3001.5565221940783,1008
3003.2790832741334,1075
3005.0013329487924,1049
3006.7232715298996,1015
3008.4448993293804,1048
3010.166216659239,1000
3011.887223831558,1036
3013.607921158498,993
3015.3283089522993,1056
3017.0483875252826,1041
3018.7681571898443,1022
3020.4876182584626,1033
3022.2067710436927,1060
3023.9256158581707,1008
3025.644153014609,1074
3027.362382825801,1029
3029.0803056046193,1042
3030.797921664012,987
3032.5152313170106,1043
3034.2322348767225,1052
3035.9489326563353,1045
3037.665324969115,1059
3039.3814121284063,1057
3041.097194447633,1056
3042.812672240299,1017
3044.5278458199855,1029
3046.2427155003525,1044
3047.9572815951406,1038
3049.671544418167,1035
3051.38550428333,1047
3053.0991615046073,1025
3054.812516396051,1057
3056.5255692717974,1036
3058.2383204460575,1025
3059.9507702331257,1045
3061.662918947372,1044
3063.3747669032446,1062
3065.0863144152736,1061
3066.7975617980674,990
3068.508509366309,1051
3070.219157434767,1024
3071.9295063182844,1000
3073.639556331785,1057
3075.3493077902704,1042
3077.058761008821,1065
3078.7679163025964,1039
3080.476773986837,1015
3082.1853343768594,1036
3083.89359778806,1054
3085.6015645359153,1091
3087.3092349359786,1053
3089.016609303884,1087
3090.7236879553434,1025
3092.4304712061476,1035
3094.136959372166,1009
3095.843152769349,1069
3097.5490517137237,1016
3099.2546565213966,1055
3100.959967508554,1036
3102.66498499146,1043
3104.3697092864577,1033
3106.0741407099695,1091
3107.778279578498,1030
3109.482126208622,1075
3111.1856809170004,1112
3112.8889440203716,1092
3114.5919158355528,1083
3116.294596679439,1022
3117.996986869006,1068
3119.6990867213062,1105
3121.4008965534726,1009
3123.102416682717,1065
3124.803647426329,1054
3126.5045891016784,1058
3128.205242026213,1076
3129.90560651746,1045
3131.605682893025,1070
3133.3054714705922,1035
3135.0049725679282,1118
3136.7041865028714,1039
3138.4031135933465,1073
3140.101754157353,1074
3141.800108512971,1016
3143.498176978357,1062
3145.1959598717494,1049
3146.8934575114636,1027
3148.5906702158954,1058
3150.2875983035183,1055
3151.9842420928853,1038
3153.680601902627,1068
3155.376678051456,1051
3157.07247085816,1007
3158.767980641609,1069
3160.463207720748,1015
3162.158152414606,1028
3163.8528150422862,1059
3165.5471959229726,1021
3167.2412953759303,1081
3168.9351137204976,1036
3170.628651276098,1022
3172.3219083622307,1026
3174.014885298474,1046
3175.707582404485,1009
3177.4000000000005,1076
3179.092138404835,1034
3180.7839979388846,1030
3182.47557892212,1005
3184.166881674594,1074
3185.8579065164386,994
3187.5486537678626,1039
3189.2391237491547,1013
3190.9293167806827,1037
3192.6192331828934,1015
3194.3088732763117,1020
3195.998237381542,1069
3197.687325819268,1040
3199.376138910251,1014
3201.064676975334,1008
3202.7529403354347,1032
3204.4409293115523,1008
3206.1286442247647,1018
3207.816085396229,1048
3209.5032531471825,1014
3211.190147798936,995
3212.8767696728846,998
3214.5631190905015,1009
3216.2491963733373,1067
3217.9350018430214,968
3219.6205358212637,1013
3221.305798629851,1018
3222.990790590651,1059
3224.6755120256103,1042
3226.359963256751,1039
3228.0441446061795,977
3229.7280563960758,1024
3231.411698948703,1006
3233.0950725863995,1009
3234.778177631587,1021
3236.461014406761,1053
3238.1435832345005,1076
3239.8258844374595,1013
3241.507918338374,1046
3243.1896852600576,1003
3244.8711855254023,1055
3246.552419457381,1058
3248.233387379042,1003
3249.914089613516,1031
3251.59452648401,1006
3253.274698313813,1052
3254.95460542629,1060
3256.6342481448855,1049
3258.313626793125,1032
3259.9927416946084,986
3261.6715931730196,988
3263.3501815521176,987
3265.0285071557437,999
3266.706570307815,963
3268.3843713323286,1011
3270.0619105533615,1022
3271.739188295068,1046
3273.4162048816834,1017
3275.0929606375184,1015
3276.769455886966,1013
3278.445690954498,1053
3280.1216661646613,1029
3281.797381842087,1018
3283.4728383114807,1057
3285.1480358976296,1034
3286.8229749253996,982
3288.4976557197333,1004
3290.172078605655,1010
3291.846243908266,1060
3293.5201519527463,969
3295.193803064357,1024
3296.8671975684374,1011
3298.5403357904024,1075
3300.21321805575,997
3301.8858446900567,1006
3303.558216018975,1019
3305.23033236824,1044
3306.9021940636603,1041
3308.57380143113,1027
3310.2451547966184,1043
3311.916254486174,1024
3313.5871008259246,1039
3315.2576941420766,1053
3316.9280347609147,1026
3318.5981230088046,1016
3320.2679592121895,981
3321.9375436975924,957
3323.606876791612,949
3325.27595882093,965
3326.944790112305,987
3328.6133709925753,1015
3330.2817017886573,959
3331.949782827547,968
3333.617614436319,989
3335.2851969421245,1034
3336.952530672199,1054
3338.619615953853,1022
3340.286453114475,1001
3341.9530424815357,1006
3343.619384382583,996
3345.2854791452437,1036
3346.951327097224,1050
3348.6169285663073,1034
3350.2822838803577,1026
3351.947393367319,1038
3353.61225735521,1045
3355.2768761721345,1058
3356.9412501462693,997
3358.605379605873,992
3360.2692648792827,1023
3361.9329062949146,1002
3363.596304181263,995
