CollectionTime,7/11/2024 1:39:34 PM
ExposureUsed,3
CalibratedSpectrum
-962.7078968117929,468
-959.9714848408522,487
-957.2358232597828,488
-954.5009119013725,488
-951.7667505983302,494
-949.0333391832855,506
-946.3006774887896,503
-943.5687653473143,507
-940.837602591253,491
-938.1071890529199,524
-935.3775245645503,497
-932.6486089583007,503
-929.9204420662485,492
-927.1930237203925,506
-924.4663537526524,527
-921.7404319948689,527
-919.0152582788041,513
-916.2908324361409,563
-913.5671542984834,524
-910.8442236973568,493
-908.1220404642074,508
-905.4006044304027,492
-902.679915427231,506
-899.959973285902,482
-897.2407778375464,469
-894.5223289132158,489
-891.8046263438832,485
-889.0876699604426,513
-886.3714595937089,480
-883.6559950744183,494
-880.9412762332282,506
-878.2273029007168,486
-875.5140749073835,475
-872.8015920836489,507
-870.0898542598545,512
-867.3788612662631,498
-864.6686129330585,503
-861.9591090903457,511
-859.2503495681506,495
-856.5423341964203,492
-853.8350628050229,502
-851.1285352237478,513
-848.4227512823054,508
-845.7177108103272,498
-843.0134136373656,519
-840.3098595928943,497
-837.6070485063082,497
-834.9049802069229,514
-832.2036545239757,510
-829.5030712866244,498
-826.8032303239481,524
-824.1041314649472,513
-821.4057745385428,505
-818.7081593735775,474
-816.0112857988148,490
-813.3151536429393,500
-810.6197627345566,504
-807.9251129021936,510
-805.2312039742981,499
-802.5380357792392,505
-799.8456081453069,521
-797.1539209007124,511
-794.462973873588,504
-791.772766891987,537
-789.083299783884,512
-786.3945723771743,515
-783.7065844996748,519
-781.0193359791231,503
-778.3328266431781,494
-775.6470563194197,512
-772.9620248353489,500
-770.2777320183878,522
-767.5941776958798,522
-764.9113616950891,531
-762.2292838432011,528
-759.5479439673222,518
-756.8673418944801,517
-754.1874774516235,517
-751.5083504656222,516
-748.8299607632671,547
-746.15230817127,492
-743.475392516264,524
-740.7992136248035,519
-738.1237713233636,522
-735.4490654383407,540
-732.7750957960521,514
-730.1018622227365,539
-727.4293645445534,517
-724.7576025875837,528
-722.0865761778291,551
-719.4162851412126,537
-716.7467293035781,539
-714.0779084906909,535
-711.409822528237,526
-708.7424712418238,515
-706.0758544569796,524
-703.4099719991541,528
-700.7448236937178,552
-698.0804093659622,564
-695.4167288411002,574
-692.7537819442656,551
-690.0915685005134,530
-687.4300883348199,545
-684.7693412720819,546
-682.1093271371178,553
-679.4500457546669,540
-676.7914969493897,548
-674.1336805458676,577
-671.4765963686034,582
-668.8202442420206,599
-666.1646239904642,577
-663.5097354382001,584
-660.8555784094151,599
-658.2021527282176,578
-655.5494582186366,584
-652.8974947046223,520
-650.2462620100463,583
-647.5957599587009,557
-644.9459883742998,565
-642.2969470804776,597
-639.6486359007902,598
-637.0010546587141,596
-634.3542031776476,590
-631.7080812809096,599
-629.0626887917401,594
-626.4180255333008,598
-623.7740913286734,561
-621.1308860008619,570
-618.4884093727904,580
-615.8466612673046,595
-613.2056415071715,569
-610.5653499150785,587
-607.9257863136347,567
-605.28695052537,596
-602.6488423727357,595
-600.0114616781036,570
-597.3748082637674,595
-594.7388819519412,564
-592.1036825647604,595
-589.4692099242818,597
-586.8354638524829,592
-584.2024441712624,629
-581.5701507024403,579
-578.9385832677575,615
-576.3077416888759,608
-573.6776257873787,608
-571.0482353847704,612
-568.4195703024757,573
-565.7916303618415,588
-563.164415384135,604
-560.5379251905453,590
-557.9121596021815,592
-555.2871184400748,621
-552.6628015251767,609
-550.0392086783606,612
-547.4163397204204,600
-544.794194472071,614
-542.1727727539491,614
-539.5520743866118,604
-536.9320991905377,658
-534.3128469861261,711
-531.6943175936979,696
-529.0765108334947,677
-526.4594265256793,676
-523.8430644903358,780
-521.2274245474689,864
-518.612506517005,891
-515.9983102187913,914
-513.3848354725959,920
-510.77208209810846,966
-508.16004991493924,1040
-505.5487387426199,1171
-502.9381484006032,1195
-500.3282787082628,1154
-497.71912948489364,1133
-495.1107005497117,1094
-492.5029917218539,963
-489.8960028203786,897
-487.28973366426493,819
-484.68418407241325,771
-482.07935386364494,776
-479.47524285670266,699
-476.87185087025,706
-474.2691777228715,752
-471.66722323307334,711
-469.0659872192821,738
-466.4654694998459,725
-463.86566989303384,774
-461.26658821703614,738
-458.66822428996414,705
-456.07057792985,744
-453.4736489546475,716
-450.877437182231,707
-448.28194243039627,716
-445.68716451686,720
-443.09310325926003,712
-440.49975847515555,755
-437.9071299820263,771
-435.31521759727354,759
-432.72402113821954,747
-430.13354042210767,781
-427.5437752661022,731
-424.95472548728867,744
-422.36639090267386,757
-419.7787713291855,806
-417.1918665836721,817
-414.60567648290385,813
-412.0202008435715,800
-409.4354394822874,831
-406.8513922155845,825
-404.26805885991723,826
-401.685439231661,779
-399.103533147112,786
-396.522340422488,793
-393.9418608739278,792
-391.3620943174908,811
-388.7830405691583,761
-386.2046994448317,713
-383.6270707603344,716
-381.05015433141045,672
-378.473949973725,657
-375.8984575028645,618
-373.32367673433623,555
-370.74960748356875,541
-368.1762495659117,527
-365.60360279663576,490
-363.03166699093265,447
-360.4604419639154,454
-357.8899275306178,447
-355.32012350599507,420
-352.7510297049233,426
-350.1826459421999,421
-347.61497203254316,411
-345.04800779059235,396
-342.4817530309082,417
-339.91620756797226,396
-337.35137121618743,400
-334.7872437898774,422
-332.22382510328725,425
-329.66111497058273,420
-327.09911320585127,402
-324.53781962310075,422
-321.9772340362607,405
-319.4173562591816,404
-316.8581861056348,407
-314.2997233893127,381
-311.7419679238294,389
-309.1849195227194,388
-306.62857799943856,398
-304.0729431673641,423
-301.51801483979375,453
-298.963792829947,454
-296.41027695096386,446
-293.85746701590574,413
-291.3053628377552,443
-288.7539642294155,462
-286.2032710037115,458
-283.65328297338897,437
-281.1039999511146,421
-278.5554217494762,437
-276.007548180983,450
-273.4603790580651,443
-270.9139141930734,431
-268.3681533982807,438
-265.8230964858798,457
-263.27874326798565,453
-260.7350935566336,448
-258.1921471637804,478
-255.6499039013039,478
-253.10836358100266,482
-250.56752601459698,487
-248.02739101372765,483
-245.48795838995704,499
-242.94922795476816,496
-240.41119951956557,463
-237.8738728956746,489
-235.33724789434166,504
-232.80132432673452,520
-230.2661020039418,485
-227.73158073697357,451
-225.19776033676033,509
-222.66464061415422,517
-220.1322213799284,511
-217.60050244477725,500
-215.06948361931552,480
-212.53916471408013,535
-210.00954553952818,531
-207.48062590603843,547
-204.9524056239104,505
-202.4248845033651,535
-199.8980623545441,544
-197.37193898751036,546
-194.84651421224817,557
-192.32178783866232,568
-189.79775967657952,596
-187.27442953574644,616
-184.7517972258321,616
-182.2298625564256,615
-179.7086253370378,583
-177.18808537710026,567
-174.66824248596583,586
-172.14909647290835,596
-169.6306471471229,599
-167.11289431772548,619
-164.59583779375328,533
-162.07947738416453,585
-159.5638128978386,626
-157.04884414357605,591
-154.53457093009854,627
-152.02099306604828,691
-149.50811035998936,576
-146.99592262040665,526
-144.48442965570587,636
-141.97363127421409,691
-139.46352728417958,741
-136.95411749377126,710
-134.44540171107985,697
-131.93737974411636,625
-129.43005140081357,648
-126.92341648902493,761
-124.41747481652521,980
-121.91222619101006,1121
-119.40767042009657,1164
-116.90380731132257,1324
-114.40063667214702,1261
-111.8981583099503,1118
-109.3963720320337,858
-106.89527764561933,827
-104.39487495785067,1108
-101.89516377579241,1524
-99.39614390642998,1832
-96.89781515667039,1905
-94.40017733334128,1839
-91.90323024319173,1712
-89.40697369289148,1892
-86.91140748903172,2128
-84.41653143812482,2465
-81.92234534660395,2213
-79.42884902082358,1723
-76.93604226705907,1994
-74.4439248915071,3817
-71.95249670028534,6045
-69.46175749943245,8274
-66.97170709490854,10306
-64.48234529259423,10380
-61.99367189829195,9497
-59.50568671772464,8616
-57.01838955653636,8315
-54.53178022029283,7371
-52.045858514480074,6486
-49.560624244506016,6223
-47.07607721569923,5853
-44.59221723330904,5720
-42.10904410250669,5842
-39.62655762838392,5524
-37.14475761595372,4900
-34.66364387015028,4298
-32.18321619582866,4501
-29.70347439776515,5115
-27.224418280657005,5533
-24.74604764912317,6837
-22.26836230770266,10393
-19.7913620608565,18440
-17.315046712966478,29524
-14.83941606833514,38229
-12.36446993118659,53445
-9.89020810566592,65039
-7.416630395839093,65039
-4.94373660569363,65039
-2.471526539137585,65039
-6.821210263296962E-13,65039
2.47084320796705,65039
4.941003281093458,65039
7.410480415786196,65039
9.879274808531363,65039
12.347386655893956,65039
14.814816154518212,65039
17.28156350112681,65039
19.74762889252179,65039
22.21301252558385,20231
24.67771459727237,3477
27.141735304626195,1864
29.605074844762612,1443
32.06773341487792,1439
34.52971121224755,1382
36.99100843422559,1434
39.45162527824516,1401
41.91156194181792,1213
44.370818622535126,997
46.82939551806646,968
49.287292826160524,1041
51.74451074464503,1179
54.201049471426245,1129
56.65690920448981,907
59.112090141899785,844
61.56659248179983,873
64.02041642241159,856
66.4735621620365,759
68.92602989905402,766
71.37781983192338,768
73.82893215918205,815
76.27936707944684,895
78.72912479141326,972
81.17820549385567,876
83.62660938562783,807
86.07433666566146,815
88.5213875329681,694
90.96776218663751,683
93.41346082583925,677
95.85848364982041,651
98.30283085790859,767
100.7465026495089,759
103.18949922410604,745
105.63182078126385,718
108.07346752062438,682
110.51443964190923,688
112.95473734491827,680
115.39436082953114,707
117.83331029570547,710
120.27158594347827,656
122.7091879729652,654
125.1461165843615,655
127.58237197794062,635
130.01795435405518,625
132.4528639131364,623
134.88710085569494,667
137.32066538231982,625
139.75355769367923,609
142.1857779905207,612
144.61732647366978,607
147.04820334403132,637
149.47840880258934,636
151.90794305040674,718
154.33680628862487,815
156.76499871846443,915
159.19252054122433,1036
161.61937195828352,1151
164.04555317109896,1241
166.47106438120693,1362
168.89590579022217,1445
171.320077599839,1488
173.7435800118302,1611
176.16641322804742,1695
178.58857745042144,1787
181.01007288096173,1857
183.43089972175687,1877
185.85105817497413,1849
188.27054844285988,1856
190.6893707277394,1930
193.10752523201643,1952
195.5250121581745,1936
197.9418317087751,1961
200.3579840864594,2043
202.7734694939469,2030
205.18828813403627,2012
207.6024402096051,2138
210.01592592360964,2031
212.42874547908548,2041
214.84089907914665,2003
217.2523869269868,2081
219.66320922587727,2058
222.0733661791695,1998
224.48285799029293,2162
226.8916848627572,2103
229.29984700014882,2166
231.7073446061355,2218
234.11417788446204,2213
236.520347038953,2215
238.92585227351185,2261
241.33069379212054,2350
243.73487179884035,2374
246.1383864978112,2358
248.541238093252,2374
250.9434267894609,2493
253.34495279081432,2493
255.74581630176783,2528
258.1460175268563,2588
260.54555667069314,2503
262.9444339379703,2496
265.3426495334594,2467
267.7402036620107,2408
270.1370965285529,2374
272.53332833809407,2272
274.9288992957214,2148
277.32380960660055,2162
279.718059475976,2069
282.1116491091717,2059
284.5045787115897,2052
286.89684848871195,2037
289.2884586460981,2011
291.67940938938807,2077
294.0697009242996,2058
296.4593334566299,2002
298.84830719225477,2044
301.23662233712923,1994
303.6242790972866,2016
306.01127767884,1932
308.39761828798066,1889
310.78330113097934,1893
313.16832641418534,1892
315.5526943440269,1831
317.9364051270112,1793
320.3194589697242,1792
322.70185607883093,1786
325.0835966610754,1821
327.4646809232805,1797
329.8451090723478,1732
332.2248813152577,1723
334.6039978590701,1770
336.9824589109231,1804
339.36026467803447,1700
341.7374153677,1766
344.113911187295,1719
346.48975234427337,1738
348.8649390461686,1699
351.2394715005918,1702
353.61334991523415,1643
355.9865744978655,1701
358.35914545633375,1659
360.73106299856715,1695
363.10232733257146,1684
365.47293866643247,1660
367.84289720831396,1634
370.2122031664593,1688
372.5808567491905,1626
374.9488581649083,1650
377.31620762209275,1605
379.6829053293021,1609
382.0489514951745,1588
384.4143463284262,1635
386.7790900378528,1573
389.14318283232853,1609
391.50662492080653,1590
393.86941651231916,1605
396.23155781597745,1578
398.5930490409713,1608
400.9538903965696,1611
403.3140820921202,1564
405.6736243370498,1591
408.03251734086336,1518
410.3907613131465,1550
412.74835646356166,1547
415.10530300185144,1517
417.4616011378372,1548
419.81725108141893,1555
422.1722530425758,1581
424.5266072313656,1580
426.880313857925,1591
429.2333731324701,1520
431.58578526529516,1540
433.9375504667738,1603
436.2886689473588,1524
438.63914091758113,1547
440.9889665880513,1571
443.33814616945835,1537
445.68667987257015,1522
448.03456790823395,1494
450.3818104873759,1489
452.72840782100013,1551
455.07436012019105,1508
457.41966759611057,1505
459.7643304600007,1509
462.10834892318155,1496
464.4517231970525,1476
466.79445349309174,1479
469.1365400228566,1474
471.4779829979826,1516
473.81878263018564,1500
476.15893913125876,1523
478.4984527130747,1555
480.8373235875855,1500
483.17555196682144,1542
485.5131380628919,1635
487.8500820879857,1639
490.1863842543697,1717
492.52204477439034,1783
494.8570638604725,1935
497.1914417251204,1982
499.52517858091653,2225
501.85827464052306,2458
504.19073011668036,2640
506.5225452222086,2654
508.85372017000566,2615
511.18425517304956,2600
513.514150444396,2600
515.8434061971808,2901
518.1720226446176,3305
520.4999999999999,3515
522.8273384766991,3323
525.1540382881666,3122
527.480099647932,2806
529.8055227696037,2344
532.1303078668694,2003
534.454455153496,1732
536.777964843328,1628
539.1008371502907,1539
541.4230722883866,1582
543.744670471698,1505
546.0656319143858,1553
548.3859568306899,1530
550.7056454349294,1495
553.0246979415016,1542
555.3431145648834,1479
557.6608955196306,1490
559.978041020377,1452
562.2945512818363,1558
564.6104265188006,1536
566.9256669461412,1488
569.2402727788082,1553
571.5542442318302,1565
573.8675815203156,1518
576.1802848594508,1560
578.4923544645015,1545
580.8037905508126,1553
583.114593333807,1606
585.4247630289875,1566
587.7342998519354,1558
590.0432040183106,1533
592.3514757438526,1507
594.6591152443794,1516
596.9661227357875,1536
599.2724984340531,1552
601.578242555231,1529
603.8833553154542,1576
606.1878369309362,1578
608.4916876179676,1543
610.7949075929192,1473
613.0974970722403,1570
615.3994562724587,1519
617.7007854101818,1555
620.0014847020951,1554
622.3015543649641,1566
624.6009946156324,1526
626.8998056710224,1552
629.1979877481361,1568
631.4955410640538,1543
633.7924658359349,1540
636.0887622810175,1577
638.3844306166192,1566
640.6794710601358,1598
642.9738838290426,1595
645.2676691408932,1564
647.5608272133207,1604
649.853358264037,1582
652.1452625108324,1590
654.4365401715764,1606
656.7271914642178,1659
659.0172166067838,1558
661.3066158173809,1597
663.5953893141935,1595
665.8835373154867,1582
668.1710600396028,1654
670.4579577049639,1648
672.7442305300709,1621
675.0298787335033,1663
677.3149025339197,1626
679.599302150058,1562
681.8830778007342,1550
684.1662297048437,1618
686.4487580813608,1593
688.7306631493387,1614
691.0119451279091,1579
693.2926042362834,1537
695.5726406937516,1585
697.8520547196814,1628
700.1308465335215,1633
702.4090163547982,1568
704.6865644031171,1554
706.9634908981619,1572
709.2397960596965,1645
711.5154801075631,1504
713.7905432616823,1650
716.0649857420548,1599
718.3388077687592,1560
720.612009561953,1604
722.8845913418733,1597
725.1565533288352,1583
727.427895743234,1581
729.6986188055427,1570
731.9687227363137,1599
734.238207756178,1584
736.5070740858458,1585
738.7753219461066,1601
741.0429515578281,1602
743.3099631419569,1553
745.5763569195191,1632
747.8421331116193,1629
750.1072919394409,1603
752.3718336242467,1602
754.6357583873777,1574
756.8990664502545,1602
759.1617580343765,1592
761.423833361321,1623
763.6852926527457,1529
765.9461361303862,1633
768.206364016058,1594
770.4659765316536,1567
772.7249738991469,1568
774.9833563405886,1655
777.2411240781092,1601
779.4982773339183,1597
781.7548163303044,1625
784.010741289634,1569
786.2660524343538,1632
788.5207499869881,1733
790.7748341701416,1634
793.0283052064964,1596
795.2811633188143,1540
797.5334087299362,1605
799.7850416627813,1610
802.0360623403484,1628
804.2864709857143,1569
806.5362678220353,1577
808.7854530725468,1577
811.0340269605625,1609
813.2819897094754,1689
815.5293415427581,1610
817.77608268396,1651
820.0222133567116,1600
822.2677337847211,1658
824.5126441917765,1605
826.7569448017433,1639
829.0006358385675,1631
831.2437175262731,1660
833.4861900889629,1664
835.7280537508192,1589
837.9693087361026,1560
840.2099552691533,1582
842.4499935743896,1661
844.689423876309,1597
846.9282463994886,1640
849.1664613685833,1600
851.4040690083276,1557
853.6410695435349,1634
855.877463199097,1623
858.1132501999847,1614
860.3484307712487,1583
862.5830051380175,1627
864.8169735254988,1617
867.0503361589791,1655
869.2830932638243,1615
871.5152450654786,1555
873.7467917894654,1643
875.9777336613873,1611
878.2080709069252,1587
880.4378037518389,1623
882.666932421968,1635
884.8954571432301,1719
887.1233781416219,1636
889.3506956432192,1641
891.5774098741766,1654
893.803521060728,1621
896.0290294291852,1604
898.2539352059397,1656
900.4782386174619,1636
902.7019398903011,1655
904.925039251085,1679
907.147536926521,1663
909.3694331433943,1700
911.59072812857,1651
913.8114221089921,1693
916.0315153116827,1663
918.2510079637437,1641
920.4699002923547,1727
922.6881925247761,1662
924.905884888345,1561
927.1229776104793,1624
929.3394709186747,1620
931.555365040506,1553
933.7706602036275,1593
935.9853566357709,1632
938.1994545647489,1607
940.4129542184515,1629
942.6258558248488,1709
944.8381596119883,1613
947.0498658079974,1589
949.2609746410825,1593
951.4714863395287,1539
953.6814011316998,1574
955.8907192460387,1620
958.0994409110671,1634
960.3075663553858,1587
962.5150958076741,1589
964.7220294966913,1588
966.928367651274,1563
969.1341105003388,1595
971.3392582728806,1555
973.5438111979742,1579
975.747769504772,1548
977.9511334225061,1535
980.153903180487,1515
982.3560790081052,1502
984.5576611348289,1537
986.7586497902058,1512
988.9590452038618,1448
991.158847605503,1491
993.3580572249133,1441
995.5566742919558,1499
997.7546990365728,1452
999.952131688785,1490
1002.1489724786926,1431
1004.3452216364743,1364
1006.5408793923874,1395
1008.7359459767691,1407
1010.9304216200343,1443
1013.1243065526781,1353
1015.3176010052733,1416
1017.510305208472,1410
1019.7024193930064,1365
1021.8939437896848,1357
1024.0848786293977,1382
1026.2752241431122,1330
1028.4649805618747,1380
1030.6541481168115,1360
1032.842727039127,1362
1035.0307175601051,1289
1037.2181199111074,1349
1039.4049343235752,1383
1041.591161029029,1334
1043.7768002590683,1343
1045.9618522453698,1317
1048.1463172196918,1320
1050.3301954138697,1361
1052.513487059818,1317
1054.69619238953,1322
1056.8783116350783,1373
1059.0598450286152,1354
1061.2407928023704,1338
1063.4211551886528,1286
1065.6009324198508,1294
1067.780124728432,1333
1069.9587323469414,1343
1072.1367555080046,1318
1074.314194444325,1286
1076.4910493886855,1294
1078.667320573947,1311
1080.843008233051,1242
1083.0181125990161,1277
1085.1926339049414,1315
1087.3665723840027,1310
1089.5399282694575,1302
1091.7127017946405,1312
1093.8848931929647,1253
1096.0565026979243,1327
1098.2275305430899,1305
1100.3979769621128,1272
1102.567842188722,1248
1104.737126456726,1260
1106.9058300000124,1255
1109.0739530525475,1296
1111.2414958483764,1226
1113.4084586216231,1233
1115.5748416064907,1288
1117.7406450372605,1246
1119.9058691482942,1188
1122.0705141740304,1247
1124.2345803489884,1249
1126.3980679077658,1298
1128.5609770850388,1275
1130.7233081155623,1237
1132.8850612341707,1190
1135.0462366757774,1268
1137.2068346753745,1211
1139.3668554680326,1227
1141.526299288901,1251
1143.68516637321,1246
1145.8434569562655,1259
1148.001171273455,1160
1150.158309560244,1248
1152.3148720521767,1199
1154.470858984876,1185
1156.626270594044,1208
1158.7811071154629,1261
1160.9353687849912,1214
1163.089055838569,1213
1165.242168512213,1193
1167.3947070420209,1193
1169.5466716641677,1248
1171.6980626149075,1210
1173.8488801305748,1221
1175.9991244475814,1191
1178.1487958024186,1218
1180.2978944316555,1173
1182.4464205719428,1198
1184.5943744600072,1223
1186.7417563326567,1199
1188.8885664267755,1228
1191.0348049793297,1209
1193.1804722273619,1186
1195.325568407995,1236
1197.4700937584303,1172
1199.614048515948,1205
1201.7574329179074,1204
1203.900247201746,1208
1206.042491604982,1275
1208.1841663652099,1253
1210.3252717201053,1218
1212.465807907422,1206
1214.6057751649923,1257
1216.7451737307279,1218
1218.8840038426192,1237
1221.0222657387353,1235
1223.1599596572241,1242
1225.2970858363137,1245
1227.4336445143094,1262
1229.5696359295966,1236
1231.705060320639,1203
1233.8399179259786,1271
1235.9742089842384,1274
1238.107933734118,1255
1240.2410924143974,1321
1242.373685263935,1300
1244.5057125216676,1270
1246.6371744266116,1260
1248.7680712178621,1272
1250.898403134593,1283
1253.028170416058,1291
1255.1573733015875,1308
1257.2860120305932,1259
1259.4140868425648,1273
1261.54159797707,1283
1263.6685456737569,1298
1265.7949301723515,1292
1267.9207517126597,1282
1270.046010534565,1315
1272.1707068780306,1295
1274.2948409830983,1296
1276.4184130898889,1307
1278.541423438603,1334
1280.6638722695184,1278
1282.785759822993,1317
1284.9070863394636,1340
1287.0278520594447,1318
1289.1480572235314,1301
1291.2677020723963,1379
1293.3867868467923,1348
1295.5053117875495,1327
1297.623277135579,1351
1299.740683131868,1343
1301.8575300174857,1341
1303.973818033578,1400
1306.0895474213703,1432
1308.2047184221678,1394
1310.3193312773528,1369
1312.4333862283888,1420
1314.5468835168163,1398
1316.659823384255,1409
1318.7722060724045,1402
1320.8840318230418,1445
1322.9953008780249,1376
1325.1060134792888,1419
1327.2161698688478,1450
1329.3257702887959,1392
1331.4348149813054,1456
1333.5433041886276,1415
1335.6512381530933,1359
1337.7586171171101,1375
1339.8654413231675,1459
1341.9717110138317,1432
1344.0774264317488,1408
1346.1825878196432,1393
1348.2871954203192,1341
1350.3912494766587,1362
1352.4947502316231,1376
1354.5976979282532,1372
1356.7000928096686,1348
1358.8019351190665,1338
1360.9032250997243,1417
1363.0039629949988,1397
1365.1041490483235,1370
1367.2037835032133,1390
1369.3028666032606,1331
1371.401398592137,1393
1373.4993797135926,1377
1375.5968102114575,1358
1377.6936903296396,1325
1379.7900203121262,1353
1381.8858004029835,1388
1383.9810308463561,1401
1386.075711886469,1416
1388.1698437676241,1408
1390.2634267342032,1345
1392.356461030667,1365
1394.4489469015557,1448
1396.5408845914872,1436
1398.6322743451592,1423
1400.7231164073469,1370
1402.813411022907,1452
1404.903158436773,1428
1406.9923588939578,1433
1409.0810126395531,1444
1411.1691199187303,1440
1413.2566809767386,1471
1415.343696058907,1416
1417.4301654106425,1429
1419.5160892774315,1468
1421.6014679048399,1471
1423.6863015385125,1494
1425.7705904241707,1525
1427.8543348076178,1448
1429.9375349347342,1425
1432.0201910514802,1456
1434.102303403894,1499
1436.1838722380944,1534
1438.2648978002767,1586
1440.3453803367174,1493
1442.4253200937692,1580
1444.5047173178677,1593
1446.5835722555234,1643
1448.6618851533285,1625
1450.739656257952,1630
1452.8168858161434,1654
1454.8935740747306,1674
1456.96972128062,1664
1459.045327680797,1731
1461.120393522327,1715
1463.1949190523528,1767
1465.2689045180973,1730
1467.3423501668608,1829
1469.415256246024,1853
1471.4876230030463,1883
1473.559450685465,1860
1475.6307395408976,1947
1477.7014898170391,1907
1479.771701761665,1953
1481.8413756226287,2021
1483.9105116478618,1979
1485.9791100853772,2018
1488.0471711832643,2077
1490.1146951896926,2059
1492.1816823529098,2097
1494.2481329212433,2120
1496.3140471430984,2187
1498.3794252669609,2157
1500.4442675413939,2172
1502.5085742150404,2195
1504.572345536622,2298
1506.6355817549388,2292
1508.6982831188702,2204
1510.7604498773744,2243
1512.8220822794883,2232
1514.8831805743293,2252
1516.9437450110909,2252
1519.003775839048,2321
1521.0632733075522,2296
1523.1222376660367,2347
1525.1806691640113,2312
1527.2385680510652,2334
1529.2959345768668,2386
1531.3527689911643,2382
1533.4090715437833,2430
1535.4648424846291,2433
1537.5200820636855,2392
1539.5747905310159,2501
1541.6289681367616,2413
1543.6826151311434,2538
1545.7357317644614,2494
1547.7883182870937,2631
1549.8403749494987,2558
1551.8919020022113,2653
1553.9428996958477,2677
1555.9933682811015,2679
1558.0433080087469,2815
1560.0927191296346,2818
1562.1416018946961,2829
1564.1899565549415,2910
1566.2377833614592,2958
1568.2850825654164,2915
1570.3318544180606,2806
1572.3780991707158,2831
1574.423817074788,2724
1576.4690083817595,2720
1578.5136733431923,2432
1580.5578122107272,2426
1582.601425236085,2371
1584.6445126710646,2242
1586.6870747675434,2228
1588.7291117774776,2101
1590.7706239529034,2010
1592.8116115459347,1957
1594.8520748087658,1990
1596.8920139936686,1939
1598.9314293529933,1792
1600.9703211391711,1768
1603.008689604711,1698
1605.0465350022005,1656
1607.0838575843068,1594
1609.1206576037753,1666
1611.1569353134305,1554
1613.1926909661765,1565
1615.2279248149953,1520
1617.2626371129481,1506
1619.2968281131757,1462
1621.3304980688963,1421
1623.3636472334088,1510
1625.39627586009,1478
1627.428384202396,1466
1629.459972513861,1437
1631.4910410480993,1412
1633.5215900588028,1419
1635.551619799744,1367
1637.5811305247717,1365
1639.6101224878166,1364
1641.6385959428862,1345
1643.6665511440683,1349
1645.693988345528,1302
1647.7209078015112,1349
1649.7473097663405,1275
1651.7731944944203,1276
1653.7985622402307,1305
1655.823413258333,1277
1657.847747803366,1246
1659.8715661300494,1288
1661.8948684931793,1303
1663.9176551476316,1319
1665.9399263483624,1278
1667.9616823504057,1316
1669.982923408873,1257
1672.0036497789574,1321
1674.0238617159293,1237
1676.043559475138,1251
1678.0627433120121,1299
1680.081413482059,1283
1682.0995702408654,1279
1684.117213844096,1341
1686.134344547495,1255
1688.1509626068864,1243
1690.1670682781705,1277
1692.182661817329,1291
1694.1977434804217,1286
1696.2123135235875,1262
1698.226372203043,1276
1700.2399197750851,1276
1702.2529564960905,1290
1704.2654826225112,1293
1706.277498410882,1209
1708.2890041178139,1240
1710.2999999999988,1309
1712.3104863142066,1289
1714.3204633172854,1271
1716.329931266163,1226
1718.3388904178469,1260
1720.3473410294214,1237
1722.3552833580516,1248
1724.3627176609807,1171
1726.3696441955308,1249
1728.3760632191033,1234
1730.3819749891782,1173
1732.3873797633146,1250
1734.3922777991502,1232
1736.3966693544012,1191
1738.4005546868639,1243
1740.4039340544127,1234
1742.406807715001,1215
1744.4091759266616,1193
1746.4110389475054,1177
1748.4123970357223,1234
1750.413250449582,1201
1752.4135994474318,1181
1754.4134442876993,1219
1756.4127852288902,1198
1758.4116225295893,1234
1760.4099564484595,1190
1762.407787244244,1192
1764.405115175764,1172
1766.4019405019203,1204
1768.3982634816916,1188
1770.3940843741357,1233
1772.3894034383907,1135
1774.3842209336717,1186
1776.378537119274,1183
1778.372352254571,1197
1780.3656665990156,1127
1782.3584804121397,1187
1784.3507939535534,1172
1786.3426074829463,1155
1788.3339212600863,1207
1790.3247355448211,1222
1792.3150505970766,1187
1794.3048666768573,1210
1796.2941840442477,1178
1798.2830029594106,1162
1800.2713236825884,1139
1802.2591464741004,1155
1804.2464715943465,1143
1806.2332993038058,1164
1808.2196298630352,1150
1810.2054635326708,1155
1812.190800573428,1168
1814.175641246101,1108
1816.1599858115628,1195
1818.1438345307652,1196
1820.127187664738,1142
1822.1100454745924,1167
1824.092408221516,1132
1826.0742761667766,1170
1828.055649571721,1179
1830.0365286977735,1203
1832.0169138064398,1160
1833.9968051593014,1177
1835.9762030180214,1123
1837.9551076443408,1166
1839.9335193000788,1133
1841.9114382471344,1146
1843.888864747485,1173
1845.8657990631878,1189
1847.842241456378,1157
1849.8181921892697,1121
1851.7936515241558,1169
1853.7686197234098,1171
1855.7430970494815,1114
1857.7170837649014,1141
1859.6905801322787,1162
1861.6635864143004,1186
1863.6361028737338,1196
1865.608129773424,1209
1867.5796673762961,1161
1869.5507159453537,1132
1871.521275743678,1185
1873.4913470344313,1190
1875.4609300808534,1139
1877.4300251462632,1178
1879.3986324940588,1230
1881.366752387717,1261
1883.3343850907936,1145
1885.3015308669228,1160
1887.268189979819,1178
1889.2343626932739,1200
1891.2000492711595,1207
1893.1652499774254,1198
1895.1299650761011,1257
1897.0941948312952,1229
1899.0579395071945,1182
1901.0211993680641,1160
1902.98397467825,1211
1904.9462657021745,1195
1906.9080727043415,1232
1908.869395949332,1228
1910.8302357018065,1243
1912.790592226504,1215
1914.7504657882428,1173
1916.7098566519212,1179
1918.6687650825133,1238
1920.6271913450764,1227
1922.5851357047422,1206
1924.5425984267245,1196
1926.499579776314,1154
1928.4560800188833,1206
1930.4120994198802,1184
1932.367638244833,1220
1934.32269675935,1237
1936.2772752291175,1188
1938.231373919899,1153
1940.1849930975404,1151
1942.1381330279637,1191
1944.0907939771696,1236
1946.0429762112412,1174
1947.9946799963363,1148
1949.9459055986945,1214
1951.896653284633,1170
1953.8469233205478,1204
1955.7967159729142,1224
1957.7460315082863,1156
1959.6948701932974,1221
1961.6432322946594,1194
1963.5911180791632,1158
1965.5385278136787,1165
1967.4854617651545,1157
1969.4319202006182,1167
1971.377903387176,1206
1973.3234115920136,1164
1975.268445082395,1130
1977.2130041256642,1181
1979.1570889892423,1163
1981.1006999406304,1177
1983.04383724741,1153
1984.986501177238,1136
1986.928691997853,1158
1988.8704099770712,1179
1990.811655382789,1138
1992.7524284829801,1131
1994.692729545698,1174
1996.6325588390755,1151
1998.5719166313224,1191
2000.5108031907307,1150
2002.4492187856677,1141
2004.387163684583,1096
2006.3246381560011,1160
2008.2616424685298,1199
2010.1981768908527,1141
2012.1342416917332,1149
2014.069837140014,1166
2016.0049635046162,1133
2017.9396210545406,1179
2019.8738100588666,1132
2021.8075307867502,1176
2023.740783507431,1133
2025.6735684902228,1145
2027.6058860045214,1148
2029.5377363198004,1229
2031.4691197056118,1140
2033.4000364315875,1121
2035.3304867674374,1115
2037.260470982952,1112
2039.189989347998,1090
2041.1190421325232,1112
2043.047629606554,1128
2044.9757520401945,1135
2046.9034097036288,1122
2048.8306028671195,1117
2050.7573318010086,1123
2052.683596775716,1171
2054.609398061742,1109
2056.5347359296647,1099
2058.4596106501403,1185
2060.384022493906,1121
2062.3079717317764,1118
2064.231458634646,1117
2066.1544834734873,1142
2068.077046519352,1152
2069.99914804337,1131
2071.9207883167524,1110
2073.8419676107865,1152
2075.7626861968406,1104
2077.6829443463607,1117
2079.6027423308715,1179
2081.522080421977,1125
2083.440958891362,1105
2085.359378010786,1159
2087.2773380520907,1131
2089.194839287196,1102
2091.111881988101,1121
2093.0284664268825,1100
2094.9445928756973,1122
2096.86026160678,1155
2098.775472892446,1100
2100.690227005088,1151
2102.604524217178,1100
2104.5183648012676,1154
2106.431749029985,1141
2108.34467717604,1133
2110.2571495122206,1136
2112.169166311393,1139
2114.080727846503,1113
2115.9918343905747,1116
2117.902486216711,1183
2119.8126835980956,1138
2121.722426807987,1136
2123.6317161197285,1120
2125.5405518067364,1183
2127.448934142509,1162
2129.356863400624,1156
2131.264339854737,1149
2133.1713637785815,1153
2135.077935445972,1144
2136.9840551308002,1106
2138.889723107037,1174
2140.7949396487334,1124
2142.699705030018,1131
2144.6040195250994,1078
2146.507883408264,1167
2148.4112969538774,1138
2150.3142604363848,1111
2152.2167741303097,1133
2154.1188383102535,1131
2156.0204532508997,1128
2157.9216192270064,1163
2159.822336513414,1196
2161.7226053850413,1150
2163.622426116884,1173
2165.5217989840185,1150
2167.4207242616,1177
2169.319202224862,1183
2171.2172331491165,1114
2173.1148173097563,1158
2175.0119549822507,1160
2176.90864644215,1122
2178.8048919650823,1134
2180.7006918267534,1174
2182.596046302952,1179
2184.4909556695407,1158
2186.3854202024645,1156
2188.279440177746,1132
2190.173015871487,1135
2192.066147559868,1111
2193.958835519149,1122
2195.851080025667,1184
2197.7428813558417,1139
2199.6342397861667,1136
2201.5251555932186,1162
2203.415629053651,1190
2205.3056604441986,1172
2207.19525004167,1164
2209.084398122958,1254
2210.9731049650327,1115
2212.861370844941,1228
2214.749196039812,1151
2216.636580826851,1188
2218.523525483344,1155
2220.410030286655,1159
2222.296095514226,1172
2224.1817214435805,1202
2226.066908352319,1181
2227.951656518121,1143
2229.835966218746,1194
2231.71983773203,1188
2233.6032713358913,1220
2235.486267308324,1236
2237.3688259274036,1224
2239.2509474712824,1173
2241.132632218193,1184
2243.013880446447,1204
2244.8946924344323,1177
2246.7750684606203,1159
2248.6550088035574,1208
2250.534513741871,1224
2252.413583554265,1146
2254.292218519526,1193
2256.170418916517,1196
2258.0481850241786,1171
2259.925517121534,1163
2261.8024154876825,1205
2263.678880401803,1205
2265.5549121431536,1193
2267.430510991071,1198
2269.305677224971,1198
2271.180411124348,1231
2273.0547129687766,1212
2274.9285830379076,1165
2276.8020216114737,1162
2278.6750289692845,1235
2280.5476053912294,1224
2282.4197511572766,1227
2284.2914665474727,1227
2286.162751841943,1217
2288.0336073208937,1249
2289.904033264608,1214
2291.774029953448,1223
2293.6435976678554,1234
2295.5127366883517,1176
2297.381447295534,1130
2299.2497297700825,1159
2301.1175843927526,1169
2302.9850114443825,1066
2304.852011205885,1093
2306.7185839582553,1070
2308.5847299825664,1065
2310.4504495599676,1074
2312.3157429716925,1077
2314.1806104990483,1089
2316.0450524234247,1086
2317.9090690262888,1031
2319.772660589186,1059
2321.635827393742,1067
2323.498569721661,1092
2325.3608878547248,1091
2327.2227820747967,1039
2329.0842526638157,1025
2330.945299903803,1056
2332.805924076857,1054
2334.6661254651535,1067
2336.525904350951,1011
2338.3852610165827,1058
2340.244195744464,1097
2342.102708817088,1074
2343.9608005170253,1061
2345.8184711269287,1063
2347.675720929526,1047
2349.532550207628,1003
2351.38895924412,1045
2353.24494832197,1090
2355.100517724223,1058
2356.955667734004,1094
2358.810398634514,1043
2360.664710709037,1087
2362.5186042409337,1078
2364.3720795136437,1068
2366.225136810686,1100
2368.0777764156583,1091
2369.929998612237,1076
2371.7818036841777,1126
2373.633191915315,1068
2375.484163589562,1119
2377.3347189909114,1093
2379.184858403434,1104
2381.03458211128,1070
2382.8838903986775,1135
2384.732783549936,1085
2386.5812618494406,1091
2388.4293255816588,1102
2390.2769750311327,1087
2392.1242104824883,1120
2393.971032220427,1064
2395.8174405297295,1062
2397.6634356952563,1064
2399.509018001947,1079
2401.3541877348193,1093
2403.1989451789705,1155
2405.043290619576,1101
2406.8872243418905,1104
2408.730746631247,1118
2410.5738577730594,1138
2412.4165580528183,1086
2414.258847756095,1112
2416.100727168537,1085
2417.9421965758734,1090
2419.783256263912,1052
2421.623906518538,1054
2423.4641476257157,1116
2425.303979871491,1050
2427.143403541984,1135
2428.9824189233977,1084
2430.821026302012,1112
2432.6592259641866,1102
2434.497018196361,1067
2436.33440328505,1048
2438.171381516851,1113
2440.00795317844,1117
2441.844118556569,1108
2443.6798779380724,1156
2445.5152316098606,1097
2447.3501798589255,1069
2449.1847229723357,1095
2451.0188612372403,1109
2452.8525949408663,1069
2454.6859243705203,1047
2456.518849813587,1106
2458.3513715575314,1065
2460.183489889895,1088
2462.015205098301,1094
2463.8465174704493,1136
2465.67742729412,1089
2467.5079348571717,1140
2469.338040447542,1121
2471.1677443532476,1091
2472.9970468623833,1188
2474.825948263123,1127
2476.6544488437207,1152
2478.482548892508,1115
2480.310248697896,1123
2482.137548548374,1108
2483.9644487325118,1146
2485.790949538956,1186
2487.617051256433,1114
2489.44275417375,1144
2491.26805857979,1095
2493.0929647635157,1148
2494.917473013971,1091
2496.741583620276,1143
2498.5652968716304,1147
2500.3886130573137,1137
2502.2115324666834,1145
2504.0340553891765,1123
2505.856182114308,1085
2507.6779129316733,1153
2509.499248130945,1128
2511.3201880018764,1128
2513.140732834298,1122
2514.9608829181198,1141
2516.780638543331,1113
2518.6,1215
2520.418967578273,1158
2522.237541568376,1113
2524.0557222606144,1139
2525.8735099453706,1159
2527.6909049131086,1203
2529.507907454368,1187
2531.32451785977,1184
2533.140736420014,1181
2534.9565634258774,1215
2536.771999168218,1208
2538.5870439379714,1207
2540.4016980261526,1222
2542.2159617238544,1244
2544.02983532225,1237
2545.8433191125914,1235
2547.656413386209,1261
2549.4691184345115,1250
2551.2814345489874,1322
2553.093362021204,1271
2554.904901142808,1248
2556.716052205523,1320
2558.526815501153,1332
2560.3371913215824,1313
2562.147179958771,1306
2563.956781704761,1369
2565.7659968516705,1352
2567.5748256916986,1297
2569.3832685171224,1306
2571.1913256202984,1333
2572.9989972936614,1342
2574.806283829725,1362
2576.613185521084,1390
2578.4197026604074,1422
2580.2258355404483,1360
2582.031584454035,1366
2583.836949694077,1397
2585.6419315535613,1382
2587.4465303255533,1376
2589.2507463032002,1384
2591.0545797797245,1384
2592.8580310484303,1418
2594.6611004026995,1395
2596.463788135992,1448
2598.266094541849,1361
2600.0680199138874,1379
2601.869564545807,1369
2603.670728731383,1438
2605.4715127644704,1378
2607.2719169390048,1404
2609.071941548998,1343
2610.8715868885433,1464
2612.670853251811,1428
2614.469740933052,1341
2616.268250226594,1377
2618.0663814268455,1413
2619.864134828292,1382
2621.6615107255006,1355
2623.458509413115,1363
2625.2551311858597,1408
2627.0513763385347,1355
2628.8472451660223,1341
2630.6427379632833,1333
2632.4378550253564,1345
2634.232596647359,1336
2636.026963124488,1304
2637.8209547520187,1325
2639.6145718253065,1328
2641.407814639785,1304
2643.200683490966,1308
2644.9931786744414,1303
2646.7853004858807,1282
2648.577049221034,1298
2650.3684251757277,1246
2652.1594286458712,1252
2653.9500599274484,1254
2655.740319316525,1229
2657.5302071092437,1199
2659.3197236018286,1193
2661.10886909058,1155
2662.8976438718782,1185
2664.686048242183,1174
2666.4740824980327,1244
2668.2617469360443,1205
2670.0490418529134,1193
2671.8359675454153,1179
2673.622524310403,1174
2675.408712444811,1133
2677.1945322456495,1115
2678.979984010009,1152
2680.76506803506,1152
2682.5497846180497,1221
2684.334134056306,1200
2686.1181166472343,1197
2687.9017326883213,1180
2689.6849824771293,1131
2691.4678663113013,1167
2693.2503844885596,1141
2695.032537306705,1136
2696.8143250636167,1172
2698.5957480572542,1171
2700.3768065856534,1082
2702.1575009469316,1107
2703.937831439283,1121
2705.717798360982,1103
2707.4974020103837,1096
2709.276642685917,1072
2711.055520686095,1115
2712.834036309506,1103
2714.612189854819,1096
2716.389981620782,1096
2718.1674119062204,1086
2719.944481010041,1043
2721.721189231226,1041
2723.4975368688415,1117
2725.273524222027,1064
2727.0491515900053,1057
2728.824419272075,1105
2730.5993275676146,1092
2732.3738767760838,1075
2734.148067197016,1064
2735.921899130031,1104
2737.6953728748194,1034
2739.468488731156,1099
2741.2412469988926,1067
2743.0136479779617,1039
2744.785691968372,1021
2746.5573792702116,1012
2748.3287101836504,1044
2750.099685008934,1016
2751.870304046388,1066
2753.640567596418,1046
2755.4104759595057,1048
2757.1800294362156,1006
2758.949228327187,1000
2760.7180729331412,1080
2762.486563554877,1057
2764.254700493272,1070
2766.022484049284,1059
2767.789914523947,1042
2769.5569922183786,1047
2771.3237174337705,1039
2773.090090471394,1056
2774.8561116326036,1045
2776.6217812188274,1021
2778.3870995315756,1051
2780.1520668724356,1061
2781.9166835430747,1057
2783.6809498452394,1041
2785.444866080754,1118
2787.2084325515225,1047
2788.971649559527,1033
2790.73451740683,1036
2792.4970363955713,1011
2794.2592068279705,1075
2796.0210290063264,1048
2797.7825032330147,1028
2799.543629810493,999
2801.304409041296,1037
2803.0648412280366,1021
2804.8249266734088,1060
2806.5846656801846,1021
2808.344058551212,1053
2810.1031055894246,1034
2811.8618070978273,1104
2813.6201633795085,1075
2815.378174737636,1063
2817.1358414754536,1075
2818.893163896285,1053
2820.6501423035334,1054
2822.4067770006814,1049
2824.1630682912883,1066
2825.9190164789957,1052
2827.6746218675207,1051
2829.429884760661,1004
2831.184805462294,1034
2832.9393842763743,1040
2834.693621506936,1034
2836.4475174580916,1021
2838.201072434034,1025
2839.954286739034,1024
2841.707160677441,1063
2843.459694553685,1048
2845.2118886722724,1016
2846.96374333779,1042
2848.7152588549034,1065
2850.4664355283567,1044
2852.217273662973,1059
2853.9677735636546,1046
2855.7179355353833,1020
2857.4677598832186,1033
2859.217246912299,1093
2860.9663969278427,1062
2862.715210235146,1107
2864.4636871395846,1056
2866.211827946614,1044
2867.9596329617652,1082
2869.7071024906536,1028
2871.4542368389684,1026
2873.20103631248,1057
2874.947501217038,1038
2876.6936318585695,1085
2878.4394285430812,1074
2880.1848915766604,1068
2881.9300212654707,1079
2883.6748179157553,1061
2885.4192818338374,1015
2887.1634133261173,1077
2888.907212699077,1067
2890.6506802592744,1061
2892.393816313348,1075
2894.1366211680142,1007
2895.8790951300693,1022
2897.621238506388,1046
2899.363051603925,1067
2901.1045347297118,1050
2902.8456881908596,1077
2904.58651229456,1054
2906.327007348081,1035
2908.067173658772,1065
2909.8070115340597,1046
2911.5465212814497,1031
2913.285703208527,1069
2915.0245576229563,1045
2916.7630848324807,1002
2918.5012851449196,1039
2920.2391588681758,1037
2921.976706310227,1050
2923.7139277791334,1055
2925.4508235830313,1043
2927.187394030137,1052
2928.923639428745,1019
2930.6595600872306,1047
2932.395156314046,1057
2934.1304284177218,1083
2935.8653767068713,1017
2937.6000014901815,1076
2939.3343030764227,1037
2941.068281774442,1007
2942.8019378931644,1075
2944.5352717415976,1023
2946.2682836288236,1007
2948.0009738640065,1032
2949.7333427563885,1026
2951.465390615289,1051
2953.1971177501086,1063
2954.9285244703265,1020
2956.6596110855,1010
2958.3903779052657,1077
2960.1208252393385,1033
2961.8509533975125,1064
2963.5807626896617,1027
2965.3102534257378,995
2967.0394259157715,1081
2968.768280469873,1031
2970.496817398232,1003
2972.2250370111146,1027
2973.952939618869,1069
2975.6805255319196,1025
2977.4077950607707,978
2979.134748516006,1034
2980.861386208289,1037
2982.587708448359,1095
2984.313715547037,1039
2986.039407815222,1017
2987.764785563891,1045
2989.489849104102,1049
2991.2145987469908,1003
2992.9390348037705,1004
2994.6631575857346,1031
2996.3869674042576,1009
2998.1104645707887,996
2999.83364939686,1005
3001.5565221940783,1057
3003.2790832741334,1019
3005.0013329487924,1041
3006.7232715298996,1042
3008.4448993293804,1051
3010.166216659239,1015
3011.887223831558,993
3013.607921158498,1013
3015.3283089522993,996
3017.0483875252826,1027
3018.7681571898443,1029
3020.4876182584626,1049
3022.2067710436927,1022
3023.9256158581707,1018
3025.644153014609,1056
3027.362382825801,995
3029.0803056046193,1065
3030.797921664012,1024
3032.5152313170106,1036
3034.2322348767225,995
3035.9489326563353,1038
3037.665324969115,1046
3039.3814121284063,1053
3041.097194447633,1051
3042.812672240299,1023
3044.5278458199855,1021
3046.2427155003525,1079
3047.9572815951406,1056
3049.671544418167,998
3051.38550428333,987
3053.0991615046073,1034
3054.812516396051,992
3056.5255692717974,1029
3058.2383204460575,1003
3059.9507702331257,1021
3061.662918947372,1091
3063.3747669032446,1044
3065.0863144152736,1010
3066.7975617980674,1073
3068.508509366309,1038
3070.219157434767,1069
3071.9295063182844,1088
3073.639556331785,1021
3075.3493077902704,1033
3077.058761008821,1042
3078.7679163025964,1039
3080.476773986837,1035
3082.1853343768594,1038
3083.89359778806,1057
3085.6015645359153,1008
3087.3092349359786,1012
3089.016609303884,1031
3090.7236879553434,1080
3092.4304712061476,1044
3094.136959372166,1054
3095.843152769349,1009
3097.5490517137237,1068
3099.2546565213966,1040
3100.959967508554,1081
3102.66498499146,1058
3104.3697092864577,1064
3106.0741407099695,1031
3107.778279578498,1040
3109.482126208622,1060
3111.1856809170004,1029
3112.8889440203716,1029
3114.5919158355528,1076
3116.294596679439,1080
3117.996986869006,1062
3119.6990867213062,1045
3121.4008965534726,1036
3123.102416682717,1051
3124.803647426329,1047
3126.5045891016784,1063
3128.205242026213,1020
3129.90560651746,1023
3131.605682893025,1045
3133.3054714705922,1057
3135.0049725679282,1013
3136.7041865028714,1024
3138.4031135933465,1025
3140.101754157353,1080
3141.800108512971,1003
3143.498176978357,1035
3145.1959598717494,1043
3146.8934575114636,1036
3148.5906702158954,1007
3150.2875983035183,1035
3151.9842420928853,962
3153.680601902627,1003
3155.376678051456,1022
3157.07247085816,1030
3158.767980641609,1056
3160.463207720748,1047
3162.158152414606,996
3163.8528150422862,1018
3165.5471959229726,1054
3167.2412953759303,1055
3168.9351137204976,1053
3170.628651276098,1036
3172.3219083622307,1082
3174.014885298474,1014
3175.707582404485,979
3177.4000000000005,993
3179.092138404835,1026
3180.7839979388846,1017
3182.47557892212,1049
3184.166881674594,1052
3185.8579065164386,1056
3187.5486537678626,1011
3189.2391237491547,1045
3190.9293167806827,1049
3192.6192331828934,1081
3194.3088732763117,1009
3195.998237381542,1066
3197.687325819268,1005
3199.376138910251,1036
3201.064676975334,1003
3202.7529403354347,1026
3204.4409293115523,1009
3206.1286442247647,1001
3207.816085396229,977
3209.5032531471825,988
3211.190147798936,972
3212.8767696728846,1028
3214.5631190905015,1023
3216.2491963733373,1017
3217.9350018430214,992
3219.6205358212637,945
3221.305798629851,1005
3222.990790590651,977
3224.6755120256103,1008
3226.359963256751,1017
3228.0441446061795,985
3229.7280563960758,978
3231.411698948703,1030
3233.0950725863995,1009
3234.778177631587,988
3236.461014406761,980
3238.1435832345005,1052
3239.8258844374595,1033
3241.507918338374,1039
3243.1896852600576,1037
3244.8711855254023,1031
3246.552419457381,995
3248.233387379042,1030
3249.914089613516,980
3251.59452648401,1005
3253.274698313813,1020
3254.95460542629,967
3256.6342481448855,1039
3258.313626793125,1013
3259.9927416946084,997
3261.6715931730196,992
3263.3501815521176,971
3265.0285071557437,976
3266.706570307815,975
3268.3843713323286,1046
3270.0619105533615,1046
3271.739188295068,1033
3273.4162048816834,984
3275.0929606375184,1033
3276.769455886966,1040
3278.445690954498,1002
3280.1216661646613,1031
3281.797381842087,973
3283.4728383114807,1026
3285.1480358976296,1033
3286.8229749253996,1033
3288.4976557197333,994
3290.172078605655,1029
3291.846243908266,1016
3293.5201519527463,1021
3295.193803064357,985
3296.8671975684374,996
3298.5403357904024,975
3300.21321805575,1016
3301.8858446900567,991
3303.558216018975,1021
3305.23033236824,1016
3306.9021940636603,986
3308.57380143113,989
3310.2451547966184,987
3311.916254486174,1008
3313.5871008259246,998
3315.2576941420766,1021
3316.9280347609147,986
3318.5981230088046,958
3320.2679592121895,952
3321.9375436975924,1037
3323.606876791612,1014
3325.27595882093,984
3326.944790112305,988
3328.6133709925753,1017
3330.2817017886573,1005
3331.949782827547,990
3333.617614436319,1028
3335.2851969421245,1009
3336.952530672199,996
3338.619615953853,993
3340.286453114475,1021
3341.9530424815357,1026
3343.619384382583,1016
3345.2854791452437,988
3346.951327097224,1068
3348.6169285663073,1008
3350.2822838803577,1015
3351.947393367319,1026
3353.61225735521,1013
3355.2768761721345,959
3356.9412501462693,997
3358.605379605873,982
3360.2692648792827,989
3361.9329062949146,1004
3363.596304181263,971
