CollectionTime,7/11/2024 1:35:37 PM
ExposureUsed,3
CalibratedSpectrum
-962.7078968117929,489
-959.9714848408522,514
-957.2358232597828,499
-954.5009119013725,491
-951.7667505983302,528
-949.0333391832855,512
-946.3006774887896,517
-943.5687653473143,505
-940.837602591253,507
-938.1071890529199,487
-935.3775245645503,534
-932.6486089583007,506
-929.9204420662485,547
-927.1930237203925,541
-924.4663537526524,502
-921.7404319948689,545
-919.0152582788041,529
-916.2908324361409,588
-913.5671542984834,543
-910.8442236973568,535
-908.1220404642074,517
-905.4006044304027,548
-902.679915427231,565
-899.959973285902,520
-897.2407778375464,521
-894.5223289132158,505
-891.8046263438832,507
-889.0876699604426,491
-886.3714595937089,493
-883.6559950744183,530
-880.9412762332282,502
-878.2273029007168,518
-875.5140749073835,499
-872.8015920836489,486
-870.0898542598545,527
-867.3788612662631,503
-864.6686129330585,492
-861.9591090903457,493
-859.2503495681506,499
-856.5423341964203,512
-853.8350628050229,487
-851.1285352237478,511
-848.4227512823054,493
-845.7177108103272,523
-843.0134136373656,497
-840.3098595928943,503
-837.6070485063082,534
-834.9049802069229,520
-832.2036545239757,536
-829.5030712866244,533
-826.8032303239481,491
-824.1041314649472,497
-821.4057745385428,477
-818.7081593735775,503
-816.0112857988148,536
-813.3151536429393,501
-810.6197627345566,535
-807.9251129021936,512
-805.2312039742981,502
-802.5380357792392,515
-799.8456081453069,505
-797.1539209007124,506
-794.462973873588,516
-791.772766891987,537
-789.083299783884,527
-786.3945723771743,529
-783.7065844996748,522
-781.0193359791231,525
-778.3328266431781,512
-775.6470563194197,513
-772.9620248353489,541
-770.2777320183878,540
-767.5941776958798,544
-764.9113616950891,507
-762.2292838432011,518
-759.5479439673222,523
-756.8673418944801,532
-754.1874774516235,537
-751.5083504656222,534
-748.8299607632671,556
-746.15230817127,529
-743.475392516264,527
-740.7992136248035,529
-738.1237713233636,519
-735.4490654383407,509
-732.7750957960521,556
-730.1018622227365,578
-727.4293645445534,570
-724.7576025875837,519
-722.0865761778291,543
-719.4162851412126,564
-716.7467293035781,539
-714.0779084906909,539
-711.409822528237,567
-708.7424712418238,553
-706.0758544569796,551
-703.4099719991541,547
-700.7448236937178,606
-698.0804093659622,597
-695.4167288411002,566
-692.7537819442656,554
-690.0915685005134,562
-687.4300883348199,551
-684.7693412720819,549
-682.1093271371178,573
-679.4500457546669,572
-676.7914969493897,580
-674.1336805458676,572
-671.4765963686034,589
-668.8202442420206,586
-666.1646239904642,571
-663.5097354382001,581
-660.8555784094151,572
-658.2021527282176,546
-655.5494582186366,552
-652.8974947046223,583
-650.2462620100463,614
-647.5957599587009,592
-644.9459883742998,582
-642.2969470804776,573
-639.6486359007902,635
-637.0010546587141,633
-634.3542031776476,621
-631.7080812809096,611
-629.0626887917401,603
-626.4180255333008,591
-623.7740913286734,609
-621.1308860008619,596
-618.4884093727904,594
-615.8466612673046,599
-613.2056415071715,597
-610.5653499150785,584
-607.9257863136347,581
-605.28695052537,577
-602.6488423727357,595
-600.0114616781036,628
-597.3748082637674,584
-594.7388819519412,611
-592.1036825647604,637
-589.4692099242818,666
-586.8354638524829,633
-584.2024441712624,664
-581.5701507024403,659
-578.9385832677575,621
-576.3077416888759,666
-573.6776257873787,655
-571.0482353847704,630
-568.4195703024757,614
-565.7916303618415,646
-563.164415384135,642
-560.5379251905453,641
-557.9121596021815,664
-555.2871184400748,645
-552.6628015251767,663
-550.0392086783606,638
-547.4163397204204,640
-544.794194472071,680
-542.1727727539491,681
-539.5520743866118,704
-536.9320991905377,741
-534.3128469861261,721
-531.6943175936979,734
-529.0765108334947,695
-526.4594265256793,761
-523.8430644903358,835
-521.2274245474689,923
-518.612506517005,1005
-515.9983102187913,1000
-513.3848354725959,1050
-510.77208209810846,1034
-508.16004991493924,1244
-505.5487387426199,1417
-502.9381484006032,1431
-500.3282787082628,1483
-497.71912948489364,1429
-495.1107005497117,1393
-492.5029917218539,1244
-489.8960028203786,1038
-487.28973366426493,951
-484.68418407241325,894
-482.07935386364494,874
-479.47524285670266,813
-476.87185087025,804
-474.2691777228715,792
-471.66722323307334,817
-469.0659872192821,772
-466.4654694998459,814
-463.86566989303384,767
-461.26658821703614,780
-458.66822428996414,783
-456.07057792985,809
-453.4736489546475,811
-450.877437182231,776
-448.28194243039627,778
-445.68716451686,787
-443.09310325926003,738
-440.49975847515555,744
-437.9071299820263,785
-435.31521759727354,776
-432.72402113821954,819
-430.13354042210767,782
-427.5437752661022,785
-424.95472548728867,805
-422.36639090267386,824
-419.7787713291855,836
-417.1918665836721,880
-414.60567648290385,860
-412.0202008435715,857
-409.4354394822874,856
-406.8513922155845,897
-404.26805885991723,896
-401.685439231661,881
-399.103533147112,840
-396.522340422488,869
-393.9418608739278,866
-391.3620943174908,843
-388.7830405691583,792
-386.2046994448317,806
-383.6270707603344,743
-381.05015433141045,737
-378.473949973725,711
-375.8984575028645,666
-373.32367673433623,607
-370.74960748356875,587
-368.1762495659117,601
-365.60360279663576,570
-363.03166699093265,515
-360.4604419639154,511
-357.8899275306178,485
-355.32012350599507,469
-352.7510297049233,439
-350.1826459421999,423
-347.61497203254316,435
-345.04800779059235,450
-342.4817530309082,447
-339.91620756797226,461
-337.35137121618743,508
-334.7872437898774,512
-332.22382510328725,541
-329.66111497058273,486
-327.09911320585127,461
-324.53781962310075,444
-321.9772340362607,486
-319.4173562591816,449
-316.8581861056348,430
-314.2997233893127,461
-311.7419679238294,467
-309.1849195227194,474
-306.62857799943856,476
-304.0729431673641,519
-301.51801483979375,491
-298.963792829947,509
-296.41027695096386,505
-293.85746701590574,523
-291.3053628377552,502
-288.7539642294155,573
-286.2032710037115,535
-283.65328297338897,530
-281.1039999511146,561
-278.5554217494762,545
-276.007548180983,560
-273.4603790580651,488
-270.9139141930734,486
-268.3681533982807,474
-265.8230964858798,499
-263.27874326798565,502
-260.7350935566336,546
-258.1921471637804,601
-255.6499039013039,578
-253.10836358100266,581
-250.56752601459698,594
-248.02739101372765,584
-245.48795838995704,610
-242.94922795476816,578
-240.41119951956557,571
-237.8738728956746,604
-235.33724789434166,611
-232.80132432673452,606
-230.2661020039418,611
-227.73158073697357,587
-225.19776033676033,582
-222.66464061415422,650
-220.1322213799284,613
-217.60050244477725,592
-215.06948361931552,550
-212.53916471408013,631
-210.00954553952818,640
-207.48062590603843,666
-204.9524056239104,650
-202.4248845033651,678
-199.8980623545441,691
-197.37193898751036,673
-194.84651421224817,692
-192.32178783866232,691
-189.79775967657952,696
-187.27442953574644,742
-184.7517972258321,738
-182.2298625564256,766
-179.7086253370378,829
-177.18808537710026,738
-174.66824248596583,738
-172.14909647290835,765
-169.6306471471229,737
-167.11289431772548,755
-164.59583779375328,748
-162.07947738416453,732
-159.5638128978386,736
-157.04884414357605,830
-154.53457093009854,800
-152.02099306604828,854
-149.50811035998936,756
-146.99592262040665,734
-144.48442965570587,755
-141.97363127421409,758
-139.46352728417958,786
-136.95411749377126,800
-134.44540171107985,845
-131.93737974411636,765
-129.43005140081357,854
-126.92341648902493,1058
-124.41747481652521,1408
-121.91222619101006,1550
-119.40767042009657,1751
-116.90380731132257,2219
-114.40063667214702,2381
-111.8981583099503,2500
-109.3963720320337,2027
-106.89527764561933,1661
-104.39487495785067,1450
-101.89516377579241,2122
-99.39614390642998,3154
-96.89781515667039,3796
-94.40017733334128,3502
-91.90323024319173,3145
-89.40697369289148,3833
-86.91140748903172,5267
-84.41653143812482,6412
-81.92234534660395,6295
-79.42884902082358,4526
-76.93604226705907,5550
-74.4439248915071,10788
-71.95249670028534,17987
-69.46175749943245,23514
-66.97170709490854,26770
-64.48234529259423,24988
-61.99367189829195,19885
-59.50568671772464,13984
-57.01838955653636,12202
-54.53178022029283,12425
-52.045858514480074,11649
-49.560624244506016,11714
-47.07607721569923,11418
-44.59221723330904,11019
-42.10904410250669,9130
-39.62655762838392,7060
-37.14475761595372,5912
-34.66364387015028,6115
-32.18321619582866,7267
-29.70347439776515,8545
-27.224418280657005,9247
-24.74604764912317,10533
-22.26836230770266,15310
-19.7913620608565,26375
-17.315046712966478,43564
-14.83941606833514,56311
-12.36446993118659,65038
-9.89020810566592,65038
-7.416630395839093,65038
-4.94373660569363,65038
-2.471526539137585,65038
-6.821210263296962E-13,65038
2.47084320796705,65038
4.941003281093458,65038
7.410480415786196,65038
9.879274808531363,65038
12.347386655893956,65038
14.814816154518212,65038
17.28156350112681,65038
19.74762889252179,65038
22.21301252558385,21911
24.67771459727237,4391
27.141735304626195,2779
29.605074844762612,2300
32.06773341487792,2325
34.52971121224755,2437
36.99100843422559,2704
39.45162527824516,2428
41.91156194181792,1799
44.370818622535126,1499
46.82939551806646,1336
49.287292826160524,1494
51.74451074464503,2057
54.201049471426245,1921
56.65690920448981,1463
59.112090141899785,1397
61.56659248179983,1406
64.02041642241159,1220
66.4735621620365,1060
68.92602989905402,1037
71.37781983192338,1039
73.82893215918205,1112
76.27936707944684,1290
78.72912479141326,1283
81.17820549385567,1275
83.62660938562783,1302
86.07433666566146,1286
88.5213875329681,982
90.96776218663751,891
93.41346082583925,870
95.85848364982041,1007
98.30283085790859,1151
100.7465026495089,1183
103.18949922410604,1121
105.63182078126385,1018
108.07346752062438,1037
110.51443964190923,879
112.95473734491827,771
115.39436082953114,858
117.83331029570547,819
120.27158594347827,886
122.7091879729652,922
125.1461165843615,883
127.58237197794062,780
130.01795435405518,733
132.4528639131364,826
134.88710085569494,986
137.32066538231982,885
139.75355769367923,809
142.1857779905207,837
144.61732647366978,818
147.04820334403132,747
149.47840880258934,785
151.90794305040674,846
154.33680628862487,991
156.76499871846443,1147
159.19252054122433,1198
161.61937195828352,1231
164.04555317109896,1345
166.47106438120693,1519
168.89590579022217,1619
171.320077599839,1744
173.7435800118302,1745
176.16641322804742,1980
178.58857745042144,1985
181.01007288096173,2121
183.43089972175687,2166
185.85105817497413,2107
188.27054844285988,2060
190.6893707277394,2025
193.10752523201643,2094
195.5250121581745,2160
197.9418317087751,2194
200.3579840864594,2145
202.7734694939469,2202
205.18828813403627,2250
207.6024402096051,2336
210.01592592360964,2290
212.42874547908548,2354
214.84089907914665,2271
217.2523869269868,2302
219.66320922587727,2310
222.0733661791695,2275
224.48285799029293,2290
226.8916848627572,2247
229.29984700014882,2313
231.7073446061355,2340
234.11417788446204,2258
236.520347038953,2350
238.92585227351185,2259
241.33069379212054,2399
243.73487179884035,2443
246.1383864978112,2493
248.541238093252,2444
250.9434267894609,2302
253.34495279081432,2488
255.74581630176783,2442
258.1460175268563,2520
260.54555667069314,2409
262.9444339379703,2444
265.3426495334594,2500
267.7402036620107,2380
270.1370965285529,2419
272.53332833809407,2356
274.9288992957214,2357
277.32380960660055,2329
279.718059475976,2318
282.1116491091717,2253
284.5045787115897,2351
286.89684848871195,2290
289.2884586460981,2240
291.67940938938807,2303
294.0697009242996,2287
296.4593334566299,2310
298.84830719225477,2285
301.23662233712923,2224
303.6242790972866,2288
306.01127767884,2235
308.39761828798066,2123
310.78330113097934,2143
313.16832641418534,2180
315.5526943440269,2057
317.9364051270112,2106
320.3194589697242,2079
322.70185607883093,2142
325.0835966610754,2061
327.4646809232805,1994
329.8451090723478,2009
332.2248813152577,1985
334.6039978590701,1910
336.9824589109231,1978
339.36026467803447,1918
341.7374153677,1982
344.113911187295,1895
346.48975234427337,2015
348.8649390461686,1960
351.2394715005918,1911
353.61334991523415,1886
355.9865744978655,1896
358.35914545633375,1868
360.73106299856715,1930
363.10232733257146,1924
365.47293866643247,1832
367.84289720831396,1836
370.2122031664593,1810
372.5808567491905,1793
374.9488581649083,1901
377.31620762209275,1802
379.6829053293021,1790
382.0489514951745,1800
384.4143463284262,1750
386.7790900378528,1736
389.14318283232853,1732
391.50662492080653,1778
393.86941651231916,1795
396.23155781597745,1859
398.5930490409713,1775
400.9538903965696,1712
403.3140820921202,1825
405.6736243370498,1804
408.03251734086336,1718
410.3907613131465,1703
412.74835646356166,1754
415.10530300185144,1675
417.4616011378372,1732
419.81725108141893,1776
422.1722530425758,1737
424.5266072313656,1743
426.880313857925,1716
429.2333731324701,1765
431.58578526529516,1707
433.9375504667738,1746
436.2886689473588,1648
438.63914091758113,1713
440.9889665880513,1709
443.33814616945835,1675
445.68667987257015,1712
448.03456790823395,1726
450.3818104873759,1693
452.72840782100013,1645
455.07436012019105,1631
457.41966759611057,1655
459.7643304600007,1640
462.10834892318155,1666
464.4517231970525,1600
466.79445349309174,1662
469.1365400228566,1736
471.4779829979826,1699
473.81878263018564,1747
476.15893913125876,1732
478.4984527130747,1722
480.8373235875855,1734
483.17555196682144,1846
485.5131380628919,1816
487.8500820879857,1906
490.1863842543697,1973
492.52204477439034,2113
494.8570638604725,2317
497.1914417251204,2597
499.52517858091653,2865
501.85827464052306,3188
504.19073011668036,3328
506.5225452222086,3354
508.85372017000566,3321
511.18425517304956,3129
513.514150444396,3145
515.8434061971808,3465
518.1720226446176,4119
520.4999999999999,4221
522.8273384766991,3883
525.1540382881666,3681
527.480099647932,3312
529.8055227696037,2724
532.1303078668694,2258
534.454455153496,1928
536.777964843328,1817
539.1008371502907,1791
541.4230722883866,1768
543.744670471698,1756
546.0656319143858,1757
548.3859568306899,1703
550.7056454349294,1702
553.0246979415016,1697
555.3431145648834,1652
557.6608955196306,1721
559.978041020377,1663
562.2945512818363,1658
564.6104265188006,1679
566.9256669461412,1735
569.2402727788082,1672
571.5542442318302,1718
573.8675815203156,1689
576.1802848594508,1716
578.4923544645015,1741
580.8037905508126,1771
583.114593333807,1740
585.4247630289875,1669
587.7342998519354,1651
590.0432040183106,1721
592.3514757438526,1696
594.6591152443794,1709
596.9661227357875,1765
599.2724984340531,1736
601.578242555231,1764
603.8833553154542,1770
606.1878369309362,1735
608.4916876179676,1767
610.7949075929192,1700
613.0974970722403,1738
615.3994562724587,1790
617.7007854101818,1773
620.0014847020951,1737
622.3015543649641,1749
624.6009946156324,1737
626.8998056710224,1695
629.1979877481361,1731
631.4955410640538,1700
633.7924658359349,1722
636.0887622810175,1700
638.3844306166192,1743
640.6794710601358,1858
642.9738838290426,1811
645.2676691408932,1787
647.5608272133207,1744
649.853358264037,1773
652.1452625108324,1755
654.4365401715764,1749
656.7271914642178,1752
659.0172166067838,1779
661.3066158173809,1793
663.5953893141935,1713
665.8835373154867,1763
668.1710600396028,1767
670.4579577049639,1770
672.7442305300709,1725
675.0298787335033,1767
677.3149025339197,1704
679.599302150058,1737
681.8830778007342,1738
684.1662297048437,1729
686.4487580813608,1769
688.7306631493387,1749
691.0119451279091,1768
693.2926042362834,1862
695.5726406937516,1800
697.8520547196814,1765
700.1308465335215,1788
702.4090163547982,1739
704.6865644031171,1750
706.9634908981619,1768
709.2397960596965,1770
711.5154801075631,1753
713.7905432616823,1806
716.0649857420548,1743
718.3388077687592,1822
720.612009561953,1764
722.8845913418733,1789
725.1565533288352,1771
727.427895743234,1773
729.6986188055427,1728
731.9687227363137,1747
734.238207756178,1740
736.5070740858458,1778
738.7753219461066,1767
741.0429515578281,1772
743.3099631419569,1770
745.5763569195191,1780
747.8421331116193,1789
750.1072919394409,1747
752.3718336242467,1823
754.6357583873777,1697
756.8990664502545,1811
759.1617580343765,1746
761.423833361321,1740
763.6852926527457,1766
765.9461361303862,1755
768.206364016058,1761
770.4659765316536,1813
772.7249738991469,1841
774.9833563405886,1728
777.2411240781092,1827
779.4982773339183,1735
781.7548163303044,1757
784.010741289634,1753
786.2660524343538,1879
788.5207499869881,1800
790.7748341701416,1800
793.0283052064964,1820
795.2811633188143,1757
797.5334087299362,1773
799.7850416627813,1780
802.0360623403484,1827
804.2864709857143,1788
806.5362678220353,1848
808.7854530725468,1829
811.0340269605625,1817
813.2819897094754,1826
815.5293415427581,1868
817.77608268396,1831
820.0222133567116,1885
822.2677337847211,1805
824.5126441917765,1834
826.7569448017433,1826
829.0006358385675,1832
831.2437175262731,1811
833.4861900889629,1798
835.7280537508192,1831
837.9693087361026,1830
840.2099552691533,1880
842.4499935743896,1860
844.689423876309,1797
846.9282463994886,1802
849.1664613685833,1892
851.4040690083276,1785
853.6410695435349,1766
855.877463199097,1823
858.1132501999847,1847
860.3484307712487,1820
862.5830051380175,1829
864.8169735254988,1815
867.0503361589791,1863
869.2830932638243,1828
871.5152450654786,1831
873.7467917894654,1832
875.9777336613873,1758
878.2080709069252,1809
880.4378037518389,1839
882.666932421968,1878
884.8954571432301,1828
887.1233781416219,1827
889.3506956432192,1883
891.5774098741766,1869
893.803521060728,1832
896.0290294291852,1826
898.2539352059397,1834
900.4782386174619,1815
902.7019398903011,1874
904.925039251085,1830
907.147536926521,1839
909.3694331433943,1819
911.59072812857,1832
913.8114221089921,1817
916.0315153116827,1871
918.2510079637437,1815
920.4699002923547,1860
922.6881925247761,1828
924.905884888345,1804
927.1229776104793,1705
929.3394709186747,1723
931.555365040506,1783
933.7706602036275,1793
935.9853566357709,1748
938.1994545647489,1769
940.4129542184515,1901
942.6258558248488,1842
944.8381596119883,1741
947.0498658079974,1718
949.2609746410825,1800
951.4714863395287,1757
953.6814011316998,1745
955.8907192460387,1750
958.0994409110671,1768
960.3075663553858,1725
962.5150958076741,1711
964.7220294966913,1687
966.928367651274,1774
969.1341105003388,1734
971.3392582728806,1730
973.5438111979742,1671
975.747769504772,1716
977.9511334225061,1687
980.153903180487,1708
982.3560790081052,1615
984.5576611348289,1639
986.7586497902058,1708
988.9590452038618,1607
991.158847605503,1654
993.3580572249133,1651
995.5566742919558,1648
997.7546990365728,1649
999.952131688785,1620
1002.1489724786926,1565
1004.3452216364743,1570
1006.5408793923874,1554
1008.7359459767691,1538
1010.9304216200343,1520
1013.1243065526781,1555
1015.3176010052733,1508
1017.510305208472,1472
1019.7024193930064,1436
1021.8939437896848,1454
1024.0848786293977,1506
1026.2752241431122,1513
1028.4649805618747,1432
1030.6541481168115,1497
1032.842727039127,1461
1035.0307175601051,1452
1037.2181199111074,1430
1039.4049343235752,1434
1041.591161029029,1457
1043.7768002590683,1459
1045.9618522453698,1434
1048.1463172196918,1397
1050.3301954138697,1434
1052.513487059818,1471
1054.69619238953,1440
1056.8783116350783,1388
1059.0598450286152,1380
1061.2407928023704,1432
1063.4211551886528,1364
1065.6009324198508,1373
1067.780124728432,1347
1069.9587323469414,1389
1072.1367555080046,1447
1074.314194444325,1371
1076.4910493886855,1378
1078.667320573947,1370
1080.843008233051,1356
1083.0181125990161,1392
1085.1926339049414,1373
1087.3665723840027,1384
1089.5399282694575,1373
1091.7127017946405,1380
1093.8848931929647,1354
1096.0565026979243,1330
1098.2275305430899,1376
1100.3979769621128,1368
1102.567842188722,1334
1104.737126456726,1262
1106.9058300000124,1301
1109.0739530525475,1284
1111.2414958483764,1316
1113.4084586216231,1375
1115.5748416064907,1393
1117.7406450372605,1347
1119.9058691482942,1344
1122.0705141740304,1308
1124.2345803489884,1331
1126.3980679077658,1378
1128.5609770850388,1360
1130.7233081155623,1396
1132.8850612341707,1288
1135.0462366757774,1337
1137.2068346753745,1338
1139.3668554680326,1353
1141.526299288901,1279
1143.68516637321,1327
1145.8434569562655,1321
1148.001171273455,1360
1150.158309560244,1338
1152.3148720521767,1347
1154.470858984876,1362
1156.626270594044,1309
1158.7811071154629,1329
1160.9353687849912,1329
1163.089055838569,1312
1165.242168512213,1338
1167.3947070420209,1300
1169.5466716641677,1272
1171.6980626149075,1279
1173.8488801305748,1298
1175.9991244475814,1280
1178.1487958024186,1329
1180.2978944316555,1277
1182.4464205719428,1294
1184.5943744600072,1311
1186.7417563326567,1337
1188.8885664267755,1313
1191.0348049793297,1310
1193.1804722273619,1321
1195.325568407995,1330
1197.4700937584303,1330
1199.614048515948,1330
1201.7574329179074,1288
1203.900247201746,1287
1206.042491604982,1321
1208.1841663652099,1286
1210.3252717201053,1290
1212.465807907422,1312
1214.6057751649923,1299
1216.7451737307279,1327
1218.8840038426192,1303
1221.0222657387353,1329
1223.1599596572241,1374
1225.2970858363137,1307
1227.4336445143094,1321
1229.5696359295966,1341
1231.705060320639,1335
1233.8399179259786,1316
1235.9742089842384,1290
1238.107933734118,1300
1240.2410924143974,1347
1242.373685263935,1321
1244.5057125216676,1375
1246.6371744266116,1362
1248.7680712178621,1328
1250.898403134593,1369
1253.028170416058,1324
1255.1573733015875,1337
1257.2860120305932,1312
1259.4140868425648,1289
1261.54159797707,1352
1263.6685456737569,1333
1265.7949301723515,1368
1267.9207517126597,1340
1270.046010534565,1358
1272.1707068780306,1368
1274.2948409830983,1326
1276.4184130898889,1318
1278.541423438603,1308
1280.6638722695184,1318
1282.785759822993,1376
1284.9070863394636,1395
1287.0278520594447,1397
1289.1480572235314,1356
1291.2677020723963,1396
1293.3867868467923,1416
1295.5053117875495,1392
1297.623277135579,1375
1299.740683131868,1429
1301.8575300174857,1410
1303.973818033578,1379
1306.0895474213703,1431
1308.2047184221678,1416
1310.3193312773528,1442
1312.4333862283888,1380
1314.5468835168163,1424
1316.659823384255,1438
1318.7722060724045,1440
1320.8840318230418,1434
1322.9953008780249,1367
1325.1060134792888,1378
1327.2161698688478,1372
1329.3257702887959,1373
1331.4348149813054,1415
1333.5433041886276,1434
1335.6512381530933,1476
1337.7586171171101,1443
1339.8654413231675,1395
1341.9717110138317,1412
1344.0774264317488,1379
1346.1825878196432,1418
1348.2871954203192,1413
1350.3912494766587,1387
1352.4947502316231,1409
1354.5976979282532,1456
1356.7000928096686,1419
1358.8019351190665,1410
1360.9032250997243,1436
1363.0039629949988,1417
1365.1041490483235,1398
1367.2037835032133,1392
1369.3028666032606,1403
1371.401398592137,1420
1373.4993797135926,1406
1375.5968102114575,1444
1377.6936903296396,1385
1379.7900203121262,1425
1381.8858004029835,1430
1383.9810308463561,1367
1386.075711886469,1372
1388.1698437676241,1425
1390.2634267342032,1398
1392.356461030667,1414
1394.4489469015557,1415
1396.5408845914872,1438
1398.6322743451592,1457
1400.7231164073469,1418
1402.813411022907,1452
1404.903158436773,1471
1406.9923588939578,1418
1409.0810126395531,1419
1411.1691199187303,1441
1413.2566809767386,1438
1415.343696058907,1422
1417.4301654106425,1478
1419.5160892774315,1486
1421.6014679048399,1466
1423.6863015385125,1462
1425.7705904241707,1446
1427.8543348076178,1463
1429.9375349347342,1482
1432.0201910514802,1449
1434.102303403894,1535
1436.1838722380944,1496
1438.2648978002767,1510
1440.3453803367174,1549
1442.4253200937692,1537
1444.5047173178677,1484
1446.5835722555234,1503
1448.6618851533285,1571
1450.739656257952,1536
1452.8168858161434,1535
1454.8935740747306,1564
1456.96972128062,1582
1459.045327680797,1551
1461.120393522327,1523
1463.1949190523528,1570
1465.2689045180973,1615
1467.3423501668608,1596
1469.415256246024,1659
1471.4876230030463,1695
1473.559450685465,1701
1475.6307395408976,1672
1477.7014898170391,1696
1479.771701761665,1720
1481.8413756226287,1819
1483.9105116478618,1754
1485.9791100853772,1748
1488.0471711832643,1756
1490.1146951896926,1768
1492.1816823529098,1773
1494.2481329212433,1749
1496.3140471430984,1789
1498.3794252669609,1796
1500.4442675413939,1842
1502.5085742150404,1855
1504.572345536622,1819
1506.6355817549388,1807
1508.6982831188702,1866
1510.7604498773744,1872
1512.8220822794883,1843
1514.8831805743293,1852
1516.9437450110909,1889
1519.003775839048,1804
1521.0632733075522,1820
1523.1222376660367,1932
1525.1806691640113,1847
1527.2385680510652,1801
1529.2959345768668,1815
1531.3527689911643,1838
1533.4090715437833,1919
1535.4648424846291,1905
1537.5200820636855,1902
1539.5747905310159,1919
1541.6289681367616,1929
1543.6826151311434,1911
1545.7357317644614,1981
1547.7883182870937,1985
1549.8403749494987,1928
1551.8919020022113,2054
1553.9428996958477,2057
1555.9933682811015,2064
1558.0433080087469,2159
1560.0927191296346,2190
1562.1416018946961,2169
1564.1899565549415,2176
1566.2377833614592,2154
1568.2850825654164,2085
1570.3318544180606,2060
1572.3780991707158,2083
1574.423817074788,2068
1576.4690083817595,2059
1578.5136733431923,2001
1580.5578122107272,1872
1582.601425236085,1947
1584.6445126710646,1833
1586.6870747675434,1791
1588.7291117774776,1778
1590.7706239529034,1782
1592.8116115459347,1677
1594.8520748087658,1653
1596.8920139936686,1621
1598.9314293529933,1659
1600.9703211391711,1600
1603.008689604711,1605
1605.0465350022005,1548
1607.0838575843068,1478
1609.1206576037753,1488
1611.1569353134305,1543
1613.1926909661765,1531
1615.2279248149953,1535
1617.2626371129481,1509
1619.2968281131757,1469
1621.3304980688963,1472
1623.3636472334088,1453
1625.39627586009,1461
1627.428384202396,1439
1629.459972513861,1443
1631.4910410480993,1432
1633.5215900588028,1367
1635.551619799744,1339
1637.5811305247717,1381
1639.6101224878166,1409
1641.6385959428862,1369
1643.6665511440683,1424
1645.693988345528,1422
1647.7209078015112,1412
1649.7473097663405,1392
1651.7731944944203,1434
1653.7985622402307,1328
1655.823413258333,1381
1657.847747803366,1440
1659.8715661300494,1328
1661.8948684931793,1417
1663.9176551476316,1362
1665.9399263483624,1384
1667.9616823504057,1322
1669.982923408873,1385
1672.0036497789574,1362
1674.0238617159293,1336
1676.043559475138,1322
1678.0627433120121,1358
1680.081413482059,1368
1682.0995702408654,1377
1684.117213844096,1321
1686.134344547495,1391
1688.1509626068864,1354
1690.1670682781705,1417
1692.182661817329,1342
1694.1977434804217,1394
1696.2123135235875,1337
1698.226372203043,1362
1700.2399197750851,1376
1702.2529564960905,1379
1704.2654826225112,1345
1706.277498410882,1352
1708.2890041178139,1315
1710.2999999999988,1381
1712.3104863142066,1368
1714.3204633172854,1357
1716.329931266163,1370
1718.3388904178469,1326
1720.3473410294214,1308
1722.3552833580516,1361
1724.3627176609807,1366
1726.3696441955308,1277
1728.3760632191033,1324
1730.3819749891782,1266
1732.3873797633146,1355
1734.3922777991502,1355
1736.3966693544012,1339
1738.4005546868639,1315
1740.4039340544127,1282
1742.406807715001,1347
1744.4091759266616,1402
1746.4110389475054,1354
1748.4123970357223,1250
1750.413250449582,1332
1752.4135994474318,1333
1754.4134442876993,1399
1756.4127852288902,1306
1758.4116225295893,1345
1760.4099564484595,1297
1762.407787244244,1321
1764.405115175764,1347
1766.4019405019203,1289
1768.3982634816916,1316
1770.3940843741357,1311
1772.3894034383907,1305
1774.3842209336717,1276
1776.378537119274,1359
1778.372352254571,1293
1780.3656665990156,1309
1782.3584804121397,1286
1784.3507939535534,1270
1786.3426074829463,1326
1788.3339212600863,1259
1790.3247355448211,1284
1792.3150505970766,1302
1794.3048666768573,1305
1796.2941840442477,1313
1798.2830029594106,1348
1800.2713236825884,1339
1802.2591464741004,1294
1804.2464715943465,1293
1806.2332993038058,1307
1808.2196298630352,1254
1810.2054635326708,1325
1812.190800573428,1237
1814.175641246101,1294
1816.1599858115628,1276
1818.1438345307652,1305
1820.127187664738,1319
1822.1100454745924,1283
1824.092408221516,1264
1826.0742761667766,1300
1828.055649571721,1332
1830.0365286977735,1314
1832.0169138064398,1310
1833.9968051593014,1333
1835.9762030180214,1277
1837.9551076443408,1275
1839.9335193000788,1321
1841.9114382471344,1325
1843.888864747485,1262
1845.8657990631878,1260
1847.842241456378,1278
1849.8181921892697,1279
1851.7936515241558,1317
1853.7686197234098,1248
1855.7430970494815,1249
1857.7170837649014,1306
1859.6905801322787,1275
1861.6635864143004,1283
1863.6361028737338,1250
1865.608129773424,1272
1867.5796673762961,1282
1869.5507159453537,1265
1871.521275743678,1293
1873.4913470344313,1312
1875.4609300808534,1281
1877.4300251462632,1338
1879.3986324940588,1329
1881.366752387717,1328
1883.3343850907936,1329
1885.3015308669228,1340
1887.268189979819,1298
1889.2343626932739,1271
1891.2000492711595,1273
1893.1652499774254,1317
1895.1299650761011,1295
1897.0941948312952,1337
1899.0579395071945,1354
1901.0211993680641,1307
1902.98397467825,1362
1904.9462657021745,1361
1906.9080727043415,1329
1908.869395949332,1345
1910.8302357018065,1318
1912.790592226504,1354
1914.7504657882428,1310
1916.7098566519212,1325
1918.6687650825133,1321
1920.6271913450764,1300
1922.5851357047422,1304
1924.5425984267245,1262
1926.499579776314,1279
1928.4560800188833,1312
1930.4120994198802,1374
1932.367638244833,1266
1934.32269675935,1318
1936.2772752291175,1378
1938.231373919899,1315
1940.1849930975404,1321
1942.1381330279637,1303
1944.0907939771696,1336
1946.0429762112412,1319
1947.9946799963363,1369
1949.9459055986945,1278
1951.896653284633,1297
1953.8469233205478,1278
1955.7967159729142,1310
1957.7460315082863,1272
1959.6948701932974,1318
1961.6432322946594,1326
1963.5911180791632,1295
1965.5385278136787,1314
1967.4854617651545,1294
1969.4319202006182,1291
1971.377903387176,1305
1973.3234115920136,1348
1975.268445082395,1274
1977.2130041256642,1329
1979.1570889892423,1330
1981.1006999406304,1349
1983.04383724741,1269
1984.986501177238,1258
1986.928691997853,1296
1988.8704099770712,1295
1990.811655382789,1290
1992.7524284829801,1339
1994.692729545698,1323
1996.6325588390755,1279
1998.5719166313224,1339
2000.5108031907307,1318
2002.4492187856677,1293
2004.387163684583,1276
2006.3246381560011,1272
2008.2616424685298,1290
2010.1981768908527,1314
2012.1342416917332,1329
2014.069837140014,1221
2016.0049635046162,1297
2017.9396210545406,1292
2019.8738100588666,1268
2021.8075307867502,1275
2023.740783507431,1361
2025.6735684902228,1348
2027.6058860045214,1266
2029.5377363198004,1305
2031.4691197056118,1257
2033.4000364315875,1304
2035.3304867674374,1269
2037.260470982952,1265
2039.189989347998,1324
2041.1190421325232,1292
2043.047629606554,1278
2044.9757520401945,1253
2046.9034097036288,1233
2048.8306028671195,1312
2050.7573318010086,1232
2052.683596775716,1266
2054.609398061742,1277
2056.5347359296647,1304
2058.4596106501403,1264
2060.384022493906,1286
2062.3079717317764,1293
2064.231458634646,1234
2066.1544834734873,1304
2068.077046519352,1272
2069.99914804337,1317
2071.9207883167524,1287
2073.8419676107865,1249
2075.7626861968406,1317
2077.6829443463607,1276
2079.6027423308715,1251
2081.522080421977,1250
2083.440958891362,1314
2085.359378010786,1276
2087.2773380520907,1300
2089.194839287196,1250
2091.111881988101,1257
2093.0284664268825,1297
2094.9445928756973,1275
2096.86026160678,1267
2098.775472892446,1256
2100.690227005088,1271
2102.604524217178,1301
2104.5183648012676,1318
2106.431749029985,1302
2108.34467717604,1255
2110.2571495122206,1371
2112.169166311393,1270
2114.080727846503,1310
2115.9918343905747,1338
2117.902486216711,1260
2119.8126835980956,1268
2121.722426807987,1226
2123.6317161197285,1294
2125.5405518067364,1268
2127.448934142509,1289
2129.356863400624,1278
2131.264339854737,1271
2133.1713637785815,1322
2135.077935445972,1273
2136.9840551308002,1264
2138.889723107037,1259
2140.7949396487334,1305
2142.699705030018,1288
2144.6040195250994,1332
2146.507883408264,1307
2148.4112969538774,1266
2150.3142604363848,1288
2152.2167741303097,1237
2154.1188383102535,1290
2156.0204532508997,1326
2157.9216192270064,1263
2159.822336513414,1369
2161.7226053850413,1306
2163.622426116884,1348
2165.5217989840185,1240
2167.4207242616,1299
2169.319202224862,1349
2171.2172331491165,1307
2173.1148173097563,1338
2175.0119549822507,1286
2176.90864644215,1291
2178.8048919650823,1321
2180.7006918267534,1348
2182.596046302952,1369
2184.4909556695407,1328
2186.3854202024645,1346
2188.279440177746,1333
2190.173015871487,1308
2192.066147559868,1291
2193.958835519149,1339
2195.851080025667,1352
2197.7428813558417,1325
2199.6342397861667,1321
2201.5251555932186,1363
2203.415629053651,1355
2205.3056604441986,1367
2207.19525004167,1382
2209.084398122958,1366
2210.9731049650327,1402
2212.861370844941,1414
2214.749196039812,1397
2216.636580826851,1339
2218.523525483344,1381
2220.410030286655,1394
2222.296095514226,1429
2224.1817214435805,1370
2226.066908352319,1469
2227.951656518121,1350
2229.835966218746,1372
2231.71983773203,1381
2233.6032713358913,1474
2235.486267308324,1412
2237.3688259274036,1417
2239.2509474712824,1386
2241.132632218193,1386
2243.013880446447,1395
2244.8946924344323,1356
2246.7750684606203,1367
2248.6550088035574,1365
2250.534513741871,1474
2252.413583554265,1390
2254.292218519526,1394
2256.170418916517,1396
2258.0481850241786,1366
2259.925517121534,1398
2261.8024154876825,1431
2263.678880401803,1425
2265.5549121431536,1436
2267.430510991071,1324
2269.305677224971,1342
2271.180411124348,1371
2273.0547129687766,1332
2274.9285830379076,1308
2276.8020216114737,1348
2278.6750289692845,1385
2280.5476053912294,1393
2282.4197511572766,1380
2284.2914665474727,1459
2286.162751841943,1453
2288.0336073208937,1451
2289.904033264608,1386
2291.774029953448,1451
2293.6435976678554,1415
2295.5127366883517,1367
2297.381447295534,1348
2299.2497297700825,1290
2301.1175843927526,1271
2302.9850114443825,1294
2304.852011205885,1254
2306.7185839582553,1236
2308.5847299825664,1235
2310.4504495599676,1169
2312.3157429716925,1181
2314.1806104990483,1233
2316.0450524234247,1143
2317.9090690262888,1174
2319.772660589186,1178
2321.635827393742,1106
2323.498569721661,1167
2325.3608878547248,1163
2327.2227820747967,1137
2329.0842526638157,1153
2330.945299903803,1097
2332.805924076857,1112
2334.6661254651535,1167
2336.525904350951,1170
2338.3852610165827,1158
2340.244195744464,1176
2342.102708817088,1173
2343.9608005170253,1090
2345.8184711269287,1186
2347.675720929526,1153
2349.532550207628,1152
2351.38895924412,1171
2353.24494832197,1190
2355.100517724223,1129
2356.955667734004,1168
2358.810398634514,1156
2360.664710709037,1157
2362.5186042409337,1142
2364.3720795136437,1168
2366.225136810686,1132
2368.0777764156583,1147
2369.929998612237,1169
2371.7818036841777,1162
2373.633191915315,1141
2375.484163589562,1190
2377.3347189909114,1230
2379.184858403434,1203
2381.03458211128,1216
2382.8838903986775,1186
2384.732783549936,1189
2386.5812618494406,1135
2388.4293255816588,1171
2390.2769750311327,1190
2392.1242104824883,1156
2393.971032220427,1186
2395.8174405297295,1209
2397.6634356952563,1167
2399.509018001947,1173
2401.3541877348193,1176
2403.1989451789705,1171
2405.043290619576,1164
2406.8872243418905,1148
2408.730746631247,1157
2410.5738577730594,1200
2412.4165580528183,1195
2414.258847756095,1183
2416.100727168537,1168
2417.9421965758734,1160
2419.783256263912,1169
2421.623906518538,1103
2423.4641476257157,1120
2425.303979871491,1120
2427.143403541984,1161
2428.9824189233977,1170
2430.821026302012,1191
2432.6592259641866,1119
2434.497018196361,1205
2436.33440328505,1143
2438.171381516851,1130
2440.00795317844,1214
2441.844118556569,1238
2443.6798779380724,1217
2445.5152316098606,1194
2447.3501798589255,1201
2449.1847229723357,1232
2451.0188612372403,1163
2452.8525949408663,1151
2454.6859243705203,1193
2456.518849813587,1172
2458.3513715575314,1194
2460.183489889895,1148
2462.015205098301,1208
2463.8465174704493,1204
2465.67742729412,1156
2467.5079348571717,1164
2469.338040447542,1183
2471.1677443532476,1206
2472.9970468623833,1188
2474.825948263123,1167
2476.6544488437207,1164
2478.482548892508,1196
2480.310248697896,1219
2482.137548548374,1216
2483.9644487325118,1250
2485.790949538956,1151
2487.617051256433,1174
2489.44275417375,1121
2491.26805857979,1199
2493.0929647635157,1203
2494.917473013971,1154
2496.741583620276,1213
2498.5652968716304,1211
2500.3886130573137,1226
2502.2115324666834,1231
2504.0340553891765,1217
2505.856182114308,1191
2507.6779129316733,1256
2509.499248130945,1232
2511.3201880018764,1241
2513.140732834298,1239
2514.9608829181198,1218
2516.780638543331,1207
2518.6,1210
2520.418967578273,1222
2522.237541568376,1226
2524.0557222606144,1196
2525.8735099453706,1205
2527.6909049131086,1262
2529.507907454368,1212
2531.32451785977,1213
2533.140736420014,1250
2534.9565634258774,1264
2536.771999168218,1234
2538.5870439379714,1253
2540.4016980261526,1224
2542.2159617238544,1313
2544.02983532225,1297
2545.8433191125914,1266
2547.656413386209,1276
2549.4691184345115,1318
2551.2814345489874,1337
2553.093362021204,1284
2554.904901142808,1278
2556.716052205523,1288
2558.526815501153,1289
2560.3371913215824,1310
2562.147179958771,1294
2563.956781704761,1332
2565.7659968516705,1290
2567.5748256916986,1354
2569.3832685171224,1301
2571.1913256202984,1313
2572.9989972936614,1301
2574.806283829725,1360
2576.613185521084,1389
2578.4197026604074,1346
2580.2258355404483,1359
2582.031584454035,1309
2583.836949694077,1319
2585.6419315535613,1357
2587.4465303255533,1358
2589.2507463032002,1313
2591.0545797797245,1383
2592.8580310484303,1322
2594.6611004026995,1379
2596.463788135992,1351
2598.266094541849,1350
2600.0680199138874,1291
2601.869564545807,1311
2603.670728731383,1324
2605.4715127644704,1380
2607.2719169390048,1314
2609.071941548998,1354
2610.8715868885433,1331
2612.670853251811,1397
2614.469740933052,1329
2616.268250226594,1313
2618.0663814268455,1284
2619.864134828292,1355
2621.6615107255006,1291
2623.458509413115,1266
2625.2551311858597,1277
2627.0513763385347,1283
2628.8472451660223,1346
2630.6427379632833,1321
2632.4378550253564,1286
2634.232596647359,1302
2636.026963124488,1258
2637.8209547520187,1241
2639.6145718253065,1325
2641.407814639785,1290
2643.200683490966,1257
2644.9931786744414,1267
2646.7853004858807,1237
2648.577049221034,1298
2650.3684251757277,1192
2652.1594286458712,1263
2653.9500599274484,1298
2655.740319316525,1255
2657.5302071092437,1257
2659.3197236018286,1258
2661.10886909058,1255
2662.8976438718782,1279
2664.686048242183,1246
2666.4740824980327,1258
2668.2617469360443,1202
2670.0490418529134,1237
2671.8359675454153,1242
2673.622524310403,1239
2675.408712444811,1228
2677.1945322456495,1226
2678.979984010009,1213
2680.76506803506,1215
2682.5497846180497,1214
2684.334134056306,1200
2686.1181166472343,1266
2687.9017326883213,1168
2689.6849824771293,1210
2691.4678663113013,1277
2693.2503844885596,1198
2695.032537306705,1178
2696.8143250636167,1204
2698.5957480572542,1222
2700.3768065856534,1187
2702.1575009469316,1185
2703.937831439283,1136
2705.717798360982,1203
2707.4974020103837,1183
2709.276642685917,1207
2711.055520686095,1215
2712.834036309506,1172
2714.612189854819,1204
2716.389981620782,1188
2718.1674119062204,1210
2719.944481010041,1179
2721.721189231226,1178
2723.4975368688415,1232
2725.273524222027,1165
2727.0491515900053,1142
2728.824419272075,1143
2730.5993275676146,1177
2732.3738767760838,1136
2734.148067197016,1215
2735.921899130031,1209
2737.6953728748194,1172
2739.468488731156,1140
2741.2412469988926,1194
2743.0136479779617,1146
2744.785691968372,1182
2746.5573792702116,1162
2748.3287101836504,1163
2750.099685008934,1205
2751.870304046388,1195
2753.640567596418,1137
2755.4104759595057,1173
2757.1800294362156,1113
2758.949228327187,1150
2760.7180729331412,1245
2762.486563554877,1154
2764.254700493272,1133
2766.022484049284,1194
2767.789914523947,1144
2769.5569922183786,1142
2771.3237174337705,1120
2773.090090471394,1203
2774.8561116326036,1167
2776.6217812188274,1135
2778.3870995315756,1093
2780.1520668724356,1210
2781.9166835430747,1174
2783.6809498452394,1137
2785.444866080754,1152
2787.2084325515225,1139
2788.971649559527,1137
2790.73451740683,1126
2792.4970363955713,1157
2794.2592068279705,1190
2796.0210290063264,1158
2797.7825032330147,1132
2799.543629810493,1151
2801.304409041296,1201
2803.0648412280366,1153
2804.8249266734088,1132
2806.5846656801846,1189
2808.344058551212,1131
2810.1031055894246,1139
2811.8618070978273,1162
2813.6201633795085,1195
2815.378174737636,1206
2817.1358414754536,1136
2818.893163896285,1107
2820.6501423035334,1125
2822.4067770006814,1200
2824.1630682912883,1182
2825.9190164789957,1151
2827.6746218675207,1122
2829.429884760661,1129
2831.184805462294,1189
2832.9393842763743,1169
2834.693621506936,1137
2836.4475174580916,1183
2838.201072434034,1135
2839.954286739034,1144
2841.707160677441,1180
2843.459694553685,1168
2845.2118886722724,1211
2846.96374333779,1193
2848.7152588549034,1221
2850.4664355283567,1149
2852.217273662973,1150
2853.9677735636546,1169
2855.7179355353833,1198
2857.4677598832186,1203
2859.217246912299,1195
2860.9663969278427,1135
2862.715210235146,1167
2864.4636871395846,1118
2866.211827946614,1123
2867.9596329617652,1112
2869.7071024906536,1121
2871.4542368389684,1128
2873.20103631248,1151
2874.947501217038,1126
2876.6936318585695,1147
2878.4394285430812,1187
2880.1848915766604,1180
2881.9300212654707,1149
2883.6748179157553,1163
2885.4192818338374,1183
2887.1634133261173,1190
2888.907212699077,1176
2890.6506802592744,1177
2892.393816313348,1147
2894.1366211680142,1179
2895.8790951300693,1249
2897.621238506388,1169
2899.363051603925,1167
2901.1045347297118,1148
2902.8456881908596,1196
2904.58651229456,1167
2906.327007348081,1108
2908.067173658772,1179
2909.8070115340597,1171
2911.5465212814497,1196
2913.285703208527,1130
2915.0245576229563,1178
2916.7630848324807,1151
2918.5012851449196,1137
2920.2391588681758,1147
2921.976706310227,1155
2923.7139277791334,1156
2925.4508235830313,1200
2927.187394030137,1197
2928.923639428745,1194
2930.6595600872306,1169
2932.395156314046,1200
2934.1304284177218,1167
2935.8653767068713,1161
2937.6000014901815,1167
2939.3343030764227,1197
2941.068281774442,1161
2942.8019378931644,1172
2944.5352717415976,1170
2946.2682836288236,1174
2948.0009738640065,1179
2949.7333427563885,1152
2951.465390615289,1161
2953.1971177501086,1200
2954.9285244703265,1194
2956.6596110855,1156
2958.3903779052657,1168
2960.1208252393385,1198
2961.8509533975125,1131
2963.5807626896617,1153
2965.3102534257378,1119
2967.0394259157715,1168
2968.768280469873,1140
2970.496817398232,1138
2972.2250370111146,1161
2973.952939618869,1163
2975.6805255319196,1184
2977.4077950607707,1173
2979.134748516006,1167
2980.861386208289,1190
2982.587708448359,1158
2984.313715547037,1160
2986.039407815222,1179
2987.764785563891,1134
2989.489849104102,1140
2991.2145987469908,1184
2992.9390348037705,1127
2994.6631575857346,1149
2996.3869674042576,1159
2998.1104645707887,1155
2999.83364939686,1140
3001.5565221940783,1127
3003.2790832741334,1161
3005.0013329487924,1146
3006.7232715298996,1163
3008.4448993293804,1126
3010.166216659239,1110
3011.887223831558,1116
3013.607921158498,1187
3015.3283089522993,1126
3017.0483875252826,1171
3018.7681571898443,1158
3020.4876182584626,1122
3022.2067710436927,1139
3023.9256158581707,1121
3025.644153014609,1172
3027.362382825801,1139
3029.0803056046193,1218
3030.797921664012,1174
3032.5152313170106,1130
3034.2322348767225,1127
3035.9489326563353,1157
3037.665324969115,1146
3039.3814121284063,1180
3041.097194447633,1106
3042.812672240299,1161
3044.5278458199855,1159
3046.2427155003525,1194
3047.9572815951406,1174
3049.671544418167,1168
3051.38550428333,1158
3053.0991615046073,1185
3054.812516396051,1232
3056.5255692717974,1188
3058.2383204460575,1190
3059.9507702331257,1190
3061.662918947372,1191
3063.3747669032446,1141
3065.0863144152736,1088
3066.7975617980674,1126
3068.508509366309,1158
3070.219157434767,1127
3071.9295063182844,1148
3073.639556331785,1139
3075.3493077902704,1097
3077.058761008821,1156
3078.7679163025964,1200
3080.476773986837,1192
3082.1853343768594,1171
3083.89359778806,1127
3085.6015645359153,1154
3087.3092349359786,1123
3089.016609303884,1140
3090.7236879553434,1172
3092.4304712061476,1175
3094.136959372166,1159
3095.843152769349,1189
3097.5490517137237,1132
3099.2546565213966,1128
3100.959967508554,1161
3102.66498499146,1158
3104.3697092864577,1143
3106.0741407099695,1134
3107.778279578498,1146
3109.482126208622,1100
3111.1856809170004,1139
3112.8889440203716,1144
3114.5919158355528,1125
3116.294596679439,1152
3117.996986869006,1153
3119.6990867213062,1234
3121.4008965534726,1203
3123.102416682717,1207
3124.803647426329,1179
3126.5045891016784,1184
3128.205242026213,1224
3129.90560651746,1153
3131.605682893025,1194
3133.3054714705922,1163
3135.0049725679282,1216
3136.7041865028714,1158
3138.4031135933465,1148
3140.101754157353,1176
3141.800108512971,1171
3143.498176978357,1183
3145.1959598717494,1163
3146.8934575114636,1192
3148.5906702158954,1144
3150.2875983035183,1153
3151.9842420928853,1143
3153.680601902627,1099
3155.376678051456,1116
3157.07247085816,1134
3158.767980641609,1139
3160.463207720748,1189
3162.158152414606,1173
3163.8528150422862,1176
3165.5471959229726,1199
3167.2412953759303,1158
3168.9351137204976,1162
3170.628651276098,1148
3172.3219083622307,1206
3174.014885298474,1154
3175.707582404485,1127
3177.4000000000005,1137
3179.092138404835,1143
3180.7839979388846,1124
3182.47557892212,1175
3184.166881674594,1150
3185.8579065164386,1159
3187.5486537678626,1229
3189.2391237491547,1142
3190.9293167806827,1130
3192.6192331828934,1106
3194.3088732763117,1087
3195.998237381542,1094
3197.687325819268,1180
3199.376138910251,1143
3201.064676975334,1122
3202.7529403354347,1143
3204.4409293115523,1190
3206.1286442247647,1147
3207.816085396229,1158
3209.5032531471825,1078
3211.190147798936,1090
3212.8767696728846,1180
3214.5631190905015,1117
3216.2491963733373,1142
3217.9350018430214,1115
3219.6205358212637,1181
3221.305798629851,1111
3222.990790590651,1114
3224.6755120256103,1145
3226.359963256751,1131
3228.0441446061795,1144
3229.7280563960758,1141
3231.411698948703,1137
3233.0950725863995,1143
3234.778177631587,1145
3236.461014406761,1095
3238.1435832345005,1136
3239.8258844374595,1131
3241.507918338374,1114
3243.1896852600576,1110
3244.8711855254023,1080
3246.552419457381,1172
3248.233387379042,1131
3249.914089613516,1182
3251.59452648401,1182
3253.274698313813,1149
3254.95460542629,1157
3256.6342481448855,1109
3258.313626793125,1141
3259.9927416946084,1063
3261.6715931730196,1071
3263.3501815521176,1172
3265.0285071557437,1127
3266.706570307815,1159
3268.3843713323286,1146
3270.0619105533615,1126
3271.739188295068,1163
3273.4162048816834,1169
3275.0929606375184,1143
3276.769455886966,1117
3278.445690954498,1128
3280.1216661646613,1087
3281.797381842087,1136
3283.4728383114807,1134
3285.1480358976296,1114
3286.8229749253996,1170
3288.4976557197333,1133
3290.172078605655,1111
3291.846243908266,1170
3293.5201519527463,1130
3295.193803064357,1141
3296.8671975684374,1143
3298.5403357904024,1125
3300.21321805575,1078
3301.8858446900567,1111
3303.558216018975,1167
3305.23033236824,1130
3306.9021940636603,1127
3308.57380143113,1113
3310.2451547966184,1095
3311.916254486174,1118
3313.5871008259246,1115
3315.2576941420766,1182
3316.9280347609147,1229
3318.5981230088046,1159
3320.2679592121895,1145
3321.9375436975924,1110
3323.606876791612,1120
3325.27595882093,1084
3326.944790112305,1102
3328.6133709925753,1115
3330.2817017886573,1097
3331.949782827547,1120
3333.617614436319,1077
3335.2851969421245,1088
3336.952530672199,1150
3338.619615953853,1153
3340.286453114475,1145
3341.9530424815357,1145
3343.619384382583,1136
3345.2854791452437,1129
3346.951327097224,1169
3348.6169285663073,1124
3350.2822838803577,1125
3351.947393367319,1154
3353.61225735521,1159
3355.2768761721345,1130
3356.9412501462693,1135
3358.605379605873,1154
3360.2692648792827,1096
3361.9329062949146,1141
3363.596304181263,1135
