CollectionTime,7/11/2024 1:36:56 PM
ExposureUsed,3
CalibratedSpectrum
-962.7078968117929,459
-959.9714848408522,519
-957.2358232597828,501
-954.5009119013725,495
-951.7667505983302,492
-949.0333391832855,518
-946.3006774887896,504
-943.5687653473143,504
-940.837602591253,511
-938.1071890529199,526
-935.3775245645503,518
-932.6486089583007,525
-929.9204420662485,526
-927.1930237203925,561
-924.4663537526524,513
-921.7404319948689,530
-919.0152582788041,524
-916.2908324361409,540
-913.5671542984834,540
-910.8442236973568,534
-908.1220404642074,517
-905.4006044304027,511
-902.679915427231,524
-899.959973285902,512
-897.2407778375464,494
-894.5223289132158,497
-891.8046263438832,497
-889.0876699604426,538
-886.3714595937089,495
-883.6559950744183,505
-880.9412762332282,523
-878.2273029007168,533
-875.5140749073835,507
-872.8015920836489,486
-870.0898542598545,499
-867.3788612662631,507
-864.6686129330585,505
-861.9591090903457,509
-859.2503495681506,526
-856.5423341964203,515
-853.8350628050229,518
-851.1285352237478,505
-848.4227512823054,494
-845.7177108103272,519
-843.0134136373656,511
-840.3098595928943,506
-837.6070485063082,500
-834.9049802069229,516
-832.2036545239757,525
-829.5030712866244,501
-826.8032303239481,528
-824.1041314649472,505
-821.4057745385428,515
-818.7081593735775,499
-816.0112857988148,527
-813.3151536429393,536
-810.6197627345566,530
-807.9251129021936,504
-805.2312039742981,498
-802.5380357792392,497
-799.8456081453069,536
-797.1539209007124,535
-794.462973873588,530
-791.772766891987,548
-789.083299783884,508
-786.3945723771743,525
-783.7065844996748,513
-781.0193359791231,510
-778.3328266431781,523
-775.6470563194197,513
-772.9620248353489,491
-770.2777320183878,529
-767.5941776958798,536
-764.9113616950891,519
-762.2292838432011,530
-759.5479439673222,512
-756.8673418944801,534
-754.1874774516235,527
-751.5083504656222,549
-748.8299607632671,533
-746.15230817127,519
-743.475392516264,573
-740.7992136248035,533
-738.1237713233636,540
-735.4490654383407,522
-732.7750957960521,567
-730.1018622227365,534
-727.4293645445534,535
-724.7576025875837,556
-722.0865761778291,542
-719.4162851412126,547
-716.7467293035781,551
-714.0779084906909,563
-711.409822528237,581
-708.7424712418238,558
-706.0758544569796,565
-703.4099719991541,581
-700.7448236937178,580
-698.0804093659622,579
-695.4167288411002,558
-692.7537819442656,579
-690.0915685005134,569
-687.4300883348199,556
-684.7693412720819,586
-682.1093271371178,546
-679.4500457546669,560
-676.7914969493897,595
-674.1336805458676,559
-671.4765963686034,586
-668.8202442420206,586
-666.1646239904642,613
-663.5097354382001,581
-660.8555784094151,586
-658.2021527282176,587
-655.5494582186366,591
-652.8974947046223,581
-650.2462620100463,584
-647.5957599587009,618
-644.9459883742998,607
-642.2969470804776,631
-639.6486359007902,606
-637.0010546587141,612
-634.3542031776476,634
-631.7080812809096,562
-629.0626887917401,624
-626.4180255333008,567
-623.7740913286734,590
-621.1308860008619,655
-618.4884093727904,607
-615.8466612673046,590
-613.2056415071715,593
-610.5653499150785,588
-607.9257863136347,588
-605.28695052537,631
-602.6488423727357,564
-600.0114616781036,590
-597.3748082637674,638
-594.7388819519412,627
-592.1036825647604,645
-589.4692099242818,668
-586.8354638524829,664
-584.2024441712624,635
-581.5701507024403,610
-578.9385832677575,646
-576.3077416888759,654
-573.6776257873787,654
-571.0482353847704,602
-568.4195703024757,629
-565.7916303618415,630
-563.164415384135,641
-560.5379251905453,622
-557.9121596021815,628
-555.2871184400748,645
-552.6628015251767,624
-550.0392086783606,660
-547.4163397204204,679
-544.794194472071,640
-542.1727727539491,650
-539.5520743866118,664
-536.9320991905377,703
-534.3128469861261,682
-531.6943175936979,682
-529.0765108334947,703
-526.4594265256793,745
-523.8430644903358,806
-521.2274245474689,918
-518.612506517005,957
-515.9983102187913,960
-513.3848354725959,982
-510.77208209810846,987
-508.16004991493924,1106
-505.5487387426199,1240
-502.9381484006032,1351
-500.3282787082628,1421
-497.71912948489364,1244
-495.1107005497117,1208
-492.5029917218539,1088
-489.8960028203786,955
-487.28973366426493,894
-484.68418407241325,816
-482.07935386364494,818
-479.47524285670266,795
-476.87185087025,768
-474.2691777228715,767
-471.66722323307334,781
-469.0659872192821,791
-466.4654694998459,791
-463.86566989303384,787
-461.26658821703614,820
-458.66822428996414,801
-456.07057792985,730
-453.4736489546475,784
-450.877437182231,761
-448.28194243039627,781
-445.68716451686,782
-443.09310325926003,790
-440.49975847515555,754
-437.9071299820263,762
-435.31521759727354,770
-432.72402113821954,819
-430.13354042210767,817
-427.5437752661022,802
-424.95472548728867,813
-422.36639090267386,816
-419.7787713291855,816
-417.1918665836721,858
-414.60567648290385,881
-412.0202008435715,810
-409.4354394822874,882
-406.8513922155845,880
-404.26805885991723,828
-401.685439231661,828
-399.103533147112,843
-396.522340422488,799
-393.9418608739278,813
-391.3620943174908,814
-388.7830405691583,756
-386.2046994448317,761
-383.6270707603344,758
-381.05015433141045,742
-378.473949973725,641
-375.8984575028645,606
-373.32367673433623,585
-370.74960748356875,563
-368.1762495659117,557
-365.60360279663576,521
-363.03166699093265,483
-360.4604419639154,458
-357.8899275306178,429
-355.32012350599507,437
-352.7510297049233,444
-350.1826459421999,437
-347.61497203254316,408
-345.04800779059235,425
-342.4817530309082,434
-339.91620756797226,414
-337.35137121618743,416
-334.7872437898774,461
-332.22382510328725,463
-329.66111497058273,442
-327.09911320585127,422
-324.53781962310075,439
-321.9772340362607,444
-319.4173562591816,413
-316.8581861056348,417
-314.2997233893127,416
-311.7419679238294,426
-309.1849195227194,417
-306.62857799943856,426
-304.0729431673641,458
-301.51801483979375,478
-298.963792829947,457
-296.41027695096386,441
-293.85746701590574,468
-291.3053628377552,469
-288.7539642294155,478
-286.2032710037115,488
-283.65328297338897,447
-281.1039999511146,507
-278.5554217494762,514
-276.007548180983,506
-273.4603790580651,468
-270.9139141930734,465
-268.3681533982807,456
-265.8230964858798,470
-263.27874326798565,517
-260.7350935566336,501
-258.1921471637804,488
-255.6499039013039,470
-253.10836358100266,495
-250.56752601459698,485
-248.02739101372765,488
-245.48795838995704,482
-242.94922795476816,483
-240.41119951956557,498
-237.8738728956746,535
-235.33724789434166,535
-232.80132432673452,518
-230.2661020039418,505
-227.73158073697357,515
-225.19776033676033,531
-222.66464061415422,545
-220.1322213799284,542
-217.60050244477725,548
-215.06948361931552,524
-212.53916471408013,509
-210.00954553952818,549
-207.48062590603843,549
-204.9524056239104,541
-202.4248845033651,561
-199.8980623545441,552
-197.37193898751036,581
-194.84651421224817,564
-192.32178783866232,603
-189.79775967657952,595
-187.27442953574644,642
-184.7517972258321,634
-182.2298625564256,622
-179.7086253370378,659
-177.18808537710026,562
-174.66824248596583,592
-172.14909647290835,583
-169.6306471471229,592
-167.11289431772548,678
-164.59583779375328,661
-162.07947738416453,679
-159.5638128978386,665
-157.04884414357605,730
-154.53457093009854,704
-152.02099306604828,639
-149.50811035998936,672
-146.99592262040665,681
-144.48442965570587,684
-141.97363127421409,653
-139.46352728417958,702
-136.95411749377126,752
-134.44540171107985,747
-131.93737974411636,674
-129.43005140081357,725
-126.92341648902493,838
-124.41747481652521,1113
-121.91222619101006,1227
-119.40767042009657,1380
-116.90380731132257,1627
-114.40063667214702,1659
-111.8981583099503,1672
-109.3963720320337,1296
-106.89527764561933,1025
-104.39487495785067,1052
-101.89516377579241,1440
-99.39614390642998,2064
-96.89781515667039,2187
-94.40017733334128,1978
-91.90323024319173,1920
-89.40697369289148,2504
-86.91140748903172,3175
-84.41653143812482,3954
-81.92234534660395,3454
-79.42884902082358,2639
-76.93604226705907,3324
-74.4439248915071,6464
-71.95249670028534,10463
-69.46175749943245,14106
-66.97170709490854,16374
-64.48234529259423,15850
-61.99367189829195,13618
-59.50568671772464,10543
-57.01838955653636,9733
-54.53178022029283,9508
-52.045858514480074,8618
-49.560624244506016,9405
-47.07607721569923,10056
-44.59221723330904,9949
-42.10904410250669,8696
-39.62655762838392,7338
-37.14475761595372,6761
-34.66364387015028,6776
-32.18321619582866,7275
-29.70347439776515,8255
-27.224418280657005,8247
-24.74604764912317,8092
-22.26836230770266,10664
-19.7913620608565,17592
-17.315046712966478,26956
-14.83941606833514,34150
-12.36446993118659,44114
-9.89020810566592,65038
-7.416630395839093,65038
-4.94373660569363,65038
-2.471526539137585,65038
-6.821210263296962E-13,65038
2.47084320796705,65038
4.941003281093458,65038
7.410480415786196,65038
9.879274808531363,65038
12.347386655893956,65038
14.814816154518212,65038
17.28156350112681,65038
19.74762889252179,65038
22.21301252558385,20980
24.67771459727237,3715
27.141735304626195,2270
29.605074844762612,1807
32.06773341487792,2070
34.52971121224755,2079
36.99100843422559,1991
39.45162527824516,1816
41.91156194181792,1438
44.370818622535126,1239
46.82939551806646,1104
49.287292826160524,1101
51.74451074464503,1342
54.201049471426245,1425
56.65690920448981,1246
59.112090141899785,988
61.56659248179983,1001
64.02041642241159,882
66.4735621620365,857
68.92602989905402,856
71.37781983192338,917
73.82893215918205,993
76.27936707944684,1158
78.72912479141326,1030
81.17820549385567,949
83.62660938562783,917
86.07433666566146,963
88.5213875329681,798
90.96776218663751,780
93.41346082583925,773
95.85848364982041,841
98.30283085790859,965
100.7465026495089,1004
103.18949922410604,932
105.63182078126385,769
108.07346752062438,760
110.51443964190923,757
112.95473734491827,770
115.39436082953114,717
117.83331029570547,723
120.27158594347827,765
122.7091879729652,884
125.1461165843615,751
127.58237197794062,686
130.01795435405518,702
132.4528639131364,800
134.88710085569494,871
137.32066538231982,808
139.75355769367923,750
142.1857779905207,739
144.61732647366978,678
147.04820334403132,690
149.47840880258934,701
151.90794305040674,793
154.33680628862487,891
156.76499871846443,1028
159.19252054122433,1106
161.61937195828352,1153
164.04555317109896,1322
166.47106438120693,1411
168.89590579022217,1603
171.320077599839,1643
173.7435800118302,1798
176.16641322804742,1828
178.58857745042144,1868
181.01007288096173,1917
183.43089972175687,1950
185.85105817497413,1963
188.27054844285988,1920
190.6893707277394,2010
193.10752523201643,1982
195.5250121581745,2103
197.9418317087751,2166
200.3579840864594,2071
202.7734694939469,2118
205.18828813403627,2146
207.6024402096051,2190
210.01592592360964,2176
212.42874547908548,2205
214.84089907914665,2117
217.2523869269868,2183
219.66320922587727,2221
222.0733661791695,2250
224.48285799029293,2200
226.8916848627572,2215
229.29984700014882,2296
231.7073446061355,2273
234.11417788446204,2277
236.520347038953,2257
238.92585227351185,2409
241.33069379212054,2382
243.73487179884035,2521
246.1383864978112,2524
248.541238093252,2534
250.9434267894609,2449
253.34495279081432,2454
255.74581630176783,2648
258.1460175268563,2616
260.54555667069314,2601
262.9444339379703,2615
265.3426495334594,2665
267.7402036620107,2600
270.1370965285529,2435
272.53332833809407,2328
274.9288992957214,2242
277.32380960660055,2245
279.718059475976,2302
282.1116491091717,2163
284.5045787115897,2176
286.89684848871195,2156
289.2884586460981,2174
291.67940938938807,2136
294.0697009242996,2157
296.4593334566299,2167
298.84830719225477,2153
301.23662233712923,2048
303.6242790972866,2097
306.01127767884,2102
308.39761828798066,2109
310.78330113097934,2023
313.16832641418534,2081
315.5526943440269,1975
317.9364051270112,2024
320.3194589697242,1951
322.70185607883093,1979
325.0835966610754,1863
327.4646809232805,1910
329.8451090723478,1892
332.2248813152577,1864
334.6039978590701,1926
336.9824589109231,1889
339.36026467803447,1783
341.7374153677,1796
344.113911187295,1812
346.48975234427337,1855
348.8649390461686,1810
351.2394715005918,1843
353.61334991523415,1771
355.9865744978655,1771
358.35914545633375,1830
360.73106299856715,1780
363.10232733257146,1835
365.47293866643247,1801
367.84289720831396,1750
370.2122031664593,1811
372.5808567491905,1760
374.9488581649083,1756
377.31620762209275,1691
379.6829053293021,1731
382.0489514951745,1754
384.4143463284262,1685
386.7790900378528,1713
389.14318283232853,1698
391.50662492080653,1731
393.86941651231916,1711
396.23155781597745,1738
398.5930490409713,1678
400.9538903965696,1693
403.3140820921202,1675
405.6736243370498,1691
408.03251734086336,1652
410.3907613131465,1658
412.74835646356166,1676
415.10530300185144,1710
417.4616011378372,1684
419.81725108141893,1643
422.1722530425758,1708
424.5266072313656,1653
426.880313857925,1679
429.2333731324701,1648
431.58578526529516,1710
433.9375504667738,1649
436.2886689473588,1604
438.63914091758113,1617
440.9889665880513,1632
443.33814616945835,1650
445.68667987257015,1633
448.03456790823395,1628
450.3818104873759,1592
452.72840782100013,1574
455.07436012019105,1537
457.41966759611057,1582
459.7643304600007,1619
462.10834892318155,1596
464.4517231970525,1568
466.79445349309174,1604
469.1365400228566,1584
471.4779829979826,1580
473.81878263018564,1585
476.15893913125876,1580
478.4984527130747,1654
480.8373235875855,1653
483.17555196682144,1749
485.5131380628919,1671
487.8500820879857,1685
490.1863842543697,1777
492.52204477439034,1850
494.8570638604725,2020
497.1914417251204,2298
499.52517858091653,2483
501.85827464052306,2828
504.19073011668036,2800
506.5225452222086,2881
508.85372017000566,2880
511.18425517304956,2828
513.514150444396,2842
515.8434061971808,3277
518.1720226446176,3730
520.4999999999999,3845
522.8273384766991,3638
525.1540382881666,3481
527.480099647932,3082
529.8055227696037,2619
532.1303078668694,2136
534.454455153496,1834
536.777964843328,1748
539.1008371502907,1620
541.4230722883866,1723
543.744670471698,1682
546.0656319143858,1651
548.3859568306899,1566
550.7056454349294,1590
553.0246979415016,1511
555.3431145648834,1610
557.6608955196306,1630
559.978041020377,1558
562.2945512818363,1583
564.6104265188006,1597
566.9256669461412,1590
569.2402727788082,1579
571.5542442318302,1574
573.8675815203156,1623
576.1802848594508,1703
578.4923544645015,1706
580.8037905508126,1650
583.114593333807,1640
585.4247630289875,1612
587.7342998519354,1589
590.0432040183106,1614
592.3514757438526,1563
594.6591152443794,1605
596.9661227357875,1603
599.2724984340531,1639
601.578242555231,1671
603.8833553154542,1678
606.1878369309362,1610
608.4916876179676,1678
610.7949075929192,1584
613.0974970722403,1709
615.3994562724587,1703
617.7007854101818,1634
620.0014847020951,1686
622.3015543649641,1616
624.6009946156324,1664
626.8998056710224,1649
629.1979877481361,1648
631.4955410640538,1651
633.7924658359349,1624
636.0887622810175,1681
638.3844306166192,1722
640.6794710601358,1698
642.9738838290426,1680
645.2676691408932,1669
647.5608272133207,1668
649.853358264037,1751
652.1452625108324,1709
654.4365401715764,1721
656.7271914642178,1646
659.0172166067838,1717
661.3066158173809,1670
663.5953893141935,1696
665.8835373154867,1657
668.1710600396028,1675
670.4579577049639,1695
672.7442305300709,1710
675.0298787335033,1748
677.3149025339197,1633
679.599302150058,1710
681.8830778007342,1668
684.1662297048437,1702
686.4487580813608,1658
688.7306631493387,1670
691.0119451279091,1672
693.2926042362834,1705
695.5726406937516,1716
697.8520547196814,1701
700.1308465335215,1709
702.4090163547982,1700
704.6865644031171,1647
706.9634908981619,1699
709.2397960596965,1706
711.5154801075631,1649
713.7905432616823,1711
716.0649857420548,1749
718.3388077687592,1672
720.612009561953,1643
722.8845913418733,1688
725.1565533288352,1654
727.427895743234,1690
729.6986188055427,1657
731.9687227363137,1642
734.238207756178,1640
736.5070740858458,1618
738.7753219461066,1623
741.0429515578281,1698
743.3099631419569,1710
745.5763569195191,1636
747.8421331116193,1678
750.1072919394409,1663
752.3718336242467,1664
754.6357583873777,1740
756.8990664502545,1667
759.1617580343765,1725
761.423833361321,1670
763.6852926527457,1646
765.9461361303862,1725
768.206364016058,1612
770.4659765316536,1652
772.7249738991469,1625
774.9833563405886,1633
777.2411240781092,1689
779.4982773339183,1644
781.7548163303044,1741
784.010741289634,1648
786.2660524343538,1700
788.5207499869881,1716
790.7748341701416,1771
793.0283052064964,1626
795.2811633188143,1675
797.5334087299362,1694
799.7850416627813,1661
802.0360623403484,1708
804.2864709857143,1690
806.5362678220353,1716
808.7854530725468,1630
811.0340269605625,1739
813.2819897094754,1682
815.5293415427581,1715
817.77608268396,1726
820.0222133567116,1641
822.2677337847211,1751
824.5126441917765,1692
826.7569448017433,1744
829.0006358385675,1708
831.2437175262731,1734
833.4861900889629,1681
835.7280537508192,1697
837.9693087361026,1691
840.2099552691533,1710
842.4499935743896,1722
844.689423876309,1648
846.9282463994886,1666
849.1664613685833,1686
851.4040690083276,1639
853.6410695435349,1699
855.877463199097,1728
858.1132501999847,1724
860.3484307712487,1643
862.5830051380175,1704
864.8169735254988,1745
867.0503361589791,1702
869.2830932638243,1776
871.5152450654786,1742
873.7467917894654,1719
875.9777336613873,1776
878.2080709069252,1713
880.4378037518389,1770
882.666932421968,1798
884.8954571432301,1776
887.1233781416219,1794
889.3506956432192,1793
891.5774098741766,1700
893.803521060728,1720
896.0290294291852,1771
898.2539352059397,1698
900.4782386174619,1709
902.7019398903011,1718
904.925039251085,1730
907.147536926521,1667
909.3694331433943,1717
911.59072812857,1778
913.8114221089921,1734
916.0315153116827,1754
918.2510079637437,1737
920.4699002923547,1771
922.6881925247761,1734
924.905884888345,1714
927.1229776104793,1705
929.3394709186747,1640
931.555365040506,1726
933.7706602036275,1701
935.9853566357709,1679
938.1994545647489,1670
940.4129542184515,1737
942.6258558248488,1647
944.8381596119883,1738
947.0498658079974,1686
949.2609746410825,1701
951.4714863395287,1632
953.6814011316998,1685
955.8907192460387,1652
958.0994409110671,1672
960.3075663553858,1645
962.5150958076741,1695
964.7220294966913,1647
966.928367651274,1681
969.1341105003388,1674
971.3392582728806,1653
973.5438111979742,1634
975.747769504772,1615
977.9511334225061,1618
980.153903180487,1570
982.3560790081052,1608
984.5576611348289,1584
986.7586497902058,1623
988.9590452038618,1541
991.158847605503,1606
993.3580572249133,1595
995.5566742919558,1559
997.7546990365728,1561
999.952131688785,1554
1002.1489724786926,1471
1004.3452216364743,1464
1006.5408793923874,1433
1008.7359459767691,1473
1010.9304216200343,1473
1013.1243065526781,1451
1015.3176010052733,1432
1017.510305208472,1464
1019.7024193930064,1416
1021.8939437896848,1494
1024.0848786293977,1481
1026.2752241431122,1460
1028.4649805618747,1412
1030.6541481168115,1413
1032.842727039127,1378
1035.0307175601051,1417
1037.2181199111074,1357
1039.4049343235752,1395
1041.591161029029,1409
1043.7768002590683,1388
1045.9618522453698,1370
1048.1463172196918,1384
1050.3301954138697,1385
1052.513487059818,1394
1054.69619238953,1376
1056.8783116350783,1431
1059.0598450286152,1313
1061.2407928023704,1346
1063.4211551886528,1428
1065.6009324198508,1370
1067.780124728432,1350
1069.9587323469414,1376
1072.1367555080046,1365
1074.314194444325,1366
1076.4910493886855,1276
1078.667320573947,1349
1080.843008233051,1372
1083.0181125990161,1270
1085.1926339049414,1278
1087.3665723840027,1377
1089.5399282694575,1282
1091.7127017946405,1289
1093.8848931929647,1355
1096.0565026979243,1331
1098.2275305430899,1328
1100.3979769621128,1302
1102.567842188722,1290
1104.737126456726,1288
1106.9058300000124,1270
1109.0739530525475,1326
1111.2414958483764,1326
1113.4084586216231,1298
1115.5748416064907,1365
1117.7406450372605,1256
1119.9058691482942,1271
1122.0705141740304,1307
1124.2345803489884,1299
1126.3980679077658,1267
1128.5609770850388,1281
1130.7233081155623,1241
1132.8850612341707,1282
1135.0462366757774,1239
1137.2068346753745,1286
1139.3668554680326,1302
1141.526299288901,1259
1143.68516637321,1265
1145.8434569562655,1261
1148.001171273455,1292
1150.158309560244,1258
1152.3148720521767,1266
1154.470858984876,1278
1156.626270594044,1303
1158.7811071154629,1259
1160.9353687849912,1299
1163.089055838569,1221
1165.242168512213,1313
1167.3947070420209,1312
1169.5466716641677,1285
1171.6980626149075,1231
1173.8488801305748,1237
1175.9991244475814,1257
1178.1487958024186,1303
1180.2978944316555,1239
1182.4464205719428,1207
1184.5943744600072,1224
1186.7417563326567,1193
1188.8885664267755,1270
1191.0348049793297,1249
1193.1804722273619,1291
1195.325568407995,1230
1197.4700937584303,1245
1199.614048515948,1256
1201.7574329179074,1265
1203.900247201746,1269
1206.042491604982,1271
1208.1841663652099,1247
1210.3252717201053,1288
1212.465807907422,1247
1214.6057751649923,1276
1216.7451737307279,1268
1218.8840038426192,1302
1221.0222657387353,1255
1223.1599596572241,1296
1225.2970858363137,1279
1227.4336445143094,1283
1229.5696359295966,1291
1231.705060320639,1311
1233.8399179259786,1324
1235.9742089842384,1282
1238.107933734118,1288
1240.2410924143974,1278
1242.373685263935,1283
1244.5057125216676,1260
1246.6371744266116,1270
1248.7680712178621,1307
1250.898403134593,1294
1253.028170416058,1293
1255.1573733015875,1318
1257.2860120305932,1323
1259.4140868425648,1367
1261.54159797707,1284
1263.6685456737569,1271
1265.7949301723515,1309
1267.9207517126597,1357
1270.046010534565,1323
1272.1707068780306,1349
1274.2948409830983,1314
1276.4184130898889,1293
1278.541423438603,1401
1280.6638722695184,1318
1282.785759822993,1381
1284.9070863394636,1380
1287.0278520594447,1396
1289.1480572235314,1378
1291.2677020723963,1424
1293.3867868467923,1419
1295.5053117875495,1420
1297.623277135579,1365
1299.740683131868,1360
1301.8575300174857,1355
1303.973818033578,1424
1306.0895474213703,1476
1308.2047184221678,1407
1310.3193312773528,1387
1312.4333862283888,1424
1314.5468835168163,1422
1316.659823384255,1406
1318.7722060724045,1403
1320.8840318230418,1398
1322.9953008780249,1433
1325.1060134792888,1421
1327.2161698688478,1414
1329.3257702887959,1379
1331.4348149813054,1437
1333.5433041886276,1434
1335.6512381530933,1432
1337.7586171171101,1437
1339.8654413231675,1362
1341.9717110138317,1367
1344.0774264317488,1374
1346.1825878196432,1434
1348.2871954203192,1453
1350.3912494766587,1435
1352.4947502316231,1392
1354.5976979282532,1428
1356.7000928096686,1389
1358.8019351190665,1426
1360.9032250997243,1330
1363.0039629949988,1406
1365.1041490483235,1341
1367.2037835032133,1398
1369.3028666032606,1370
1371.401398592137,1404
1373.4993797135926,1386
1375.5968102114575,1410
1377.6936903296396,1401
1379.7900203121262,1398
1381.8858004029835,1418
1383.9810308463561,1359
1386.075711886469,1415
1388.1698437676241,1406
1390.2634267342032,1387
1392.356461030667,1378
1394.4489469015557,1429
1396.5408845914872,1384
1398.6322743451592,1475
1400.7231164073469,1447
1402.813411022907,1452
1404.903158436773,1463
1406.9923588939578,1432
1409.0810126395531,1410
1411.1691199187303,1444
1413.2566809767386,1464
1415.343696058907,1484
1417.4301654106425,1440
1419.5160892774315,1472
1421.6014679048399,1457
1423.6863015385125,1540
1425.7705904241707,1492
1427.8543348076178,1526
1429.9375349347342,1585
1432.0201910514802,1519
1434.102303403894,1536
1436.1838722380944,1604
1438.2648978002767,1579
1440.3453803367174,1564
1442.4253200937692,1589
1444.5047173178677,1644
1446.5835722555234,1625
1448.6618851533285,1641
1450.739656257952,1651
1452.8168858161434,1695
1454.8935740747306,1662
1456.96972128062,1705
1459.045327680797,1735
1461.120393522327,1752
1463.1949190523528,1789
1465.2689045180973,1781
1467.3423501668608,1865
1469.415256246024,1895
1471.4876230030463,1835
1473.559450685465,1938
1475.6307395408976,1939
1477.7014898170391,1947
1479.771701761665,1962
1481.8413756226287,1938
1483.9105116478618,1968
1485.9791100853772,1992
1488.0471711832643,2083
1490.1146951896926,2066
1492.1816823529098,2098
1494.2481329212433,2070
1496.3140471430984,2163
1498.3794252669609,2126
1500.4442675413939,2152
1502.5085742150404,2150
1504.572345536622,2207
1506.6355817549388,2194
1508.6982831188702,2150
1510.7604498773744,2122
1512.8220822794883,2189
1514.8831805743293,2146
1516.9437450110909,2210
1519.003775839048,2190
1521.0632733075522,2296
1523.1222376660367,2240
1525.1806691640113,2237
1527.2385680510652,2245
1529.2959345768668,2256
1531.3527689911643,2359
1533.4090715437833,2324
1535.4648424846291,2331
1537.5200820636855,2322
1539.5747905310159,2414
1541.6289681367616,2380
1543.6826151311434,2406
1545.7357317644614,2475
1547.7883182870937,2441
1549.8403749494987,2480
1551.8919020022113,2531
1553.9428996958477,2543
1555.9933682811015,2632
1558.0433080087469,2693
1560.0927191296346,2609
1562.1416018946961,2733
1564.1899565549415,2727
1566.2377833614592,2761
1568.2850825654164,2732
1570.3318544180606,2650
1572.3780991707158,2637
1574.423817074788,2610
1576.4690083817595,2523
1578.5136733431923,2426
1580.5578122107272,2308
1582.601425236085,2270
1584.6445126710646,2140
1586.6870747675434,2137
1588.7291117774776,2012
1590.7706239529034,1908
1592.8116115459347,2011
1594.8520748087658,1864
1596.8920139936686,1892
1598.9314293529933,1791
1600.9703211391711,1753
1603.008689604711,1797
1605.0465350022005,1696
1607.0838575843068,1610
1609.1206576037753,1637
1611.1569353134305,1613
1613.1926909661765,1565
1615.2279248149953,1561
1617.2626371129481,1526
1619.2968281131757,1578
1621.3304980688963,1564
1623.3636472334088,1459
1625.39627586009,1502
1627.428384202396,1456
1629.459972513861,1386
1631.4910410480993,1384
1633.5215900588028,1461
1635.551619799744,1382
1637.5811305247717,1424
1639.6101224878166,1418
1641.6385959428862,1366
1643.6665511440683,1402
1645.693988345528,1377
1647.7209078015112,1388
1649.7473097663405,1410
1651.7731944944203,1371
1653.7985622402307,1365
1655.823413258333,1405
1657.847747803366,1353
1659.8715661300494,1360
1661.8948684931793,1413
1663.9176551476316,1347
1665.9399263483624,1366
1667.9616823504057,1325
1669.982923408873,1394
1672.0036497789574,1368
1674.0238617159293,1323
1676.043559475138,1306
1678.0627433120121,1371
1680.081413482059,1363
1682.0995702408654,1376
1684.117213844096,1388
1686.134344547495,1365
1688.1509626068864,1325
1690.1670682781705,1290
1692.182661817329,1358
1694.1977434804217,1366
1696.2123135235875,1322
1698.226372203043,1340
1700.2399197750851,1291
1702.2529564960905,1338
1704.2654826225112,1337
1706.277498410882,1296
1708.2890041178139,1328
1710.2999999999988,1328
1712.3104863142066,1337
1714.3204633172854,1256
1716.329931266163,1295
1718.3388904178469,1345
1720.3473410294214,1287
1722.3552833580516,1351
1724.3627176609807,1296
1726.3696441955308,1332
1728.3760632191033,1299
1730.3819749891782,1387
1732.3873797633146,1319
1734.3922777991502,1327
1736.3966693544012,1344
1738.4005546868639,1276
1740.4039340544127,1302
1742.406807715001,1305
1744.4091759266616,1306
1746.4110389475054,1250
1748.4123970357223,1313
1750.413250449582,1286
1752.4135994474318,1298
1754.4134442876993,1245
1756.4127852288902,1260
1758.4116225295893,1314
1760.4099564484595,1246
1762.407787244244,1305
1764.405115175764,1275
1766.4019405019203,1257
1768.3982634816916,1253
1770.3940843741357,1250
1772.3894034383907,1260
1774.3842209336717,1271
1776.378537119274,1275
1778.372352254571,1247
1780.3656665990156,1314
1782.3584804121397,1232
1784.3507939535534,1213
1786.3426074829463,1278
1788.3339212600863,1228
1790.3247355448211,1265
1792.3150505970766,1288
1794.3048666768573,1224
1796.2941840442477,1244
1798.2830029594106,1264
1800.2713236825884,1263
1802.2591464741004,1280
1804.2464715943465,1229
1806.2332993038058,1218
1808.2196298630352,1243
1810.2054635326708,1215
1812.190800573428,1271
1814.175641246101,1290
1816.1599858115628,1286
1818.1438345307652,1222
1820.127187664738,1235
1822.1100454745924,1221
1824.092408221516,1233
1826.0742761667766,1239
1828.055649571721,1204
1830.0365286977735,1246
1832.0169138064398,1264
1833.9968051593014,1265
1835.9762030180214,1220
1837.9551076443408,1198
1839.9335193000788,1277
1841.9114382471344,1234
1843.888864747485,1240
1845.8657990631878,1241
1847.842241456378,1269
1849.8181921892697,1197
1851.7936515241558,1236
1853.7686197234098,1213
1855.7430970494815,1261
1857.7170837649014,1209
1859.6905801322787,1206
1861.6635864143004,1263
1863.6361028737338,1197
1865.608129773424,1227
1867.5796673762961,1222
1869.5507159453537,1262
1871.521275743678,1214
1873.4913470344313,1240
1875.4609300808534,1214
1877.4300251462632,1250
1879.3986324940588,1207
1881.366752387717,1231
1883.3343850907936,1298
1885.3015308669228,1297
1887.268189979819,1294
1889.2343626932739,1252
1891.2000492711595,1200
1893.1652499774254,1252
1895.1299650761011,1274
1897.0941948312952,1316
1899.0579395071945,1311
1901.0211993680641,1275
1902.98397467825,1293
1904.9462657021745,1253
1906.9080727043415,1269
1908.869395949332,1254
1910.8302357018065,1209
1912.790592226504,1235
1914.7504657882428,1268
1916.7098566519212,1275
1918.6687650825133,1257
1920.6271913450764,1249
1922.5851357047422,1257
1924.5425984267245,1223
1926.499579776314,1234
1928.4560800188833,1275
1930.4120994198802,1265
1932.367638244833,1219
1934.32269675935,1265
1936.2772752291175,1218
1938.231373919899,1260
1940.1849930975404,1284
1942.1381330279637,1279
1944.0907939771696,1178
1946.0429762112412,1254
1947.9946799963363,1282
1949.9459055986945,1229
1951.896653284633,1218
1953.8469233205478,1217
1955.7967159729142,1231
1957.7460315082863,1250
1959.6948701932974,1216
1961.6432322946594,1191
1963.5911180791632,1197
1965.5385278136787,1240
1967.4854617651545,1286
1969.4319202006182,1196
1971.377903387176,1269
1973.3234115920136,1244
1975.268445082395,1189
1977.2130041256642,1285
1979.1570889892423,1271
1981.1006999406304,1254
1983.04383724741,1194
1984.986501177238,1233
1986.928691997853,1198
1988.8704099770712,1202
1990.811655382789,1218
1992.7524284829801,1206
1994.692729545698,1196
1996.6325588390755,1201
1998.5719166313224,1226
2000.5108031907307,1237
2002.4492187856677,1205
2004.387163684583,1181
2006.3246381560011,1128
2008.2616424685298,1159
2010.1981768908527,1244
2012.1342416917332,1171
2014.069837140014,1172
2016.0049635046162,1169
2017.9396210545406,1181
2019.8738100588666,1158
2021.8075307867502,1228
2023.740783507431,1174
2025.6735684902228,1202
2027.6058860045214,1204
2029.5377363198004,1190
2031.4691197056118,1196
2033.4000364315875,1168
2035.3304867674374,1168
2037.260470982952,1196
2039.189989347998,1213
2041.1190421325232,1189
2043.047629606554,1173
2044.9757520401945,1199
2046.9034097036288,1124
2048.8306028671195,1195
2050.7573318010086,1157
2052.683596775716,1214
2054.609398061742,1196
2056.5347359296647,1237
2058.4596106501403,1232
2060.384022493906,1161
2062.3079717317764,1159
2064.231458634646,1203
2066.1544834734873,1222
2068.077046519352,1202
2069.99914804337,1214
2071.9207883167524,1235
2073.8419676107865,1218
2075.7626861968406,1172
2077.6829443463607,1250
2079.6027423308715,1195
2081.522080421977,1172
2083.440958891362,1173
2085.359378010786,1236
2087.2773380520907,1203
2089.194839287196,1234
2091.111881988101,1169
2093.0284664268825,1175
2094.9445928756973,1183
2096.86026160678,1157
2098.775472892446,1189
2100.690227005088,1204
2102.604524217178,1190
2104.5183648012676,1145
2106.431749029985,1238
2108.34467717604,1186
2110.2571495122206,1218
2112.169166311393,1153
2114.080727846503,1171
2115.9918343905747,1170
2117.902486216711,1174
2119.8126835980956,1165
2121.722426807987,1123
2123.6317161197285,1215
2125.5405518067364,1227
2127.448934142509,1163
2129.356863400624,1244
2131.264339854737,1223
2133.1713637785815,1235
2135.077935445972,1239
2136.9840551308002,1212
2138.889723107037,1193
2140.7949396487334,1175
2142.699705030018,1184
2144.6040195250994,1220
2146.507883408264,1220
2148.4112969538774,1230
2150.3142604363848,1280
2152.2167741303097,1250
2154.1188383102535,1195
2156.0204532508997,1145
2157.9216192270064,1251
2159.822336513414,1223
2161.7226053850413,1237
2163.622426116884,1213
2165.5217989840185,1155
2167.4207242616,1195
2169.319202224862,1214
2171.2172331491165,1251
2173.1148173097563,1219
2175.0119549822507,1190
2176.90864644215,1242
2178.8048919650823,1213
2180.7006918267534,1233
2182.596046302952,1237
2184.4909556695407,1270
2186.3854202024645,1241
2188.279440177746,1228
2190.173015871487,1239
2192.066147559868,1264
2193.958835519149,1243
2195.851080025667,1234
2197.7428813558417,1276
2199.6342397861667,1195
2201.5251555932186,1258
2203.415629053651,1291
2205.3056604441986,1278
2207.19525004167,1257
2209.084398122958,1267
2210.9731049650327,1294
2212.861370844941,1292
2214.749196039812,1291
2216.636580826851,1283
2218.523525483344,1302
2220.410030286655,1292
2222.296095514226,1301
2224.1817214435805,1300
2226.066908352319,1267
2227.951656518121,1305
2229.835966218746,1219
2231.71983773203,1336
2233.6032713358913,1288
2235.486267308324,1302
2237.3688259274036,1279
2239.2509474712824,1284
2241.132632218193,1214
2243.013880446447,1279
2244.8946924344323,1330
2246.7750684606203,1318
2248.6550088035574,1270
2250.534513741871,1305
2252.413583554265,1294
2254.292218519526,1275
2256.170418916517,1260
2258.0481850241786,1246
2259.925517121534,1239
2261.8024154876825,1201
2263.678880401803,1246
2265.5549121431536,1296
2267.430510991071,1276
2269.305677224971,1246
2271.180411124348,1304
2273.0547129687766,1265
2274.9285830379076,1267
2276.8020216114737,1304
2278.6750289692845,1294
2280.5476053912294,1252
2282.4197511572766,1310
2284.2914665474727,1329
2286.162751841943,1316
2288.0336073208937,1261
2289.904033264608,1327
2291.774029953448,1351
2293.6435976678554,1278
2295.5127366883517,1292
2297.381447295534,1279
2299.2497297700825,1277
2301.1175843927526,1214
2302.9850114443825,1214
2304.852011205885,1190
2306.7185839582553,1191
2308.5847299825664,1125
2310.4504495599676,1136
2312.3157429716925,1141
2314.1806104990483,1131
2316.0450524234247,1152
2317.9090690262888,1117
2319.772660589186,1166
2321.635827393742,1050
2323.498569721661,1100
2325.3608878547248,1037
2327.2227820747967,1088
2329.0842526638157,1131
2330.945299903803,1129
2332.805924076857,1124
2334.6661254651535,1091
2336.525904350951,1039
2338.3852610165827,1134
2340.244195744464,1090
2342.102708817088,1114
2343.9608005170253,1103
2345.8184711269287,1119
2347.675720929526,1138
2349.532550207628,1114
2351.38895924412,1122
2353.24494832197,1061
2355.100517724223,1093
2356.955667734004,1071
2358.810398634514,1173
2360.664710709037,1069
2362.5186042409337,1086
2364.3720795136437,1093
2366.225136810686,1098
2368.0777764156583,1073
2369.929998612237,1136
2371.7818036841777,1075
2373.633191915315,1122
2375.484163589562,1132
2377.3347189909114,1117
2379.184858403434,1166
2381.03458211128,1093
2382.8838903986775,1132
2384.732783549936,1139
2386.5812618494406,1127
2388.4293255816588,1127
2390.2769750311327,1136
2392.1242104824883,1125
2393.971032220427,1175
2395.8174405297295,1156
2397.6634356952563,1128
2399.509018001947,1104
2401.3541877348193,1122
2403.1989451789705,1120
2405.043290619576,1111
2406.8872243418905,1094
2408.730746631247,1171
2410.5738577730594,1111
2412.4165580528183,1101
2414.258847756095,1134
2416.100727168537,1127
2417.9421965758734,1076
2419.783256263912,1186
2421.623906518538,1143
2423.4641476257157,1120
2425.303979871491,1158
2427.143403541984,1130
2428.9824189233977,1107
2430.821026302012,1117
2432.6592259641866,1175
2434.497018196361,1146
2436.33440328505,1158
2438.171381516851,1123
2440.00795317844,1104
2441.844118556569,1129
2443.6798779380724,1133
2445.5152316098606,1124
2447.3501798589255,1151
2449.1847229723357,1190
2451.0188612372403,1138
2452.8525949408663,1133
2454.6859243705203,1116
2456.518849813587,1146
2458.3513715575314,1070
2460.183489889895,1146
2462.015205098301,1147
2463.8465174704493,1171
2465.67742729412,1178
2467.5079348571717,1117
2469.338040447542,1149
2471.1677443532476,1141
2472.9970468623833,1180
2474.825948263123,1139
2476.6544488437207,1226
2478.482548892508,1192
2480.310248697896,1194
2482.137548548374,1207
2483.9644487325118,1169
2485.790949538956,1140
2487.617051256433,1166
2489.44275417375,1164
2491.26805857979,1129
2493.0929647635157,1178
2494.917473013971,1196
2496.741583620276,1166
2498.5652968716304,1177
2500.3886130573137,1161
2502.2115324666834,1128
2504.0340553891765,1214
2505.856182114308,1194
2507.6779129316733,1220
2509.499248130945,1140
2511.3201880018764,1185
2513.140732834298,1178
2514.9608829181198,1161
2516.780638543331,1173
2518.6,1184
2520.418967578273,1179
2522.237541568376,1204
2524.0557222606144,1197
2525.8735099453706,1268
2527.6909049131086,1151
2529.507907454368,1186
2531.32451785977,1205
2533.140736420014,1211
2534.9565634258774,1280
2536.771999168218,1262
2538.5870439379714,1225
2540.4016980261526,1239
2542.2159617238544,1287
2544.02983532225,1258
2545.8433191125914,1225
2547.656413386209,1296
2549.4691184345115,1278
2551.2814345489874,1249
2553.093362021204,1272
2554.904901142808,1319
2556.716052205523,1305
2558.526815501153,1362
2560.3371913215824,1338
2562.147179958771,1341
2563.956781704761,1322
2565.7659968516705,1393
2567.5748256916986,1360
2569.3832685171224,1320
2571.1913256202984,1309
2572.9989972936614,1369
2574.806283829725,1419
2576.613185521084,1378
2578.4197026604074,1350
2580.2258355404483,1392
2582.031584454035,1421
2583.836949694077,1408
2585.6419315535613,1325
2587.4465303255533,1384
2589.2507463032002,1434
2591.0545797797245,1360
2592.8580310484303,1368
2594.6611004026995,1372
2596.463788135992,1356
2598.266094541849,1414
2600.0680199138874,1372
2601.869564545807,1406
2603.670728731383,1430
2605.4715127644704,1419
2607.2719169390048,1397
2609.071941548998,1373
2610.8715868885433,1363
2612.670853251811,1426
2614.469740933052,1380
2616.268250226594,1384
2618.0663814268455,1481
2619.864134828292,1368
2621.6615107255006,1388
2623.458509413115,1380
2625.2551311858597,1420
2627.0513763385347,1341
2628.8472451660223,1317
2630.6427379632833,1349
2632.4378550253564,1373
2634.232596647359,1417
2636.026963124488,1300
2637.8209547520187,1327
2639.6145718253065,1293
2641.407814639785,1298
2643.200683490966,1298
2644.9931786744414,1298
2646.7853004858807,1272
2648.577049221034,1307
2650.3684251757277,1289
2652.1594286458712,1268
2653.9500599274484,1273
2655.740319316525,1259
2657.5302071092437,1285
2659.3197236018286,1258
2661.10886909058,1242
2662.8976438718782,1238
2664.686048242183,1263
2666.4740824980327,1212
2668.2617469360443,1256
2670.0490418529134,1219
2671.8359675454153,1266
2673.622524310403,1227
2675.408712444811,1253
2677.1945322456495,1247
2678.979984010009,1176
2680.76506803506,1189
2682.5497846180497,1135
2684.334134056306,1145
2686.1181166472343,1154
2687.9017326883213,1212
2689.6849824771293,1142
2691.4678663113013,1182
2693.2503844885596,1185
2695.032537306705,1125
2696.8143250636167,1151
2698.5957480572542,1164
2700.3768065856534,1189
2702.1575009469316,1157
2703.937831439283,1126
2705.717798360982,1186
2707.4974020103837,1140
2709.276642685917,1126
2711.055520686095,1153
2712.834036309506,1090
2714.612189854819,1093
2716.389981620782,1138
2718.1674119062204,1117
2719.944481010041,1129
2721.721189231226,1100
2723.4975368688415,1092
2725.273524222027,1163
2727.0491515900053,1166
2728.824419272075,1123
2730.5993275676146,1130
2732.3738767760838,1123
2734.148067197016,1114
2735.921899130031,1112
2737.6953728748194,1073
2739.468488731156,1070
2741.2412469988926,1078
2743.0136479779617,1043
2744.785691968372,1083
2746.5573792702116,1064
2748.3287101836504,1095
2750.099685008934,1071
2751.870304046388,1134
2753.640567596418,1154
2755.4104759595057,1098
2757.1800294362156,1082
2758.949228327187,1088
2760.7180729331412,1150
2762.486563554877,1097
2764.254700493272,1110
2766.022484049284,1146
2767.789914523947,1137
2769.5569922183786,1121
2771.3237174337705,1107
2773.090090471394,1089
2774.8561116326036,1083
2776.6217812188274,1059
2778.3870995315756,1102
2780.1520668724356,1047
2781.9166835430747,1114
2783.6809498452394,1068
2785.444866080754,1080
2787.2084325515225,1056
2788.971649559527,1114
2790.73451740683,1121
2792.4970363955713,1089
2794.2592068279705,1112
2796.0210290063264,1113
2797.7825032330147,1070
2799.543629810493,1114
2801.304409041296,1114
2803.0648412280366,1049
2804.8249266734088,1130
2806.5846656801846,1061
2808.344058551212,1109
2810.1031055894246,1097
2811.8618070978273,1151
2813.6201633795085,1127
2815.378174737636,1080
2817.1358414754536,1121
2818.893163896285,1089
2820.6501423035334,1110
2822.4067770006814,1063
2824.1630682912883,1091
2825.9190164789957,1077
2827.6746218675207,1099
2829.429884760661,1104
2831.184805462294,1113
2832.9393842763743,1118
2834.693621506936,1080
2836.4475174580916,1107
2838.201072434034,1091
2839.954286739034,1123
2841.707160677441,1103
2843.459694553685,1111
2845.2118886722724,1108
2846.96374333779,1140
2848.7152588549034,1110
2850.4664355283567,1085
2852.217273662973,1039
2853.9677735636546,1109
2855.7179355353833,1126
2857.4677598832186,1101
2859.217246912299,1114
2860.9663969278427,1083
2862.715210235146,1122
2864.4636871395846,1074
2866.211827946614,1162
2867.9596329617652,1105
2869.7071024906536,1092
2871.4542368389684,1088
2873.20103631248,1065
2874.947501217038,1111
2876.6936318585695,1133
2878.4394285430812,1126
2880.1848915766604,1118
2881.9300212654707,1101
2883.6748179157553,1088
2885.4192818338374,1094
2887.1634133261173,1134
2888.907212699077,1110
2890.6506802592744,1104
2892.393816313348,1098
2894.1366211680142,1141
2895.8790951300693,1082
2897.621238506388,1079
2899.363051603925,1049
2901.1045347297118,1157
2902.8456881908596,1116
2904.58651229456,1065
2906.327007348081,1091
2908.067173658772,1084
2909.8070115340597,1153
2911.5465212814497,1127
2913.285703208527,1058
2915.0245576229563,1084
2916.7630848324807,1089
2918.5012851449196,1083
2920.2391588681758,1113
2921.976706310227,1119
2923.7139277791334,1066
2925.4508235830313,1077
2927.187394030137,1074
2928.923639428745,1159
2930.6595600872306,1124
2932.395156314046,1077
2934.1304284177218,1083
2935.8653767068713,1146
2937.6000014901815,1119
2939.3343030764227,1083
2941.068281774442,1137
2942.8019378931644,1107
2944.5352717415976,1113
2946.2682836288236,1107
2948.0009738640065,1091
2949.7333427563885,1112
2951.465390615289,1071
2953.1971177501086,1120
2954.9285244703265,1088
2956.6596110855,1122
2958.3903779052657,1117
2960.1208252393385,1111
2961.8509533975125,1132
2963.5807626896617,1092
2965.3102534257378,1156
2967.0394259157715,1066
2968.768280469873,1083
2970.496817398232,1134
2972.2250370111146,1090
2973.952939618869,1116
2975.6805255319196,1154
2977.4077950607707,1085
2979.134748516006,1061
2980.861386208289,1110
2982.587708448359,1132
2984.313715547037,1111
2986.039407815222,1084
2987.764785563891,1111
2989.489849104102,1093
2991.2145987469908,1078
2992.9390348037705,1050
2994.6631575857346,1090
2996.3869674042576,1052
2998.1104645707887,1079
2999.83364939686,1067
3001.5565221940783,1074
3003.2790832741334,1074
3005.0013329487924,1074
3006.7232715298996,1070
3008.4448993293804,1063
3010.166216659239,1025
3011.887223831558,1092
3013.607921158498,1093
3015.3283089522993,1081
3017.0483875252826,1093
3018.7681571898443,1131
3020.4876182584626,1017
3022.2067710436927,1116
3023.9256158581707,1102
3025.644153014609,1068
3027.362382825801,1056
3029.0803056046193,1079
3030.797921664012,1095
3032.5152313170106,1034
3034.2322348767225,1044
3035.9489326563353,1090
3037.665324969115,1070
3039.3814121284063,1075
3041.097194447633,1061
3042.812672240299,1069
3044.5278458199855,1123
3046.2427155003525,1065
3047.9572815951406,1082
3049.671544418167,1091
3051.38550428333,1048
3053.0991615046073,1074
3054.812516396051,1068
3056.5255692717974,1076
3058.2383204460575,1097
3059.9507702331257,1071
3061.662918947372,1099
3063.3747669032446,1121
3065.0863144152736,1087
3066.7975617980674,1090
3068.508509366309,1034
3070.219157434767,1086
3071.9295063182844,1097
3073.639556331785,1132
3075.3493077902704,1066
3077.058761008821,1086
3078.7679163025964,1044
3080.476773986837,1067
3082.1853343768594,1070
3083.89359778806,1081
3085.6015645359153,1059
3087.3092349359786,1080
3089.016609303884,1042
3090.7236879553434,1024
3092.4304712061476,1034
3094.136959372166,1062
3095.843152769349,1106
3097.5490517137237,1093
3099.2546565213966,1052
3100.959967508554,1125
3102.66498499146,1051
3104.3697092864577,1075
3106.0741407099695,1073
3107.778279578498,1089
3109.482126208622,1063
3111.1856809170004,1074
3112.8889440203716,1085
3114.5919158355528,1136
3116.294596679439,1112
3117.996986869006,1106
3119.6990867213062,1126
3121.4008965534726,1099
3123.102416682717,1134
3124.803647426329,1076
3126.5045891016784,1121
3128.205242026213,1103
3129.90560651746,1077
3131.605682893025,1078
3133.3054714705922,1109
3135.0049725679282,1087
3136.7041865028714,1111
3138.4031135933465,1065
3140.101754157353,1135
3141.800108512971,1054
3143.498176978357,1102
3145.1959598717494,1069
3146.8934575114636,1090
3148.5906702158954,1083
3150.2875983035183,1078
3151.9842420928853,1047
3153.680601902627,1091
3155.376678051456,1096
3157.07247085816,1122
3158.767980641609,1076
3160.463207720748,1076
3162.158152414606,1051
3163.8528150422862,1128
3165.5471959229726,1106
3167.2412953759303,1098
3168.9351137204976,1106
3170.628651276098,1086
3172.3219083622307,1063
3174.014885298474,1036
3175.707582404485,1078
3177.4000000000005,1093
3179.092138404835,1050
3180.7839979388846,1127
3182.47557892212,1095
3184.166881674594,1060
3185.8579065164386,1099
3187.5486537678626,1070
3189.2391237491547,1070
3190.9293167806827,1073
3192.6192331828934,1060
3194.3088732763117,1095
3195.998237381542,1099
3197.687325819268,1060
3199.376138910251,1032
3201.064676975334,1044
3202.7529403354347,1088
3204.4409293115523,1050
3206.1286442247647,1047
3207.816085396229,1062
3209.5032531471825,1085
3211.190147798936,1078
3212.8767696728846,1100
3214.5631190905015,1080
3216.2491963733373,1009
3217.9350018430214,1064
3219.6205358212637,1031
3221.305798629851,1028
3222.990790590651,1045
3224.6755120256103,1064
3226.359963256751,1054
3228.0441446061795,1056
3229.7280563960758,1035
3231.411698948703,1047
3233.0950725863995,1065
3234.778177631587,1084
3236.461014406761,1059
3238.1435832345005,1085
3239.8258844374595,1044
3241.507918338374,1057
3243.1896852600576,1085
3244.8711855254023,1067
3246.552419457381,1092
3248.233387379042,1053
3249.914089613516,1037
3251.59452648401,1060
3253.274698313813,1060
3254.95460542629,1147
3256.6342481448855,1076
3258.313626793125,1065
3259.9927416946084,1068
3261.6715931730196,1052
3263.3501815521176,1071
3265.0285071557437,1041
3266.706570307815,1055
3268.3843713323286,1002
3270.0619105533615,1052
3271.739188295068,1102
3273.4162048816834,1053
3275.0929606375184,1100
3276.769455886966,1036
3278.445690954498,1031
3280.1216661646613,1087
3281.797381842087,1089
3283.4728383114807,1024
3285.1480358976296,1099
3286.8229749253996,1082
3288.4976557197333,1023
3290.172078605655,1066
3291.846243908266,1110
3293.5201519527463,1117
3295.193803064357,1051
3296.8671975684374,1048
3298.5403357904024,1060
3300.21321805575,1057
3301.8858446900567,1076
3303.558216018975,1038
3305.23033236824,1075
3306.9021940636603,1055
3308.57380143113,1047
3310.2451547966184,1092
3311.916254486174,1009
3313.5871008259246,1102
3315.2576941420766,1064
3316.9280347609147,1053
3318.5981230088046,1069
3320.2679592121895,1033
3321.9375436975924,1035
3323.606876791612,1035
3325.27595882093,1040
3326.944790112305,1048
3328.6133709925753,1040
3330.2817017886573,1053
3331.949782827547,1026
3333.617614436319,1050
3335.2851969421245,1067
3336.952530672199,1099
3338.619615953853,1031
3340.286453114475,1022
3341.9530424815357,1043
3343.619384382583,1094
3345.2854791452437,1045
3346.951327097224,1062
3348.6169285663073,1071
3350.2822838803577,1053
3351.947393367319,1066
3353.61225735521,1067
3355.2768761721345,1007
3356.9412501462693,1057
3358.605379605873,1045
3360.2692648792827,1059
3361.9329062949146,1006
3363.596304181263,1028
