CollectionTime,7/11/2024 1:36:10 PM
ExposureUsed,3
CalibratedSpectrum
-962.7078968117929,499
-959.9714848408522,516
-957.2358232597828,526
-954.5009119013725,525
-951.7667505983302,470
-949.0333391832855,517
-946.3006774887896,515
-943.5687653473143,549
-940.837602591253,523
-938.1071890529199,503
-935.3775245645503,507
-932.6486089583007,513
-929.9204420662485,543
-927.1930237203925,542
-924.4663537526524,513
-921.7404319948689,517
-919.0152582788041,520
-916.2908324361409,572
-913.5671542984834,509
-910.8442236973568,540
-908.1220404642074,512
-905.4006044304027,555
-902.679915427231,537
-899.959973285902,532
-897.2407778375464,515
-894.5223289132158,486
-891.8046263438832,490
-889.0876699604426,499
-886.3714595937089,490
-883.6559950744183,507
-880.9412762332282,515
-878.2273029007168,523
-875.5140749073835,504
-872.8015920836489,517
-870.0898542598545,500
-867.3788612662631,501
-864.6686129330585,492
-861.9591090903457,512
-859.2503495681506,518
-856.5423341964203,487
-853.8350628050229,494
-851.1285352237478,487
-848.4227512823054,493
-845.7177108103272,530
-843.0134136373656,523
-840.3098595928943,532
-837.6070485063082,544
-834.9049802069229,532
-832.2036545239757,534
-829.5030712866244,515
-826.8032303239481,505
-824.1041314649472,524
-821.4057745385428,517
-818.7081593735775,533
-816.0112857988148,503
-813.3151536429393,538
-810.6197627345566,518
-807.9251129021936,494
-805.2312039742981,499
-802.5380357792392,534
-799.8456081453069,540
-797.1539209007124,517
-794.462973873588,536
-791.772766891987,554
-789.083299783884,538
-786.3945723771743,513
-783.7065844996748,523
-781.0193359791231,540
-778.3328266431781,530
-775.6470563194197,530
-772.9620248353489,486
-770.2777320183878,508
-767.5941776958798,523
-764.9113616950891,548
-762.2292838432011,523
-759.5479439673222,542
-756.8673418944801,526
-754.1874774516235,536
-751.5083504656222,524
-748.8299607632671,564
-746.15230817127,545
-743.475392516264,530
-740.7992136248035,566
-738.1237713233636,518
-735.4490654383407,559
-732.7750957960521,512
-730.1018622227365,539
-727.4293645445534,543
-724.7576025875837,554
-722.0865761778291,532
-719.4162851412126,547
-716.7467293035781,575
-714.0779084906909,600
-711.409822528237,566
-708.7424712418238,567
-706.0758544569796,535
-703.4099719991541,575
-700.7448236937178,568
-698.0804093659622,606
-695.4167288411002,574
-692.7537819442656,569
-690.0915685005134,588
-687.4300883348199,559
-684.7693412720819,590
-682.1093271371178,592
-679.4500457546669,562
-676.7914969493897,579
-674.1336805458676,580
-671.4765963686034,581
-668.8202442420206,624
-666.1646239904642,596
-663.5097354382001,565
-660.8555784094151,597
-658.2021527282176,624
-655.5494582186366,603
-652.8974947046223,614
-650.2462620100463,622
-647.5957599587009,608
-644.9459883742998,591
-642.2969470804776,620
-639.6486359007902,606
-637.0010546587141,611
-634.3542031776476,593
-631.7080812809096,611
-629.0626887917401,599
-626.4180255333008,566
-623.7740913286734,621
-621.1308860008619,643
-618.4884093727904,583
-615.8466612673046,634
-613.2056415071715,622
-610.5653499150785,647
-607.9257863136347,600
-605.28695052537,614
-602.6488423727357,608
-600.0114616781036,625
-597.3748082637674,618
-594.7388819519412,622
-592.1036825647604,637
-589.4692099242818,673
-586.8354638524829,634
-584.2024441712624,646
-581.5701507024403,652
-578.9385832677575,624
-576.3077416888759,627
-573.6776257873787,660
-571.0482353847704,622
-568.4195703024757,626
-565.7916303618415,628
-563.164415384135,638
-560.5379251905453,656
-557.9121596021815,632
-555.2871184400748,651
-552.6628015251767,637
-550.0392086783606,651
-547.4163397204204,654
-544.794194472071,658
-542.1727727539491,644
-539.5520743866118,669
-536.9320991905377,706
-534.3128469861261,707
-531.6943175936979,709
-529.0765108334947,738
-526.4594265256793,737
-523.8430644903358,835
-521.2274245474689,923
-518.612506517005,956
-515.9983102187913,963
-513.3848354725959,1001
-510.77208209810846,1062
-508.16004991493924,1144
-505.5487387426199,1370
-502.9381484006032,1408
-500.3282787082628,1373
-497.71912948489364,1280
-495.1107005497117,1210
-492.5029917218539,1147
-489.8960028203786,1030
-487.28973366426493,931
-484.68418407241325,815
-482.07935386364494,834
-479.47524285670266,793
-476.87185087025,794
-474.2691777228715,796
-471.66722323307334,776
-469.0659872192821,787
-466.4654694998459,787
-463.86566989303384,797
-461.26658821703614,781
-458.66822428996414,753
-456.07057792985,805
-453.4736489546475,787
-450.877437182231,782
-448.28194243039627,806
-445.68716451686,797
-443.09310325926003,788
-440.49975847515555,746
-437.9071299820263,766
-435.31521759727354,775
-432.72402113821954,828
-430.13354042210767,794
-427.5437752661022,790
-424.95472548728867,808
-422.36639090267386,823
-419.7787713291855,856
-417.1918665836721,858
-414.60567648290385,865
-412.0202008435715,868
-409.4354394822874,868
-406.8513922155845,866
-404.26805885991723,850
-401.685439231661,865
-399.103533147112,828
-396.522340422488,836
-393.9418608739278,812
-391.3620943174908,832
-388.7830405691583,815
-386.2046994448317,767
-383.6270707603344,792
-381.05015433141045,721
-378.473949973725,698
-375.8984575028645,626
-373.32367673433623,590
-370.74960748356875,605
-368.1762495659117,567
-365.60360279663576,541
-363.03166699093265,506
-360.4604419639154,478
-357.8899275306178,463
-355.32012350599507,454
-352.7510297049233,434
-350.1826459421999,425
-347.61497203254316,416
-345.04800779059235,422
-342.4817530309082,460
-339.91620756797226,468
-337.35137121618743,406
-334.7872437898774,446
-332.22382510328725,454
-329.66111497058273,441
-327.09911320585127,435
-324.53781962310075,457
-321.9772340362607,447
-319.4173562591816,433
-316.8581861056348,404
-314.2997233893127,434
-311.7419679238294,417
-309.1849195227194,448
-306.62857799943856,442
-304.0729431673641,468
-301.51801483979375,454
-298.963792829947,480
-296.41027695096386,453
-293.85746701590574,464
-291.3053628377552,493
-288.7539642294155,510
-286.2032710037115,491
-283.65328297338897,490
-281.1039999511146,507
-278.5554217494762,544
-276.007548180983,513
-273.4603790580651,467
-270.9139141930734,455
-268.3681533982807,489
-265.8230964858798,470
-263.27874326798565,503
-260.7350935566336,513
-258.1921471637804,520
-255.6499039013039,497
-253.10836358100266,535
-250.56752601459698,526
-248.02739101372765,517
-245.48795838995704,530
-242.94922795476816,526
-240.41119951956557,552
-237.8738728956746,535
-235.33724789434166,552
-232.80132432673452,544
-230.2661020039418,569
-227.73158073697357,553
-225.19776033676033,535
-222.66464061415422,560
-220.1322213799284,585
-217.60050244477725,555
-215.06948361931552,531
-212.53916471408013,574
-210.00954553952818,590
-207.48062590603843,615
-204.9524056239104,601
-202.4248845033651,627
-199.8980623545441,573
-197.37193898751036,647
-194.84651421224817,637
-192.32178783866232,569
-189.79775967657952,587
-187.27442953574644,665
-184.7517972258321,725
-182.2298625564256,706
-179.7086253370378,671
-177.18808537710026,660
-174.66824248596583,629
-172.14909647290835,659
-169.6306471471229,638
-167.11289431772548,674
-164.59583779375328,681
-162.07947738416453,716
-159.5638128978386,700
-157.04884414357605,736
-154.53457093009854,706
-152.02099306604828,702
-149.50811035998936,702
-146.99592262040665,704
-144.48442965570587,731
-141.97363127421409,738
-139.46352728417958,740
-136.95411749377126,724
-134.44540171107985,739
-131.93737974411636,722
-129.43005140081357,756
-126.92341648902493,951
-124.41747481652521,1263
-121.91222619101006,1426
-119.40767042009657,1594
-116.90380731132257,1887
-114.40063667214702,1966
-111.8981583099503,1973
-109.3963720320337,1623
-106.89527764561933,1300
-104.39487495785067,1173
-101.89516377579241,1623
-99.39614390642998,2404
-96.89781515667039,2754
-94.40017733334128,2455
-91.90323024319173,2346
-89.40697369289148,3118
-86.91140748903172,3855
-84.41653143812482,4733
-81.92234534660395,4342
-79.42884902082358,3160
-76.93604226705907,3814
-74.4439248915071,7563
-71.95249670028534,12269
-69.46175749943245,16632
-66.97170709490854,18891
-64.48234529259423,18340
-61.99367189829195,15087
-59.50568671772464,11405
-57.01838955653636,10154
-54.53178022029283,10415
-52.045858514480074,9650
-49.560624244506016,10512
-47.07607721569923,11117
-44.59221723330904,10770
-42.10904410250669,9226
-39.62655762838392,7661
-37.14475761595372,6856
-34.66364387015028,6855
-32.18321619582866,7769
-29.70347439776515,9284
-27.224418280657005,9837
-24.74604764912317,9990
-22.26836230770266,13403
-19.7913620608565,22410
-17.315046712966478,36713
-14.83941606833514,47060
-12.36446993118659,65039
-9.89020810566592,65039
-7.416630395839093,65039
-4.94373660569363,65039
-2.471526539137585,65039
-6.821210263296962E-13,65039
2.47084320796705,65039
4.941003281093458,65039
7.410480415786196,65039
9.879274808531363,65039
12.347386655893956,65039
14.814816154518212,65039
17.28156350112681,65039
19.74762889252179,65039
22.21301252558385,21383
24.67771459727237,3952
27.141735304626195,2539
29.605074844762612,2042
32.06773341487792,2297
34.52971121224755,2357
36.99100843422559,2257
39.45162527824516,2062
41.91156194181792,1636
44.370818622535126,1438
46.82939551806646,1157
49.287292826160524,1307
51.74451074464503,1474
54.201049471426245,1535
56.65690920448981,1288
59.112090141899785,1072
61.56659248179983,1161
64.02041642241159,1024
66.4735621620365,915
68.92602989905402,915
71.37781983192338,951
73.82893215918205,1076
76.27936707944684,1160
78.72912479141326,1180
81.17820549385567,1082
83.62660938562783,1038
86.07433666566146,1063
88.5213875329681,897
90.96776218663751,822
93.41346082583925,781
95.85848364982041,851
98.30283085790859,958
100.7465026495089,994
103.18949922410604,934
105.63182078126385,841
108.07346752062438,875
110.51443964190923,829
112.95473734491827,792
115.39436082953114,794
117.83331029570547,767
120.27158594347827,805
122.7091879729652,854
125.1461165843615,814
127.58237197794062,727
130.01795435405518,782
132.4528639131364,825
134.88710085569494,908
137.32066538231982,806
139.75355769367923,750
142.1857779905207,774
144.61732647366978,731
147.04820334403132,687
149.47840880258934,755
151.90794305040674,770
154.33680628862487,891
156.76499871846443,1076
159.19252054122433,1141
161.61937195828352,1220
164.04555317109896,1285
166.47106438120693,1436
168.89590579022217,1590
171.320077599839,1660
173.7435800118302,1694
176.16641322804742,1785
178.58857745042144,1921
181.01007288096173,1998
183.43089972175687,2028
185.85105817497413,1984
188.27054844285988,1974
190.6893707277394,2019
193.10752523201643,2048
195.5250121581745,2064
197.9418317087751,2174
200.3579840864594,2108
202.7734694939469,2123
205.18828813403627,2173
207.6024402096051,2189
210.01592592360964,2144
212.42874547908548,2241
214.84089907914665,2188
217.2523869269868,2177
219.66320922587727,2239
222.0733661791695,2235
224.48285799029293,2175
226.8916848627572,2244
229.29984700014882,2210
231.7073446061355,2296
234.11417788446204,2287
236.520347038953,2257
238.92585227351185,2305
241.33069379212054,2398
243.73487179884035,2443
246.1383864978112,2542
248.541238093252,2502
250.9434267894609,2451
253.34495279081432,2579
255.74581630176783,2524
258.1460175268563,2498
260.54555667069314,2562
262.9444339379703,2666
265.3426495334594,2602
267.7402036620107,2552
270.1370965285529,2536
272.53332833809407,2354
274.9288992957214,2220
277.32380960660055,2233
279.718059475976,2240
282.1116491091717,2261
284.5045787115897,2173
286.89684848871195,2205
289.2884586460981,2164
291.67940938938807,2181
294.0697009242996,2197
296.4593334566299,2204
298.84830719225477,2190
301.23662233712923,2175
303.6242790972866,2122
306.01127767884,2111
308.39761828798066,2080
310.78330113097934,2037
313.16832641418534,1973
315.5526943440269,1911
317.9364051270112,1991
320.3194589697242,1980
322.70185607883093,2026
325.0835966610754,1952
327.4646809232805,1921
329.8451090723478,1912
332.2248813152577,1952
334.6039978590701,1903
336.9824589109231,1843
339.36026467803447,1867
341.7374153677,1875
344.113911187295,1856
346.48975234427337,1827
348.8649390461686,1848
351.2394715005918,1895
353.61334991523415,1875
355.9865744978655,1824
358.35914545633375,1837
360.73106299856715,1877
363.10232733257146,1827
365.47293866643247,1856
367.84289720831396,1798
370.2122031664593,1768
372.5808567491905,1782
374.9488581649083,1804
377.31620762209275,1799
379.6829053293021,1792
382.0489514951745,1718
384.4143463284262,1681
386.7790900378528,1744
389.14318283232853,1718
391.50662492080653,1686
393.86941651231916,1739
396.23155781597745,1721
398.5930490409713,1680
400.9538903965696,1633
403.3140820921202,1736
405.6736243370498,1770
408.03251734086336,1684
410.3907613131465,1677
412.74835646356166,1709
415.10530300185144,1667
417.4616011378372,1718
419.81725108141893,1645
422.1722530425758,1707
424.5266072313656,1668
426.880313857925,1721
429.2333731324701,1626
431.58578526529516,1675
433.9375504667738,1631
436.2886689473588,1671
438.63914091758113,1646
440.9889665880513,1667
443.33814616945835,1684
445.68667987257015,1633
448.03456790823395,1624
450.3818104873759,1591
452.72840782100013,1645
455.07436012019105,1672
457.41966759611057,1672
459.7643304600007,1558
462.10834892318155,1611
464.4517231970525,1655
466.79445349309174,1583
469.1365400228566,1635
471.4779829979826,1646
473.81878263018564,1635
476.15893913125876,1648
478.4984527130747,1627
480.8373235875855,1699
483.17555196682144,1735
485.5131380628919,1743
487.8500820879857,1730
490.1863842543697,1896
492.52204477439034,1987
494.8570638604725,2093
497.1914417251204,2325
499.52517858091653,2597
501.85827464052306,2872
504.19073011668036,3027
506.5225452222086,3049
508.85372017000566,3033
511.18425517304956,2988
513.514150444396,2962
515.8434061971808,3312
518.1720226446176,3771
520.4999999999999,3918
522.8273384766991,3760
525.1540382881666,3486
527.480099647932,3113
529.8055227696037,2604
532.1303078668694,2158
534.454455153496,1882
536.777964843328,1779
539.1008371502907,1707
541.4230722883866,1744
543.744670471698,1658
546.0656319143858,1597
548.3859568306899,1678
550.7056454349294,1654
553.0246979415016,1662
555.3431145648834,1671
557.6608955196306,1638
559.978041020377,1590
562.2945512818363,1570
564.6104265188006,1584
566.9256669461412,1608
569.2402727788082,1655
571.5542442318302,1687
573.8675815203156,1700
576.1802848594508,1664
578.4923544645015,1663
580.8037905508126,1704
583.114593333807,1682
585.4247630289875,1646
587.7342998519354,1699
590.0432040183106,1712
592.3514757438526,1703
594.6591152443794,1659
596.9661227357875,1636
599.2724984340531,1653
601.578242555231,1657
603.8833553154542,1727
606.1878369309362,1657
608.4916876179676,1700
610.7949075929192,1640
613.0974970722403,1679
615.3994562724587,1682
617.7007854101818,1611
620.0014847020951,1637
622.3015543649641,1642
624.6009946156324,1632
626.8998056710224,1646
629.1979877481361,1622
631.4955410640538,1675
633.7924658359349,1705
636.0887622810175,1646
638.3844306166192,1675
640.6794710601358,1720
642.9738838290426,1740
645.2676691408932,1764
647.5608272133207,1708
649.853358264037,1737
652.1452625108324,1792
654.4365401715764,1756
656.7271914642178,1734
659.0172166067838,1744
661.3066158173809,1708
663.5953893141935,1710
665.8835373154867,1710
668.1710600396028,1671
670.4579577049639,1699
672.7442305300709,1708
675.0298787335033,1696
677.3149025339197,1672
679.599302150058,1645
681.8830778007342,1694
684.1662297048437,1730
686.4487580813608,1727
688.7306631493387,1747
691.0119451279091,1755
693.2926042362834,1733
695.5726406937516,1725
697.8520547196814,1737
700.1308465335215,1764
702.4090163547982,1699
704.6865644031171,1676
706.9634908981619,1769
709.2397960596965,1723
711.5154801075631,1705
713.7905432616823,1656
716.0649857420548,1690
718.3388077687592,1652
720.612009561953,1680
722.8845913418733,1725
725.1565533288352,1768
727.427895743234,1657
729.6986188055427,1711
731.9687227363137,1686
734.238207756178,1633
736.5070740858458,1668
738.7753219461066,1708
741.0429515578281,1663
743.3099631419569,1731
745.5763569195191,1670
747.8421331116193,1687
750.1072919394409,1661
752.3718336242467,1640
754.6357583873777,1696
756.8990664502545,1658
759.1617580343765,1733
761.423833361321,1775
763.6852926527457,1665
765.9461361303862,1690
768.206364016058,1726
770.4659765316536,1691
772.7249738991469,1744
774.9833563405886,1723
777.2411240781092,1712
779.4982773339183,1701
781.7548163303044,1720
784.010741289634,1783
786.2660524343538,1769
788.5207499869881,1761
790.7748341701416,1823
793.0283052064964,1782
795.2811633188143,1724
797.5334087299362,1732
799.7850416627813,1740
802.0360623403484,1743
804.2864709857143,1796
806.5362678220353,1730
808.7854530725468,1713
811.0340269605625,1779
813.2819897094754,1719
815.5293415427581,1716
817.77608268396,1808
820.0222133567116,1756
822.2677337847211,1715
824.5126441917765,1761
826.7569448017433,1752
829.0006358385675,1770
831.2437175262731,1673
833.4861900889629,1684
835.7280537508192,1670
837.9693087361026,1735
840.2099552691533,1700
842.4499935743896,1733
844.689423876309,1731
846.9282463994886,1720
849.1664613685833,1724
851.4040690083276,1771
853.6410695435349,1737
855.877463199097,1714
858.1132501999847,1703
860.3484307712487,1766
862.5830051380175,1793
864.8169735254988,1716
867.0503361589791,1731
869.2830932638243,1693
871.5152450654786,1768
873.7467917894654,1733
875.9777336613873,1743
878.2080709069252,1730
880.4378037518389,1748
882.666932421968,1804
884.8954571432301,1767
887.1233781416219,1750
889.3506956432192,1824
891.5774098741766,1752
893.803521060728,1755
896.0290294291852,1775
898.2539352059397,1739
900.4782386174619,1791
902.7019398903011,1743
904.925039251085,1692
907.147536926521,1842
909.3694331433943,1814
911.59072812857,1737
913.8114221089921,1712
916.0315153116827,1752
918.2510079637437,1708
920.4699002923547,1696
922.6881925247761,1747
924.905884888345,1689
927.1229776104793,1754
929.3394709186747,1638
931.555365040506,1660
933.7706602036275,1740
935.9853566357709,1737
938.1994545647489,1701
940.4129542184515,1675
942.6258558248488,1700
944.8381596119883,1741
947.0498658079974,1655
949.2609746410825,1737
951.4714863395287,1658
953.6814011316998,1682
955.8907192460387,1675
958.0994409110671,1720
960.3075663553858,1692
962.5150958076741,1668
964.7220294966913,1714
966.928367651274,1666
969.1341105003388,1715
971.3392582728806,1713
973.5438111979742,1653
975.747769504772,1629
977.9511334225061,1627
980.153903180487,1621
982.3560790081052,1625
984.5576611348289,1613
986.7586497902058,1592
988.9590452038618,1578
991.158847605503,1581
993.3580572249133,1579
995.5566742919558,1580
997.7546990365728,1534
999.952131688785,1469
1002.1489724786926,1531
1004.3452216364743,1478
1006.5408793923874,1458
1008.7359459767691,1443
1010.9304216200343,1481
1013.1243065526781,1479
1015.3176010052733,1510
1017.510305208472,1386
1019.7024193930064,1421
1021.8939437896848,1481
1024.0848786293977,1487
1026.2752241431122,1476
1028.4649805618747,1448
1030.6541481168115,1398
1032.842727039127,1417
1035.0307175601051,1413
1037.2181199111074,1389
1039.4049343235752,1430
1041.591161029029,1391
1043.7768002590683,1391
1045.9618522453698,1353
1048.1463172196918,1376
1050.3301954138697,1402
1052.513487059818,1405
1054.69619238953,1370
1056.8783116350783,1418
1059.0598450286152,1365
1061.2407928023704,1393
1063.4211551886528,1385
1065.6009324198508,1380
1067.780124728432,1350
1069.9587323469414,1399
1072.1367555080046,1411
1074.314194444325,1368
1076.4910493886855,1331
1078.667320573947,1349
1080.843008233051,1331
1083.0181125990161,1360
1085.1926339049414,1329
1087.3665723840027,1362
1089.5399282694575,1326
1091.7127017946405,1292
1093.8848931929647,1325
1096.0565026979243,1313
1098.2275305430899,1325
1100.3979769621128,1300
1102.567842188722,1303
1104.737126456726,1317
1106.9058300000124,1252
1109.0739530525475,1318
1111.2414958483764,1332
1113.4084586216231,1312
1115.5748416064907,1363
1117.7406450372605,1318
1119.9058691482942,1260
1122.0705141740304,1281
1124.2345803489884,1295
1126.3980679077658,1292
1128.5609770850388,1271
1130.7233081155623,1333
1132.8850612341707,1310
1135.0462366757774,1268
1137.2068346753745,1308
1139.3668554680326,1262
1141.526299288901,1264
1143.68516637321,1258
1145.8434569562655,1259
1148.001171273455,1315
1150.158309560244,1253
1152.3148720521767,1245
1154.470858984876,1261
1156.626270594044,1265
1158.7811071154629,1282
1160.9353687849912,1293
1163.089055838569,1249
1165.242168512213,1259
1167.3947070420209,1291
1169.5466716641677,1278
1171.6980626149075,1344
1173.8488801305748,1345
1175.9991244475814,1279
1178.1487958024186,1280
1180.2978944316555,1261
1182.4464205719428,1256
1184.5943744600072,1280
1186.7417563326567,1302
1188.8885664267755,1240
1191.0348049793297,1207
1193.1804722273619,1267
1195.325568407995,1238
1197.4700937584303,1253
1199.614048515948,1289
1201.7574329179074,1305
1203.900247201746,1246
1206.042491604982,1289
1208.1841663652099,1278
1210.3252717201053,1290
1212.465807907422,1234
1214.6057751649923,1312
1216.7451737307279,1276
1218.8840038426192,1300
1221.0222657387353,1239
1223.1599596572241,1296
1225.2970858363137,1259
1227.4336445143094,1253
1229.5696359295966,1291
1231.705060320639,1280
1233.8399179259786,1282
1235.9742089842384,1332
1238.107933734118,1292
1240.2410924143974,1303
1242.373685263935,1284
1244.5057125216676,1296
1246.6371744266116,1329
1248.7680712178621,1336
1250.898403134593,1292
1253.028170416058,1349
1255.1573733015875,1297
1257.2860120305932,1294
1259.4140868425648,1289
1261.54159797707,1300
1263.6685456737569,1328
1265.7949301723515,1303
1267.9207517126597,1338
1270.046010534565,1296
1272.1707068780306,1346
1274.2948409830983,1341
1276.4184130898889,1335
1278.541423438603,1368
1280.6638722695184,1371
1282.785759822993,1321
1284.9070863394636,1346
1287.0278520594447,1361
1289.1480572235314,1408
1291.2677020723963,1379
1293.3867868467923,1362
1295.5053117875495,1407
1297.623277135579,1429
1299.740683131868,1419
1301.8575300174857,1391
1303.973818033578,1436
1306.0895474213703,1378
1308.2047184221678,1454
1310.3193312773528,1381
1312.4333862283888,1378
1314.5468835168163,1410
1316.659823384255,1444
1318.7722060724045,1403
1320.8840318230418,1400
1322.9953008780249,1428
1325.1060134792888,1387
1327.2161698688478,1422
1329.3257702887959,1457
1331.4348149813054,1441
1333.5433041886276,1475
1335.6512381530933,1386
1337.7586171171101,1421
1339.8654413231675,1395
1341.9717110138317,1423
1344.0774264317488,1478
1346.1825878196432,1459
1348.2871954203192,1456
1350.3912494766587,1403
1352.4947502316231,1401
1354.5976979282532,1391
1356.7000928096686,1419
1358.8019351190665,1428
1360.9032250997243,1380
1363.0039629949988,1395
1365.1041490483235,1371
1367.2037835032133,1384
1369.3028666032606,1405
1371.401398592137,1320
1373.4993797135926,1369
1375.5968102114575,1399
1377.6936903296396,1375
1379.7900203121262,1385
1381.8858004029835,1383
1383.9810308463561,1371
1386.075711886469,1413
1388.1698437676241,1364
1390.2634267342032,1418
1392.356461030667,1413
1394.4489469015557,1389
1396.5408845914872,1373
1398.6322743451592,1371
1400.7231164073469,1426
1402.813411022907,1414
1404.903158436773,1386
1406.9923588939578,1446
1409.0810126395531,1470
1411.1691199187303,1454
1413.2566809767386,1477
1415.343696058907,1457
1417.4301654106425,1474
1419.5160892774315,1450
1421.6014679048399,1474
1423.6863015385125,1448
1425.7705904241707,1498
1427.8543348076178,1523
1429.9375349347342,1485
1432.0201910514802,1556
1434.102303403894,1528
1436.1838722380944,1578
1438.2648978002767,1547
1440.3453803367174,1526
1442.4253200937692,1506
1444.5047173178677,1661
1446.5835722555234,1578
1448.6618851533285,1600
1450.739656257952,1602
1452.8168858161434,1617
1454.8935740747306,1665
1456.96972128062,1728
1459.045327680797,1666
1461.120393522327,1761
1463.1949190523528,1755
1465.2689045180973,1732
1467.3423501668608,1753
1469.415256246024,1713
1471.4876230030463,1835
1473.559450685465,1812
1475.6307395408976,1838
1477.7014898170391,1879
1479.771701761665,1835
1481.8413756226287,1856
1483.9105116478618,1966
1485.9791100853772,2013
1488.0471711832643,1963
1490.1146951896926,2031
1492.1816823529098,2007
1494.2481329212433,2043
1496.3140471430984,2047
1498.3794252669609,2024
1500.4442675413939,1990
1502.5085742150404,2114
1504.572345536622,2019
1506.6355817549388,2048
1508.6982831188702,2083
1510.7604498773744,2088
1512.8220822794883,2112
1514.8831805743293,2076
1516.9437450110909,2086
1519.003775839048,2120
1521.0632733075522,2139
1523.1222376660367,2081
1525.1806691640113,2188
1527.2385680510652,2099
1529.2959345768668,2199
1531.3527689911643,2131
1533.4090715437833,2222
1535.4648424846291,2220
1537.5200820636855,2220
1539.5747905310159,2259
1541.6289681367616,2251
1543.6826151311434,2228
1545.7357317644614,2322
1547.7883182870937,2334
1549.8403749494987,2380
1551.8919020022113,2503
1553.9428996958477,2380
1555.9933682811015,2449
1558.0433080087469,2598
1560.0927191296346,2523
1562.1416018946961,2495
1564.1899565549415,2513
1566.2377833614592,2585
1568.2850825654164,2567
1570.3318544180606,2555
1572.3780991707158,2500
1574.423817074788,2408
1576.4690083817595,2410
1578.5136733431923,2236
1580.5578122107272,2206
1582.601425236085,2154
1584.6445126710646,2102
1586.6870747675434,1948
1588.7291117774776,1989
1590.7706239529034,1951
1592.8116115459347,1877
1594.8520748087658,1789
1596.8920139936686,1762
1598.9314293529933,1767
1600.9703211391711,1714
1603.008689604711,1715
1605.0465350022005,1581
1607.0838575843068,1649
1609.1206576037753,1550
1611.1569353134305,1587
1613.1926909661765,1563
1615.2279248149953,1497
1617.2626371129481,1508
1619.2968281131757,1540
1621.3304980688963,1529
1623.3636472334088,1431
1625.39627586009,1393
1627.428384202396,1476
1629.459972513861,1455
1631.4910410480993,1386
1633.5215900588028,1434
1635.551619799744,1383
1637.5811305247717,1427
1639.6101224878166,1426
1641.6385959428862,1389
1643.6665511440683,1367
1645.693988345528,1402
1647.7209078015112,1404
1649.7473097663405,1301
1651.7731944944203,1354
1653.7985622402307,1363
1655.823413258333,1303
1657.847747803366,1392
1659.8715661300494,1361
1661.8948684931793,1331
1663.9176551476316,1358
1665.9399263483624,1397
1667.9616823504057,1372
1669.982923408873,1377
1672.0036497789574,1384
1674.0238617159293,1386
1676.043559475138,1347
1678.0627433120121,1380
1680.081413482059,1333
1682.0995702408654,1367
1684.117213844096,1356
1686.134344547495,1319
1688.1509626068864,1306
1690.1670682781705,1341
1692.182661817329,1336
1694.1977434804217,1323
1696.2123135235875,1282
1698.226372203043,1327
1700.2399197750851,1366
1702.2529564960905,1398
1704.2654826225112,1344
1706.277498410882,1359
1708.2890041178139,1295
1710.2999999999988,1353
1712.3104863142066,1288
1714.3204633172854,1288
1716.329931266163,1261
1718.3388904178469,1290
1720.3473410294214,1292
1722.3552833580516,1364
1724.3627176609807,1349
1726.3696441955308,1301
1728.3760632191033,1299
1730.3819749891782,1337
1732.3873797633146,1359
1734.3922777991502,1332
1736.3966693544012,1329
1738.4005546868639,1333
1740.4039340544127,1268
1742.406807715001,1258
1744.4091759266616,1308
1746.4110389475054,1345
1748.4123970357223,1293
1750.413250449582,1324
1752.4135994474318,1316
1754.4134442876993,1255
1756.4127852288902,1296
1758.4116225295893,1246
1760.4099564484595,1263
1762.407787244244,1303
1764.405115175764,1264
1766.4019405019203,1272
1768.3982634816916,1373
1770.3940843741357,1324
1772.3894034383907,1304
1774.3842209336717,1278
1776.378537119274,1299
1778.372352254571,1295
1780.3656665990156,1285
1782.3584804121397,1311
1784.3507939535534,1271
1786.3426074829463,1246
1788.3339212600863,1253
1790.3247355448211,1204
1792.3150505970766,1270
1794.3048666768573,1252
1796.2941840442477,1237
1798.2830029594106,1242
1800.2713236825884,1238
1802.2591464741004,1347
1804.2464715943465,1267
1806.2332993038058,1197
1808.2196298630352,1250
1810.2054635326708,1216
1812.190800573428,1248
1814.175641246101,1271
1816.1599858115628,1248
1818.1438345307652,1244
1820.127187664738,1267
1822.1100454745924,1243
1824.092408221516,1276
1826.0742761667766,1282
1828.055649571721,1268
1830.0365286977735,1205
1832.0169138064398,1282
1833.9968051593014,1243
1835.9762030180214,1247
1837.9551076443408,1249
1839.9335193000788,1260
1841.9114382471344,1275
1843.888864747485,1258
1845.8657990631878,1291
1847.842241456378,1251
1849.8181921892697,1280
1851.7936515241558,1235
1853.7686197234098,1226
1855.7430970494815,1214
1857.7170837649014,1273
1859.6905801322787,1204
1861.6635864143004,1225
1863.6361028737338,1266
1865.608129773424,1258
1867.5796673762961,1264
1869.5507159453537,1265
1871.521275743678,1254
1873.4913470344313,1260
1875.4609300808534,1295
1877.4300251462632,1252
1879.3986324940588,1300
1881.366752387717,1240
1883.3343850907936,1271
1885.3015308669228,1250
1887.268189979819,1276
1889.2343626932739,1297
1891.2000492711595,1269
1893.1652499774254,1271
1895.1299650761011,1267
1897.0941948312952,1335
1899.0579395071945,1285
1901.0211993680641,1277
1902.98397467825,1329
1904.9462657021745,1299
1906.9080727043415,1267
1908.869395949332,1233
1910.8302357018065,1328
1912.790592226504,1292
1914.7504657882428,1245
1916.7098566519212,1301
1918.6687650825133,1274
1920.6271913450764,1313
1922.5851357047422,1213
1924.5425984267245,1244
1926.499579776314,1261
1928.4560800188833,1259
1930.4120994198802,1333
1932.367638244833,1241
1934.32269675935,1239
1936.2772752291175,1200
1938.231373919899,1365
1940.1849930975404,1279
1942.1381330279637,1247
1944.0907939771696,1298
1946.0429762112412,1294
1947.9946799963363,1256
1949.9459055986945,1238
1951.896653284633,1251
1953.8469233205478,1217
1955.7967159729142,1237
1957.7460315082863,1205
1959.6948701932974,1284
1961.6432322946594,1261
1963.5911180791632,1247
1965.5385278136787,1205
1967.4854617651545,1241
1969.4319202006182,1195
1971.377903387176,1228
1973.3234115920136,1277
1975.268445082395,1291
1977.2130041256642,1302
1979.1570889892423,1244
1981.1006999406304,1244
1983.04383724741,1284
1984.986501177238,1243
1986.928691997853,1250
1988.8704099770712,1287
1990.811655382789,1244
1992.7524284829801,1211
1994.692729545698,1217
1996.6325588390755,1238
1998.5719166313224,1240
2000.5108031907307,1206
2002.4492187856677,1270
2004.387163684583,1252
2006.3246381560011,1224
2008.2616424685298,1208
2010.1981768908527,1243
2012.1342416917332,1167
2014.069837140014,1203
2016.0049635046162,1255
2017.9396210545406,1177
2019.8738100588666,1286
2021.8075307867502,1232
2023.740783507431,1264
2025.6735684902228,1230
2027.6058860045214,1153
2029.5377363198004,1207
2031.4691197056118,1237
2033.4000364315875,1260
2035.3304867674374,1196
2037.260470982952,1241
2039.189989347998,1171
2041.1190421325232,1236
2043.047629606554,1213
2044.9757520401945,1224
2046.9034097036288,1207
2048.8306028671195,1191
2050.7573318010086,1242
2052.683596775716,1211
2054.609398061742,1173
2056.5347359296647,1179
2058.4596106501403,1170
2060.384022493906,1168
2062.3079717317764,1243
2064.231458634646,1226
2066.1544834734873,1218
2068.077046519352,1227
2069.99914804337,1288
2071.9207883167524,1218
2073.8419676107865,1227
2075.7626861968406,1249
2077.6829443463607,1292
2079.6027423308715,1243
2081.522080421977,1201
2083.440958891362,1198
2085.359378010786,1232
2087.2773380520907,1200
2089.194839287196,1218
2091.111881988101,1168
2093.0284664268825,1213
2094.9445928756973,1180
2096.86026160678,1209
2098.775472892446,1212
2100.690227005088,1200
2102.604524217178,1159
2104.5183648012676,1255
2106.431749029985,1223
2108.34467717604,1212
2110.2571495122206,1155
2112.169166311393,1233
2114.080727846503,1232
2115.9918343905747,1218
2117.902486216711,1150
2119.8126835980956,1203
2121.722426807987,1223
2123.6317161197285,1223
2125.5405518067364,1204
2127.448934142509,1187
2129.356863400624,1171
2131.264339854737,1196
2133.1713637785815,1181
2135.077935445972,1300
2136.9840551308002,1238
2138.889723107037,1252
2140.7949396487334,1218
2142.699705030018,1226
2144.6040195250994,1236
2146.507883408264,1192
2148.4112969538774,1209
2150.3142604363848,1207
2152.2167741303097,1230
2154.1188383102535,1233
2156.0204532508997,1186
2157.9216192270064,1196
2159.822336513414,1291
2161.7226053850413,1255
2163.622426116884,1226
2165.5217989840185,1217
2167.4207242616,1253
2169.319202224862,1239
2171.2172331491165,1231
2173.1148173097563,1265
2175.0119549822507,1278
2176.90864644215,1235
2178.8048919650823,1300
2180.7006918267534,1248
2182.596046302952,1249
2184.4909556695407,1280
2186.3854202024645,1299
2188.279440177746,1265
2190.173015871487,1281
2192.066147559868,1254
2193.958835519149,1254
2195.851080025667,1283
2197.7428813558417,1297
2199.6342397861667,1257
2201.5251555932186,1261
2203.415629053651,1296
2205.3056604441986,1281
2207.19525004167,1331
2209.084398122958,1267
2210.9731049650327,1277
2212.861370844941,1314
2214.749196039812,1237
2216.636580826851,1266
2218.523525483344,1282
2220.410030286655,1379
2222.296095514226,1395
2224.1817214435805,1318
2226.066908352319,1319
2227.951656518121,1302
2229.835966218746,1337
2231.71983773203,1275
2233.6032713358913,1325
2235.486267308324,1215
2237.3688259274036,1298
2239.2509474712824,1329
2241.132632218193,1287
2243.013880446447,1320
2244.8946924344323,1324
2246.7750684606203,1317
2248.6550088035574,1320
2250.534513741871,1316
2252.413583554265,1247
2254.292218519526,1303
2256.170418916517,1329
2258.0481850241786,1344
2259.925517121534,1286
2261.8024154876825,1284
2263.678880401803,1303
2265.5549121431536,1354
2267.430510991071,1325
2269.305677224971,1334
2271.180411124348,1342
2273.0547129687766,1288
2274.9285830379076,1267
2276.8020216114737,1291
2278.6750289692845,1269
2280.5476053912294,1344
2282.4197511572766,1331
2284.2914665474727,1365
2286.162751841943,1361
2288.0336073208937,1467
2289.904033264608,1405
2291.774029953448,1299
2293.6435976678554,1302
2295.5127366883517,1268
2297.381447295534,1298
2299.2497297700825,1226
2301.1175843927526,1229
2302.9850114443825,1243
2304.852011205885,1169
2306.7185839582553,1143
2308.5847299825664,1162
2310.4504495599676,1150
2312.3157429716925,1111
2314.1806104990483,1113
2316.0450524234247,1121
2317.9090690262888,1132
2319.772660589186,1127
2321.635827393742,1143
2323.498569721661,1096
2325.3608878547248,1138
2327.2227820747967,1105
2329.0842526638157,1103
2330.945299903803,1139
2332.805924076857,1114
2334.6661254651535,1132
2336.525904350951,1103
2338.3852610165827,1108
2340.244195744464,1107
2342.102708817088,1142
2343.9608005170253,1131
2345.8184711269287,1156
2347.675720929526,1163
2349.532550207628,1106
2351.38895924412,1128
2353.24494832197,1093
2355.100517724223,1110
2356.955667734004,1094
2358.810398634514,1080
2360.664710709037,1086
2362.5186042409337,1104
2364.3720795136437,1154
2366.225136810686,1114
2368.0777764156583,1108
2369.929998612237,1129
2371.7818036841777,1114
2373.633191915315,1131
2375.484163589562,1144
2377.3347189909114,1118
2379.184858403434,1113
2381.03458211128,1163
2382.8838903986775,1202
2384.732783549936,1181
2386.5812618494406,1141
2388.4293255816588,1155
2390.2769750311327,1166
2392.1242104824883,1150
2393.971032220427,1148
2395.8174405297295,1143
2397.6634356952563,1137
2399.509018001947,1144
2401.3541877348193,1168
2403.1989451789705,1138
2405.043290619576,1113
2406.8872243418905,1083
2408.730746631247,1107
2410.5738577730594,1157
2412.4165580528183,1164
2414.258847756095,1134
2416.100727168537,1128
2417.9421965758734,1129
2419.783256263912,1168
2421.623906518538,1105
2423.4641476257157,1191
2425.303979871491,1141
2427.143403541984,1102
2428.9824189233977,1155
2430.821026302012,1127
2432.6592259641866,1151
2434.497018196361,1114
2436.33440328505,1133
2438.171381516851,1129
2440.00795317844,1170
2441.844118556569,1140
2443.6798779380724,1203
2445.5152316098606,1193
2447.3501798589255,1154
2449.1847229723357,1161
2451.0188612372403,1124
2452.8525949408663,1138
2454.6859243705203,1151
2456.518849813587,1130
2458.3513715575314,1154
2460.183489889895,1151
2462.015205098301,1136
2463.8465174704493,1155
2465.67742729412,1123
2467.5079348571717,1127
2469.338040447542,1115
2471.1677443532476,1073
2472.9970468623833,1158
2474.825948263123,1185
2476.6544488437207,1182
2478.482548892508,1138
2480.310248697896,1104
2482.137548548374,1117
2483.9644487325118,1226
2485.790949538956,1154
2487.617051256433,1143
2489.44275417375,1185
2491.26805857979,1113
2493.0929647635157,1166
2494.917473013971,1191
2496.741583620276,1203
2498.5652968716304,1135
2500.3886130573137,1136
2502.2115324666834,1183
2504.0340553891765,1187
2505.856182114308,1169
2507.6779129316733,1182
2509.499248130945,1166
2511.3201880018764,1209
2513.140732834298,1246
2514.9608829181198,1142
2516.780638543331,1213
2518.6,1139
2520.418967578273,1173
2522.237541568376,1203
2524.0557222606144,1175
2525.8735099453706,1193
2527.6909049131086,1224
2529.507907454368,1210
2531.32451785977,1213
2533.140736420014,1219
2534.9565634258774,1283
2536.771999168218,1175
2538.5870439379714,1232
2540.4016980261526,1200
2542.2159617238544,1190
2544.02983532225,1243
2545.8433191125914,1278
2547.656413386209,1296
2549.4691184345115,1274
2551.2814345489874,1304
2553.093362021204,1298
2554.904901142808,1343
2556.716052205523,1297
2558.526815501153,1345
2560.3371913215824,1323
2562.147179958771,1344
2563.956781704761,1304
2565.7659968516705,1357
2567.5748256916986,1375
2569.3832685171224,1320
2571.1913256202984,1375
2572.9989972936614,1352
2574.806283829725,1383
2576.613185521084,1395
2578.4197026604074,1355
2580.2258355404483,1339
2582.031584454035,1387
2583.836949694077,1352
2585.6419315535613,1394
2587.4465303255533,1407
2589.2507463032002,1397
2591.0545797797245,1389
2592.8580310484303,1389
2594.6611004026995,1384
2596.463788135992,1379
2598.266094541849,1432
2600.0680199138874,1373
2601.869564545807,1392
2603.670728731383,1461
2605.4715127644704,1392
2607.2719169390048,1342
2609.071941548998,1407
2610.8715868885433,1368
2612.670853251811,1396
2614.469740933052,1422
2616.268250226594,1380
2618.0663814268455,1352
2619.864134828292,1388
2621.6615107255006,1389
2623.458509413115,1375
2625.2551311858597,1346
2627.0513763385347,1394
2628.8472451660223,1315
2630.6427379632833,1296
2632.4378550253564,1376
2634.232596647359,1293
2636.026963124488,1305
2637.8209547520187,1299
2639.6145718253065,1262
2641.407814639785,1309
2643.200683490966,1303
2644.9931786744414,1295
2646.7853004858807,1329
2648.577049221034,1300
2650.3684251757277,1267
2652.1594286458712,1262
2653.9500599274484,1241
2655.740319316525,1261
2657.5302071092437,1242
2659.3197236018286,1222
2661.10886909058,1247
2662.8976438718782,1245
2664.686048242183,1264
2666.4740824980327,1235
2668.2617469360443,1246
2670.0490418529134,1231
2671.8359675454153,1202
2673.622524310403,1249
2675.408712444811,1193
2677.1945322456495,1196
2678.979984010009,1214
2680.76506803506,1211
2682.5497846180497,1194
2684.334134056306,1210
2686.1181166472343,1175
2687.9017326883213,1190
2689.6849824771293,1169
2691.4678663113013,1151
2693.2503844885596,1155
2695.032537306705,1129
2696.8143250636167,1132
2698.5957480572542,1159
2700.3768065856534,1166
2702.1575009469316,1144
2703.937831439283,1098
2705.717798360982,1175
2707.4974020103837,1177
2709.276642685917,1166
2711.055520686095,1140
2712.834036309506,1167
2714.612189854819,1148
2716.389981620782,1123
2718.1674119062204,1156
2719.944481010041,1140
2721.721189231226,1176
2723.4975368688415,1106
2725.273524222027,1165
2727.0491515900053,1123
2728.824419272075,1148
2730.5993275676146,1179
2732.3738767760838,1069
2734.148067197016,1125
2735.921899130031,1092
2737.6953728748194,1137
2739.468488731156,1138
2741.2412469988926,1080
2743.0136479779617,1169
2744.785691968372,1111
2746.5573792702116,1118
2748.3287101836504,1109
2750.099685008934,1139
2751.870304046388,1102
2753.640567596418,1122
2755.4104759595057,1158
2757.1800294362156,1100
2758.949228327187,1120
2760.7180729331412,1175
2762.486563554877,1093
2764.254700493272,1113
2766.022484049284,1102
2767.789914523947,1142
2769.5569922183786,1080
2771.3237174337705,1073
2773.090090471394,1102
2774.8561116326036,1116
2776.6217812188274,1097
2778.3870995315756,1055
2780.1520668724356,1092
2781.9166835430747,1129
2783.6809498452394,1093
2785.444866080754,1189
2787.2084325515225,1151
2788.971649559527,1081
2790.73451740683,1072
2792.4970363955713,1083
2794.2592068279705,1110
2796.0210290063264,1090
2797.7825032330147,1073
2799.543629810493,1080
2801.304409041296,1103
2803.0648412280366,1179
2804.8249266734088,1118
2806.5846656801846,1111
2808.344058551212,1146
2810.1031055894246,1125
2811.8618070978273,1086
2813.6201633795085,1125
2815.378174737636,1077
2817.1358414754536,1126
2818.893163896285,1135
2820.6501423035334,1114
2822.4067770006814,1096
2824.1630682912883,1126
2825.9190164789957,1132
2827.6746218675207,1125
2829.429884760661,1102
2831.184805462294,1099
2832.9393842763743,1080
2834.693621506936,1103
2836.4475174580916,1132
2838.201072434034,1103
2839.954286739034,1052
2841.707160677441,1085
2843.459694553685,1117
2845.2118886722724,1115
2846.96374333779,1077
2848.7152588549034,1093
2850.4664355283567,1120
2852.217273662973,1044
2853.9677735636546,1132
2855.7179355353833,1129
2857.4677598832186,1124
2859.217246912299,1056
2860.9663969278427,1096
2862.715210235146,1152
2864.4636871395846,1093
2866.211827946614,1120
2867.9596329617652,1142
2869.7071024906536,1109
2871.4542368389684,1148
2873.20103631248,1113
2874.947501217038,1068
2876.6936318585695,1141
2878.4394285430812,1104
2880.1848915766604,1115
2881.9300212654707,1128
2883.6748179157553,1108
2885.4192818338374,1159
2887.1634133261173,1100
2888.907212699077,1126
2890.6506802592744,1124
2892.393816313348,1134
2894.1366211680142,1084
2895.8790951300693,1130
2897.621238506388,1133
2899.363051603925,1136
2901.1045347297118,1138
2902.8456881908596,1124
2904.58651229456,1089
2906.327007348081,1115
2908.067173658772,1176
2909.8070115340597,1087
2911.5465212814497,1097
2913.285703208527,1101
2915.0245576229563,1074
2916.7630848324807,1048
2918.5012851449196,1090
2920.2391588681758,1064
2921.976706310227,1157
2923.7139277791334,1108
2925.4508235830313,1150
2927.187394030137,1116
2928.923639428745,1053
2930.6595600872306,1121
2932.395156314046,1082
2934.1304284177218,1118
2935.8653767068713,1120
2937.6000014901815,1106
2939.3343030764227,1111
2941.068281774442,1063
2942.8019378931644,1136
2944.5352717415976,1165
2946.2682836288236,1129
2948.0009738640065,1080
2949.7333427563885,1133
2951.465390615289,1126
2953.1971177501086,1101
2954.9285244703265,1084
2956.6596110855,1106
2958.3903779052657,1097
2960.1208252393385,1088
2961.8509533975125,1053
2963.5807626896617,1117
2965.3102534257378,1099
2967.0394259157715,1097
2968.768280469873,1086
2970.496817398232,1072
2972.2250370111146,1107
2973.952939618869,1113
2975.6805255319196,1158
2977.4077950607707,1113
2979.134748516006,1125
2980.861386208289,1147
2982.587708448359,1104
2984.313715547037,1167
2986.039407815222,1141
2987.764785563891,1132
2989.489849104102,1062
2991.2145987469908,1082
2992.9390348037705,1099
2994.6631575857346,1105
2996.3869674042576,1095
2998.1104645707887,1099
2999.83364939686,1028
3001.5565221940783,1073
3003.2790832741334,1102
3005.0013329487924,1083
3006.7232715298996,1098
3008.4448993293804,1117
3010.166216659239,1062
3011.887223831558,1097
3013.607921158498,1065
3015.3283089522993,1097
3017.0483875252826,1100
3018.7681571898443,1098
3020.4876182584626,1112
3022.2067710436927,1109
3023.9256158581707,1128
3025.644153014609,1095
3027.362382825801,1145
3029.0803056046193,1098
3030.797921664012,1027
3032.5152313170106,1066
3034.2322348767225,1106
3035.9489326563353,1052
3037.665324969115,1095
3039.3814121284063,1095
3041.097194447633,1074
3042.812672240299,1119
3044.5278458199855,1108
3046.2427155003525,1053
3047.9572815951406,1071
3049.671544418167,1093
3051.38550428333,1064
3053.0991615046073,1087
3054.812516396051,1145
3056.5255692717974,1094
3058.2383204460575,1092
3059.9507702331257,1082
3061.662918947372,1124
3063.3747669032446,1103
3065.0863144152736,1043
3066.7975617980674,1094
3068.508509366309,1087
3070.219157434767,1125
3071.9295063182844,1088
3073.639556331785,1078
3075.3493077902704,1099
3077.058761008821,1124
3078.7679163025964,1058
3080.476773986837,1113
3082.1853343768594,1106
3083.89359778806,1095
3085.6015645359153,1107
3087.3092349359786,1101
3089.016609303884,1040
3090.7236879553434,1114
3092.4304712061476,1136
3094.136959372166,1086
3095.843152769349,1097
3097.5490517137237,1120
3099.2546565213966,1127
3100.959967508554,1073
3102.66498499146,1073
3104.3697092864577,1133
3106.0741407099695,1148
3107.778279578498,1085
3109.482126208622,1101
3111.1856809170004,1168
3112.8889440203716,1114
3114.5919158355528,1088
3116.294596679439,1114
3117.996986869006,1080
3119.6990867213062,1047
3121.4008965534726,1078
3123.102416682717,1103
3124.803647426329,1147
3126.5045891016784,1109
3128.205242026213,1146
3129.90560651746,1147
3131.605682893025,1084
3133.3054714705922,1117
3135.0049725679282,1107
3136.7041865028714,1148
3138.4031135933465,1101
3140.101754157353,1109
3141.800108512971,1086
3143.498176978357,1101
3145.1959598717494,1095
3146.8934575114636,1092
3148.5906702158954,1097
3150.2875983035183,1112
3151.9842420928853,1098
3153.680601902627,1079
3155.376678051456,1088
3157.07247085816,1102
3158.767980641609,1176
3160.463207720748,1096
3162.158152414606,1053
3163.8528150422862,1081
3165.5471959229726,1066
3167.2412953759303,1063
3168.9351137204976,1109
3170.628651276098,1064
3172.3219083622307,1067
3174.014885298474,1092
3175.707582404485,1085
3177.4000000000005,1098
3179.092138404835,1116
3180.7839979388846,1065
3182.47557892212,1142
3184.166881674594,1102
3185.8579065164386,1101
3187.5486537678626,1086
3189.2391237491547,1011
3190.9293167806827,1029
3192.6192331828934,1082
3194.3088732763117,1071
3195.998237381542,1116
3197.687325819268,1062
3199.376138910251,1107
3201.064676975334,1080
3202.7529403354347,1050
3204.4409293115523,1075
3206.1286442247647,1085
3207.816085396229,1057
3209.5032531471825,1086
3211.190147798936,1068
3212.8767696728846,1043
3214.5631190905015,1053
3216.2491963733373,1028
3217.9350018430214,1048
3219.6205358212637,1090
3221.305798629851,1066
3222.990790590651,1038
3224.6755120256103,1068
3226.359963256751,1078
3228.0441446061795,1044
3229.7280563960758,1057
3231.411698948703,1104
3233.0950725863995,1095
3234.778177631587,1051
3236.461014406761,1105
3238.1435832345005,1066
3239.8258844374595,1128
3241.507918338374,1043
3243.1896852600576,1088
3244.8711855254023,1103
3246.552419457381,1049
3248.233387379042,1072
3249.914089613516,1058
3251.59452648401,1108
3253.274698313813,1082
3254.95460542629,1083
3256.6342481448855,1041
3258.313626793125,1068
3259.9927416946084,1059
3261.6715931730196,1060
3263.3501815521176,1084
3265.0285071557437,1070
3266.706570307815,1061
3268.3843713323286,1095
3270.0619105533615,1039
3271.739188295068,1082
3273.4162048816834,1041
3275.0929606375184,1031
3276.769455886966,1060
3278.445690954498,1054
3280.1216661646613,1128
3281.797381842087,1071
3283.4728383114807,1106
3285.1480358976296,1094
3286.8229749253996,1117
3288.4976557197333,1093
3290.172078605655,1082
3291.846243908266,1100
3293.5201519527463,1041
3295.193803064357,1040
3296.8671975684374,1070
3298.5403357904024,1068
3300.21321805575,1107
3301.8858446900567,1078
3303.558216018975,994
3305.23033236824,1024
3306.9021940636603,1076
3308.57380143113,1077
3310.2451547966184,1092
3311.916254486174,1095
3313.5871008259246,1124
3315.2576941420766,1130
3316.9280347609147,1090
3318.5981230088046,1050
3320.2679592121895,1019
3321.9375436975924,1014
3323.606876791612,1066
3325.27595882093,1069
3326.944790112305,1054
3328.6133709925753,1111
3330.2817017886573,1083
3331.949782827547,1149
3333.617614436319,1020
3335.2851969421245,1085
3336.952530672199,1112
3338.619615953853,1060
3340.286453114475,1023
3341.9530424815357,1053
3343.619384382583,1081
3345.2854791452437,1077
3346.951327097224,1088
3348.6169285663073,1102
3350.2822838803577,1080
3351.947393367319,1055
3353.61225735521,1118
3355.2768761721345,1084
3356.9412501462693,1042
3358.605379605873,1062
3360.2692648792827,1104
3361.9329062949146,1111
3363.596304181263,1072
