CollectionTime,7/11/2024 1:39:18 PM
ExposureUsed,3
CalibratedSpectrum
-962.7078968117929,467
-959.9714848408522,482
-957.2358232597828,478
-954.5009119013725,492
-951.7667505983302,503
-949.0333391832855,485
-946.3006774887896,531
-943.5687653473143,484
-940.837602591253,501
-938.1071890529199,492
-935.3775245645503,503
-932.6486089583007,495
-929.9204420662485,498
-927.1930237203925,499
-924.4663537526524,511
-921.7404319948689,512
-919.0152582788041,504
-916.2908324361409,539
-913.5671542984834,505
-910.8442236973568,503
-908.1220404642074,479
-905.4006044304027,492
-902.679915427231,503
-899.959973285902,501
-897.2407778375464,494
-894.5223289132158,497
-891.8046263438832,516
-889.0876699604426,485
-886.3714595937089,499
-883.6559950744183,502
-880.9412762332282,492
-878.2273029007168,473
-875.5140749073835,467
-872.8015920836489,491
-870.0898542598545,486
-867.3788612662631,472
-864.6686129330585,497
-861.9591090903457,492
-859.2503495681506,490
-856.5423341964203,491
-853.8350628050229,511
-851.1285352237478,492
-848.4227512823054,468
-845.7177108103272,505
-843.0134136373656,482
-840.3098595928943,490
-837.6070485063082,511
-834.9049802069229,496
-832.2036545239757,507
-829.5030712866244,496
-826.8032303239481,485
-824.1041314649472,505
-821.4057745385428,512
-818.7081593735775,485
-816.0112857988148,512
-813.3151536429393,528
-810.6197627345566,517
-807.9251129021936,487
-805.2312039742981,513
-802.5380357792392,520
-799.8456081453069,503
-797.1539209007124,509
-794.462973873588,489
-791.772766891987,522
-789.083299783884,489
-786.3945723771743,503
-783.7065844996748,526
-781.0193359791231,521
-778.3328266431781,487
-775.6470563194197,480
-772.9620248353489,485
-770.2777320183878,538
-767.5941776958798,507
-764.9113616950891,530
-762.2292838432011,517
-759.5479439673222,505
-756.8673418944801,502
-754.1874774516235,505
-751.5083504656222,497
-748.8299607632671,539
-746.15230817127,509
-743.475392516264,505
-740.7992136248035,552
-738.1237713233636,529
-735.4490654383407,533
-732.7750957960521,497
-730.1018622227365,509
-727.4293645445534,538
-724.7576025875837,525
-722.0865761778291,554
-719.4162851412126,529
-716.7467293035781,543
-714.0779084906909,538
-711.409822528237,561
-708.7424712418238,544
-706.0758544569796,550
-703.4099719991541,553
-700.7448236937178,548
-698.0804093659622,563
-695.4167288411002,547
-692.7537819442656,543
-690.0915685005134,538
-687.4300883348199,559
-684.7693412720819,552
-682.1093271371178,579
-679.4500457546669,569
-676.7914969493897,563
-674.1336805458676,554
-671.4765963686034,553
-668.8202442420206,559
-666.1646239904642,583
-663.5097354382001,576
-660.8555784094151,586
-658.2021527282176,591
-655.5494582186366,587
-652.8974947046223,562
-650.2462620100463,558
-647.5957599587009,587
-644.9459883742998,563
-642.2969470804776,578
-639.6486359007902,581
-637.0010546587141,583
-634.3542031776476,592
-631.7080812809096,576
-629.0626887917401,572
-626.4180255333008,582
-623.7740913286734,589
-621.1308860008619,596
-618.4884093727904,597
-615.8466612673046,563
-613.2056415071715,587
-610.5653499150785,582
-607.9257863136347,584
-605.28695052537,582
-602.6488423727357,612
-600.0114616781036,595
-597.3748082637674,601
-594.7388819519412,565
-592.1036825647604,592
-589.4692099242818,623
-586.8354638524829,599
-584.2024441712624,605
-581.5701507024403,591
-578.9385832677575,633
-576.3077416888759,582
-573.6776257873787,606
-571.0482353847704,582
-568.4195703024757,594
-565.7916303618415,601
-563.164415384135,580
-560.5379251905453,588
-557.9121596021815,618
-555.2871184400748,657
-552.6628015251767,625
-550.0392086783606,613
-547.4163397204204,604
-544.794194472071,607
-542.1727727539491,596
-539.5520743866118,641
-536.9320991905377,651
-534.3128469861261,659
-531.6943175936979,643
-529.0765108334947,694
-526.4594265256793,668
-523.8430644903358,748
-521.2274245474689,884
-518.612506517005,934
-515.9983102187913,916
-513.3848354725959,908
-510.77208209810846,928
-508.16004991493924,1052
-505.5487387426199,1162
-502.9381484006032,1214
-500.3282787082628,1172
-497.71912948489364,1138
-495.1107005497117,1071
-492.5029917218539,949
-489.8960028203786,848
-487.28973366426493,776
-484.68418407241325,739
-482.07935386364494,745
-479.47524285670266,734
-476.87185087025,743
-474.2691777228715,738
-471.66722323307334,725
-469.0659872192821,743
-466.4654694998459,747
-463.86566989303384,734
-461.26658821703614,754
-458.66822428996414,704
-456.07057792985,755
-453.4736489546475,743
-450.877437182231,707
-448.28194243039627,730
-445.68716451686,738
-443.09310325926003,723
-440.49975847515555,746
-437.9071299820263,724
-435.31521759727354,708
-432.72402113821954,701
-430.13354042210767,721
-427.5437752661022,750
-424.95472548728867,752
-422.36639090267386,746
-419.7787713291855,776
-417.1918665836721,782
-414.60567648290385,808
-412.0202008435715,796
-409.4354394822874,796
-406.8513922155845,851
-404.26805885991723,831
-401.685439231661,780
-399.103533147112,788
-396.522340422488,812
-393.9418608739278,747
-391.3620943174908,760
-388.7830405691583,780
-386.2046994448317,738
-383.6270707603344,720
-381.05015433141045,655
-378.473949973725,642
-375.8984575028645,620
-373.32367673433623,551
-370.74960748356875,502
-368.1762495659117,520
-365.60360279663576,504
-363.03166699093265,496
-360.4604419639154,496
-357.8899275306178,450
-355.32012350599507,418
-352.7510297049233,404
-350.1826459421999,406
-347.61497203254316,401
-345.04800779059235,409
-342.4817530309082,384
-339.91620756797226,406
-337.35137121618743,402
-334.7872437898774,410
-332.22382510328725,419
-329.66111497058273,427
-327.09911320585127,405
-324.53781962310075,417
-321.9772340362607,422
-319.4173562591816,406
-316.8581861056348,411
-314.2997233893127,412
-311.7419679238294,421
-309.1849195227194,394
-306.62857799943856,409
-304.0729431673641,437
-301.51801483979375,438
-298.963792829947,434
-296.41027695096386,432
-293.85746701590574,416
-291.3053628377552,455
-288.7539642294155,466
-286.2032710037115,450
-283.65328297338897,433
-281.1039999511146,424
-278.5554217494762,460
-276.007548180983,444
-273.4603790580651,433
-270.9139141930734,432
-268.3681533982807,422
-265.8230964858798,430
-263.27874326798565,469
-260.7350935566336,435
-258.1921471637804,470
-255.6499039013039,489
-253.10836358100266,455
-250.56752601459698,479
-248.02739101372765,501
-245.48795838995704,513
-242.94922795476816,508
-240.41119951956557,456
-237.8738728956746,494
-235.33724789434166,509
-232.80132432673452,494
-230.2661020039418,479
-227.73158073697357,467
-225.19776033676033,496
-222.66464061415422,516
-220.1322213799284,537
-217.60050244477725,499
-215.06948361931552,501
-212.53916471408013,528
-210.00954553952818,535
-207.48062590603843,531
-204.9524056239104,544
-202.4248845033651,558
-199.8980623545441,563
-197.37193898751036,549
-194.84651421224817,554
-192.32178783866232,571
-189.79775967657952,573
-187.27442953574644,624
-184.7517972258321,619
-182.2298625564256,602
-179.7086253370378,627
-177.18808537710026,581
-174.66824248596583,610
-172.14909647290835,623
-169.6306471471229,597
-167.11289431772548,635
-164.59583779375328,571
-162.07947738416453,559
-159.5638128978386,584
-157.04884414357605,595
-154.53457093009854,607
-152.02099306604828,663
-149.50811035998936,578
-146.99592262040665,534
-144.48442965570587,612
-141.97363127421409,663
-139.46352728417958,713
-136.95411749377126,671
-134.44540171107985,644
-131.93737974411636,642
-129.43005140081357,658
-126.92341648902493,734
-124.41747481652521,976
-121.91222619101006,1106
-119.40767042009657,1187
-116.90380731132257,1351
-114.40063667214702,1354
-111.8981583099503,1098
-109.3963720320337,867
-106.89527764561933,826
-104.39487495785067,1068
-101.89516377579241,1457
-99.39614390642998,1840
-96.89781515667039,1859
-94.40017733334128,1867
-91.90323024319173,1702
-89.40697369289148,1895
-86.91140748903172,2149
-84.41653143812482,2487
-81.92234534660395,2230
-79.42884902082358,1688
-76.93604226705907,2044
-74.4439248915071,3720
-71.95249670028534,6091
-69.46175749943245,8352
-66.97170709490854,10077
-64.48234529259423,10331
-61.99367189829195,9476
-59.50568671772464,8700
-57.01838955653636,8446
-54.53178022029283,8041
-52.045858514480074,7115
-49.560624244506016,6994
-47.07607721569923,6800
-44.59221723330904,6640
-42.10904410250669,6221
-39.62655762838392,5304
-37.14475761595372,4519
-34.66364387015028,4360
-32.18321619582866,4758
-29.70347439776515,5518
-27.224418280657005,6285
-24.74604764912317,7516
-22.26836230770266,10713
-19.7913620608565,17602
-17.315046712966478,28517
-14.83941606833514,36580
-12.36446993118659,50747
-9.89020810566592,65039
-7.416630395839093,65039
-4.94373660569363,65039
-2.471526539137585,65039
-6.821210263296962E-13,65039
2.47084320796705,65039
4.941003281093458,65039
7.410480415786196,65039
9.879274808531363,65039
12.347386655893956,65039
14.814816154518212,65039
17.28156350112681,65039
19.74762889252179,65039
22.21301252558385,20539
24.67771459727237,3535
27.141735304626195,2035
29.605074844762612,1512
32.06773341487792,1483
34.52971121224755,1465
36.99100843422559,1430
39.45162527824516,1396
41.91156194181792,1210
44.370818622535126,1037
46.82939551806646,992
49.287292826160524,1009
51.74451074464503,1174
54.201049471426245,1152
56.65690920448981,937
59.112090141899785,923
61.56659248179983,878
64.02041642241159,827
66.4735621620365,779
68.92602989905402,771
71.37781983192338,805
73.82893215918205,781
76.27936707944684,893
78.72912479141326,993
81.17820549385567,937
83.62660938562783,799
86.07433666566146,853
88.5213875329681,737
90.96776218663751,669
93.41346082583925,654
95.85848364982041,671
98.30283085790859,752
100.7465026495089,745
103.18949922410604,695
105.63182078126385,678
108.07346752062438,701
110.51443964190923,708
112.95473734491827,677
115.39436082953114,684
117.83331029570547,718
120.27158594347827,696
122.7091879729652,668
125.1461165843615,619
127.58237197794062,654
130.01795435405518,554
132.4528639131364,642
134.88710085569494,706
137.32066538231982,697
139.75355769367923,608
142.1857779905207,641
144.61732647366978,623
147.04820334403132,635
149.47840880258934,647
151.90794305040674,719
154.33680628862487,823
156.76499871846443,920
159.19252054122433,976
161.61937195828352,1113
164.04555317109896,1207
166.47106438120693,1360
168.89590579022217,1463
171.320077599839,1522
173.7435800118302,1572
176.16641322804742,1722
178.58857745042144,1744
181.01007288096173,1790
183.43089972175687,1828
185.85105817497413,1883
188.27054844285988,1904
190.6893707277394,1807
193.10752523201643,1889
195.5250121581745,1905
197.9418317087751,1955
200.3579840864594,2041
202.7734694939469,1995
205.18828813403627,2085
207.6024402096051,2094
210.01592592360964,2092
212.42874547908548,2076
214.84089907914665,2118
217.2523869269868,2064
219.66320922587727,2089
222.0733661791695,2048
224.48285799029293,2096
226.8916848627572,2107
229.29984700014882,2127
231.7073446061355,2138
234.11417788446204,2237
236.520347038953,2221
238.92585227351185,2278
241.33069379212054,2384
243.73487179884035,2339
246.1383864978112,2322
248.541238093252,2359
250.9434267894609,2411
253.34495279081432,2528
255.74581630176783,2532
258.1460175268563,2538
260.54555667069314,2559
262.9444339379703,2547
265.3426495334594,2507
267.7402036620107,2491
270.1370965285529,2422
272.53332833809407,2319
274.9288992957214,2142
277.32380960660055,2143
279.718059475976,2084
282.1116491091717,2025
284.5045787115897,2031
286.89684848871195,2030
289.2884586460981,1950
291.67940938938807,2006
294.0697009242996,1998
296.4593334566299,1932
298.84830719225477,1999
301.23662233712923,1975
303.6242790972866,1952
306.01127767884,1884
308.39761828798066,1814
310.78330113097934,1901
313.16832641418534,1809
315.5526943440269,1788
317.9364051270112,1801
320.3194589697242,1877
322.70185607883093,1854
325.0835966610754,1782
327.4646809232805,1761
329.8451090723478,1714
332.2248813152577,1716
334.6039978590701,1719
336.9824589109231,1749
339.36026467803447,1773
341.7374153677,1726
344.113911187295,1666
346.48975234427337,1705
348.8649390461686,1676
351.2394715005918,1638
353.61334991523415,1658
355.9865744978655,1697
358.35914545633375,1685
360.73106299856715,1628
363.10232733257146,1641
365.47293866643247,1669
367.84289720831396,1608
370.2122031664593,1639
372.5808567491905,1660
374.9488581649083,1597
377.31620762209275,1627
379.6829053293021,1541
382.0489514951745,1530
384.4143463284262,1502
386.7790900378528,1574
389.14318283232853,1553
391.50662492080653,1570
393.86941651231916,1571
396.23155781597745,1576
398.5930490409713,1626
400.9538903965696,1570
403.3140820921202,1583
405.6736243370498,1620
408.03251734086336,1499
410.3907613131465,1567
412.74835646356166,1598
415.10530300185144,1539
417.4616011378372,1562
419.81725108141893,1520
422.1722530425758,1567
424.5266072313656,1538
426.880313857925,1521
429.2333731324701,1476
431.58578526529516,1546
433.9375504667738,1507
436.2886689473588,1511
438.63914091758113,1523
440.9889665880513,1521
443.33814616945835,1519
445.68667987257015,1517
448.03456790823395,1524
450.3818104873759,1502
452.72840782100013,1520
455.07436012019105,1464
457.41966759611057,1534
459.7643304600007,1550
462.10834892318155,1510
464.4517231970525,1492
466.79445349309174,1551
469.1365400228566,1473
471.4779829979826,1467
473.81878263018564,1448
476.15893913125876,1486
478.4984527130747,1486
480.8373235875855,1547
483.17555196682144,1611
485.5131380628919,1523
487.8500820879857,1567
490.1863842543697,1618
492.52204477439034,1720
494.8570638604725,1802
497.1914417251204,1981
499.52517858091653,2154
501.85827464052306,2402
504.19073011668036,2503
506.5225452222086,2582
508.85372017000566,2630
511.18425517304956,2610
513.514150444396,2652
515.8434061971808,2994
518.1720226446176,3306
520.4999999999999,3506
522.8273384766991,3289
525.1540382881666,3024
527.480099647932,2718
529.8055227696037,2325
532.1303078668694,2033
534.454455153496,1717
536.777964843328,1659
539.1008371502907,1590
541.4230722883866,1496
543.744670471698,1531
546.0656319143858,1526
548.3859568306899,1515
550.7056454349294,1544
553.0246979415016,1503
555.3431145648834,1539
557.6608955196306,1505
559.978041020377,1500
562.2945512818363,1552
564.6104265188006,1534
566.9256669461412,1467
569.2402727788082,1485
571.5542442318302,1499
573.8675815203156,1473
576.1802848594508,1522
578.4923544645015,1511
580.8037905508126,1581
583.114593333807,1539
585.4247630289875,1565
587.7342998519354,1565
590.0432040183106,1503
592.3514757438526,1498
594.6591152443794,1490
596.9661227357875,1476
599.2724984340531,1531
601.578242555231,1514
603.8833553154542,1536
606.1878369309362,1484
608.4916876179676,1517
610.7949075929192,1521
613.0974970722403,1568
615.3994562724587,1454
617.7007854101818,1460
620.0014847020951,1507
622.3015543649641,1544
624.6009946156324,1516
626.8998056710224,1521
629.1979877481361,1555
631.4955410640538,1555
633.7924658359349,1539
636.0887622810175,1559
638.3844306166192,1549
640.6794710601358,1518
642.9738838290426,1566
645.2676691408932,1592
647.5608272133207,1527
649.853358264037,1642
652.1452625108324,1604
654.4365401715764,1603
656.7271914642178,1589
659.0172166067838,1583
661.3066158173809,1613
663.5953893141935,1586
665.8835373154867,1600
668.1710600396028,1570
670.4579577049639,1647
672.7442305300709,1571
675.0298787335033,1597
677.3149025339197,1559
679.599302150058,1606
681.8830778007342,1546
684.1662297048437,1600
686.4487580813608,1589
688.7306631493387,1660
691.0119451279091,1588
693.2926042362834,1618
695.5726406937516,1570
697.8520547196814,1574
700.1308465335215,1578
702.4090163547982,1564
704.6865644031171,1581
706.9634908981619,1598
709.2397960596965,1579
711.5154801075631,1524
713.7905432616823,1545
716.0649857420548,1586
718.3388077687592,1579
720.612009561953,1691
722.8845913418733,1551
725.1565533288352,1533
727.427895743234,1615
729.6986188055427,1600
731.9687227363137,1601
734.238207756178,1566
736.5070740858458,1542
738.7753219461066,1546
741.0429515578281,1563
743.3099631419569,1594
745.5763569195191,1551
747.8421331116193,1573
750.1072919394409,1528
752.3718336242467,1579
754.6357583873777,1559
756.8990664502545,1582
759.1617580343765,1564
761.423833361321,1581
763.6852926527457,1546
765.9461361303862,1582
768.206364016058,1590
770.4659765316536,1556
772.7249738991469,1559
774.9833563405886,1528
777.2411240781092,1550
779.4982773339183,1616
781.7548163303044,1575
784.010741289634,1532
786.2660524343538,1630
788.5207499869881,1590
790.7748341701416,1612
793.0283052064964,1569
795.2811633188143,1595
797.5334087299362,1586
799.7850416627813,1572
802.0360623403484,1576
804.2864709857143,1599
806.5362678220353,1628
808.7854530725468,1615
811.0340269605625,1597
813.2819897094754,1686
815.5293415427581,1626
817.77608268396,1635
820.0222133567116,1555
822.2677337847211,1640
824.5126441917765,1618
826.7569448017433,1586
829.0006358385675,1658
831.2437175262731,1567
833.4861900889629,1640
835.7280537508192,1565
837.9693087361026,1568
840.2099552691533,1520
842.4499935743896,1669
844.689423876309,1559
846.9282463994886,1583
849.1664613685833,1611
851.4040690083276,1558
853.6410695435349,1576
855.877463199097,1619
858.1132501999847,1616
860.3484307712487,1547
862.5830051380175,1627
864.8169735254988,1614
867.0503361589791,1652
869.2830932638243,1646
871.5152450654786,1614
873.7467917894654,1630
875.9777336613873,1664
878.2080709069252,1597
880.4378037518389,1637
882.666932421968,1641
884.8954571432301,1624
887.1233781416219,1665
889.3506956432192,1650
891.5774098741766,1703
893.803521060728,1641
896.0290294291852,1643
898.2539352059397,1673
900.4782386174619,1577
902.7019398903011,1707
904.925039251085,1660
907.147536926521,1653
909.3694331433943,1624
911.59072812857,1624
913.8114221089921,1681
916.0315153116827,1584
918.2510079637437,1702
920.4699002923547,1639
922.6881925247761,1633
924.905884888345,1577
927.1229776104793,1626
929.3394709186747,1507
931.555365040506,1587
933.7706602036275,1566
935.9853566357709,1563
938.1994545647489,1624
940.4129542184515,1579
942.6258558248488,1580
944.8381596119883,1570
947.0498658079974,1583
949.2609746410825,1628
951.4714863395287,1619
953.6814011316998,1600
955.8907192460387,1629
958.0994409110671,1618
960.3075663553858,1570
962.5150958076741,1625
964.7220294966913,1522
966.928367651274,1538
969.1341105003388,1574
971.3392582728806,1572
973.5438111979742,1540
975.747769504772,1478
977.9511334225061,1510
980.153903180487,1582
982.3560790081052,1439
984.5576611348289,1545
986.7586497902058,1537
988.9590452038618,1523
991.158847605503,1532
993.3580572249133,1483
995.5566742919558,1480
997.7546990365728,1444
999.952131688785,1471
1002.1489724786926,1408
1004.3452216364743,1377
1006.5408793923874,1417
1008.7359459767691,1421
1010.9304216200343,1380
1013.1243065526781,1415
1015.3176010052733,1338
1017.510305208472,1347
1019.7024193930064,1381
1021.8939437896848,1364
1024.0848786293977,1371
1026.2752241431122,1344
1028.4649805618747,1343
1030.6541481168115,1367
1032.842727039127,1349
1035.0307175601051,1345
1037.2181199111074,1307
1039.4049343235752,1278
1041.591161029029,1292
1043.7768002590683,1297
1045.9618522453698,1348
1048.1463172196918,1336
1050.3301954138697,1336
1052.513487059818,1335
1054.69619238953,1277
1056.8783116350783,1302
1059.0598450286152,1245
1061.2407928023704,1319
1063.4211551886528,1423
1065.6009324198508,1366
1067.780124728432,1335
1069.9587323469414,1368
1072.1367555080046,1314
1074.314194444325,1290
1076.4910493886855,1281
1078.667320573947,1313
1080.843008233051,1254
1083.0181125990161,1295
1085.1926339049414,1278
1087.3665723840027,1248
1089.5399282694575,1282
1091.7127017946405,1326
1093.8848931929647,1274
1096.0565026979243,1235
1098.2275305430899,1270
1100.3979769621128,1285
1102.567842188722,1273
1104.737126456726,1236
1106.9058300000124,1263
1109.0739530525475,1227
1111.2414958483764,1246
1113.4084586216231,1215
1115.5748416064907,1217
1117.7406450372605,1243
1119.9058691482942,1277
1122.0705141740304,1273
1124.2345803489884,1245
1126.3980679077658,1242
1128.5609770850388,1257
1130.7233081155623,1243
1132.8850612341707,1211
1135.0462366757774,1248
1137.2068346753745,1259
1139.3668554680326,1197
1141.526299288901,1248
1143.68516637321,1209
1145.8434569562655,1256
1148.001171273455,1221
1150.158309560244,1233
1152.3148720521767,1192
1154.470858984876,1189
1156.626270594044,1218
1158.7811071154629,1225
1160.9353687849912,1187
1163.089055838569,1209
1165.242168512213,1204
1167.3947070420209,1163
1169.5466716641677,1202
1171.6980626149075,1211
1173.8488801305748,1211
1175.9991244475814,1163
1178.1487958024186,1177
1180.2978944316555,1190
1182.4464205719428,1243
1184.5943744600072,1198
1186.7417563326567,1222
1188.8885664267755,1203
1191.0348049793297,1207
1193.1804722273619,1185
1195.325568407995,1197
1197.4700937584303,1175
1199.614048515948,1214
1201.7574329179074,1223
1203.900247201746,1221
1206.042491604982,1217
1208.1841663652099,1249
1210.3252717201053,1251
1212.465807907422,1167
1214.6057751649923,1276
1216.7451737307279,1261
1218.8840038426192,1202
1221.0222657387353,1229
1223.1599596572241,1249
1225.2970858363137,1249
1227.4336445143094,1241
1229.5696359295966,1220
1231.705060320639,1197
1233.8399179259786,1230
1235.9742089842384,1216
1238.107933734118,1254
1240.2410924143974,1252
1242.373685263935,1283
1244.5057125216676,1228
1246.6371744266116,1251
1248.7680712178621,1267
1250.898403134593,1240
1253.028170416058,1286
1255.1573733015875,1290
1257.2860120305932,1284
1259.4140868425648,1273
1261.54159797707,1223
1263.6685456737569,1211
1265.7949301723515,1246
1267.9207517126597,1357
1270.046010534565,1314
1272.1707068780306,1287
1274.2948409830983,1384
1276.4184130898889,1264
1278.541423438603,1295
1280.6638722695184,1235
1282.785759822993,1291
1284.9070863394636,1302
1287.0278520594447,1313
1289.1480572235314,1366
1291.2677020723963,1329
1293.3867868467923,1331
1295.5053117875495,1370
1297.623277135579,1339
1299.740683131868,1359
1301.8575300174857,1378
1303.973818033578,1328
1306.0895474213703,1345
1308.2047184221678,1348
1310.3193312773528,1355
1312.4333862283888,1406
1314.5468835168163,1440
1316.659823384255,1400
1318.7722060724045,1468
1320.8840318230418,1395
1322.9953008780249,1391
1325.1060134792888,1398
1327.2161698688478,1363
1329.3257702887959,1317
1331.4348149813054,1442
1333.5433041886276,1356
1335.6512381530933,1388
1337.7586171171101,1353
1339.8654413231675,1360
1341.9717110138317,1377
1344.0774264317488,1364
1346.1825878196432,1345
1348.2871954203192,1352
1350.3912494766587,1365
1352.4947502316231,1363
1354.5976979282532,1371
1356.7000928096686,1372
1358.8019351190665,1382
1360.9032250997243,1419
1363.0039629949988,1400
1365.1041490483235,1359
1367.2037835032133,1392
1369.3028666032606,1378
1371.401398592137,1396
1373.4993797135926,1375
1375.5968102114575,1346
1377.6936903296396,1351
1379.7900203121262,1326
1381.8858004029835,1364
1383.9810308463561,1350
1386.075711886469,1362
1388.1698437676241,1345
1390.2634267342032,1428
1392.356461030667,1454
1394.4489469015557,1431
1396.5408845914872,1399
1398.6322743451592,1424
1400.7231164073469,1395
1402.813411022907,1427
1404.903158436773,1386
1406.9923588939578,1390
1409.0810126395531,1460
1411.1691199187303,1474
1413.2566809767386,1461
1415.343696058907,1446
1417.4301654106425,1439
1419.5160892774315,1488
1421.6014679048399,1434
1423.6863015385125,1515
1425.7705904241707,1456
1427.8543348076178,1483
1429.9375349347342,1518
1432.0201910514802,1577
1434.102303403894,1536
1436.1838722380944,1501
1438.2648978002767,1569
1440.3453803367174,1537
1442.4253200937692,1574
1444.5047173178677,1550
1446.5835722555234,1564
1448.6618851533285,1587
1450.739656257952,1634
1452.8168858161434,1607
1454.8935740747306,1674
1456.96972128062,1746
1459.045327680797,1719
1461.120393522327,1794
1463.1949190523528,1783
1465.2689045180973,1800
1467.3423501668608,1811
1469.415256246024,1799
1471.4876230030463,1923
1473.559450685465,1834
1475.6307395408976,1826
1477.7014898170391,1957
1479.771701761665,1899
1481.8413756226287,1919
1483.9105116478618,1969
1485.9791100853772,2022
1488.0471711832643,1981
1490.1146951896926,2064
1492.1816823529098,2036
1494.2481329212433,2146
1496.3140471430984,2103
1498.3794252669609,2146
1500.4442675413939,2130
1502.5085742150404,2197
1504.572345536622,2225
1506.6355817549388,2172
1508.6982831188702,2161
1510.7604498773744,2135
1512.8220822794883,2170
1514.8831805743293,2305
1516.9437450110909,2221
1519.003775839048,2270
1521.0632733075522,2223
1523.1222376660367,2249
1525.1806691640113,2301
1527.2385680510652,2345
1529.2959345768668,2358
1531.3527689911643,2362
1533.4090715437833,2368
1535.4648424846291,2419
1537.5200820636855,2444
1539.5747905310159,2419
1541.6289681367616,2486
1543.6826151311434,2518
1545.7357317644614,2541
1547.7883182870937,2524
1549.8403749494987,2554
1551.8919020022113,2551
1553.9428996958477,2559
1555.9933682811015,2727
1558.0433080087469,2812
1560.0927191296346,2833
1562.1416018946961,2795
1564.1899565549415,2925
1566.2377833614592,2919
1568.2850825654164,2917
1570.3318544180606,2730
1572.3780991707158,2720
1574.423817074788,2677
1576.4690083817595,2616
1578.5136733431923,2550
1580.5578122107272,2412
1582.601425236085,2415
1584.6445126710646,2307
1586.6870747675434,2126
1588.7291117774776,2048
1590.7706239529034,2064
1592.8116115459347,1997
1594.8520748087658,1916
1596.8920139936686,1835
1598.9314293529933,1746
1600.9703211391711,1761
1603.008689604711,1729
1605.0465350022005,1652
1607.0838575843068,1666
1609.1206576037753,1582
1611.1569353134305,1639
1613.1926909661765,1603
1615.2279248149953,1530
1617.2626371129481,1508
1619.2968281131757,1500
1621.3304980688963,1462
1623.3636472334088,1464
1625.39627586009,1421
1627.428384202396,1396
1629.459972513861,1367
1631.4910410480993,1423
1633.5215900588028,1421
1635.551619799744,1363
1637.5811305247717,1294
1639.6101224878166,1367
1641.6385959428862,1326
1643.6665511440683,1307
1645.693988345528,1266
1647.7209078015112,1351
1649.7473097663405,1308
1651.7731944944203,1318
1653.7985622402307,1320
1655.823413258333,1289
1657.847747803366,1266
1659.8715661300494,1263
1661.8948684931793,1324
1663.9176551476316,1321
1665.9399263483624,1261
1667.9616823504057,1327
1669.982923408873,1295
1672.0036497789574,1273
1674.0238617159293,1246
1676.043559475138,1300
1678.0627433120121,1262
1680.081413482059,1323
1682.0995702408654,1259
1684.117213844096,1269
1686.134344547495,1239
1688.1509626068864,1261
1690.1670682781705,1266
1692.182661817329,1266
1694.1977434804217,1250
1696.2123135235875,1240
1698.226372203043,1330
1700.2399197750851,1301
1702.2529564960905,1283
1704.2654826225112,1290
1706.277498410882,1270
1708.2890041178139,1264
1710.2999999999988,1255
1712.3104863142066,1267
1714.3204633172854,1255
1716.329931266163,1269
1718.3388904178469,1214
1720.3473410294214,1207
1722.3552833580516,1226
1724.3627176609807,1267
1726.3696441955308,1247
1728.3760632191033,1235
1730.3819749891782,1163
1732.3873797633146,1235
1734.3922777991502,1184
1736.3966693544012,1203
1738.4005546868639,1221
1740.4039340544127,1219
1742.406807715001,1239
1744.4091759266616,1228
1746.4110389475054,1230
1748.4123970357223,1169
1750.413250449582,1172
1752.4135994474318,1146
1754.4134442876993,1230
1756.4127852288902,1184
1758.4116225295893,1224
1760.4099564484595,1191
1762.407787244244,1203
1764.405115175764,1191
1766.4019405019203,1183
1768.3982634816916,1200
1770.3940843741357,1139
1772.3894034383907,1158
1774.3842209336717,1176
1776.378537119274,1185
1778.372352254571,1156
1780.3656665990156,1169
1782.3584804121397,1157
1784.3507939535534,1187
1786.3426074829463,1134
1788.3339212600863,1154
1790.3247355448211,1171
1792.3150505970766,1184
1794.3048666768573,1185
1796.2941840442477,1140
1798.2830029594106,1176
1800.2713236825884,1124
1802.2591464741004,1154
1804.2464715943465,1180
1806.2332993038058,1204
1808.2196298630352,1155
1810.2054635326708,1130
1812.190800573428,1209
1814.175641246101,1221
1816.1599858115628,1169
1818.1438345307652,1101
1820.127187664738,1168
1822.1100454745924,1118
1824.092408221516,1171
1826.0742761667766,1098
1828.055649571721,1144
1830.0365286977735,1198
1832.0169138064398,1168
1833.9968051593014,1226
1835.9762030180214,1200
1837.9551076443408,1136
1839.9335193000788,1131
1841.9114382471344,1117
1843.888864747485,1153
1845.8657990631878,1142
1847.842241456378,1142
1849.8181921892697,1175
1851.7936515241558,1098
1853.7686197234098,1188
1855.7430970494815,1154
1857.7170837649014,1098
1859.6905801322787,1137
1861.6635864143004,1121
1863.6361028737338,1115
1865.608129773424,1187
1867.5796673762961,1093
1869.5507159453537,1187
1871.521275743678,1193
1873.4913470344313,1119
1875.4609300808534,1155
1877.4300251462632,1173
1879.3986324940588,1157
1881.366752387717,1237
1883.3343850907936,1187
1885.3015308669228,1182
1887.268189979819,1194
1889.2343626932739,1207
1891.2000492711595,1213
1893.1652499774254,1205
1895.1299650761011,1151
1897.0941948312952,1219
1899.0579395071945,1207
1901.0211993680641,1206
1902.98397467825,1181
1904.9462657021745,1193
1906.9080727043415,1218
1908.869395949332,1204
1910.8302357018065,1192
1912.790592226504,1189
1914.7504657882428,1229
1916.7098566519212,1245
1918.6687650825133,1225
1920.6271913450764,1211
1922.5851357047422,1144
1924.5425984267245,1167
1926.499579776314,1144
1928.4560800188833,1159
1930.4120994198802,1147
1932.367638244833,1169
1934.32269675935,1201
1936.2772752291175,1214
1938.231373919899,1195
1940.1849930975404,1190
1942.1381330279637,1191
1944.0907939771696,1198
1946.0429762112412,1179
1947.9946799963363,1182
1949.9459055986945,1141
1951.896653284633,1162
1953.8469233205478,1127
1955.7967159729142,1126
1957.7460315082863,1168
1959.6948701932974,1166
1961.6432322946594,1172
1963.5911180791632,1169
1965.5385278136787,1107
1967.4854617651545,1180
1969.4319202006182,1151
1971.377903387176,1197
1973.3234115920136,1151
1975.268445082395,1163
1977.2130041256642,1165
1979.1570889892423,1163
1981.1006999406304,1185
1983.04383724741,1119
1984.986501177238,1176
1986.928691997853,1152
1988.8704099770712,1136
1990.811655382789,1120
1992.7524284829801,1147
1994.692729545698,1154
1996.6325588390755,1153
1998.5719166313224,1188
2000.5108031907307,1171
2002.4492187856677,1125
2004.387163684583,1163
2006.3246381560011,1144
2008.2616424685298,1155
2010.1981768908527,1192
2012.1342416917332,1163
2014.069837140014,1162
2016.0049635046162,1159
2017.9396210545406,1101
2019.8738100588666,1179
2021.8075307867502,1068
2023.740783507431,1064
2025.6735684902228,1109
2027.6058860045214,1107
2029.5377363198004,1129
2031.4691197056118,1115
2033.4000364315875,1141
2035.3304867674374,1190
2037.260470982952,1066
2039.189989347998,1133
2041.1190421325232,1164
2043.047629606554,1157
2044.9757520401945,1140
2046.9034097036288,1123
2048.8306028671195,1132
2050.7573318010086,1082
2052.683596775716,1133
2054.609398061742,1121
2056.5347359296647,1136
2058.4596106501403,1149
2060.384022493906,1156
2062.3079717317764,1094
2064.231458634646,1145
2066.1544834734873,1127
2068.077046519352,1137
2069.99914804337,1101
2071.9207883167524,1161
2073.8419676107865,1152
2075.7626861968406,1099
2077.6829443463607,1149
2079.6027423308715,1086
2081.522080421977,1140
2083.440958891362,1102
2085.359378010786,1171
2087.2773380520907,1125
2089.194839287196,1164
2091.111881988101,1161
2093.0284664268825,1154
2094.9445928756973,1093
2096.86026160678,1135
2098.775472892446,1124
2100.690227005088,1115
2102.604524217178,1119
2104.5183648012676,1141
2106.431749029985,1117
2108.34467717604,1134
2110.2571495122206,1072
2112.169166311393,1113
2114.080727846503,1102
2115.9918343905747,1051
2117.902486216711,1143
2119.8126835980956,1136
2121.722426807987,1136
2123.6317161197285,1146
2125.5405518067364,1073
2127.448934142509,1123
2129.356863400624,1110
2131.264339854737,1129
2133.1713637785815,1138
2135.077935445972,1159
2136.9840551308002,1147
2138.889723107037,1102
2140.7949396487334,1088
2142.699705030018,1123
2144.6040195250994,1152
2146.507883408264,1123
2148.4112969538774,1178
2150.3142604363848,1124
2152.2167741303097,1139
2154.1188383102535,1138
2156.0204532508997,1109
2157.9216192270064,1144
2159.822336513414,1140
2161.7226053850413,1158
2163.622426116884,1109
2165.5217989840185,1129
2167.4207242616,1159
2169.319202224862,1151
2171.2172331491165,1192
2173.1148173097563,1147
2175.0119549822507,1152
2176.90864644215,1175
2178.8048919650823,1176
2180.7006918267534,1150
2182.596046302952,1171
2184.4909556695407,1161
2186.3854202024645,1113
2188.279440177746,1149
2190.173015871487,1142
2192.066147559868,1143
2193.958835519149,1176
2195.851080025667,1098
2197.7428813558417,1160
2199.6342397861667,1126
2201.5251555932186,1116
2203.415629053651,1163
2205.3056604441986,1162
2207.19525004167,1174
2209.084398122958,1131
2210.9731049650327,1131
2212.861370844941,1174
2214.749196039812,1178
2216.636580826851,1184
2218.523525483344,1136
2220.410030286655,1219
2222.296095514226,1209
2224.1817214435805,1197
2226.066908352319,1166
2227.951656518121,1199
2229.835966218746,1191
2231.71983773203,1156
2233.6032713358913,1187
2235.486267308324,1191
2237.3688259274036,1156
2239.2509474712824,1186
2241.132632218193,1177
2243.013880446447,1184
2244.8946924344323,1200
2246.7750684606203,1209
2248.6550088035574,1237
2250.534513741871,1195
2252.413583554265,1171
2254.292218519526,1196
2256.170418916517,1173
2258.0481850241786,1202
2259.925517121534,1150
2261.8024154876825,1128
2263.678880401803,1126
2265.5549121431536,1207
2267.430510991071,1140
2269.305677224971,1181
2271.180411124348,1161
2273.0547129687766,1192
2274.9285830379076,1139
2276.8020216114737,1218
2278.6750289692845,1174
2280.5476053912294,1155
2282.4197511572766,1192
2284.2914665474727,1199
2286.162751841943,1258
2288.0336073208937,1206
2289.904033264608,1212
2291.774029953448,1257
2293.6435976678554,1203
2295.5127366883517,1178
2297.381447295534,1184
2299.2497297700825,1144
2301.1175843927526,1127
2302.9850114443825,1070
2304.852011205885,1074
2306.7185839582553,1105
2308.5847299825664,1093
2310.4504495599676,1040
2312.3157429716925,1078
2314.1806104990483,1072
2316.0450524234247,1009
2317.9090690262888,1078
2319.772660589186,1048
2321.635827393742,1042
2323.498569721661,1058
2325.3608878547248,1063
2327.2227820747967,1061
2329.0842526638157,1050
2330.945299903803,1036
2332.805924076857,1060
2334.6661254651535,1083
2336.525904350951,1053
2338.3852610165827,989
2340.244195744464,1026
2342.102708817088,1030
2343.9608005170253,1039
2345.8184711269287,1056
2347.675720929526,1037
2349.532550207628,1071
2351.38895924412,1048
2353.24494832197,1048
2355.100517724223,1076
2356.955667734004,1015
2358.810398634514,1055
2360.664710709037,1078
2362.5186042409337,1053
2364.3720795136437,1074
2366.225136810686,1044
2368.0777764156583,1059
2369.929998612237,1099
2371.7818036841777,1069
2373.633191915315,1053
2375.484163589562,1082
2377.3347189909114,1094
2379.184858403434,1141
2381.03458211128,1032
2382.8838903986775,1066
2384.732783549936,1027
2386.5812618494406,1097
2388.4293255816588,1073
2390.2769750311327,1060
2392.1242104824883,1066
2393.971032220427,1072
2395.8174405297295,1077
2397.6634356952563,1109
2399.509018001947,1088
2401.3541877348193,1110
2403.1989451789705,1084
2405.043290619576,1091
2406.8872243418905,1092
2408.730746631247,1067
2410.5738577730594,1095
2412.4165580528183,1087
2414.258847756095,1083
2416.100727168537,1092
2417.9421965758734,1063
2419.783256263912,1089
2421.623906518538,1052
2423.4641476257157,1084
2425.303979871491,1087
2427.143403541984,1027
2428.9824189233977,1076
2430.821026302012,1056
2432.6592259641866,1128
2434.497018196361,1038
2436.33440328505,1087
2438.171381516851,1075
2440.00795317844,1084
2441.844118556569,1064
2443.6798779380724,1079
2445.5152316098606,1101
2447.3501798589255,1070
2449.1847229723357,1003
2451.0188612372403,1093
2452.8525949408663,1072
2454.6859243705203,1096
2456.518849813587,1090
2458.3513715575314,1059
2460.183489889895,1112
2462.015205098301,1091
2463.8465174704493,1087
2465.67742729412,1076
2467.5079348571717,1076
2469.338040447542,1047
2471.1677443532476,1061
2472.9970468623833,1071
2474.825948263123,1109
2476.6544488437207,1028
2478.482548892508,1104
2480.310248697896,1154
2482.137548548374,1089
2483.9644487325118,1081
2485.790949538956,1104
2487.617051256433,1082
2489.44275417375,1109
2491.26805857979,1129
2493.0929647635157,1166
2494.917473013971,1159
2496.741583620276,1103
2498.5652968716304,1171
2500.3886130573137,1093
2502.2115324666834,1134
2504.0340553891765,1126
2505.856182114308,1139
2507.6779129316733,1119
2509.499248130945,1093
2511.3201880018764,1165
2513.140732834298,1144
2514.9608829181198,1151
2516.780638543331,1131
2518.6,1125
2520.418967578273,1113
2522.237541568376,1179
2524.0557222606144,1145
2525.8735099453706,1227
2527.6909049131086,1197
2529.507907454368,1178
2531.32451785977,1253
2533.140736420014,1232
2534.9565634258774,1192
2536.771999168218,1161
2538.5870439379714,1202
2540.4016980261526,1234
2542.2159617238544,1199
2544.02983532225,1240
2545.8433191125914,1244
2547.656413386209,1201
2549.4691184345115,1205
2551.2814345489874,1221
2553.093362021204,1290
2554.904901142808,1218
2556.716052205523,1287
2558.526815501153,1255
2560.3371913215824,1303
2562.147179958771,1370
2563.956781704761,1323
2565.7659968516705,1321
2567.5748256916986,1294
2569.3832685171224,1328
2571.1913256202984,1349
2572.9989972936614,1315
2574.806283829725,1389
2576.613185521084,1387
2578.4197026604074,1328
2580.2258355404483,1388
2582.031584454035,1415
2583.836949694077,1379
2585.6419315535613,1342
2587.4465303255533,1386
2589.2507463032002,1418
2591.0545797797245,1436
2592.8580310484303,1411
2594.6611004026995,1370
2596.463788135992,1435
2598.266094541849,1354
2600.0680199138874,1386
2601.869564545807,1404
2603.670728731383,1436
2605.4715127644704,1395
2607.2719169390048,1382
2609.071941548998,1413
2610.8715868885433,1374
2612.670853251811,1326
2614.469740933052,1390
2616.268250226594,1370
2618.0663814268455,1419
2619.864134828292,1364
2621.6615107255006,1341
2623.458509413115,1386
2625.2551311858597,1387
2627.0513763385347,1384
2628.8472451660223,1369
2630.6427379632833,1319
2632.4378550253564,1324
2634.232596647359,1296
2636.026963124488,1311
2637.8209547520187,1327
2639.6145718253065,1283
2641.407814639785,1329
2643.200683490966,1293
2644.9931786744414,1269
2646.7853004858807,1310
2648.577049221034,1290
2650.3684251757277,1242
2652.1594286458712,1254
2653.9500599274484,1256
2655.740319316525,1270
2657.5302071092437,1230
2659.3197236018286,1241
2661.10886909058,1195
2662.8976438718782,1246
2664.686048242183,1211
2666.4740824980327,1231
2668.2617469360443,1162
2670.0490418529134,1211
2671.8359675454153,1202
2673.622524310403,1175
2675.408712444811,1180
2677.1945322456495,1155
2678.979984010009,1145
2680.76506803506,1160
2682.5497846180497,1178
2684.334134056306,1113
2686.1181166472343,1165
2687.9017326883213,1139
2689.6849824771293,1103
2691.4678663113013,1130
2693.2503844885596,1090
2695.032537306705,1154
2696.8143250636167,1121
2698.5957480572542,1128
2700.3768065856534,1071
2702.1575009469316,1094
2703.937831439283,1050
2705.717798360982,1070
2707.4974020103837,1113
2709.276642685917,1075
2711.055520686095,1061
2712.834036309506,1151
2714.612189854819,1068
2716.389981620782,1102
2718.1674119062204,1076
2719.944481010041,1034
2721.721189231226,1019
2723.4975368688415,1039
2725.273524222027,1023
2727.0491515900053,1112
2728.824419272075,1067
2730.5993275676146,1071
2732.3738767760838,1051
2734.148067197016,1036
2735.921899130031,1021
2737.6953728748194,1079
2739.468488731156,1054
2741.2412469988926,1058
2743.0136479779617,1079
2744.785691968372,1007
2746.5573792702116,1065
2748.3287101836504,1042
2750.099685008934,1029
2751.870304046388,1014
2753.640567596418,1090
2755.4104759595057,1034
2757.1800294362156,1080
2758.949228327187,1003
2760.7180729331412,1048
2762.486563554877,1042
2764.254700493272,1031
2766.022484049284,1025
2767.789914523947,1057
2769.5569922183786,959
2771.3237174337705,996
2773.090090471394,1041
2774.8561116326036,1066
2776.6217812188274,1021
2778.3870995315756,991
2780.1520668724356,1014
2781.9166835430747,985
2783.6809498452394,1049
2785.444866080754,1069
2787.2084325515225,1011
2788.971649559527,1047
2790.73451740683,1022
2792.4970363955713,1028
2794.2592068279705,1013
2796.0210290063264,995
2797.7825032330147,1004
2799.543629810493,1046
2801.304409041296,1030
2803.0648412280366,1002
2804.8249266734088,1052
2806.5846656801846,1060
2808.344058551212,1038
2810.1031055894246,1059
2811.8618070978273,1044
2813.6201633795085,1018
2815.378174737636,1016
2817.1358414754536,1010
2818.893163896285,1138
2820.6501423035334,1036
2822.4067770006814,1032
2824.1630682912883,1055
2825.9190164789957,1046
2827.6746218675207,1020
2829.429884760661,1046
2831.184805462294,1018
2832.9393842763743,1083
2834.693621506936,1059
2836.4475174580916,1045
2838.201072434034,1021
2839.954286739034,1019
2841.707160677441,1032
2843.459694553685,999
2845.2118886722724,1045
2846.96374333779,1020
2848.7152588549034,1054
2850.4664355283567,1011
2852.217273662973,1076
2853.9677735636546,1029
2855.7179355353833,1087
2857.4677598832186,1021
2859.217246912299,1042
2860.9663969278427,1030
2862.715210235146,1004
2864.4636871395846,1019
2866.211827946614,1025
2867.9596329617652,1058
2869.7071024906536,983
2871.4542368389684,1048
2873.20103631248,1032
2874.947501217038,1045
2876.6936318585695,1020
2878.4394285430812,1021
2880.1848915766604,1039
2881.9300212654707,996
2883.6748179157553,1050
2885.4192818338374,1064
2887.1634133261173,1032
2888.907212699077,1028
2890.6506802592744,1037
2892.393816313348,1005
2894.1366211680142,1046
2895.8790951300693,1056
2897.621238506388,1102
2899.363051603925,1019
2901.1045347297118,1056
2902.8456881908596,1074
2904.58651229456,1036
2906.327007348081,1023
2908.067173658772,1009
2909.8070115340597,1032
2911.5465212814497,1053
2913.285703208527,1015
2915.0245576229563,1029
2916.7630848324807,1016
2918.5012851449196,1074
2920.2391588681758,1078
2921.976706310227,1054
2923.7139277791334,1067
2925.4508235830313,1055
2927.187394030137,1025
2928.923639428745,1002
2930.6595600872306,1032
2932.395156314046,1068
2934.1304284177218,1032
2935.8653767068713,1016
2937.6000014901815,1031
2939.3343030764227,1002
2941.068281774442,1028
2942.8019378931644,1040
2944.5352717415976,1054
2946.2682836288236,1032
2948.0009738640065,1010
2949.7333427563885,1031
2951.465390615289,1050
2953.1971177501086,1047
2954.9285244703265,1065
2956.6596110855,1098
2958.3903779052657,1064
2960.1208252393385,1033
2961.8509533975125,1042
2963.5807626896617,997
2965.3102534257378,1004
2967.0394259157715,1027
2968.768280469873,1020
2970.496817398232,1031
2972.2250370111146,1028
2973.952939618869,1057
2975.6805255319196,1003
2977.4077950607707,1003
2979.134748516006,1033
2980.861386208289,1042
2982.587708448359,1072
2984.313715547037,1021
2986.039407815222,1043
2987.764785563891,1016
2989.489849104102,994
2991.2145987469908,1015
2992.9390348037705,993
2994.6631575857346,962
2996.3869674042576,1069
2998.1104645707887,1033
2999.83364939686,1029
3001.5565221940783,1000
3003.2790832741334,997
3005.0013329487924,1027
3006.7232715298996,991
3008.4448993293804,1037
3010.166216659239,1011
3011.887223831558,1068
3013.607921158498,1001
3015.3283089522993,1065
3017.0483875252826,1039
3018.7681571898443,1060
3020.4876182584626,993
3022.2067710436927,1013
3023.9256158581707,1031
3025.644153014609,1032
3027.362382825801,988
3029.0803056046193,1037
3030.797921664012,1036
3032.5152313170106,961
3034.2322348767225,993
3035.9489326563353,1038
3037.665324969115,1010
3039.3814121284063,1017
3041.097194447633,1046
3042.812672240299,1017
3044.5278458199855,1038
3046.2427155003525,977
3047.9572815951406,1026
3049.671544418167,1025
3051.38550428333,1031
3053.0991615046073,1035
3054.812516396051,1000
3056.5255692717974,1040
3058.2383204460575,1035
3059.9507702331257,1051
3061.662918947372,1010
3063.3747669032446,1029
3065.0863144152736,1049
3066.7975617980674,1023
3068.508509366309,1057
3070.219157434767,1030
3071.9295063182844,965
3073.639556331785,1037
3075.3493077902704,962
3077.058761008821,1042
3078.7679163025964,995
3080.476773986837,1040
3082.1853343768594,1037
3083.89359778806,1049
3085.6015645359153,1045
3087.3092349359786,1055
3089.016609303884,1073
3090.7236879553434,1052
3092.4304712061476,1015
3094.136959372166,1028
3095.843152769349,967
3097.5490517137237,1041
3099.2546565213966,1042
3100.959967508554,1038
3102.66498499146,1068
3104.3697092864577,985
3106.0741407099695,1028
3107.778279578498,984
3109.482126208622,1013
3111.1856809170004,1055
3112.8889440203716,1045
3114.5919158355528,1047
3116.294596679439,1013
3117.996986869006,983
3119.6990867213062,1015
3121.4008965534726,1068
3123.102416682717,1050
3124.803647426329,1042
3126.5045891016784,1034
3128.205242026213,1063
3129.90560651746,1067
3131.605682893025,1015
3133.3054714705922,1034
3135.0049725679282,1095
3136.7041865028714,1053
3138.4031135933465,1027
3140.101754157353,1066
3141.800108512971,1010
3143.498176978357,1018
3145.1959598717494,964
3146.8934575114636,1014
3148.5906702158954,1031
3150.2875983035183,1037
3151.9842420928853,1022
3153.680601902627,1041
3155.376678051456,1035
3157.07247085816,996
3158.767980641609,1029
3160.463207720748,980
3162.158152414606,1047
3163.8528150422862,1031
3165.5471959229726,1060
3167.2412953759303,1035
3168.9351137204976,1010
3170.628651276098,1022
3172.3219083622307,1011
3174.014885298474,979
3175.707582404485,1039
3177.4000000000005,1010
3179.092138404835,1003
3180.7839979388846,1021
3182.47557892212,996
3184.166881674594,1009
3185.8579065164386,1003
3187.5486537678626,1027
3189.2391237491547,1003
3190.9293167806827,1040
3192.6192331828934,1017
3194.3088732763117,998
3195.998237381542,989
3197.687325819268,1037
3199.376138910251,1008
3201.064676975334,1059
3202.7529403354347,994
3204.4409293115523,975
3206.1286442247647,1007
3207.816085396229,995
3209.5032531471825,1014
3211.190147798936,963
3212.8767696728846,976
3214.5631190905015,984
3216.2491963733373,985
3217.9350018430214,952
3219.6205358212637,999
3221.305798629851,1000
3222.990790590651,998
3224.6755120256103,1017
3226.359963256751,1008
3228.0441446061795,1042
3229.7280563960758,966
3231.411698948703,955
3233.0950725863995,989
3234.778177631587,1007
3236.461014406761,979
3238.1435832345005,1030
3239.8258844374595,1026
3241.507918338374,988
3243.1896852600576,982
3244.8711855254023,990
3246.552419457381,1014
3248.233387379042,1017
3249.914089613516,982
3251.59452648401,1044
3253.274698313813,1015
3254.95460542629,987
3256.6342481448855,1001
3258.313626793125,999
3259.9927416946084,967
3261.6715931730196,956
3263.3501815521176,971
3265.0285071557437,1005
3266.706570307815,1007
3268.3843713323286,991
3270.0619105533615,988
3271.739188295068,975
3273.4162048816834,968
3275.0929606375184,991
3276.769455886966,1015
3278.445690954498,963
3280.1216661646613,1010
3281.797381842087,992
3283.4728383114807,1012
3285.1480358976296,1013
3286.8229749253996,1006
3288.4976557197333,979
3290.172078605655,970
3291.846243908266,1007
3293.5201519527463,986
3295.193803064357,1016
3296.8671975684374,961
3298.5403357904024,1009
3300.21321805575,975
3301.8858446900567,993
3303.558216018975,983
3305.23033236824,992
3306.9021940636603,966
3308.57380143113,1012
3310.2451547966184,975
3311.916254486174,970
3313.5871008259246,994
3315.2576941420766,1036
3316.9280347609147,1031
3318.5981230088046,1011
3320.2679592121895,972
3321.9375436975924,974
3323.606876791612,1013
3325.27595882093,976
3326.944790112305,963
3328.6133709925753,1002
3330.2817017886573,948
3331.949782827547,984
3333.617614436319,984
3335.2851969421245,1010
3336.952530672199,977
3338.619615953853,988
3340.286453114475,989
3341.9530424815357,1009
3343.619384382583,1003
3345.2854791452437,956
3346.951327097224,1010
3348.6169285663073,969
3350.2822838803577,996
3351.947393367319,993
3353.61225735521,973
3355.2768761721345,999
3356.9412501462693,977
3358.605379605873,990
3360.2692648792827,973
3361.9329062949146,977
3363.596304181263,971
