CollectionTime,9/20/2024 11:33:28 AM
ExposureUsed,3
CalibratedSpectrum
-962.7078968117929,494
-959.9714848408522,551
-957.2358232597828,531
-954.5009119013725,539
-951.7667505983302,551
-949.0333391832855,561
-946.3006774887896,564
-943.5687653473143,545
-940.837602591253,537
-938.1071890529199,524
-935.3775245645503,542
-932.6486089583007,520
-929.9204420662485,524
-927.1930237203925,515
-924.4663537526524,611
-921.7404319948689,583
-919.0152582788041,590
-916.2908324361409,566
-913.5671542984834,531
-910.8442236973568,518
-908.1220404642074,539
-905.4006044304027,526
-902.679915427231,537
-899.959973285902,496
-897.2407778375464,500
-894.5223289132158,522
-891.8046263438832,547
-889.0876699604426,565
-886.3714595937089,545
-883.6559950744183,551
-880.9412762332282,532
-878.2273029007168,538
-875.5140749073835,512
-872.8015920836489,487
-870.0898542598545,482
-867.3788612662631,533
-864.6686129330585,555
-861.9591090903457,570
-859.2503495681506,544
-856.5423341964203,521
-853.8350628050229,506
-851.1285352237478,514
-848.4227512823054,560
-845.7177108103272,555
-843.0134136373656,547
-840.3098595928943,585
-837.6070485063082,555
-834.9049802069229,574
-832.2036545239757,531
-829.5030712866244,554
-826.8032303239481,557
-824.1041314649472,520
-821.4057745385428,532
-818.7081593735775,526
-816.0112857988148,527
-813.3151536429393,545
-810.6197627345566,585
-807.9251129021936,558
-805.2312039742981,642
-802.5380357792392,628
-799.8456081453069,593
-797.1539209007124,573
-794.462973873588,579
-791.772766891987,565
-789.083299783884,524
-786.3945723771743,535
-783.7065844996748,540
-781.0193359791231,537
-778.3328266431781,548
-775.6470563194197,516
-772.9620248353489,520
-770.2777320183878,549
-767.5941776958798,578
-764.9113616950891,560
-762.2292838432011,502
-759.5479439673222,546
-756.8673418944801,547
-754.1874774516235,591
-751.5083504656222,566
-748.8299607632671,534
-746.15230817127,549
-743.475392516264,608
-740.7992136248035,575
-738.1237713233636,578
-735.4490654383407,585
-732.7750957960521,527
-730.1018622227365,562
-727.4293645445534,551
-724.7576025875837,582
-722.0865761778291,560
-719.4162851412126,558
-716.7467293035781,576
-714.0779084906909,645
-711.409822528237,631
-708.7424712418238,605
-706.0758544569796,588
-703.4099719991541,590
-700.7448236937178,602
-698.0804093659622,589
-695.4167288411002,576
-692.7537819442656,561
-690.0915685005134,592
-687.4300883348199,569
-684.7693412720819,603
-682.1093271371178,635
-679.4500457546669,622
-676.7914969493897,615
-674.1336805458676,601
-671.4765963686034,571
-668.8202442420206,550
-666.1646239904642,572
-663.5097354382001,593
-660.8555784094151,588
-658.2021527282176,586
-655.5494582186366,590
-652.8974947046223,618
-650.2462620100463,623
-647.5957599587009,587
-644.9459883742998,647
-642.2969470804776,642
-639.6486359007902,636
-637.0010546587141,674
-634.3542031776476,657
-631.7080812809096,643
-629.0626887917401,626
-626.4180255333008,584
-623.7740913286734,630
-621.1308860008619,677
-618.4884093727904,611
-615.8466612673046,658
-613.2056415071715,639
-610.5653499150785,651
-607.9257863136347,670
-605.28695052537,673
-602.6488423727357,655
-600.0114616781036,630
-597.3748082637674,643
-594.7388819519412,653
-592.1036825647604,687
-589.4692099242818,678
-586.8354638524829,724
-584.2024441712624,695
-581.5701507024403,707
-578.9385832677575,763
-576.3077416888759,767
-573.6776257873787,703
-571.0482353847704,757
-568.4195703024757,694
-565.7916303618415,737
-563.164415384135,679
-560.5379251905453,694
-557.9121596021815,714
-555.2871184400748,669
-552.6628015251767,705
-550.0392086783606,707
-547.4163397204204,711
-544.794194472071,739
-542.1727727539491,750
-539.5520743866118,780
-536.9320991905377,910
-534.3128469861261,975
-531.6943175936979,915
-529.0765108334947,833
-526.4594265256793,939
-523.8430644903358,1100
-521.2274245474689,1330
-518.612506517005,1381
-515.9983102187913,1476
-513.3848354725959,1804
-510.77208209810846,2054
-508.16004991493924,2234
-505.5487387426199,2209
-502.9381484006032,2089
-500.3282787082628,1871
-497.71912948489364,1669
-495.1107005497117,1399
-492.5029917218539,1212
-489.8960028203786,1072
-487.28973366426493,981
-484.68418407241325,908
-482.07935386364494,881
-479.47524285670266,870
-476.87185087025,829
-474.2691777228715,883
-471.66722323307334,896
-469.0659872192821,893
-466.4654694998459,855
-463.86566989303384,873
-461.26658821703614,869
-458.66822428996414,799
-456.07057792985,824
-453.4736489546475,883
-450.877437182231,893
-448.28194243039627,859
-445.68716451686,849
-443.09310325926003,798
-440.49975847515555,828
-437.9071299820263,889
-435.31521759727354,978
-432.72402113821954,925
-430.13354042210767,881
-427.5437752661022,873
-424.95472548728867,872
-422.36639090267386,892
-419.7787713291855,934
-417.1918665836721,927
-414.60567648290385,988
-412.0202008435715,944
-409.4354394822874,971
-406.8513922155845,908
-404.26805885991723,884
-401.685439231661,845
-399.103533147112,883
-396.522340422488,897
-393.9418608739278,886
-391.3620943174908,904
-388.7830405691583,911
-386.2046994448317,856
-383.6270707603344,839
-381.05015433141045,871
-378.473949973725,871
-375.8984575028645,783
-373.32367673433623,788
-370.74960748356875,816
-368.1762495659117,762
-365.60360279663576,692
-363.03166699093265,674
-360.4604419639154,655
-357.8899275306178,596
-355.32012350599507,602
-352.7510297049233,585
-350.1826459421999,583
-347.61497203254316,563
-345.04800779059235,607
-342.4817530309082,567
-339.91620756797226,610
-337.35137121618743,614
-334.7872437898774,643
-332.22382510328725,632
-329.66111497058273,661
-327.09911320585127,636
-324.53781962310075,652
-321.9772340362607,634
-319.4173562591816,638
-316.8581861056348,636
-314.2997233893127,618
-311.7419679238294,673
-309.1849195227194,663
-306.62857799943856,697
-304.0729431673641,673
-301.51801483979375,767
-298.963792829947,668
-296.41027695096386,630
-293.85746701590574,712
-291.3053628377552,757
-288.7539642294155,747
-286.2032710037115,755
-283.65328297338897,729
-281.1039999511146,758
-278.5554217494762,890
-276.007548180983,1099
-273.4603790580651,917
-270.9139141930734,715
-268.3681533982807,915
-265.8230964858798,946
-263.27874326798565,818
-260.7350935566336,824
-258.1921471637804,944
-255.6499039013039,1104
-253.10836358100266,1007
-250.56752601459698,967
-248.02739101372765,866
-245.48795838995704,905
-242.94922795476816,858
-240.41119951956557,957
-237.8738728956746,967
-235.33724789434166,1026
-232.80132432673452,1100
-230.2661020039418,921
-227.73158073697357,888
-225.19776033676033,905
-222.66464061415422,998
-220.1322213799284,1051
-217.60050244477725,1004
-215.06948361931552,1056
-212.53916471408013,1079
-210.00954553952818,1012
-207.48062590603843,895
-204.9524056239104,979
-202.4248845033651,1011
-199.8980623545441,1050
-197.37193898751036,1258
-194.84651421224817,1189
-192.32178783866232,1112
-189.79775967657952,1015
-187.27442953574644,1062
-184.7517972258321,1077
-182.2298625564256,1022
-179.7086253370378,963
-177.18808537710026,996
-174.66824248596583,1059
-172.14909647290835,1258
-169.6306471471229,1344
-167.11289431772548,1354
-164.59583779375328,1281
-162.07947738416453,1472
-159.5638128978386,1796
-157.04884414357605,1655
-154.53457093009854,1610
-152.02099306604828,1514
-149.50811035998936,1417
-146.99592262040665,1639
-144.48442965570587,1666
-141.97363127421409,1612
-139.46352728417958,1581
-136.95411749377126,1673
-134.44540171107985,1680
-131.93737974411636,1697
-129.43005140081357,1762
-126.92341648902493,1869
-124.41747481652521,2031
-121.91222619101006,2236
-119.40767042009657,2302
-116.90380731132257,2707
-114.40063667214702,3601
-111.8981583099503,4501
-109.3963720320337,6259
-106.89527764561933,7933
-104.39487495785067,8952
-101.89516377579241,9908
-99.39614390642998,13284
-96.89781515667039,17964
-94.40017733334128,22769
-91.90323024319173,25979
-89.40697369289148,20314
-86.91140748903172,12197
-84.41653143812482,8245
-81.92234534660395,9081
-79.42884902082358,13047
-76.93604226705907,17129
-74.4439248915071,17841
-71.95249670028534,15602
-69.46175749943245,11881
-66.97170709490854,10055
-64.48234529259423,9633
-61.99367189829195,12225
-59.50568671772464,14119
-57.01838955653636,18518
-54.53178022029283,21948
-52.045858514480074,24103
-49.560624244506016,22795
-47.07607721569923,21156
-44.59221723330904,25503
-42.10904410250669,27609
-39.62655762838392,31636
-37.14475761595372,43167
-34.66364387015028,52881
-32.18321619582866,55649
-29.70347439776515,62996
-27.224418280657005,65035
-24.74604764912317,63144
-22.26836230770266,62620
-19.7913620608565,65035
-17.315046712966478,65035
-14.83941606833514,65035
-12.36446993118659,65035
-9.89020810566592,65035
-7.416630395839093,65035
-4.94373660569363,65035
-2.471526539137585,65035
-6.821210263296962E-13,65035
2.47084320796705,65035
4.941003281093458,65035
7.410480415786196,65035
9.879274808531363,65035
12.347386655893956,65035
14.814816154518212,65035
17.28156350112681,65035
19.74762889252179,65035
22.21301252558385,65035
24.67771459727237,25007
27.141735304626195,7403
29.605074844762612,6468
32.06773341487792,6931
34.52971121224755,6196
36.99100843422559,4511
39.45162527824516,5235
41.91156194181792,6044
44.370818622535126,5812
46.82939551806646,5310
49.287292826160524,5865
51.74451074464503,4730
54.201049471426245,4062
56.65690920448981,4317
59.112090141899785,4232
61.56659248179983,3794
64.02041642241159,3712
66.4735621620365,4013
68.92602989905402,3975
71.37781983192338,3912
73.82893215918205,3650
76.27936707944684,2362
78.72912479141326,2547
81.17820549385567,2468
83.62660938562783,2258
86.07433666566146,2421
88.5213875329681,2483
90.96776218663751,2472
93.41346082583925,2523
95.85848364982041,3110
98.30283085790859,2694
100.7465026495089,2030
103.18949922410604,2032
105.63182078126385,1793
108.07346752062438,2049
110.51443964190923,2339
112.95473734491827,2360
115.39436082953114,2102
117.83331029570547,1911
120.27158594347827,1983
122.7091879729652,2047
125.1461165843615,2211
127.58237197794062,2599
130.01795435405518,2415
132.4528639131364,2138
134.88710085569494,1837
137.32066538231982,1765
139.75355769367923,1796
142.1857779905207,1659
144.61732647366978,1289
147.04820334403132,1334
149.47840880258934,1536
151.90794305040674,1724
154.33680628862487,1542
156.76499871846443,1574
159.19252054122433,1790
161.61937195828352,1916
164.04555317109896,1963
166.47106438120693,1861
168.89590579022217,1902
171.320077599839,2094
173.7435800118302,2192
176.16641322804742,2316
178.58857745042144,2500
181.01007288096173,2309
183.43089972175687,2258
185.85105817497413,2274
188.27054844285988,2282
190.6893707277394,2317
193.10752523201643,2392
195.5250121581745,2459
197.9418317087751,2501
200.3579840864594,2421
202.7734694939469,2502
205.18828813403627,2799
207.6024402096051,2680
210.01592592360964,2597
212.42874547908548,2520
214.84089907914665,2517
217.2523869269868,2646
219.66320922587727,2607
222.0733661791695,2469
224.48285799029293,2535
226.8916848627572,2782
229.29984700014882,2599
231.7073446061355,2521
234.11417788446204,2544
236.520347038953,2499
238.92585227351185,2671
241.33069379212054,2610
243.73487179884035,2549
246.1383864978112,2629
248.541238093252,2590
250.9434267894609,2658
253.34495279081432,2593
255.74581630176783,2593
258.1460175268563,2635
260.54555667069314,2779
262.9444339379703,2659
265.3426495334594,2722
267.7402036620107,2728
270.1370965285529,2761
272.53332833809407,2664
274.9288992957214,2517
277.32380960660055,2433
279.718059475976,2548
282.1116491091717,2503
284.5045787115897,2631
286.89684848871195,2650
289.2884586460981,2678
291.67940938938807,2682
294.0697009242996,2746
296.4593334566299,2611
298.84830719225477,2581
301.23662233712923,2562
303.6242790972866,2492
306.01127767884,2426
308.39761828798066,2456
310.78330113097934,2567
313.16832641418534,2470
315.5526943440269,2439
317.9364051270112,2344
320.3194589697242,2289
322.70185607883093,2268
325.0835966610754,2232
327.4646809232805,2214
329.8451090723478,2178
332.2248813152577,2323
334.6039978590701,2278
336.9824589109231,2210
339.36026467803447,2239
341.7374153677,2176
344.113911187295,2117
346.48975234427337,2268
348.8649390461686,2211
351.2394715005918,2238
353.61334991523415,2116
355.9865744978655,2174
358.35914545633375,2194
360.73106299856715,2194
363.10232733257146,2107
365.47293866643247,2177
367.84289720831396,2094
370.2122031664593,2138
372.5808567491905,2046
374.9488581649083,2034
377.31620762209275,2021
379.6829053293021,2085
382.0489514951745,2015
384.4143463284262,1938
386.7790900378528,1965
389.14318283232853,1954
391.50662492080653,2001
393.86941651231916,1977
396.23155781597745,1942
398.5930490409713,2057
400.9538903965696,2008
403.3140820921202,1966
405.6736243370498,1911
408.03251734086336,1948
410.3907613131465,1892
412.74835646356166,1973
415.10530300185144,1958
417.4616011378372,1936
419.81725108141893,1972
422.1722530425758,1967
424.5266072313656,1974
426.880313857925,1926
429.2333731324701,1943
431.58578526529516,1990
433.9375504667738,1882
436.2886689473588,1835
438.63914091758113,1857
440.9889665880513,1890
443.33814616945835,1865
445.68667987257015,1875
448.03456790823395,1902
450.3818104873759,1914
452.72840782100013,1831
455.07436012019105,1890
457.41966759611057,1873
459.7643304600007,1886
462.10834892318155,1875
464.4517231970525,1789
466.79445349309174,1912
469.1365400228566,1848
471.4779829979826,1875
473.81878263018564,1888
476.15893913125876,1875
478.4984527130747,1944
480.8373235875855,2074
483.17555196682144,2082
485.5131380628919,1958
487.8500820879857,2040
490.1863842543697,2152
492.52204477439034,2199
494.8570638604725,2400
497.1914417251204,2569
499.52517858091653,2942
501.85827464052306,3745
504.19073011668036,4388
506.5225452222086,4908
508.85372017000566,5150
511.18425517304956,5352
513.514150444396,5754
515.8434061971808,6622
518.1720226446176,7004
520.4999999999999,6665
522.8273384766991,6064
525.1540382881666,5695
527.480099647932,5031
529.8055227696037,3939
532.1303078668694,2946
534.454455153496,2345
536.777964843328,2120
539.1008371502907,2081
541.4230722883866,2013
543.744670471698,1980
546.0656319143858,1878
548.3859568306899,1965
550.7056454349294,1927
553.0246979415016,1807
555.3431145648834,1805
557.6608955196306,1842
559.978041020377,1742
562.2945512818363,1830
564.6104265188006,1936
566.9256669461412,1854
569.2402727788082,1908
571.5542442318302,1959
573.8675815203156,1969
576.1802848594508,1938
578.4923544645015,1952
580.8037905508126,1957
583.114593333807,1887
585.4247630289875,1905
587.7342998519354,1840
590.0432040183106,1835
592.3514757438526,1873
594.6591152443794,1916
596.9661227357875,1828
599.2724984340531,1859
601.578242555231,1877
603.8833553154542,1868
606.1878369309362,1847
608.4916876179676,1833
610.7949075929192,1879
613.0974970722403,1786
615.3994562724587,1886
617.7007854101818,1836
620.0014847020951,1888
622.3015543649641,1868
624.6009946156324,1842
626.8998056710224,1865
629.1979877481361,1882
631.4955410640538,1858
633.7924658359349,1838
636.0887622810175,1947
638.3844306166192,1849
640.6794710601358,1885
642.9738838290426,1833
645.2676691408932,1839
647.5608272133207,1921
649.853358264037,1848
652.1452625108324,1975
654.4365401715764,1921
656.7271914642178,1891
659.0172166067838,1848
661.3066158173809,1852
663.5953893141935,1891
665.8835373154867,1853
668.1710600396028,1838
670.4579577049639,2006
672.7442305300709,1933
675.0298787335033,1917
677.3149025339197,1875
679.599302150058,1888
681.8830778007342,1868
684.1662297048437,1943
686.4487580813608,1947
688.7306631493387,1896
691.0119451279091,1842
693.2926042362834,1893
695.5726406937516,1939
697.8520547196814,1917
700.1308465335215,1837
702.4090163547982,1887
704.6865644031171,1932
706.9634908981619,1862
709.2397960596965,1814
711.5154801075631,1859
713.7905432616823,1893
716.0649857420548,1816
718.3388077687592,1812
720.612009561953,1884
722.8845913418733,1911
725.1565533288352,1821
727.427895743234,1866
729.6986188055427,1791
731.9687227363137,1786
734.238207756178,1847
736.5070740858458,1858
738.7753219461066,1877
741.0429515578281,1913
743.3099631419569,1856
745.5763569195191,1904
747.8421331116193,1898
750.1072919394409,1880
752.3718336242467,1866
754.6357583873777,1887
756.8990664502545,1950
759.1617580343765,1907
761.423833361321,1982
763.6852926527457,1910
765.9461361303862,1901
768.206364016058,1934
770.4659765316536,1912
772.7249738991469,1922
774.9833563405886,1926
777.2411240781092,1952
779.4982773339183,1983
781.7548163303044,1950
784.010741289634,1868
786.2660524343538,2028
788.5207499869881,2002
790.7748341701416,2016
793.0283052064964,1980
795.2811633188143,1939
797.5334087299362,1928
799.7850416627813,1931
802.0360623403484,2011
804.2864709857143,1992
806.5362678220353,1990
808.7854530725468,1897
811.0340269605625,1892
813.2819897094754,1905
815.5293415427581,1893
817.77608268396,2002
820.0222133567116,2030
822.2677337847211,1881
824.5126441917765,1864
826.7569448017433,1923
829.0006358385675,1912
831.2437175262731,1941
833.4861900889629,1971
835.7280537508192,1909
837.9693087361026,1919
840.2099552691533,1958
842.4499935743896,1925
844.689423876309,1909
846.9282463994886,1968
849.1664613685833,1937
851.4040690083276,1908
853.6410695435349,1869
855.877463199097,1894
858.1132501999847,1973
860.3484307712487,2013
862.5830051380175,1875
864.8169735254988,1918
867.0503361589791,1931
869.2830932638243,1991
871.5152450654786,1913
873.7467917894654,1973
875.9777336613873,1937
878.2080709069252,1939
880.4378037518389,1961
882.666932421968,1922
884.8954571432301,2018
887.1233781416219,2017
889.3506956432192,1987
891.5774098741766,1940
893.803521060728,1934
896.0290294291852,1913
898.2539352059397,1989
900.4782386174619,1928
902.7019398903011,1953
904.925039251085,1989
907.147536926521,1985
909.3694331433943,1949
911.59072812857,2017
913.8114221089921,1960
916.0315153116827,1964
918.2510079637437,2042
920.4699002923547,2019
922.6881925247761,1976
924.905884888345,1976
927.1229776104793,1955
929.3394709186747,1931
931.555365040506,1985
933.7706602036275,2013
935.9853566357709,1959
938.1994545647489,2020
940.4129542184515,1946
942.6258558248488,1970
944.8381596119883,1965
947.0498658079974,1992
949.2609746410825,1976
951.4714863395287,1947
953.6814011316998,2005
955.8907192460387,1906
958.0994409110671,1988
960.3075663553858,1972
962.5150958076741,1916
964.7220294966913,1963
966.928367651274,1947
969.1341105003388,1866
971.3392582728806,1980
973.5438111979742,1945
975.747769504772,1906
977.9511334225061,1889
980.153903180487,1963
982.3560790081052,1867
984.5576611348289,1818
986.7586497902058,1845
988.9590452038618,1825
991.158847605503,1740
993.3580572249133,1703
995.5566742919558,1712
997.7546990365728,1721
999.952131688785,1679
1002.1489724786926,1685
1004.3452216364743,1620
1006.5408793923874,1601
1008.7359459767691,1612
1010.9304216200343,1621
1013.1243065526781,1660
1015.3176010052733,1559
1017.510305208472,1566
1019.7024193930064,1533
1021.8939437896848,1579
1024.0848786293977,1550
1026.2752241431122,1531
1028.4649805618747,1617
1030.6541481168115,1525
1032.842727039127,1569
1035.0307175601051,1434
1037.2181199111074,1501
1039.4049343235752,1470
1041.591161029029,1494
1043.7768002590683,1474
1045.9618522453698,1460
1048.1463172196918,1471
1050.3301954138697,1477
1052.513487059818,1526
1054.69619238953,1544
1056.8783116350783,1476
1059.0598450286152,1534
1061.2407928023704,1478
1063.4211551886528,1502
1065.6009324198508,1452
1067.780124728432,1463
1069.9587323469414,1497
1072.1367555080046,1453
1074.314194444325,1482
1076.4910493886855,1434
1078.667320573947,1480
1080.843008233051,1488
1083.0181125990161,1459
1085.1926339049414,1414
1087.3665723840027,1451
1089.5399282694575,1401
1091.7127017946405,1374
1093.8848931929647,1446
1096.0565026979243,1388
1098.2275305430899,1489
1100.3979769621128,1404
1102.567842188722,1419
1104.737126456726,1379
1106.9058300000124,1403
1109.0739530525475,1382
1111.2414958483764,1406
1113.4084586216231,1371
1115.5748416064907,1442
1117.7406450372605,1350
1119.9058691482942,1365
1122.0705141740304,1421
1124.2345803489884,1400
1126.3980679077658,1375
1128.5609770850388,1379
1130.7233081155623,1393
1132.8850612341707,1348
1135.0462366757774,1359
1137.2068346753745,1378
1139.3668554680326,1365
1141.526299288901,1379
1143.68516637321,1351
1145.8434569562655,1354
1148.001171273455,1389
1150.158309560244,1333
1152.3148720521767,1311
1154.470858984876,1337
1156.626270594044,1352
1158.7811071154629,1356
1160.9353687849912,1368
1163.089055838569,1287
1165.242168512213,1310
1167.3947070420209,1371
1169.5466716641677,1321
1171.6980626149075,1314
1173.8488801305748,1279
1175.9991244475814,1390
1178.1487958024186,1334
1180.2978944316555,1335
1182.4464205719428,1327
1184.5943744600072,1323
1186.7417563326567,1294
1188.8885664267755,1317
1191.0348049793297,1360
1193.1804722273619,1317
1195.325568407995,1386
1197.4700937584303,1349
1199.614048515948,1320
1201.7574329179074,1358
1203.900247201746,1362
1206.042491604982,1338
1208.1841663652099,1314
1210.3252717201053,1283
1212.465807907422,1342
1214.6057751649923,1377
1216.7451737307279,1361
1218.8840038426192,1363
1221.0222657387353,1359
1223.1599596572241,1352
1225.2970858363137,1329
1227.4336445143094,1306
1229.5696359295966,1382
1231.705060320639,1337
1233.8399179259786,1344
1235.9742089842384,1341
1238.107933734118,1351
1240.2410924143974,1368
1242.373685263935,1295
1244.5057125216676,1338
1246.6371744266116,1288
1248.7680712178621,1326
1250.898403134593,1350
1253.028170416058,1370
1255.1573733015875,1323
1257.2860120305932,1320
1259.4140868425648,1269
1261.54159797707,1302
1263.6685456737569,1333
1265.7949301723515,1329
1267.9207517126597,1369
1270.046010534565,1347
1272.1707068780306,1375
1274.2948409830983,1346
1276.4184130898889,1320
1278.541423438603,1417
1280.6638722695184,1405
1282.785759822993,1326
1284.9070863394636,1347
1287.0278520594447,1307
1289.1480572235314,1358
1291.2677020723963,1369
1293.3867868467923,1371
1295.5053117875495,1338
1297.623277135579,1443
1299.740683131868,1460
1301.8575300174857,1374
1303.973818033578,1407
1306.0895474213703,1365
1308.2047184221678,1344
1310.3193312773528,1363
1312.4333862283888,1373
1314.5468835168163,1351
1316.659823384255,1345
1318.7722060724045,1361
1320.8840318230418,1354
1322.9953008780249,1394
1325.1060134792888,1329
1327.2161698688478,1423
1329.3257702887959,1369
1331.4348149813054,1379
1333.5433041886276,1412
1335.6512381530933,1362
1337.7586171171101,1370
1339.8654413231675,1345
1341.9717110138317,1342
1344.0774264317488,1378
1346.1825878196432,1445
1348.2871954203192,1403
1350.3912494766587,1330
1352.4947502316231,1419
1354.5976979282532,1429
1356.7000928096686,1424
1358.8019351190665,1378
1360.9032250997243,1374
1363.0039629949988,1367
1365.1041490483235,1386
1367.2037835032133,1374
1369.3028666032606,1360
1371.401398592137,1455
1373.4993797135926,1390
1375.5968102114575,1389
1377.6936903296396,1415
1379.7900203121262,1416
1381.8858004029835,1333
1383.9810308463561,1393
1386.075711886469,1391
1388.1698437676241,1422
1390.2634267342032,1419
1392.356461030667,1391
1394.4489469015557,1403
1396.5408845914872,1406
1398.6322743451592,1429
1400.7231164073469,1456
1402.813411022907,1446
1404.903158436773,1431
1406.9923588939578,1439
1409.0810126395531,1384
1411.1691199187303,1393
1413.2566809767386,1365
1415.343696058907,1487
1417.4301654106425,1429
1419.5160892774315,1408
1421.6014679048399,1421
1423.6863015385125,1416
1425.7705904241707,1433
1427.8543348076178,1415
1429.9375349347342,1457
1432.0201910514802,1422
1434.102303403894,1381
1436.1838722380944,1384
1438.2648978002767,1388
1440.3453803367174,1428
1442.4253200937692,1427
1444.5047173178677,1429
1446.5835722555234,1392
1448.6618851533285,1446
1450.739656257952,1403
1452.8168858161434,1338
1454.8935740747306,1435
1456.96972128062,1394
1459.045327680797,1440
1461.120393522327,1370
1463.1949190523528,1439
1465.2689045180973,1456
1467.3423501668608,1369
1469.415256246024,1416
1471.4876230030463,1458
1473.559450685465,1362
1475.6307395408976,1429
1477.7014898170391,1412
1479.771701761665,1413
1481.8413756226287,1379
1483.9105116478618,1412
1485.9791100853772,1394
1488.0471711832643,1426
1490.1146951896926,1414
1492.1816823529098,1389
1494.2481329212433,1399
1496.3140471430984,1476
1498.3794252669609,1393
1500.4442675413939,1411
1502.5085742150404,1387
1504.572345536622,1365
1506.6355817549388,1459
1508.6982831188702,1374
1510.7604498773744,1429
1512.8220822794883,1394
1514.8831805743293,1417
1516.9437450110909,1442
1519.003775839048,1374
1521.0632733075522,1355
1523.1222376660367,1390
1525.1806691640113,1392
1527.2385680510652,1467
1529.2959345768668,1418
1531.3527689911643,1400
1533.4090715437833,1431
1535.4648424846291,1367
1537.5200820636855,1410
1539.5747905310159,1422
1541.6289681367616,1406
1543.6826151311434,1379
1545.7357317644614,1422
1547.7883182870937,1363
1549.8403749494987,1408
1551.8919020022113,1431
1553.9428996958477,1439
1555.9933682811015,1463
1558.0433080087469,1347
1560.0927191296346,1406
1562.1416018946961,1396
1564.1899565549415,1423
1566.2377833614592,1426
1568.2850825654164,1376
1570.3318544180606,1384
1572.3780991707158,1388
1574.423817074788,1394
1576.4690083817595,1392
1578.5136733431923,1426
1580.5578122107272,1409
1582.601425236085,1446
1584.6445126710646,1398
1586.6870747675434,1428
1588.7291117774776,1404
1590.7706239529034,1346
1592.8116115459347,1354
1594.8520748087658,1424
1596.8920139936686,1378
1598.9314293529933,1392
1600.9703211391711,1358
1603.008689604711,1392
1605.0465350022005,1360
1607.0838575843068,1393
1609.1206576037753,1379
1611.1569353134305,1381
1613.1926909661765,1398
1615.2279248149953,1359
1617.2626371129481,1376
1619.2968281131757,1347
1621.3304980688963,1378
1623.3636472334088,1362
1625.39627586009,1359
1627.428384202396,1357
1629.459972513861,1357
1631.4910410480993,1363
1633.5215900588028,1369
1635.551619799744,1327
1637.5811305247717,1315
1639.6101224878166,1323
1641.6385959428862,1298
1643.6665511440683,1392
1645.693988345528,1375
1647.7209078015112,1377
1649.7473097663405,1342
1651.7731944944203,1367
1653.7985622402307,1297
1655.823413258333,1289
1657.847747803366,1325
1659.8715661300494,1327
1661.8948684931793,1347
1663.9176551476316,1339
1665.9399263483624,1297
1667.9616823504057,1285
1669.982923408873,1331
1672.0036497789574,1340
1674.0238617159293,1346
1676.043559475138,1319
1678.0627433120121,1287
1680.081413482059,1282
1682.0995702408654,1327
1684.117213844096,1312
1686.134344547495,1353
1688.1509626068864,1369
1690.1670682781705,1292
1692.182661817329,1313
1694.1977434804217,1306
1696.2123135235875,1390
1698.226372203043,1303
1700.2399197750851,1391
1702.2529564960905,1342
1704.2654826225112,1341
1706.277498410882,1367
1708.2890041178139,1383
1710.2999999999988,1373
1712.3104863142066,1381
1714.3204633172854,1344
1716.329931266163,1290
1718.3388904178469,1322
1720.3473410294214,1335
1722.3552833580516,1336
1724.3627176609807,1306
1726.3696441955308,1343
1728.3760632191033,1295
1730.3819749891782,1342
1732.3873797633146,1399
1734.3922777991502,1333
1736.3966693544012,1308
1738.4005546868639,1297
1740.4039340544127,1308
1742.406807715001,1399
1744.4091759266616,1322
1746.4110389475054,1343
1748.4123970357223,1328
1750.413250449582,1319
1752.4135994474318,1315
1754.4134442876993,1320
1756.4127852288902,1280
1758.4116225295893,1377
1760.4099564484595,1364
1762.407787244244,1368
1764.405115175764,1349
1766.4019405019203,1285
1768.3982634816916,1339
1770.3940843741357,1292
1772.3894034383907,1326
1774.3842209336717,1366
1776.378537119274,1358
1778.372352254571,1345
1780.3656665990156,1332
1782.3584804121397,1355
1784.3507939535534,1358
1786.3426074829463,1368
1788.3339212600863,1374
1790.3247355448211,1348
1792.3150505970766,1344
1794.3048666768573,1391
1796.2941840442477,1356
1798.2830029594106,1338
1800.2713236825884,1346
1802.2591464741004,1363
1804.2464715943465,1369
1806.2332993038058,1337
1808.2196298630352,1412
1810.2054635326708,1409
1812.190800573428,1372
1814.175641246101,1379
1816.1599858115628,1375
1818.1438345307652,1376
1820.127187664738,1360
1822.1100454745924,1413
1824.092408221516,1368
1826.0742761667766,1388
1828.055649571721,1403
1830.0365286977735,1395
1832.0169138064398,1396
1833.9968051593014,1381
1835.9762030180214,1362
1837.9551076443408,1440
1839.9335193000788,1371
1841.9114382471344,1329
1843.888864747485,1333
1845.8657990631878,1362
1847.842241456378,1360
1849.8181921892697,1358
1851.7936515241558,1349
1853.7686197234098,1341
1855.7430970494815,1363
1857.7170837649014,1411
1859.6905801322787,1378
1861.6635864143004,1406
1863.6361028737338,1344
1865.608129773424,1372
1867.5796673762961,1374
1869.5507159453537,1358
1871.521275743678,1426
1873.4913470344313,1385
1875.4609300808534,1411
1877.4300251462632,1390
1879.3986324940588,1384
1881.366752387717,1374
1883.3343850907936,1341
1885.3015308669228,1417
1887.268189979819,1399
1889.2343626932739,1366
1891.2000492711595,1326
1893.1652499774254,1424
1895.1299650761011,1395
1897.0941948312952,1447
1899.0579395071945,1339
1901.0211993680641,1386
1902.98397467825,1373
1904.9462657021745,1394
1906.9080727043415,1413
1908.869395949332,1362
1910.8302357018065,1387
1912.790592226504,1355
1914.7504657882428,1385
1916.7098566519212,1314
1918.6687650825133,1364
1920.6271913450764,1342
1922.5851357047422,1370
1924.5425984267245,1365
1926.499579776314,1410
1928.4560800188833,1393
1930.4120994198802,1375
1932.367638244833,1380
1934.32269675935,1380
1936.2772752291175,1375
1938.231373919899,1381
1940.1849930975404,1385
1942.1381330279637,1358
1944.0907939771696,1365
1946.0429762112412,1405
1947.9946799963363,1414
1949.9459055986945,1426
1951.896653284633,1374
1953.8469233205478,1318
1955.7967159729142,1383
1957.7460315082863,1351
1959.6948701932974,1371
1961.6432322946594,1377
1963.5911180791632,1370
1965.5385278136787,1326
1967.4854617651545,1370
1969.4319202006182,1346
1971.377903387176,1351
1973.3234115920136,1443
1975.268445082395,1372
1977.2130041256642,1364
1979.1570889892423,1379
1981.1006999406304,1301
1983.04383724741,1312
1984.986501177238,1399
1986.928691997853,1384
1988.8704099770712,1345
1990.811655382789,1367
1992.7524284829801,1397
1994.692729545698,1383
1996.6325588390755,1388
1998.5719166313224,1367
2000.5108031907307,1399
2002.4492187856677,1388
2004.387163684583,1379
2006.3246381560011,1368
2008.2616424685298,1410
2010.1981768908527,1380
2012.1342416917332,1345
2014.069837140014,1405
2016.0049635046162,1458
2017.9396210545406,1326
2019.8738100588666,1364
2021.8075307867502,1317
2023.740783507431,1433
2025.6735684902228,1391
2027.6058860045214,1356
2029.5377363198004,1371
2031.4691197056118,1332
2033.4000364315875,1333
2035.3304867674374,1334
2037.260470982952,1398
2039.189989347998,1353
2041.1190421325232,1332
2043.047629606554,1353
2044.9757520401945,1356
2046.9034097036288,1389
2048.8306028671195,1363
2050.7573318010086,1371
2052.683596775716,1353
2054.609398061742,1381
2056.5347359296647,1362
2058.4596106501403,1433
2060.384022493906,1350
2062.3079717317764,1395
2064.231458634646,1341
2066.1544834734873,1374
2068.077046519352,1327
2069.99914804337,1422
2071.9207883167524,1368
2073.8419676107865,1339
2075.7626861968406,1340
2077.6829443463607,1355
2079.6027423308715,1407
2081.522080421977,1321
2083.440958891362,1345
2085.359378010786,1328
2087.2773380520907,1362
2089.194839287196,1377
2091.111881988101,1381
2093.0284664268825,1450
2094.9445928756973,1418
2096.86026160678,1335
2098.775472892446,1348
2100.690227005088,1359
2102.604524217178,1368
2104.5183648012676,1375
2106.431749029985,1337
2108.34467717604,1380
2110.2571495122206,1346
2112.169166311393,1357
2114.080727846503,1355
2115.9918343905747,1384
2117.902486216711,1347
2119.8126835980956,1400
2121.722426807987,1341
2123.6317161197285,1357
2125.5405518067364,1356
2127.448934142509,1414
2129.356863400624,1384
2131.264339854737,1466
2133.1713637785815,1503
2135.077935445972,1396
2136.9840551308002,1382
2138.889723107037,1390
2140.7949396487334,1411
2142.699705030018,1444
2144.6040195250994,1384
2146.507883408264,1383
2148.4112969538774,1399
2150.3142604363848,1387
2152.2167741303097,1393
2154.1188383102535,1383
2156.0204532508997,1436
2157.9216192270064,1394
2159.822336513414,1397
2161.7226053850413,1424
2163.622426116884,1392
2165.5217989840185,1416
2167.4207242616,1464
2169.319202224862,1443
2171.2172331491165,1408
2173.1148173097563,1448
2175.0119549822507,1406
2176.90864644215,1420
2178.8048919650823,1485
2180.7006918267534,1424
2182.596046302952,1440
2184.4909556695407,1417
2186.3854202024645,1459
2188.279440177746,1474
2190.173015871487,1427
2192.066147559868,1461
2193.958835519149,1435
2195.851080025667,1426
2197.7428813558417,1412
2199.6342397861667,1448
2201.5251555932186,1425
2203.415629053651,1420
2205.3056604441986,1453
2207.19525004167,1523
2209.084398122958,1492
2210.9731049650327,1517
2212.861370844941,1447
2214.749196039812,1503
2216.636580826851,1525
2218.523525483344,1492
2220.410030286655,1509
2222.296095514226,1460
2224.1817214435805,1503
2226.066908352319,1513
2227.951656518121,1487
2229.835966218746,1469
2231.71983773203,1522
2233.6032713358913,1496
2235.486267308324,1475
2237.3688259274036,1490
2239.2509474712824,1475
2241.132632218193,1506
2243.013880446447,1539
2244.8946924344323,1490
2246.7750684606203,1525
2248.6550088035574,1541
2250.534513741871,1534
2252.413583554265,1575
2254.292218519526,1463
2256.170418916517,1505
2258.0481850241786,1504
2259.925517121534,1485
2261.8024154876825,1544
2263.678880401803,1558
2265.5549121431536,1539
2267.430510991071,1542
2269.305677224971,1582
2271.180411124348,1464
2273.0547129687766,1495
2274.9285830379076,1489
2276.8020216114737,1496
2278.6750289692845,1569
2280.5476053912294,1528
2282.4197511572766,1541
2284.2914665474727,1599
2286.162751841943,1540
2288.0336073208937,1593
2289.904033264608,1602
2291.774029953448,1608
2293.6435976678554,1540
2295.5127366883517,1502
2297.381447295534,1528
2299.2497297700825,1457
2301.1175843927526,1465
2302.9850114443825,1329
2304.852011205885,1321
2306.7185839582553,1267
2308.5847299825664,1271
2310.4504495599676,1280
2312.3157429716925,1251
2314.1806104990483,1253
2316.0450524234247,1242
2317.9090690262888,1197
2319.772660589186,1220
2321.635827393742,1231
2323.498569721661,1171
2325.3608878547248,1263
2327.2227820747967,1227
2329.0842526638157,1202
2330.945299903803,1270
2332.805924076857,1162
2334.6661254651535,1197
2336.525904350951,1186
2338.3852610165827,1226
2340.244195744464,1174
2342.102708817088,1222
2343.9608005170253,1147
2345.8184711269287,1219
2347.675720929526,1197
2349.532550207628,1195
2351.38895924412,1246
2353.24494832197,1200
2355.100517724223,1184
2356.955667734004,1198
2358.810398634514,1195
2360.664710709037,1215
2362.5186042409337,1167
2364.3720795136437,1215
2366.225136810686,1227
2368.0777764156583,1216
2369.929998612237,1199
2371.7818036841777,1210
2373.633191915315,1187
2375.484163589562,1202
2377.3347189909114,1215
2379.184858403434,1218
2381.03458211128,1229
2382.8838903986775,1205
2384.732783549936,1214
2386.5812618494406,1233
2388.4293255816588,1229
2390.2769750311327,1205
2392.1242104824883,1260
2393.971032220427,1209
2395.8174405297295,1197
2397.6634356952563,1188
2399.509018001947,1227
2401.3541877348193,1217
2403.1989451789705,1260
2405.043290619576,1192
2406.8872243418905,1226
2408.730746631247,1225
2410.5738577730594,1161
2412.4165580528183,1216
2414.258847756095,1200
2416.100727168537,1191
2417.9421965758734,1228
2419.783256263912,1180
2421.623906518538,1220
2423.4641476257157,1213
2425.303979871491,1243
2427.143403541984,1224
2428.9824189233977,1270
2430.821026302012,1222
2432.6592259641866,1228
2434.497018196361,1241
2436.33440328505,1190
2438.171381516851,1218
2440.00795317844,1187
2441.844118556569,1166
2443.6798779380724,1246
2445.5152316098606,1212
2447.3501798589255,1210
2449.1847229723357,1258
2451.0188612372403,1215
2452.8525949408663,1219
2454.6859243705203,1196
2456.518849813587,1207
2458.3513715575314,1213
2460.183489889895,1220
2462.015205098301,1214
2463.8465174704493,1225
2465.67742729412,1179
2467.5079348571717,1173
2469.338040447542,1269
2471.1677443532476,1178
2472.9970468623833,1174
2474.825948263123,1135
2476.6544488437207,1200
2478.482548892508,1212
2480.310248697896,1242
2482.137548548374,1207
2483.9644487325118,1252
2485.790949538956,1154
2487.617051256433,1164
2489.44275417375,1227
2491.26805857979,1156
2493.0929647635157,1209
2494.917473013971,1237
2496.741583620276,1192
2498.5652968716304,1213
2500.3886130573137,1190
2502.2115324666834,1188
2504.0340553891765,1248
2505.856182114308,1176
2507.6779129316733,1191
2509.499248130945,1221
2511.3201880018764,1194
2513.140732834298,1195
2514.9608829181198,1255
2516.780638543331,1227
2518.6,1222
2520.418967578273,1220
2522.237541568376,1221
2524.0557222606144,1197
2525.8735099453706,1189
2527.6909049131086,1174
2529.507907454368,1161
2531.32451785977,1212
2533.140736420014,1191
2534.9565634258774,1211
2536.771999168218,1158
2538.5870439379714,1195
2540.4016980261526,1224
2542.2159617238544,1216
2544.02983532225,1241
2545.8433191125914,1193
2547.656413386209,1199
2549.4691184345115,1208
2551.2814345489874,1154
2553.093362021204,1190
2554.904901142808,1204
2556.716052205523,1222
2558.526815501153,1232
2560.3371913215824,1223
2562.147179958771,1183
2563.956781704761,1196
2565.7659968516705,1226
2567.5748256916986,1220
2569.3832685171224,1200
2571.1913256202984,1162
2572.9989972936614,1213
2574.806283829725,1215
2576.613185521084,1209
2578.4197026604074,1163
2580.2258355404483,1151
2582.031584454035,1214
2583.836949694077,1219
2585.6419315535613,1186
2587.4465303255533,1180
2589.2507463032002,1213
2591.0545797797245,1176
2592.8580310484303,1184
2594.6611004026995,1234
2596.463788135992,1202
2598.266094541849,1227
2600.0680199138874,1193
2601.869564545807,1145
2603.670728731383,1164
2605.4715127644704,1156
2607.2719169390048,1161
2609.071941548998,1214
2610.8715868885433,1248
2612.670853251811,1217
2614.469740933052,1185
2616.268250226594,1204
2618.0663814268455,1186
2619.864134828292,1156
2621.6615107255006,1195
2623.458509413115,1167
2625.2551311858597,1174
2627.0513763385347,1201
2628.8472451660223,1167
2630.6427379632833,1220
2632.4378550253564,1193
2634.232596647359,1214
2636.026963124488,1203
2637.8209547520187,1154
2639.6145718253065,1146
2641.407814639785,1210
2643.200683490966,1262
2644.9931786744414,1205
2646.7853004858807,1190
2648.577049221034,1198
2650.3684251757277,1198
2652.1594286458712,1196
2653.9500599274484,1219
2655.740319316525,1161
2657.5302071092437,1222
2659.3197236018286,1226
2661.10886909058,1202
2662.8976438718782,1190
2664.686048242183,1150
2666.4740824980327,1221
2668.2617469360443,1191
2670.0490418529134,1174
2671.8359675454153,1172
2673.622524310403,1167
2675.408712444811,1202
2677.1945322456495,1231
2678.979984010009,1216
2680.76506803506,1224
2682.5497846180497,1213
2684.334134056306,1170
2686.1181166472343,1190
2687.9017326883213,1248
2689.6849824771293,1185
2691.4678663113013,1216
2693.2503844885596,1235
2695.032537306705,1187
2696.8143250636167,1244
2698.5957480572542,1200
2700.3768065856534,1203
2702.1575009469316,1180
2703.937831439283,1199
2705.717798360982,1201
2707.4974020103837,1208
2709.276642685917,1165
2711.055520686095,1209
2712.834036309506,1197
2714.612189854819,1275
2716.389981620782,1184
2718.1674119062204,1163
2719.944481010041,1207
2721.721189231226,1240
2723.4975368688415,1228
2725.273524222027,1191
2727.0491515900053,1168
2728.824419272075,1237
2730.5993275676146,1172
2732.3738767760838,1210
2734.148067197016,1212
2735.921899130031,1231
2737.6953728748194,1185
2739.468488731156,1228
2741.2412469988926,1228
2743.0136479779617,1245
2744.785691968372,1190
2746.5573792702116,1212
2748.3287101836504,1184
2750.099685008934,1193
2751.870304046388,1234
2753.640567596418,1173
2755.4104759595057,1170
2757.1800294362156,1194
2758.949228327187,1210
2760.7180729331412,1179
2762.486563554877,1164
2764.254700493272,1249
2766.022484049284,1197
2767.789914523947,1175
2769.5569922183786,1194
2771.3237174337705,1182
2773.090090471394,1189
2774.8561116326036,1206
2776.6217812188274,1241
2778.3870995315756,1206
2780.1520668724356,1190
2781.9166835430747,1196
2783.6809498452394,1172
2785.444866080754,1277
2787.2084325515225,1205
2788.971649559527,1210
2790.73451740683,1235
2792.4970363955713,1221
2794.2592068279705,1199
2796.0210290063264,1226
2797.7825032330147,1190
2799.543629810493,1252
2801.304409041296,1225
2803.0648412280366,1255
2804.8249266734088,1204
2806.5846656801846,1209
2808.344058551212,1212
2810.1031055894246,1191
2811.8618070978273,1217
2813.6201633795085,1205
2815.378174737636,1225
2817.1358414754536,1204
2818.893163896285,1235
2820.6501423035334,1198
2822.4067770006814,1191
2824.1630682912883,1240
2825.9190164789957,1240
2827.6746218675207,1244
2829.429884760661,1210
2831.184805462294,1203
2832.9393842763743,1211
2834.693621506936,1233
2836.4475174580916,1197
2838.201072434034,1235
2839.954286739034,1234
2841.707160677441,1266
2843.459694553685,1192
2845.2118886722724,1178
2846.96374333779,1172
2848.7152588549034,1175
2850.4664355283567,1216
2852.217273662973,1161
2853.9677735636546,1150
2855.7179355353833,1198
2857.4677598832186,1251
2859.217246912299,1214
2860.9663969278427,1248
2862.715210235146,1223
2864.4636871395846,1229
2866.211827946614,1210
2867.9596329617652,1249
2869.7071024906536,1222
2871.4542368389684,1255
2873.20103631248,1227
2874.947501217038,1193
2876.6936318585695,1207
2878.4394285430812,1226
2880.1848915766604,1199
2881.9300212654707,1181
2883.6748179157553,1188
2885.4192818338374,1195
2887.1634133261173,1184
2888.907212699077,1209
2890.6506802592744,1262
2892.393816313348,1219
2894.1366211680142,1214
2895.8790951300693,1218
2897.621238506388,1224
2899.363051603925,1219
2901.1045347297118,1220
2902.8456881908596,1249
2904.58651229456,1223
2906.327007348081,1245
2908.067173658772,1264
2909.8070115340597,1230
2911.5465212814497,1231
2913.285703208527,1202
2915.0245576229563,1164
2916.7630848324807,1179
2918.5012851449196,1229
2920.2391588681758,1150
2921.976706310227,1195
2923.7139277791334,1261
2925.4508235830313,1207
2927.187394030137,1226
2928.923639428745,1317
2930.6595600872306,1263
2932.395156314046,1224
2934.1304284177218,1183
2935.8653767068713,1241
2937.6000014901815,1248
2939.3343030764227,1241
2941.068281774442,1238
2942.8019378931644,1219
2944.5352717415976,1242
2946.2682836288236,1280
2948.0009738640065,1195
2949.7333427563885,1283
2951.465390615289,1209
2953.1971177501086,1185
2954.9285244703265,1218
2956.6596110855,1261
2958.3903779052657,1256
2960.1208252393385,1254
2961.8509533975125,1270
2963.5807626896617,1187
2965.3102534257378,1251
2967.0394259157715,1201
2968.768280469873,1248
2970.496817398232,1199
2972.2250370111146,1232
2973.952939618869,1214
2975.6805255319196,1217
2977.4077950607707,1305
2979.134748516006,1217
2980.861386208289,1278
2982.587708448359,1299
2984.313715547037,1163
2986.039407815222,1195
2987.764785563891,1195
2989.489849104102,1218
2991.2145987469908,1210
2992.9390348037705,1157
2994.6631575857346,1205
2996.3869674042576,1241
2998.1104645707887,1185
2999.83364939686,1214
3001.5565221940783,1192
3003.2790832741334,1250
3005.0013329487924,1203
3006.7232715298996,1222
3008.4448993293804,1211
3010.166216659239,1238
3011.887223831558,1187
3013.607921158498,1211
3015.3283089522993,1252
3017.0483875252826,1245
3018.7681571898443,1187
3020.4876182584626,1203
3022.2067710436927,1234
3023.9256158581707,1181
3025.644153014609,1203
3027.362382825801,1184
3029.0803056046193,1232
3030.797921664012,1167
3032.5152313170106,1188
3034.2322348767225,1220
3035.9489326563353,1211
3037.665324969115,1231
3039.3814121284063,1182
3041.097194447633,1240
3042.812672240299,1168
3044.5278458199855,1181
3046.2427155003525,1164
3047.9572815951406,1194
3049.671544418167,1227
3051.38550428333,1209
3053.0991615046073,1219
3054.812516396051,1194
3056.5255692717974,1231
3058.2383204460575,1251
3059.9507702331257,1192
3061.662918947372,1203
3063.3747669032446,1236
3065.0863144152736,1208
3066.7975617980674,1171
3068.508509366309,1197
3070.219157434767,1183
3071.9295063182844,1215
3073.639556331785,1167
3075.3493077902704,1171
3077.058761008821,1158
3078.7679163025964,1221
3080.476773986837,1197
3082.1853343768594,1177
3083.89359778806,1188
3085.6015645359153,1230
3087.3092349359786,1221
3089.016609303884,1164
3090.7236879553434,1223
3092.4304712061476,1205
3094.136959372166,1164
3095.843152769349,1203
3097.5490517137237,1204
3099.2546565213966,1225
3100.959967508554,1216
3102.66498499146,1174
3104.3697092864577,1182
3106.0741407099695,1185
3107.778279578498,1255
3109.482126208622,1152
3111.1856809170004,1201
3112.8889440203716,1170
3114.5919158355528,1213
3116.294596679439,1241
3117.996986869006,1231
3119.6990867213062,1259
3121.4008965534726,1262
3123.102416682717,1239
3124.803647426329,1201
3126.5045891016784,1207
3128.205242026213,1203
3129.90560651746,1191
3131.605682893025,1177
3133.3054714705922,1220
3135.0049725679282,1214
3136.7041865028714,1209
3138.4031135933465,1226
3140.101754157353,1194
3141.800108512971,1212
3143.498176978357,1208
3145.1959598717494,1202
3146.8934575114636,1192
3148.5906702158954,1155
3150.2875983035183,1184
3151.9842420928853,1182
3153.680601902627,1155
3155.376678051456,1164
3157.07247085816,1208
3158.767980641609,1219
3160.463207720748,1188
3162.158152414606,1186
3163.8528150422862,1164
3165.5471959229726,1200
3167.2412953759303,1199
3168.9351137204976,1183
3170.628651276098,1181
3172.3219083622307,1187
3174.014885298474,1197
3175.707582404485,1239
3177.4000000000005,1221
3179.092138404835,1170
3180.7839979388846,1222
3182.47557892212,1204
3184.166881674594,1221
3185.8579065164386,1185
3187.5486537678626,1278
3189.2391237491547,1205
3190.9293167806827,1207
3192.6192331828934,1240
3194.3088732763117,1211
3195.998237381542,1209
3197.687325819268,1165
3199.376138910251,1174
3201.064676975334,1156
3202.7529403354347,1189
3204.4409293115523,1154
3206.1286442247647,1175
3207.816085396229,1177
3209.5032531471825,1218
3211.190147798936,1145
3212.8767696728846,1157
3214.5631190905015,1167
3216.2491963733373,1175
3217.9350018430214,1216
3219.6205358212637,1178
3221.305798629851,1181
3222.990790590651,1147
3224.6755120256103,1210
3226.359963256751,1167
3228.0441446061795,1135
3229.7280563960758,1188
3231.411698948703,1151
3233.0950725863995,1163
3234.778177631587,1228
3236.461014406761,1189
3238.1435832345005,1171
3239.8258844374595,1225
3241.507918338374,1192
3243.1896852600576,1255
3244.8711855254023,1149
3246.552419457381,1199
3248.233387379042,1201
3249.914089613516,1219
3251.59452648401,1180
3253.274698313813,1210
3254.95460542629,1183
3256.6342481448855,1187
3258.313626793125,1147
3259.9927416946084,1221
3261.6715931730196,1109
3263.3501815521176,1123
3265.0285071557437,1136
3266.706570307815,1146
3268.3843713323286,1165
3270.0619105533615,1172
3271.739188295068,1181
3273.4162048816834,1205
3275.0929606375184,1191
3276.769455886966,1187
3278.445690954498,1192
3280.1216661646613,1186
3281.797381842087,1264
3283.4728383114807,1175
3285.1480358976296,1187
3286.8229749253996,1217
3288.4976557197333,1202
3290.172078605655,1231
3291.846243908266,1203
3293.5201519527463,1179
3295.193803064357,1213
3296.8671975684374,1183
3298.5403357904024,1126
3300.21321805575,1114
3301.8858446900567,1227
3303.558216018975,1137
3305.23033236824,1171
3306.9021940636603,1209
3308.57380143113,1200
3310.2451547966184,1204
3311.916254486174,1211
3313.5871008259246,1207
3315.2576941420766,1199
3316.9280347609147,1259
3318.5981230088046,1153
3320.2679592121895,1233
3321.9375436975924,1130
3323.606876791612,1213
3325.27595882093,1166
3326.944790112305,1191
3328.6133709925753,1189
3330.2817017886573,1192
3331.949782827547,1155
3333.617614436319,1178
3335.2851969421245,1119
3336.952530672199,1217
3338.619615953853,1187
3340.286453114475,1124
3341.9530424815357,1182
3343.619384382583,1160
3345.2854791452437,1155
3346.951327097224,1166
3348.6169285663073,1198
3350.2822838803577,1196
3351.947393367319,1244
3353.61225735521,1197
3355.2768761721345,1215
3356.9412501462693,1154
3358.605379605873,1159
3360.2692648792827,1164
3361.9329062949146,1237
3363.596304181263,1162
