CollectionTime,9/20/2024 11:36:07 AM
ExposureUsed,3
CalibratedSpectrum
-962.7078968117929,483
-959.9714848408522,485
-957.2358232597828,509
-954.5009119013725,532
-951.7667505983302,564
-949.0333391832855,492
-946.3006774887896,544
-943.5687653473143,548
-940.837602591253,538
-938.1071890529199,525
-935.3775245645503,525
-932.6486089583007,521
-929.9204420662485,552
-927.1930237203925,544
-924.4663537526524,511
-921.7404319948689,491
-919.0152582788041,548
-916.2908324361409,633
-913.5671542984834,519
-910.8442236973568,531
-908.1220404642074,528
-905.4006044304027,486
-902.679915427231,477
-899.959973285902,479
-897.2407778375464,482
-894.5223289132158,495
-891.8046263438832,508
-889.0876699604426,496
-886.3714595937089,503
-883.6559950744183,513
-880.9412762332282,504
-878.2273029007168,502
-875.5140749073835,491
-872.8015920836489,489
-870.0898542598545,489
-867.3788612662631,503
-864.6686129330585,500
-861.9591090903457,560
-859.2503495681506,518
-856.5423341964203,501
-853.8350628050229,522
-851.1285352237478,533
-848.4227512823054,540
-845.7177108103272,523
-843.0134136373656,507
-840.3098595928943,530
-837.6070485063082,561
-834.9049802069229,563
-832.2036545239757,551
-829.5030712866244,566
-826.8032303239481,541
-824.1041314649472,520
-821.4057745385428,528
-818.7081593735775,529
-816.0112857988148,524
-813.3151536429393,556
-810.6197627345566,492
-807.9251129021936,548
-805.2312039742981,540
-802.5380357792392,562
-799.8456081453069,558
-797.1539209007124,573
-794.462973873588,539
-791.772766891987,533
-789.083299783884,508
-786.3945723771743,548
-783.7065844996748,532
-781.0193359791231,532
-778.3328266431781,559
-775.6470563194197,545
-772.9620248353489,519
-770.2777320183878,535
-767.5941776958798,531
-764.9113616950891,542
-762.2292838432011,533
-759.5479439673222,517
-756.8673418944801,556
-754.1874774516235,550
-751.5083504656222,560
-748.8299607632671,515
-746.15230817127,568
-743.475392516264,596
-740.7992136248035,578
-738.1237713233636,597
-735.4490654383407,541
-732.7750957960521,524
-730.1018622227365,512
-727.4293645445534,520
-724.7576025875837,549
-722.0865761778291,530
-719.4162851412126,549
-716.7467293035781,589
-714.0779084906909,606
-711.409822528237,650
-708.7424712418238,589
-706.0758544569796,580
-703.4099719991541,600
-700.7448236937178,586
-698.0804093659622,556
-695.4167288411002,573
-692.7537819442656,572
-690.0915685005134,568
-687.4300883348199,548
-684.7693412720819,540
-682.1093271371178,589
-679.4500457546669,608
-676.7914969493897,599
-674.1336805458676,541
-671.4765963686034,562
-668.8202442420206,604
-666.1646239904642,598
-663.5097354382001,556
-660.8555784094151,578
-658.2021527282176,553
-655.5494582186366,613
-652.8974947046223,598
-650.2462620100463,637
-647.5957599587009,596
-644.9459883742998,628
-642.2969470804776,646
-639.6486359007902,627
-637.0010546587141,628
-634.3542031776476,609
-631.7080812809096,623
-629.0626887917401,627
-626.4180255333008,611
-623.7740913286734,600
-621.1308860008619,667
-618.4884093727904,644
-615.8466612673046,601
-613.2056415071715,602
-610.5653499150785,614
-607.9257863136347,611
-605.28695052537,659
-602.6488423727357,632
-600.0114616781036,632
-597.3748082637674,622
-594.7388819519412,656
-592.1036825647604,635
-589.4692099242818,682
-586.8354638524829,682
-584.2024441712624,657
-581.5701507024403,671
-578.9385832677575,678
-576.3077416888759,710
-573.6776257873787,671
-571.0482353847704,657
-568.4195703024757,682
-565.7916303618415,736
-563.164415384135,664
-560.5379251905453,675
-557.9121596021815,648
-555.2871184400748,720
-552.6628015251767,733
-550.0392086783606,701
-547.4163397204204,684
-544.794194472071,756
-542.1727727539491,756
-539.5520743866118,784
-536.9320991905377,857
-534.3128469861261,888
-531.6943175936979,817
-529.0765108334947,760
-526.4594265256793,831
-523.8430644903358,1083
-521.2274245474689,1188
-518.612506517005,1284
-515.9983102187913,1396
-513.3848354725959,1505
-510.77208209810846,1733
-508.16004991493924,1808
-505.5487387426199,1836
-502.9381484006032,1749
-500.3282787082628,1651
-497.71912948489364,1400
-495.1107005497117,1187
-492.5029917218539,1036
-489.8960028203786,1003
-487.28973366426493,859
-484.68418407241325,813
-482.07935386364494,800
-479.47524285670266,777
-476.87185087025,808
-474.2691777228715,856
-471.66722323307334,856
-469.0659872192821,834
-466.4654694998459,864
-463.86566989303384,842
-461.26658821703614,775
-458.66822428996414,794
-456.07057792985,783
-453.4736489546475,793
-450.877437182231,816
-448.28194243039627,812
-445.68716451686,755
-443.09310325926003,816
-440.49975847515555,794
-437.9071299820263,766
-435.31521759727354,904
-432.72402113821954,896
-430.13354042210767,845
-427.5437752661022,808
-424.95472548728867,836
-422.36639090267386,889
-419.7787713291855,863
-417.1918665836721,920
-414.60567648290385,852
-412.0202008435715,904
-409.4354394822874,845
-406.8513922155845,808
-404.26805885991723,822
-401.685439231661,841
-399.103533147112,829
-396.522340422488,881
-393.9418608739278,859
-391.3620943174908,858
-388.7830405691583,852
-386.2046994448317,789
-383.6270707603344,809
-381.05015433141045,773
-378.473949973725,748
-375.8984575028645,696
-373.32367673433623,715
-370.74960748356875,704
-368.1762495659117,652
-365.60360279663576,652
-363.03166699093265,632
-360.4604419639154,606
-357.8899275306178,556
-355.32012350599507,589
-352.7510297049233,562
-350.1826459421999,542
-347.61497203254316,597
-345.04800779059235,602
-342.4817530309082,529
-339.91620756797226,491
-337.35137121618743,532
-334.7872437898774,646
-332.22382510328725,593
-329.66111497058273,594
-327.09911320585127,611
-324.53781962310075,617
-321.9772340362607,591
-319.4173562591816,543
-316.8581861056348,517
-314.2997233893127,521
-311.7419679238294,563
-309.1849195227194,634
-306.62857799943856,630
-304.0729431673641,645
-301.51801483979375,714
-298.963792829947,697
-296.41027695096386,610
-293.85746701590574,587
-291.3053628377552,661
-288.7539642294155,640
-286.2032710037115,676
-283.65328297338897,677
-281.1039999511146,751
-278.5554217494762,767
-276.007548180983,835
-273.4603790580651,842
-270.9139141930734,688
-268.3681533982807,806
-265.8230964858798,784
-263.27874326798565,691
-260.7350935566336,692
-258.1921471637804,821
-255.6499039013039,968
-253.10836358100266,846
-250.56752601459698,805
-248.02739101372765,814
-245.48795838995704,763
-242.94922795476816,837
-240.41119951956557,937
-237.8738728956746,851
-235.33724789434166,834
-232.80132432673452,911
-230.2661020039418,762
-227.73158073697357,733
-225.19776033676033,844
-222.66464061415422,895
-220.1322213799284,938
-217.60050244477725,902
-215.06948361931552,894
-212.53916471408013,953
-210.00954553952818,1041
-207.48062590603843,950
-204.9524056239104,877
-202.4248845033651,881
-199.8980623545441,931
-197.37193898751036,1024
-194.84651421224817,1036
-192.32178783866232,1024
-189.79775967657952,1042
-187.27442953574644,1019
-184.7517972258321,947
-182.2298625564256,1074
-179.7086253370378,965
-177.18808537710026,1004
-174.66824248596583,1081
-172.14909647290835,1039
-169.6306471471229,1028
-167.11289431772548,1080
-164.59583779375328,1115
-162.07947738416453,1247
-159.5638128978386,1381
-157.04884414357605,1333
-154.53457093009854,1424
-152.02099306604828,1400
-149.50811035998936,1204
-146.99592262040665,1181
-144.48442965570587,1422
-141.97363127421409,1388
-139.46352728417958,1455
-136.95411749377126,1482
-134.44540171107985,1552
-131.93737974411636,1541
-129.43005140081357,1408
-126.92341648902493,1521
-124.41747481652521,1544
-121.91222619101006,1852
-119.40767042009657,2169
-116.90380731132257,2610
-114.40063667214702,3245
-111.8981583099503,3770
-109.3963720320337,4854
-106.89527764561933,6482
-104.39487495785067,7751
-101.89516377579241,7602
-99.39614390642998,10005
-96.89781515667039,15846
-94.40017733334128,23267
-91.90323024319173,29667
-89.40697369289148,27434
-86.91140748903172,21649
-84.41653143812482,14391
-81.92234534660395,8447
-79.42884902082358,8538
-76.93604226705907,12571
-74.4439248915071,16644
-71.95249670028534,19505
-69.46175749943245,19921
-66.97170709490854,17534
-64.48234529259423,15801
-61.99367189829195,15132
-59.50568671772464,15735
-57.01838955653636,19167
-54.53178022029283,23411
-52.045858514480074,26124
-49.560624244506016,28066
-47.07607721569923,30331
-44.59221723330904,27690
-42.10904410250669,20910
-39.62655762838392,20285
-37.14475761595372,26764
-34.66364387015028,29432
-32.18321619582866,33192
-29.70347439776515,36615
-27.224418280657005,36685
-24.74604764912317,37568
-22.26836230770266,44314
-19.7913620608565,60786
-17.315046712966478,65036
-14.83941606833514,65036
-12.36446993118659,65036
-9.89020810566592,65036
-7.416630395839093,65036
-4.94373660569363,65036
-2.471526539137585,65036
-6.821210263296962E-13,65036
2.47084320796705,65036
4.941003281093458,65036
7.410480415786196,65036
9.879274808531363,65036
12.347386655893956,65036
14.814816154518212,65036
17.28156350112681,65036
19.74762889252179,65036
22.21301252558385,65036
24.67771459727237,26425
27.141735304626195,7431
29.605074844762612,7197
32.06773341487792,8457
34.52971121224755,9010
36.99100843422559,6068
39.45162527824516,5574
41.91156194181792,4787
44.370818622535126,4240
46.82939551806646,4761
49.287292826160524,5101
51.74451074464503,4814
54.201049471426245,4401
56.65690920448981,4747
59.112090141899785,4396
61.56659248179983,3743
64.02041642241159,3310
66.4735621620365,3455
68.92602989905402,3888
71.37781983192338,3935
73.82893215918205,3891
76.27936707944684,2541
78.72912479141326,2410
81.17820549385567,2053
83.62660938562783,1935
86.07433666566146,2584
88.5213875329681,2520
90.96776218663751,2507
93.41346082583925,2448
95.85848364982041,2747
98.30283085790859,2305
100.7465026495089,1895
103.18949922410604,1748
105.63182078126385,1879
108.07346752062438,1888
110.51443964190923,2028
112.95473734491827,1723
115.39436082953114,1563
117.83331029570547,1807
120.27158594347827,2372
122.7091879729652,2167
125.1461165843615,1830
127.58237197794062,1812
130.01795435405518,1419
132.4528639131364,1382
134.88710085569494,1569
137.32066538231982,1501
139.75355769367923,1424
142.1857779905207,1474
144.61732647366978,1297
147.04820334403132,1258
149.47840880258934,1437
151.90794305040674,1548
154.33680628862487,1472
156.76499871846443,1546
159.19252054122433,1794
161.61937195828352,1850
164.04555317109896,1788
166.47106438120693,1728
168.89590579022217,1892
171.320077599839,2029
173.7435800118302,2058
176.16641322804742,2216
178.58857745042144,2324
181.01007288096173,2189
183.43089972175687,2121
185.85105817497413,2094
188.27054844285988,2193
190.6893707277394,2322
193.10752523201643,2307
195.5250121581745,2402
197.9418317087751,2306
200.3579840864594,2153
202.7734694939469,2192
205.18828813403627,2580
207.6024402096051,2549
210.01592592360964,2536
212.42874547908548,2571
214.84089907914665,2315
217.2523869269868,2307
219.66320922587727,2318
222.0733661791695,2375
224.48285799029293,2448
226.8916848627572,2515
229.29984700014882,2495
231.7073446061355,2375
234.11417788446204,2410
236.520347038953,2368
238.92585227351185,2392
241.33069379212054,2321
243.73487179884035,2472
246.1383864978112,2336
248.541238093252,2421
250.9434267894609,2465
253.34495279081432,2342
255.74581630176783,2346
258.1460175268563,2475
260.54555667069314,2427
262.9444339379703,2391
265.3426495334594,2387
267.7402036620107,2379
270.1370965285529,2325
272.53332833809407,2370
274.9288992957214,2325
277.32380960660055,2284
279.718059475976,2344
282.1116491091717,2230
284.5045787115897,2240
286.89684848871195,2333
289.2884586460981,2360
291.67940938938807,2478
294.0697009242996,2389
296.4593334566299,2381
298.84830719225477,2531
301.23662233712923,2348
303.6242790972866,2273
306.01127767884,2187
308.39761828798066,2285
310.78330113097934,2248
313.16832641418534,2204
315.5526943440269,2254
317.9364051270112,2166
320.3194589697242,2111
322.70185607883093,2190
325.0835966610754,2134
327.4646809232805,2159
329.8451090723478,2049
332.2248813152577,2081
334.6039978590701,2091
336.9824589109231,2127
339.36026467803447,2037
341.7374153677,2032
344.113911187295,1996
346.48975234427337,2081
348.8649390461686,1951
351.2394715005918,1950
353.61334991523415,1999
355.9865744978655,2020
358.35914545633375,2043
360.73106299856715,2033
363.10232733257146,2052
365.47293866643247,1973
367.84289720831396,1971
370.2122031664593,1985
372.5808567491905,1971
374.9488581649083,1882
377.31620762209275,1978
379.6829053293021,1963
382.0489514951745,1946
384.4143463284262,1968
386.7790900378528,1810
389.14318283232853,1857
391.50662492080653,1908
393.86941651231916,1860
396.23155781597745,1812
398.5930490409713,1852
400.9538903965696,1932
403.3140820921202,1964
405.6736243370498,1824
408.03251734086336,1817
410.3907613131465,1834
412.74835646356166,1785
415.10530300185144,1760
417.4616011378372,1768
419.81725108141893,1806
422.1722530425758,1773
424.5266072313656,1849
426.880313857925,1822
429.2333731324701,1848
431.58578526529516,1863
433.9375504667738,1852
436.2886689473588,1831
438.63914091758113,1821
440.9889665880513,1817
443.33814616945835,1808
445.68667987257015,1780
448.03456790823395,1777
450.3818104873759,1768
452.72840782100013,1806
455.07436012019105,1820
457.41966759611057,1707
459.7643304600007,1751
462.10834892318155,1751
464.4517231970525,1717
466.79445349309174,1684
469.1365400228566,1708
471.4779829979826,1824
473.81878263018564,1824
476.15893913125876,1819
478.4984527130747,1765
480.8373235875855,1928
483.17555196682144,1842
485.5131380628919,1847
487.8500820879857,1874
490.1863842543697,2004
492.52204477439034,2061
494.8570638604725,2155
497.1914417251204,2354
499.52517858091653,2756
501.85827464052306,3285
504.19073011668036,3785
506.5225452222086,4042
508.85372017000566,4242
511.18425517304956,4342
513.514150444396,4639
515.8434061971808,5547
518.1720226446176,6148
520.4999999999999,5963
522.8273384766991,5488
525.1540382881666,5192
527.480099647932,4482
529.8055227696037,3685
532.1303078668694,2733
534.454455153496,2228
536.777964843328,2027
539.1008371502907,1893
541.4230722883866,1878
543.744670471698,1841
546.0656319143858,1773
548.3859568306899,1782
550.7056454349294,1772
553.0246979415016,1802
555.3431145648834,1834
557.6608955196306,1707
559.978041020377,1780
562.2945512818363,1762
564.6104265188006,1826
566.9256669461412,1774
569.2402727788082,1685
571.5542442318302,1779
573.8675815203156,1804
576.1802848594508,1811
578.4923544645015,1765
580.8037905508126,1747
583.114593333807,1732
585.4247630289875,1757
587.7342998519354,1761
590.0432040183106,1810
592.3514757438526,1747
594.6591152443794,1820
596.9661227357875,1783
599.2724984340531,1753
601.578242555231,1693
603.8833553154542,1799
606.1878369309362,1765
608.4916876179676,1758
610.7949075929192,1645
613.0974970722403,1728
615.3994562724587,1764
617.7007854101818,1720
620.0014847020951,1791
622.3015543649641,1736
624.6009946156324,1780
626.8998056710224,1738
629.1979877481361,1680
631.4955410640538,1762
633.7924658359349,1755
636.0887622810175,1732
638.3844306166192,1718
640.6794710601358,1834
642.9738838290426,1764
645.2676691408932,1831
647.5608272133207,1809
649.853358264037,1855
652.1452625108324,1887
654.4365401715764,1877
656.7271914642178,1767
659.0172166067838,1770
661.3066158173809,1772
663.5953893141935,1764
665.8835373154867,1811
668.1710600396028,1813
670.4579577049639,1771
672.7442305300709,1819
675.0298787335033,1810
677.3149025339197,1813
679.599302150058,1746
681.8830778007342,1691
684.1662297048437,1729
686.4487580813608,1783
688.7306631493387,1839
691.0119451279091,1734
693.2926042362834,1748
695.5726406937516,1830
697.8520547196814,1769
700.1308465335215,1799
702.4090163547982,1686
704.6865644031171,1727
706.9634908981619,1712
709.2397960596965,1740
711.5154801075631,1736
713.7905432616823,1778
716.0649857420548,1847
718.3388077687592,1756
720.612009561953,1826
722.8845913418733,1822
725.1565533288352,1748
727.427895743234,1747
729.6986188055427,1766
731.9687227363137,1756
734.238207756178,1798
736.5070740858458,1801
738.7753219461066,1784
741.0429515578281,1780
743.3099631419569,1752
745.5763569195191,1785
747.8421331116193,1723
750.1072919394409,1747
752.3718336242467,1804
754.6357583873777,1868
756.8990664502545,1775
759.1617580343765,1751
761.423833361321,1730
763.6852926527457,1823
765.9461361303862,1781
768.206364016058,1785
770.4659765316536,1773
772.7249738991469,1784
774.9833563405886,1774
777.2411240781092,1816
779.4982773339183,1797
781.7548163303044,1805
784.010741289634,1868
786.2660524343538,1873
788.5207499869881,1755
790.7748341701416,1840
793.0283052064964,1849
795.2811633188143,1867
797.5334087299362,1801
799.7850416627813,1875
802.0360623403484,1828
804.2864709857143,1824
806.5362678220353,1751
808.7854530725468,1777
811.0340269605625,1816
813.2819897094754,1825
815.5293415427581,1840
817.77608268396,1853
820.0222133567116,1821
822.2677337847211,1807
824.5126441917765,1757
826.7569448017433,1874
829.0006358385675,1812
831.2437175262731,1820
833.4861900889629,1850
835.7280537508192,1845
837.9693087361026,1956
840.2099552691533,1917
842.4499935743896,1943
844.689423876309,1924
846.9282463994886,1825
849.1664613685833,1836
851.4040690083276,1827
853.6410695435349,1836
855.877463199097,1783
858.1132501999847,1844
860.3484307712487,1959
862.5830051380175,1862
864.8169735254988,1852
867.0503361589791,1822
869.2830932638243,1886
871.5152450654786,1838
873.7467917894654,1827
875.9777336613873,1926
878.2080709069252,1891
880.4378037518389,1824
882.666932421968,1860
884.8954571432301,1836
887.1233781416219,1867
889.3506956432192,1776
891.5774098741766,1807
893.803521060728,1819
896.0290294291852,1845
898.2539352059397,1790
900.4782386174619,1884
902.7019398903011,1750
904.925039251085,1850
907.147536926521,1876
909.3694331433943,1867
911.59072812857,1913
913.8114221089921,1891
916.0315153116827,1880
918.2510079637437,1889
920.4699002923547,1843
922.6881925247761,1822
924.905884888345,1801
927.1229776104793,1811
929.3394709186747,1892
931.555365040506,1791
933.7706602036275,1814
935.9853566357709,1846
938.1994545647489,1860
940.4129542184515,1872
942.6258558248488,1804
944.8381596119883,1884
947.0498658079974,1837
949.2609746410825,1843
951.4714863395287,1906
953.6814011316998,1863
955.8907192460387,1961
958.0994409110671,1829
960.3075663553858,1846
962.5150958076741,1891
964.7220294966913,1891
966.928367651274,1782
969.1341105003388,1863
971.3392582728806,1743
973.5438111979742,1707
975.747769504772,1724
977.9511334225061,1759
980.153903180487,1760
982.3560790081052,1739
984.5576611348289,1675
986.7586497902058,1705
988.9590452038618,1706
991.158847605503,1675
993.3580572249133,1724
995.5566742919558,1689
997.7546990365728,1596
999.952131688785,1597
1002.1489724786926,1565
1004.3452216364743,1596
1006.5408793923874,1506
1008.7359459767691,1491
1010.9304216200343,1518
1013.1243065526781,1476
1015.3176010052733,1513
1017.510305208472,1476
1019.7024193930064,1454
1021.8939437896848,1492
1024.0848786293977,1432
1026.2752241431122,1411
1028.4649805618747,1525
1030.6541481168115,1503
1032.842727039127,1488
1035.0307175601051,1457
1037.2181199111074,1428
1039.4049343235752,1491
1041.591161029029,1392
1043.7768002590683,1421
1045.9618522453698,1365
1048.1463172196918,1402
1050.3301954138697,1419
1052.513487059818,1480
1054.69619238953,1388
1056.8783116350783,1425
1059.0598450286152,1366
1061.2407928023704,1374
1063.4211551886528,1406
1065.6009324198508,1421
1067.780124728432,1404
1069.9587323469414,1371
1072.1367555080046,1363
1074.314194444325,1368
1076.4910493886855,1344
1078.667320573947,1375
1080.843008233051,1408
1083.0181125990161,1380
1085.1926339049414,1348
1087.3665723840027,1357
1089.5399282694575,1336
1091.7127017946405,1349
1093.8848931929647,1389
1096.0565026979243,1393
1098.2275305430899,1367
1100.3979769621128,1393
1102.567842188722,1349
1104.737126456726,1300
1106.9058300000124,1283
1109.0739530525475,1307
1111.2414958483764,1395
1113.4084586216231,1293
1115.5748416064907,1271
1117.7406450372605,1289
1119.9058691482942,1324
1122.0705141740304,1398
1124.2345803489884,1348
1126.3980679077658,1298
1128.5609770850388,1347
1130.7233081155623,1325
1132.8850612341707,1303
1135.0462366757774,1328
1137.2068346753745,1312
1139.3668554680326,1298
1141.526299288901,1337
1143.68516637321,1277
1145.8434569562655,1315
1148.001171273455,1316
1150.158309560244,1316
1152.3148720521767,1294
1154.470858984876,1321
1156.626270594044,1326
1158.7811071154629,1328
1160.9353687849912,1333
1163.089055838569,1335
1165.242168512213,1321
1167.3947070420209,1312
1169.5466716641677,1263
1171.6980626149075,1249
1173.8488801305748,1343
1175.9991244475814,1262
1178.1487958024186,1299
1180.2978944316555,1291
1182.4464205719428,1253
1184.5943744600072,1261
1186.7417563326567,1306
1188.8885664267755,1302
1191.0348049793297,1306
1193.1804722273619,1290
1195.325568407995,1309
1197.4700937584303,1250
1199.614048515948,1286
1201.7574329179074,1275
1203.900247201746,1285
1206.042491604982,1281
1208.1841663652099,1271
1210.3252717201053,1275
1212.465807907422,1328
1214.6057751649923,1307
1216.7451737307279,1326
1218.8840038426192,1314
1221.0222657387353,1394
1223.1599596572241,1279
1225.2970858363137,1240
1227.4336445143094,1323
1229.5696359295966,1283
1231.705060320639,1267
1233.8399179259786,1320
1235.9742089842384,1257
1238.107933734118,1273
1240.2410924143974,1349
1242.373685263935,1333
1244.5057125216676,1361
1246.6371744266116,1304
1248.7680712178621,1313
1250.898403134593,1323
1253.028170416058,1297
1255.1573733015875,1288
1257.2860120305932,1300
1259.4140868425648,1346
1261.54159797707,1335
1263.6685456737569,1307
1265.7949301723515,1332
1267.9207517126597,1367
1270.046010534565,1315
1272.1707068780306,1312
1274.2948409830983,1325
1276.4184130898889,1314
1278.541423438603,1326
1280.6638722695184,1375
1282.785759822993,1380
1284.9070863394636,1353
1287.0278520594447,1360
1289.1480572235314,1347
1291.2677020723963,1414
1293.3867868467923,1405
1295.5053117875495,1403
1297.623277135579,1424
1299.740683131868,1357
1301.8575300174857,1352
1303.973818033578,1434
1306.0895474213703,1468
1308.2047184221678,1372
1310.3193312773528,1435
1312.4333862283888,1362
1314.5468835168163,1395
1316.659823384255,1383
1318.7722060724045,1434
1320.8840318230418,1348
1322.9953008780249,1452
1325.1060134792888,1426
1327.2161698688478,1434
1329.3257702887959,1427
1331.4348149813054,1355
1333.5433041886276,1434
1335.6512381530933,1393
1337.7586171171101,1433
1339.8654413231675,1439
1341.9717110138317,1396
1344.0774264317488,1362
1346.1825878196432,1430
1348.2871954203192,1440
1350.3912494766587,1430
1352.4947502316231,1473
1354.5976979282532,1347
1356.7000928096686,1376
1358.8019351190665,1384
1360.9032250997243,1359
1363.0039629949988,1390
1365.1041490483235,1341
1367.2037835032133,1352
1369.3028666032606,1360
1371.401398592137,1441
1373.4993797135926,1414
1375.5968102114575,1411
1377.6936903296396,1357
1379.7900203121262,1402
1381.8858004029835,1416
1383.9810308463561,1326
1386.075711886469,1370
1388.1698437676241,1324
1390.2634267342032,1389
1392.356461030667,1343
1394.4489469015557,1356
1396.5408845914872,1376
1398.6322743451592,1388
1400.7231164073469,1391
1402.813411022907,1357
1404.903158436773,1336
1406.9923588939578,1381
1409.0810126395531,1312
1411.1691199187303,1313
1413.2566809767386,1368
1415.343696058907,1384
1417.4301654106425,1371
1419.5160892774315,1388
1421.6014679048399,1350
1423.6863015385125,1395
1425.7705904241707,1353
1427.8543348076178,1330
1429.9375349347342,1340
1432.0201910514802,1355
1434.102303403894,1348
1436.1838722380944,1362
1438.2648978002767,1382
1440.3453803367174,1372
1442.4253200937692,1378
1444.5047173178677,1368
1446.5835722555234,1421
1448.6618851533285,1337
1450.739656257952,1408
1452.8168858161434,1361
1454.8935740747306,1383
1456.96972128062,1335
1459.045327680797,1388
1461.120393522327,1398
1463.1949190523528,1385
1465.2689045180973,1352
1467.3423501668608,1388
1469.415256246024,1402
1471.4876230030463,1322
1473.559450685465,1369
1475.6307395408976,1359
1477.7014898170391,1426
1479.771701761665,1369
1481.8413756226287,1406
1483.9105116478618,1318
1485.9791100853772,1347
1488.0471711832643,1397
1490.1146951896926,1351
1492.1816823529098,1400
1494.2481329212433,1409
1496.3140471430984,1431
1498.3794252669609,1409
1500.4442675413939,1384
1502.5085742150404,1415
1504.572345536622,1454
1506.6355817549388,1441
1508.6982831188702,1455
1510.7604498773744,1398
1512.8220822794883,1473
1514.8831805743293,1375
1516.9437450110909,1422
1519.003775839048,1431
1521.0632733075522,1431
1523.1222376660367,1413
1525.1806691640113,1391
1527.2385680510652,1387
1529.2959345768668,1463
1531.3527689911643,1421
1533.4090715437833,1460
1535.4648424846291,1498
1537.5200820636855,1452
1539.5747905310159,1519
1541.6289681367616,1447
1543.6826151311434,1439
1545.7357317644614,1533
1547.7883182870937,1461
1549.8403749494987,1512
1551.8919020022113,1570
1553.9428996958477,1501
1555.9933682811015,1513
1558.0433080087469,1536
1560.0927191296346,1528
1562.1416018946961,1566
1564.1899565549415,1615
1566.2377833614592,1545
1568.2850825654164,1581
1570.3318544180606,1544
1572.3780991707158,1538
1574.423817074788,1559
1576.4690083817595,1576
1578.5136733431923,1618
1580.5578122107272,1520
1582.601425236085,1463
1584.6445126710646,1495
1586.6870747675434,1480
1588.7291117774776,1416
1590.7706239529034,1465
1592.8116115459347,1493
1594.8520748087658,1491
1596.8920139936686,1467
1598.9314293529933,1420
1600.9703211391711,1396
1603.008689604711,1326
1605.0465350022005,1446
1607.0838575843068,1383
1609.1206576037753,1415
1611.1569353134305,1403
1613.1926909661765,1411
1615.2279248149953,1369
1617.2626371129481,1370
1619.2968281131757,1308
1621.3304980688963,1324
1623.3636472334088,1326
1625.39627586009,1310
1627.428384202396,1373
1629.459972513861,1346
1631.4910410480993,1334
1633.5215900588028,1340
1635.551619799744,1302
1637.5811305247717,1278
1639.6101224878166,1307
1641.6385959428862,1309
1643.6665511440683,1337
1645.693988345528,1310
1647.7209078015112,1344
1649.7473097663405,1337
1651.7731944944203,1320
1653.7985622402307,1311
1655.823413258333,1322
1657.847747803366,1282
1659.8715661300494,1310
1661.8948684931793,1296
1663.9176551476316,1335
1665.9399263483624,1359
1667.9616823504057,1264
1669.982923408873,1311
1672.0036497789574,1277
1674.0238617159293,1262
1676.043559475138,1308
1678.0627433120121,1305
1680.081413482059,1315
1682.0995702408654,1267
1684.117213844096,1359
1686.134344547495,1324
1688.1509626068864,1285
1690.1670682781705,1251
1692.182661817329,1304
1694.1977434804217,1312
1696.2123135235875,1284
1698.226372203043,1281
1700.2399197750851,1330
1702.2529564960905,1312
1704.2654826225112,1328
1706.277498410882,1325
1708.2890041178139,1312
1710.2999999999988,1293
1712.3104863142066,1301
1714.3204633172854,1306
1716.329931266163,1271
1718.3388904178469,1348
1720.3473410294214,1284
1722.3552833580516,1261
1724.3627176609807,1262
1726.3696441955308,1317
1728.3760632191033,1321
1730.3819749891782,1308
1732.3873797633146,1301
1734.3922777991502,1328
1736.3966693544012,1297
1738.4005546868639,1322
1740.4039340544127,1376
1742.406807715001,1322
1744.4091759266616,1274
1746.4110389475054,1291
1748.4123970357223,1282
1750.413250449582,1349
1752.4135994474318,1357
1754.4134442876993,1307
1756.4127852288902,1355
1758.4116225295893,1326
1760.4099564484595,1291
1762.407787244244,1342
1764.405115175764,1370
1766.4019405019203,1334
1768.3982634816916,1289
1770.3940843741357,1348
1772.3894034383907,1317
1774.3842209336717,1323
1776.378537119274,1326
1778.372352254571,1316
1780.3656665990156,1306
1782.3584804121397,1361
1784.3507939535534,1297
1786.3426074829463,1328
1788.3339212600863,1358
1790.3247355448211,1348
1792.3150505970766,1316
1794.3048666768573,1337
1796.2941840442477,1296
1798.2830029594106,1346
1800.2713236825884,1320
1802.2591464741004,1392
1804.2464715943465,1323
1806.2332993038058,1343
1808.2196298630352,1333
1810.2054635326708,1300
1812.190800573428,1397
1814.175641246101,1323
1816.1599858115628,1346
1818.1438345307652,1364
1820.127187664738,1320
1822.1100454745924,1352
1824.092408221516,1327
1826.0742761667766,1358
1828.055649571721,1341
1830.0365286977735,1311
1832.0169138064398,1310
1833.9968051593014,1333
1835.9762030180214,1362
1837.9551076443408,1319
1839.9335193000788,1338
1841.9114382471344,1333
1843.888864747485,1314
1845.8657990631878,1317
1847.842241456378,1344
1849.8181921892697,1285
1851.7936515241558,1309
1853.7686197234098,1299
1855.7430970494815,1269
1857.7170837649014,1290
1859.6905801322787,1358
1861.6635864143004,1342
1863.6361028737338,1332
1865.608129773424,1337
1867.5796673762961,1327
1869.5507159453537,1359
1871.521275743678,1337
1873.4913470344313,1292
1875.4609300808534,1361
1877.4300251462632,1319
1879.3986324940588,1309
1881.366752387717,1301
1883.3343850907936,1364
1885.3015308669228,1335
1887.268189979819,1337
1889.2343626932739,1336
1891.2000492711595,1342
1893.1652499774254,1328
1895.1299650761011,1344
1897.0941948312952,1309
1899.0579395071945,1312
1901.0211993680641,1336
1902.98397467825,1277
1904.9462657021745,1320
1906.9080727043415,1379
1908.869395949332,1324
1910.8302357018065,1353
1912.790592226504,1342
1914.7504657882428,1354
1916.7098566519212,1298
1918.6687650825133,1287
1920.6271913450764,1339
1922.5851357047422,1348
1924.5425984267245,1341
1926.499579776314,1404
1928.4560800188833,1313
1930.4120994198802,1335
1932.367638244833,1283
1934.32269675935,1303
1936.2772752291175,1397
1938.231373919899,1363
1940.1849930975404,1304
1942.1381330279637,1345
1944.0907939771696,1276
1946.0429762112412,1374
1947.9946799963363,1296
1949.9459055986945,1257
1951.896653284633,1322
1953.8469233205478,1274
1955.7967159729142,1284
1957.7460315082863,1267
1959.6948701932974,1300
1961.6432322946594,1273
1963.5911180791632,1334
1965.5385278136787,1315
1967.4854617651545,1307
1969.4319202006182,1284
1971.377903387176,1321
1973.3234115920136,1300
1975.268445082395,1265
1977.2130041256642,1250
1979.1570889892423,1279
1981.1006999406304,1322
1983.04383724741,1272
1984.986501177238,1335
1986.928691997853,1325
1988.8704099770712,1306
1990.811655382789,1307
1992.7524284829801,1306
1994.692729545698,1323
1996.6325588390755,1299
1998.5719166313224,1337
2000.5108031907307,1333
2002.4492187856677,1281
2004.387163684583,1320
2006.3246381560011,1296
2008.2616424685298,1286
2010.1981768908527,1314
2012.1342416917332,1330
2014.069837140014,1268
2016.0049635046162,1313
2017.9396210545406,1344
2019.8738100588666,1279
2021.8075307867502,1365
2023.740783507431,1333
2025.6735684902228,1303
2027.6058860045214,1336
2029.5377363198004,1357
2031.4691197056118,1293
2033.4000364315875,1341
2035.3304867674374,1302
2037.260470982952,1311
2039.189989347998,1295
2041.1190421325232,1300
2043.047629606554,1334
2044.9757520401945,1311
2046.9034097036288,1323
2048.8306028671195,1320
2050.7573318010086,1304
2052.683596775716,1315
2054.609398061742,1300
2056.5347359296647,1298
2058.4596106501403,1301
2060.384022493906,1281
2062.3079717317764,1285
2064.231458634646,1282
2066.1544834734873,1299
2068.077046519352,1275
2069.99914804337,1250
2071.9207883167524,1244
2073.8419676107865,1248
2075.7626861968406,1285
2077.6829443463607,1298
2079.6027423308715,1303
2081.522080421977,1280
2083.440958891362,1273
2085.359378010786,1239
2087.2773380520907,1273
2089.194839287196,1277
2091.111881988101,1312
2093.0284664268825,1280
2094.9445928756973,1296
2096.86026160678,1359
2098.775472892446,1264
2100.690227005088,1347
2102.604524217178,1318
2104.5183648012676,1288
2106.431749029985,1297
2108.34467717604,1337
2110.2571495122206,1344
2112.169166311393,1263
2114.080727846503,1274
2115.9918343905747,1308
2117.902486216711,1297
2119.8126835980956,1331
2121.722426807987,1220
2123.6317161197285,1247
2125.5405518067364,1326
2127.448934142509,1292
2129.356863400624,1338
2131.264339854737,1333
2133.1713637785815,1342
2135.077935445972,1329
2136.9840551308002,1313
2138.889723107037,1322
2140.7949396487334,1309
2142.699705030018,1376
2144.6040195250994,1346
2146.507883408264,1355
2148.4112969538774,1283
2150.3142604363848,1316
2152.2167741303097,1348
2154.1188383102535,1358
2156.0204532508997,1380
2157.9216192270064,1318
2159.822336513414,1371
2161.7226053850413,1363
2163.622426116884,1337
2165.5217989840185,1332
2167.4207242616,1377
2169.319202224862,1338
2171.2172331491165,1357
2173.1148173097563,1340
2175.0119549822507,1381
2176.90864644215,1343
2178.8048919650823,1345
2180.7006918267534,1310
2182.596046302952,1392
2184.4909556695407,1335
2186.3854202024645,1404
2188.279440177746,1334
2190.173015871487,1391
2192.066147559868,1334
2193.958835519149,1307
2195.851080025667,1347
2197.7428813558417,1390
2199.6342397861667,1367
2201.5251555932186,1367
2203.415629053651,1305
2205.3056604441986,1370
2207.19525004167,1349
2209.084398122958,1352
2210.9731049650327,1350
2212.861370844941,1401
2214.749196039812,1391
2216.636580826851,1348
2218.523525483344,1386
2220.410030286655,1401
2222.296095514226,1399
2224.1817214435805,1360
2226.066908352319,1381
2227.951656518121,1367
2229.835966218746,1343
2231.71983773203,1392
2233.6032713358913,1383
2235.486267308324,1391
2237.3688259274036,1392
2239.2509474712824,1351
2241.132632218193,1340
2243.013880446447,1433
2244.8946924344323,1360
2246.7750684606203,1397
2248.6550088035574,1376
2250.534513741871,1392
2252.413583554265,1381
2254.292218519526,1369
2256.170418916517,1372
2258.0481850241786,1400
2259.925517121534,1375
2261.8024154876825,1366
2263.678880401803,1385
2265.5549121431536,1376
2267.430510991071,1377
2269.305677224971,1364
2271.180411124348,1333
2273.0547129687766,1340
2274.9285830379076,1352
2276.8020216114737,1412
2278.6750289692845,1418
2280.5476053912294,1389
2282.4197511572766,1355
2284.2914665474727,1387
2286.162751841943,1401
2288.0336073208937,1428
2289.904033264608,1424
2291.774029953448,1444
2293.6435976678554,1442
2295.5127366883517,1364
2297.381447295534,1349
2299.2497297700825,1338
2301.1175843927526,1264
2302.9850114443825,1298
2304.852011205885,1220
2306.7185839582553,1255
2308.5847299825664,1191
2310.4504495599676,1210
2312.3157429716925,1219
2314.1806104990483,1206
2316.0450524234247,1177
2317.9090690262888,1172
2319.772660589186,1222
2321.635827393742,1226
2323.498569721661,1212
2325.3608878547248,1164
2327.2227820747967,1176
2329.0842526638157,1178
2330.945299903803,1149
2332.805924076857,1196
2334.6661254651535,1182
2336.525904350951,1132
2338.3852610165827,1152
2340.244195744464,1230
2342.102708817088,1169
2343.9608005170253,1192
2345.8184711269287,1183
2347.675720929526,1186
2349.532550207628,1151
2351.38895924412,1158
2353.24494832197,1189
2355.100517724223,1191
2356.955667734004,1093
2358.810398634514,1155
2360.664710709037,1170
2362.5186042409337,1198
2364.3720795136437,1172
2366.225136810686,1200
2368.0777764156583,1142
2369.929998612237,1181
2371.7818036841777,1196
2373.633191915315,1184
2375.484163589562,1147
2377.3347189909114,1214
2379.184858403434,1155
2381.03458211128,1160
2382.8838903986775,1183
2384.732783549936,1199
2386.5812618494406,1171
2388.4293255816588,1202
2390.2769750311327,1173
2392.1242104824883,1177
2393.971032220427,1140
2395.8174405297295,1193
2397.6634356952563,1136
2399.509018001947,1174
2401.3541877348193,1185
2403.1989451789705,1171
2405.043290619576,1160
2406.8872243418905,1116
2408.730746631247,1163
2410.5738577730594,1141
2412.4165580528183,1186
2414.258847756095,1207
2416.100727168537,1177
2417.9421965758734,1206
2419.783256263912,1203
2421.623906518538,1232
2423.4641476257157,1198
2425.303979871491,1153
2427.143403541984,1190
2428.9824189233977,1147
2430.821026302012,1164
2432.6592259641866,1186
2434.497018196361,1184
2436.33440328505,1154
2438.171381516851,1149
2440.00795317844,1146
2441.844118556569,1180
2443.6798779380724,1246
2445.5152316098606,1150
2447.3501798589255,1206
2449.1847229723357,1179
2451.0188612372403,1167
2452.8525949408663,1176
2454.6859243705203,1214
2456.518849813587,1163
2458.3513715575314,1205
2460.183489889895,1160
2462.015205098301,1237
2463.8465174704493,1207
2465.67742729412,1190
2467.5079348571717,1223
2469.338040447542,1159
2471.1677443532476,1133
2472.9970468623833,1197
2474.825948263123,1192
2476.6544488437207,1149
2478.482548892508,1185
2480.310248697896,1145
2482.137548548374,1154
2483.9644487325118,1143
2485.790949538956,1172
2487.617051256433,1125
2489.44275417375,1172
2491.26805857979,1153
2493.0929647635157,1183
2494.917473013971,1176
2496.741583620276,1209
2498.5652968716304,1151
2500.3886130573137,1178
2502.2115324666834,1188
2504.0340553891765,1184
2505.856182114308,1185
2507.6779129316733,1158
2509.499248130945,1218
2511.3201880018764,1147
2513.140732834298,1175
2514.9608829181198,1234
2516.780638543331,1197
2518.6,1206
2520.418967578273,1174
2522.237541568376,1246
2524.0557222606144,1215
2525.8735099453706,1163
2527.6909049131086,1204
2529.507907454368,1244
2531.32451785977,1208
2533.140736420014,1133
2534.9565634258774,1143
2536.771999168218,1157
2538.5870439379714,1163
2540.4016980261526,1173
2542.2159617238544,1206
2544.02983532225,1222
2545.8433191125914,1178
2547.656413386209,1242
2549.4691184345115,1199
2551.2814345489874,1210
2553.093362021204,1150
2554.904901142808,1206
2556.716052205523,1192
2558.526815501153,1244
2560.3371913215824,1178
2562.147179958771,1187
2563.956781704761,1198
2565.7659968516705,1203
2567.5748256916986,1191
2569.3832685171224,1256
2571.1913256202984,1197
2572.9989972936614,1223
2574.806283829725,1222
2576.613185521084,1172
2578.4197026604074,1160
2580.2258355404483,1184
2582.031584454035,1221
2583.836949694077,1223
2585.6419315535613,1197
2587.4465303255533,1238
2589.2507463032002,1214
2591.0545797797245,1152
2592.8580310484303,1178
2594.6611004026995,1157
2596.463788135992,1172
2598.266094541849,1220
2600.0680199138874,1239
2601.869564545807,1201
2603.670728731383,1186
2605.4715127644704,1179
2607.2719169390048,1189
2609.071941548998,1197
2610.8715868885433,1184
2612.670853251811,1234
2614.469740933052,1191
2616.268250226594,1222
2618.0663814268455,1180
2619.864134828292,1169
2621.6615107255006,1246
2623.458509413115,1213
2625.2551311858597,1197
2627.0513763385347,1170
2628.8472451660223,1157
2630.6427379632833,1205
2632.4378550253564,1227
2634.232596647359,1187
2636.026963124488,1225
2637.8209547520187,1226
2639.6145718253065,1171
2641.407814639785,1156
2643.200683490966,1223
2644.9931786744414,1157
2646.7853004858807,1218
2648.577049221034,1225
2650.3684251757277,1192
2652.1594286458712,1212
2653.9500599274484,1207
2655.740319316525,1267
2657.5302071092437,1152
2659.3197236018286,1195
2661.10886909058,1173
2662.8976438718782,1220
2664.686048242183,1207
2666.4740824980327,1228
2668.2617469360443,1201
2670.0490418529134,1228
2671.8359675454153,1168
2673.622524310403,1201
2675.408712444811,1197
2677.1945322456495,1141
2678.979984010009,1189
2680.76506803506,1182
2682.5497846180497,1173
2684.334134056306,1198
2686.1181166472343,1157
2687.9017326883213,1149
2689.6849824771293,1200
2691.4678663113013,1185
2693.2503844885596,1168
2695.032537306705,1213
2696.8143250636167,1209
2698.5957480572542,1169
2700.3768065856534,1161
2702.1575009469316,1197
2703.937831439283,1193
2705.717798360982,1216
2707.4974020103837,1206
2709.276642685917,1158
2711.055520686095,1194
2712.834036309506,1149
2714.612189854819,1091
2716.389981620782,1149
2718.1674119062204,1164
2719.944481010041,1154
2721.721189231226,1135
2723.4975368688415,1156
2725.273524222027,1177
2727.0491515900053,1167
2728.824419272075,1190
2730.5993275676146,1118
2732.3738767760838,1148
2734.148067197016,1167
2735.921899130031,1157
2737.6953728748194,1203
2739.468488731156,1168
2741.2412469988926,1169
2743.0136479779617,1180
2744.785691968372,1191
2746.5573792702116,1119
2748.3287101836504,1206
2750.099685008934,1193
2751.870304046388,1185
2753.640567596418,1175
2755.4104759595057,1160
2757.1800294362156,1134
2758.949228327187,1191
2760.7180729331412,1199
2762.486563554877,1219
2764.254700493272,1193
2766.022484049284,1182
2767.789914523947,1136
2769.5569922183786,1186
2771.3237174337705,1161
2773.090090471394,1160
2774.8561116326036,1183
2776.6217812188274,1195
2778.3870995315756,1157
2780.1520668724356,1198
2781.9166835430747,1168
2783.6809498452394,1118
2785.444866080754,1212
2787.2084325515225,1177
2788.971649559527,1185
2790.73451740683,1115
2792.4970363955713,1196
2794.2592068279705,1149
2796.0210290063264,1169
2797.7825032330147,1119
2799.543629810493,1195
2801.304409041296,1122
2803.0648412280366,1155
2804.8249266734088,1192
2806.5846656801846,1168
2808.344058551212,1170
2810.1031055894246,1186
2811.8618070978273,1159
2813.6201633795085,1153
2815.378174737636,1160
2817.1358414754536,1209
2818.893163896285,1135
2820.6501423035334,1215
2822.4067770006814,1191
2824.1630682912883,1212
2825.9190164789957,1143
2827.6746218675207,1185
2829.429884760661,1220
2831.184805462294,1161
2832.9393842763743,1186
2834.693621506936,1200
2836.4475174580916,1227
2838.201072434034,1232
2839.954286739034,1170
2841.707160677441,1219
2843.459694553685,1169
2845.2118886722724,1204
2846.96374333779,1166
2848.7152588549034,1193
2850.4664355283567,1155
2852.217273662973,1185
2853.9677735636546,1168
2855.7179355353833,1179
2857.4677598832186,1166
2859.217246912299,1151
2860.9663969278427,1221
2862.715210235146,1169
2864.4636871395846,1168
2866.211827946614,1146
2867.9596329617652,1168
2869.7071024906536,1232
2871.4542368389684,1191
2873.20103631248,1122
2874.947501217038,1165
2876.6936318585695,1196
2878.4394285430812,1147
2880.1848915766604,1204
2881.9300212654707,1175
2883.6748179157553,1204
2885.4192818338374,1119
2887.1634133261173,1131
2888.907212699077,1132
2890.6506802592744,1174
2892.393816313348,1157
2894.1366211680142,1210
2895.8790951300693,1173
2897.621238506388,1155
2899.363051603925,1182
2901.1045347297118,1179
2902.8456881908596,1183
2904.58651229456,1217
2906.327007348081,1263
2908.067173658772,1156
2909.8070115340597,1193
2911.5465212814497,1176
2913.285703208527,1280
2915.0245576229563,1234
2916.7630848324807,1194
2918.5012851449196,1146
2920.2391588681758,1167
2921.976706310227,1134
2923.7139277791334,1164
2925.4508235830313,1150
2927.187394030137,1190
2928.923639428745,1136
2930.6595600872306,1142
2932.395156314046,1164
2934.1304284177218,1214
2935.8653767068713,1203
2937.6000014901815,1207
2939.3343030764227,1159
2941.068281774442,1207
2942.8019378931644,1171
2944.5352717415976,1160
2946.2682836288236,1190
2948.0009738640065,1185
2949.7333427563885,1166
2951.465390615289,1188
2953.1971177501086,1161
2954.9285244703265,1136
2956.6596110855,1154
2958.3903779052657,1144
2960.1208252393385,1202
2961.8509533975125,1175
2963.5807626896617,1188
2965.3102534257378,1172
2967.0394259157715,1132
2968.768280469873,1190
2970.496817398232,1158
2972.2250370111146,1193
2973.952939618869,1180
2975.6805255319196,1192
2977.4077950607707,1205
2979.134748516006,1165
2980.861386208289,1206
2982.587708448359,1232
2984.313715547037,1203
2986.039407815222,1160
2987.764785563891,1183
2989.489849104102,1170
2991.2145987469908,1160
2992.9390348037705,1163
2994.6631575857346,1181
2996.3869674042576,1191
2998.1104645707887,1187
2999.83364939686,1141
3001.5565221940783,1178
3003.2790832741334,1167
3005.0013329487924,1177
3006.7232715298996,1144
3008.4448993293804,1175
3010.166216659239,1122
3011.887223831558,1121
3013.607921158498,1199
3015.3283089522993,1230
3017.0483875252826,1155
3018.7681571898443,1204
3020.4876182584626,1124
3022.2067710436927,1189
3023.9256158581707,1244
3025.644153014609,1140
3027.362382825801,1156
3029.0803056046193,1128
3030.797921664012,1137
3032.5152313170106,1153
3034.2322348767225,1075
3035.9489326563353,1126
3037.665324969115,1142
3039.3814121284063,1195
3041.097194447633,1146
3042.812672240299,1140
3044.5278458199855,1125
3046.2427155003525,1135
3047.9572815951406,1178
3049.671544418167,1165
3051.38550428333,1121
3053.0991615046073,1175
3054.812516396051,1153
3056.5255692717974,1121
3058.2383204460575,1155
3059.9507702331257,1165
3061.662918947372,1141
3063.3747669032446,1156
3065.0863144152736,1168
3066.7975617980674,1132
3068.508509366309,1140
3070.219157434767,1135
3071.9295063182844,1172
3073.639556331785,1174
3075.3493077902704,1154
3077.058761008821,1114
3078.7679163025964,1181
3080.476773986837,1214
3082.1853343768594,1152
3083.89359778806,1145
3085.6015645359153,1125
3087.3092349359786,1174
3089.016609303884,1167
3090.7236879553434,1162
3092.4304712061476,1157
3094.136959372166,1162
3095.843152769349,1132
3097.5490517137237,1198
3099.2546565213966,1162
3100.959967508554,1100
3102.66498499146,1182
3104.3697092864577,1173
3106.0741407099695,1172
3107.778279578498,1143
3109.482126208622,1150
3111.1856809170004,1178
3112.8889440203716,1108
3114.5919158355528,1131
3116.294596679439,1163
3117.996986869006,1146
3119.6990867213062,1144
3121.4008965534726,1147
3123.102416682717,1166
3124.803647426329,1212
3126.5045891016784,1151
3128.205242026213,1141
3129.90560651746,1164
3131.605682893025,1198
3133.3054714705922,1148
3135.0049725679282,1137
3136.7041865028714,1188
3138.4031135933465,1164
3140.101754157353,1182
3141.800108512971,1140
3143.498176978357,1153
3145.1959598717494,1168
3146.8934575114636,1179
3148.5906702158954,1174
3150.2875983035183,1156
3151.9842420928853,1121
3153.680601902627,1162
3155.376678051456,1138
3157.07247085816,1156
3158.767980641609,1191
3160.463207720748,1123
3162.158152414606,1191
3163.8528150422862,1159
3165.5471959229726,1191
3167.2412953759303,1164
3168.9351137204976,1112
3170.628651276098,1157
3172.3219083622307,1183
3174.014885298474,1079
3175.707582404485,1129
3177.4000000000005,1162
3179.092138404835,1146
3180.7839979388846,1146
3182.47557892212,1227
3184.166881674594,1169
3185.8579065164386,1072
3187.5486537678626,1145
3189.2391237491547,1167
3190.9293167806827,1133
3192.6192331828934,1157
3194.3088732763117,1140
3195.998237381542,1137
3197.687325819268,1183
3199.376138910251,1151
3201.064676975334,1126
3202.7529403354347,1124
3204.4409293115523,1147
3206.1286442247647,1150
3207.816085396229,1124
3209.5032531471825,1166
3211.190147798936,1112
3212.8767696728846,1139
3214.5631190905015,1075
3216.2491963733373,1121
3217.9350018430214,1115
3219.6205358212637,1104
3221.305798629851,1104
3222.990790590651,1120
3224.6755120256103,1159
3226.359963256751,1137
3228.0441446061795,1145
3229.7280563960758,1125
3231.411698948703,1146
3233.0950725863995,1136
3234.778177631587,1151
3236.461014406761,1149
3238.1435832345005,1159
3239.8258844374595,1232
3241.507918338374,1182
3243.1896852600576,1128
3244.8711855254023,1168
3246.552419457381,1174
3248.233387379042,1148
3249.914089613516,1140
3251.59452648401,1136
3253.274698313813,1089
3254.95460542629,1157
3256.6342481448855,1143
3258.313626793125,1086
3259.9927416946084,1124
3261.6715931730196,1099
3263.3501815521176,1153
3265.0285071557437,1128
3266.706570307815,1145
3268.3843713323286,1097
3270.0619105533615,1143
3271.739188295068,1134
3273.4162048816834,1136
3275.0929606375184,1133
3276.769455886966,1177
3278.445690954498,1184
3280.1216661646613,1136
3281.797381842087,1180
3283.4728383114807,1114
3285.1480358976296,1106
3286.8229749253996,1148
3288.4976557197333,1101
3290.172078605655,1092
3291.846243908266,1158
3293.5201519527463,1119
3295.193803064357,1167
3296.8671975684374,1128
3298.5403357904024,1156
3300.21321805575,1133
3301.8858446900567,1153
3303.558216018975,1134
3305.23033236824,1158
3306.9021940636603,1125
3308.57380143113,1141
3310.2451547966184,1130
3311.916254486174,1120
3313.5871008259246,1157
3315.2576941420766,1130
3316.9280347609147,1184
3318.5981230088046,1118
3320.2679592121895,1119
3321.9375436975924,1129
3323.606876791612,1160
3325.27595882093,1131
3326.944790112305,1140
3328.6133709925753,1183
3330.2817017886573,1196
3331.949782827547,1212
3333.617614436319,1149
3335.2851969421245,1199
3336.952530672199,1143
3338.619615953853,1137
3340.286453114475,1124
3341.9530424815357,1154
3343.619384382583,1194
3345.2854791452437,1111
3346.951327097224,1161
3348.6169285663073,1164
3350.2822838803577,1084
3351.947393367319,1201
3353.61225735521,1170
3355.2768761721345,1161
3356.9412501462693,1086
3358.605379605873,1116
3360.2692648792827,1114
3361.9329062949146,1115
3363.596304181263,1125
