CollectionTime,9/20/2024 11:32:36 AM
ExposureUsed,3
CalibratedSpectrum
-962.7078968117929,500
-959.9714848408522,513
-957.2358232597828,531
-954.5009119013725,567
-951.7667505983302,567
-949.0333391832855,581
-946.3006774887896,551
-943.5687653473143,553
-940.837602591253,546
-938.1071890529199,559
-935.3775245645503,540
-932.6486089583007,530
-929.9204420662485,519
-927.1930237203925,533
-924.4663537526524,572
-921.7404319948689,573
-919.0152582788041,562
-916.2908324361409,554
-913.5671542984834,529
-910.8442236973568,543
-908.1220404642074,520
-905.4006044304027,524
-902.679915427231,515
-899.959973285902,515
-897.2407778375464,467
-894.5223289132158,491
-891.8046263438832,527
-889.0876699604426,503
-886.3714595937089,534
-883.6559950744183,520
-880.9412762332282,506
-878.2273029007168,506
-875.5140749073835,519
-872.8015920836489,490
-870.0898542598545,484
-867.3788612662631,512
-864.6686129330585,540
-861.9591090903457,542
-859.2503495681506,521
-856.5423341964203,517
-853.8350628050229,535
-851.1285352237478,563
-848.4227512823054,570
-845.7177108103272,497
-843.0134136373656,514
-840.3098595928943,553
-837.6070485063082,535
-834.9049802069229,548
-832.2036545239757,540
-829.5030712866244,560
-826.8032303239481,560
-824.1041314649472,545
-821.4057745385428,569
-818.7081593735775,530
-816.0112857988148,534
-813.3151536429393,532
-810.6197627345566,552
-807.9251129021936,516
-805.2312039742981,531
-802.5380357792392,568
-799.8456081453069,547
-797.1539209007124,589
-794.462973873588,587
-791.772766891987,553
-789.083299783884,495
-786.3945723771743,510
-783.7065844996748,543
-781.0193359791231,524
-778.3328266431781,549
-775.6470563194197,545
-772.9620248353489,543
-770.2777320183878,537
-767.5941776958798,564
-764.9113616950891,533
-762.2292838432011,523
-759.5479439673222,519
-756.8673418944801,544
-754.1874774516235,573
-751.5083504656222,534
-748.8299607632671,540
-746.15230817127,562
-743.475392516264,570
-740.7992136248035,583
-738.1237713233636,562
-735.4490654383407,590
-732.7750957960521,532
-730.1018622227365,533
-727.4293645445534,535
-724.7576025875837,566
-722.0865761778291,549
-719.4162851412126,604
-716.7467293035781,643
-714.0779084906909,601
-711.409822528237,580
-708.7424712418238,576
-706.0758544569796,544
-703.4099719991541,576
-700.7448236937178,577
-698.0804093659622,585
-695.4167288411002,573
-692.7537819442656,566
-690.0915685005134,540
-687.4300883348199,568
-684.7693412720819,564
-682.1093271371178,589
-679.4500457546669,560
-676.7914969493897,575
-674.1336805458676,577
-671.4765963686034,621
-668.8202442420206,589
-666.1646239904642,575
-663.5097354382001,583
-660.8555784094151,568
-658.2021527282176,556
-655.5494582186366,577
-652.8974947046223,655
-650.2462620100463,643
-647.5957599587009,646
-644.9459883742998,638
-642.2969470804776,609
-639.6486359007902,611
-637.0010546587141,653
-634.3542031776476,655
-631.7080812809096,639
-629.0626887917401,641
-626.4180255333008,631
-623.7740913286734,622
-621.1308860008619,672
-618.4884093727904,645
-615.8466612673046,639
-613.2056415071715,606
-610.5653499150785,619
-607.9257863136347,652
-605.28695052537,676
-602.6488423727357,628
-600.0114616781036,622
-597.3748082637674,644
-594.7388819519412,647
-592.1036825647604,634
-589.4692099242818,643
-586.8354638524829,636
-584.2024441712624,684
-581.5701507024403,676
-578.9385832677575,718
-576.3077416888759,722
-573.6776257873787,662
-571.0482353847704,697
-568.4195703024757,679
-565.7916303618415,705
-563.164415384135,703
-560.5379251905453,695
-557.9121596021815,739
-555.2871184400748,699
-552.6628015251767,706
-550.0392086783606,763
-547.4163397204204,710
-544.794194472071,756
-542.1727727539491,763
-539.5520743866118,807
-536.9320991905377,849
-534.3128469861261,926
-531.6943175936979,846
-529.0765108334947,844
-526.4594265256793,941
-523.8430644903358,1122
-521.2274245474689,1329
-518.612506517005,1456
-515.9983102187913,1513
-513.3848354725959,1768
-510.77208209810846,1990
-508.16004991493924,2232
-505.5487387426199,2217
-502.9381484006032,2176
-500.3282787082628,2046
-497.71912948489364,1824
-495.1107005497117,1514
-492.5029917218539,1345
-489.8960028203786,1154
-487.28973366426493,1052
-484.68418407241325,923
-482.07935386364494,854
-479.47524285670266,842
-476.87185087025,834
-474.2691777228715,908
-471.66722323307334,852
-469.0659872192821,863
-466.4654694998459,911
-463.86566989303384,895
-461.26658821703614,823
-458.66822428996414,881
-456.07057792985,907
-453.4736489546475,909
-450.877437182231,896
-448.28194243039627,796
-445.68716451686,806
-443.09310325926003,827
-440.49975847515555,796
-437.9071299820263,832
-435.31521759727354,965
-432.72402113821954,914
-430.13354042210767,901
-427.5437752661022,879
-424.95472548728867,875
-422.36639090267386,941
-419.7787713291855,858
-417.1918665836721,925
-414.60567648290385,920
-412.0202008435715,960
-409.4354394822874,975
-406.8513922155845,899
-404.26805885991723,881
-401.685439231661,929
-399.103533147112,926
-396.522340422488,904
-393.9418608739278,898
-391.3620943174908,949
-388.7830405691583,886
-386.2046994448317,867
-383.6270707603344,880
-381.05015433141045,839
-378.473949973725,790
-375.8984575028645,748
-373.32367673433623,712
-370.74960748356875,756
-368.1762495659117,717
-365.60360279663576,686
-363.03166699093265,718
-360.4604419639154,623
-357.8899275306178,560
-355.32012350599507,570
-352.7510297049233,543
-350.1826459421999,562
-347.61497203254316,563
-345.04800779059235,573
-342.4817530309082,548
-339.91620756797226,552
-337.35137121618743,582
-334.7872437898774,621
-332.22382510328725,551
-329.66111497058273,601
-327.09911320585127,639
-324.53781962310075,599
-321.9772340362607,570
-319.4173562591816,587
-316.8581861056348,591
-314.2997233893127,533
-311.7419679238294,610
-309.1849195227194,645
-306.62857799943856,667
-304.0729431673641,665
-301.51801483979375,706
-298.963792829947,703
-296.41027695096386,657
-293.85746701590574,669
-291.3053628377552,660
-288.7539642294155,674
-286.2032710037115,685
-283.65328297338897,683
-281.1039999511146,707
-278.5554217494762,751
-276.007548180983,836
-273.4603790580651,831
-270.9139141930734,808
-268.3681533982807,925
-265.8230964858798,857
-263.27874326798565,847
-260.7350935566336,899
-258.1921471637804,883
-255.6499039013039,1018
-253.10836358100266,950
-250.56752601459698,886
-248.02739101372765,841
-245.48795838995704,874
-242.94922795476816,947
-240.41119951956557,955
-237.8738728956746,843
-235.33724789434166,827
-232.80132432673452,818
-230.2661020039418,741
-227.73158073697357,730
-225.19776033676033,799
-222.66464061415422,861
-220.1322213799284,960
-217.60050244477725,975
-215.06948361931552,990
-212.53916471408013,1105
-210.00954553952818,1177
-207.48062590603843,969
-204.9524056239104,950
-202.4248845033651,917
-199.8980623545441,935
-197.37193898751036,1114
-194.84651421224817,1195
-192.32178783866232,1115
-189.79775967657952,1150
-187.27442953574644,1178
-184.7517972258321,1139
-182.2298625564256,1023
-179.7086253370378,872
-177.18808537710026,962
-174.66824248596583,1098
-172.14909647290835,1152
-169.6306471471229,1139
-167.11289431772548,1223
-164.59583779375328,1229
-162.07947738416453,1376
-159.5638128978386,1631
-157.04884414357605,1575
-154.53457093009854,1578
-152.02099306604828,1424
-149.50811035998936,1281
-146.99592262040665,1373
-144.48442965570587,1591
-141.97363127421409,1600
-139.46352728417958,1627
-136.95411749377126,1781
-134.44540171107985,1691
-131.93737974411636,1425
-129.43005140081357,1475
-126.92341648902493,1673
-124.41747481652521,1797
-121.91222619101006,1959
-119.40767042009657,2314
-116.90380731132257,2772
-114.40063667214702,3764
-111.8981583099503,4843
-109.3963720320337,6659
-106.89527764561933,8754
-104.39487495785067,9738
-101.89516377579241,10080
-99.39614390642998,13475
-96.89781515667039,18084
-94.40017733334128,22982
-91.90323024319173,26424
-89.40697369289148,21428
-86.91140748903172,13250
-84.41653143812482,8544
-81.92234534660395,9109
-79.42884902082358,13688
-76.93604226705907,17847
-74.4439248915071,19345
-71.95249670028534,17735
-69.46175749943245,13367
-66.97170709490854,11504
-64.48234529259423,12421
-61.99367189829195,14130
-59.50568671772464,16973
-57.01838955653636,20216
-54.53178022029283,25721
-52.045858514480074,25761
-49.560624244506016,27519
-47.07607721569923,26712
-44.59221723330904,20227
-42.10904410250669,17061
-39.62655762838392,19007
-37.14475761595372,26281
-34.66364387015028,28599
-32.18321619582866,29243
-29.70347439776515,35074
-27.224418280657005,37813
-24.74604764912317,36831
-22.26836230770266,41733
-19.7913620608565,61872
-17.315046712966478,65035
-14.83941606833514,65035
-12.36446993118659,65035
-9.89020810566592,65035
-7.416630395839093,65035
-4.94373660569363,65035
-2.471526539137585,65035
-6.821210263296962E-13,65035
2.47084320796705,65035
4.941003281093458,65035
7.410480415786196,65035
9.879274808531363,65035
12.347386655893956,65035
14.814816154518212,65035
17.28156350112681,65035
19.74762889252179,65035
22.21301252558385,65035
24.67771459727237,26279
27.141735304626195,8362
29.605074844762612,9355
32.06773341487792,9176
34.52971121224755,7985
36.99100843422559,5635
39.45162527824516,5416
41.91156194181792,5719
44.370818622535126,5457
46.82939551806646,5477
49.287292826160524,6650
51.74451074464503,5845
54.201049471426245,3776
56.65690920448981,4255
59.112090141899785,4571
61.56659248179983,4023
64.02041642241159,3553
66.4735621620365,3528
68.92602989905402,4289
71.37781983192338,4382
73.82893215918205,4363
76.27936707944684,2720
78.72912479141326,2841
81.17820549385567,2532
83.62660938562783,2149
86.07433666566146,2301
88.5213875329681,2401
90.96776218663751,2526
93.41346082583925,2651
95.85848364982041,3104
98.30283085790859,2510
100.7465026495089,2301
103.18949922410604,2362
105.63182078126385,2337
108.07346752062438,2236
110.51443964190923,1992
112.95473734491827,1561
115.39436082953114,1603
117.83331029570547,2021
120.27158594347827,2767
122.7091879729652,2661
125.1461165843615,2095
127.58237197794062,1753
130.01795435405518,1656
132.4528639131364,1708
134.88710085569494,1755
137.32066538231982,1824
139.75355769367923,1749
142.1857779905207,1442
144.61732647366978,1247
147.04820334403132,1282
149.47840880258934,1421
151.90794305040674,1606
154.33680628862487,1643
156.76499871846443,1706
159.19252054122433,1852
161.61937195828352,1985
164.04555317109896,2056
166.47106438120693,2138
168.89590579022217,2252
171.320077599839,2237
173.7435800118302,2287
176.16641322804742,2486
178.58857745042144,2428
181.01007288096173,2514
183.43089972175687,2517
185.85105817497413,2326
188.27054844285988,2279
190.6893707277394,2509
193.10752523201643,2657
195.5250121581745,2631
197.9418317087751,2496
200.3579840864594,2520
202.7734694939469,2660
205.18828813403627,2892
207.6024402096051,2824
210.01592592360964,2674
212.42874547908548,2693
214.84089907914665,2540
217.2523869269868,2503
219.66320922587727,2596
222.0733661791695,2625
224.48285799029293,2735
226.8916848627572,2736
229.29984700014882,2604
231.7073446061355,2609
234.11417788446204,2716
236.520347038953,2549
238.92585227351185,2571
241.33069379212054,2632
243.73487179884035,2581
246.1383864978112,2673
248.541238093252,2663
250.9434267894609,2637
253.34495279081432,2630
255.74581630176783,2668
258.1460175268563,2801
260.54555667069314,2727
262.9444339379703,2711
265.3426495334594,2595
267.7402036620107,2641
270.1370965285529,2668
272.53332833809407,2584
274.9288992957214,2663
277.32380960660055,2559
279.718059475976,2627
282.1116491091717,2580
284.5045787115897,2630
286.89684848871195,2562
289.2884586460981,2550
291.67940938938807,2656
294.0697009242996,2754
296.4593334566299,2732
298.84830719225477,2834
301.23662233712923,2640
303.6242790972866,2601
306.01127767884,2525
308.39761828798066,2634
310.78330113097934,2537
313.16832641418534,2406
315.5526943440269,2436
317.9364051270112,2461
320.3194589697242,2502
322.70185607883093,2378
325.0835966610754,2348
327.4646809232805,2298
329.8451090723478,2318
332.2248813152577,2321
334.6039978590701,2297
336.9824589109231,2284
339.36026467803447,2237
341.7374153677,2256
344.113911187295,2216
346.48975234427337,2315
348.8649390461686,2365
351.2394715005918,2266
353.61334991523415,2181
355.9865744978655,2227
358.35914545633375,2256
360.73106299856715,2183
363.10232733257146,2187
365.47293866643247,2142
367.84289720831396,2128
370.2122031664593,2149
372.5808567491905,2114
374.9488581649083,2076
377.31620762209275,2147
379.6829053293021,2191
382.0489514951745,2137
384.4143463284262,2067
386.7790900378528,1999
389.14318283232853,2024
391.50662492080653,2046
393.86941651231916,2055
396.23155781597745,2173
398.5930490409713,2128
400.9538903965696,2140
403.3140820921202,2086
405.6736243370498,2083
408.03251734086336,2052
410.3907613131465,1921
412.74835646356166,1951
415.10530300185144,2054
417.4616011378372,2025
419.81725108141893,2060
422.1722530425758,1943
424.5266072313656,1990
426.880313857925,1960
429.2333731324701,1916
431.58578526529516,1954
433.9375504667738,2031
436.2886689473588,2010
438.63914091758113,2032
440.9889665880513,1982
443.33814616945835,1957
445.68667987257015,1896
448.03456790823395,1913
450.3818104873759,1900
452.72840782100013,1876
455.07436012019105,1955
457.41966759611057,2004
459.7643304600007,1964
462.10834892318155,1965
464.4517231970525,1939
466.79445349309174,1948
469.1365400228566,1869
471.4779829979826,1950
473.81878263018564,2014
476.15893913125876,1975
478.4984527130747,2021
480.8373235875855,2106
483.17555196682144,2048
485.5131380628919,1978
487.8500820879857,2196
490.1863842543697,2262
492.52204477439034,2317
494.8570638604725,2568
497.1914417251204,2877
499.52517858091653,3472
501.85827464052306,4092
504.19073011668036,4746
506.5225452222086,5168
508.85372017000566,5194
511.18425517304956,5388
513.514150444396,5794
515.8434061971808,6622
518.1720226446176,7129
520.4999999999999,6825
522.8273384766991,6493
525.1540382881666,5873
527.480099647932,5233
529.8055227696037,4273
532.1303078668694,3073
534.454455153496,2474
536.777964843328,2215
539.1008371502907,2105
541.4230722883866,2072
543.744670471698,2027
546.0656319143858,2034
548.3859568306899,1983
550.7056454349294,1935
553.0246979415016,1902
555.3431145648834,1804
557.6608955196306,1861
559.978041020377,1963
562.2945512818363,1925
564.6104265188006,2034
566.9256669461412,1964
569.2402727788082,1916
571.5542442318302,1901
573.8675815203156,2024
576.1802848594508,2021
578.4923544645015,1986
580.8037905508126,1968
583.114593333807,1913
585.4247630289875,1918
587.7342998519354,1864
590.0432040183106,1932
592.3514757438526,1960
594.6591152443794,1966
596.9661227357875,2007
599.2724984340531,1949
601.578242555231,1876
603.8833553154542,1833
606.1878369309362,1901
608.4916876179676,1870
610.7949075929192,1966
613.0974970722403,1892
615.3994562724587,1883
617.7007854101818,1903
620.0014847020951,2003
622.3015543649641,2047
624.6009946156324,1883
626.8998056710224,2060
629.1979877481361,1906
631.4955410640538,1919
633.7924658359349,1882
636.0887622810175,1934
638.3844306166192,1955
640.6794710601358,1922
642.9738838290426,1965
645.2676691408932,1936
647.5608272133207,1987
649.853358264037,1987
652.1452625108324,1957
654.4365401715764,2005
656.7271914642178,1971
659.0172166067838,1968
661.3066158173809,2046
663.5953893141935,1924
665.8835373154867,1944
668.1710600396028,1937
670.4579577049639,1936
672.7442305300709,1994
675.0298787335033,1927
677.3149025339197,1937
679.599302150058,1946
681.8830778007342,1973
684.1662297048437,1974
686.4487580813608,1946
688.7306631493387,1952
691.0119451279091,1934
693.2926042362834,1955
695.5726406937516,1949
697.8520547196814,1983
700.1308465335215,1816
702.4090163547982,1881
704.6865644031171,1860
706.9634908981619,1945
709.2397960596965,1899
711.5154801075631,1838
713.7905432616823,1953
716.0649857420548,1940
718.3388077687592,1932
720.612009561953,1910
722.8845913418733,1876
725.1565533288352,1927
727.427895743234,1912
729.6986188055427,1922
731.9687227363137,1942
734.238207756178,1885
736.5070740858458,1918
738.7753219461066,1960
741.0429515578281,1916
743.3099631419569,1941
745.5763569195191,1861
747.8421331116193,1911
750.1072919394409,1943
752.3718336242467,1959
754.6357583873777,1885
756.8990664502545,1911
759.1617580343765,1892
761.423833361321,1943
763.6852926527457,1964
765.9461361303862,1883
768.206364016058,1932
770.4659765316536,1970
772.7249738991469,1960
774.9833563405886,1984
777.2411240781092,2042
779.4982773339183,1963
781.7548163303044,1937
784.010741289634,1940
786.2660524343538,2095
788.5207499869881,2018
790.7748341701416,2035
793.0283052064964,2083
795.2811633188143,2010
797.5334087299362,1996
799.7850416627813,2094
802.0360623403484,1990
804.2864709857143,2032
806.5362678220353,2047
808.7854530725468,1993
811.0340269605625,1996
813.2819897094754,1990
815.5293415427581,2020
817.77608268396,1958
820.0222133567116,2022
822.2677337847211,1949
824.5126441917765,1965
826.7569448017433,1935
829.0006358385675,1955
831.2437175262731,1981
833.4861900889629,1944
835.7280537508192,1985
837.9693087361026,2015
840.2099552691533,2028
842.4499935743896,1996
844.689423876309,1998
846.9282463994886,1947
849.1664613685833,2049
851.4040690083276,1955
853.6410695435349,2009
855.877463199097,2055
858.1132501999847,2039
860.3484307712487,2081
862.5830051380175,2043
864.8169735254988,1908
867.0503361589791,1990
869.2830932638243,2024
871.5152450654786,1985
873.7467917894654,2050
875.9777336613873,2037
878.2080709069252,2047
880.4378037518389,2030
882.666932421968,1947
884.8954571432301,2057
887.1233781416219,2020
889.3506956432192,2015
891.5774098741766,2007
893.803521060728,2086
896.0290294291852,1993
898.2539352059397,1997
900.4782386174619,1971
902.7019398903011,1995
904.925039251085,2028
907.147536926521,2084
909.3694331433943,2017
911.59072812857,2039
913.8114221089921,2144
916.0315153116827,2103
918.2510079637437,2109
920.4699002923547,2120
922.6881925247761,2146
924.905884888345,2012
927.1229776104793,2039
929.3394709186747,2069
931.555365040506,2025
933.7706602036275,2098
935.9853566357709,2093
938.1994545647489,2012
940.4129542184515,2101
942.6258558248488,2089
944.8381596119883,2037
947.0498658079974,2083
949.2609746410825,2032
951.4714863395287,2057
953.6814011316998,2103
955.8907192460387,2067
958.0994409110671,2009
960.3075663553858,2047
962.5150958076741,2100
964.7220294966913,2072
966.928367651274,1969
969.1341105003388,1933
971.3392582728806,1972
973.5438111979742,1977
975.747769504772,1911
977.9511334225061,1939
980.153903180487,1952
982.3560790081052,1959
984.5576611348289,1869
986.7586497902058,1896
988.9590452038618,1847
991.158847605503,1843
993.3580572249133,1846
995.5566742919558,1844
997.7546990365728,1818
999.952131688785,1743
1002.1489724786926,1696
1004.3452216364743,1665
1006.5408793923874,1684
1008.7359459767691,1699
1010.9304216200343,1610
1013.1243065526781,1619
1015.3176010052733,1594
1017.510305208472,1624
1019.7024193930064,1609
1021.8939437896848,1631
1024.0848786293977,1583
1026.2752241431122,1555
1028.4649805618747,1639
1030.6541481168115,1559
1032.842727039127,1550
1035.0307175601051,1552
1037.2181199111074,1504
1039.4049343235752,1511
1041.591161029029,1543
1043.7768002590683,1548
1045.9618522453698,1529
1048.1463172196918,1484
1050.3301954138697,1508
1052.513487059818,1547
1054.69619238953,1571
1056.8783116350783,1488
1059.0598450286152,1479
1061.2407928023704,1467
1063.4211551886528,1532
1065.6009324198508,1565
1067.780124728432,1530
1069.9587323469414,1526
1072.1367555080046,1461
1074.314194444325,1502
1076.4910493886855,1480
1078.667320573947,1470
1080.843008233051,1415
1083.0181125990161,1465
1085.1926339049414,1467
1087.3665723840027,1454
1089.5399282694575,1460
1091.7127017946405,1474
1093.8848931929647,1480
1096.0565026979243,1433
1098.2275305430899,1396
1100.3979769621128,1484
1102.567842188722,1426
1104.737126456726,1473
1106.9058300000124,1444
1109.0739530525475,1343
1111.2414958483764,1446
1113.4084586216231,1408
1115.5748416064907,1449
1117.7406450372605,1402
1119.9058691482942,1376
1122.0705141740304,1437
1124.2345803489884,1472
1126.3980679077658,1390
1128.5609770850388,1399
1130.7233081155623,1471
1132.8850612341707,1403
1135.0462366757774,1441
1137.2068346753745,1454
1139.3668554680326,1430
1141.526299288901,1424
1143.68516637321,1407
1145.8434569562655,1389
1148.001171273455,1367
1150.158309560244,1366
1152.3148720521767,1359
1154.470858984876,1486
1156.626270594044,1443
1158.7811071154629,1473
1160.9353687849912,1353
1163.089055838569,1399
1165.242168512213,1419
1167.3947070420209,1397
1169.5466716641677,1445
1171.6980626149075,1363
1173.8488801305748,1367
1175.9991244475814,1463
1178.1487958024186,1419
1180.2978944316555,1359
1182.4464205719428,1437
1184.5943744600072,1392
1186.7417563326567,1340
1188.8885664267755,1354
1191.0348049793297,1326
1193.1804722273619,1378
1195.325568407995,1411
1197.4700937584303,1359
1199.614048515948,1367
1201.7574329179074,1346
1203.900247201746,1409
1206.042491604982,1429
1208.1841663652099,1386
1210.3252717201053,1443
1212.465807907422,1374
1214.6057751649923,1378
1216.7451737307279,1405
1218.8840038426192,1410
1221.0222657387353,1432
1223.1599596572241,1386
1225.2970858363137,1406
1227.4336445143094,1394
1229.5696359295966,1426
1231.705060320639,1413
1233.8399179259786,1411
1235.9742089842384,1422
1238.107933734118,1388
1240.2410924143974,1489
1242.373685263935,1431
1244.5057125216676,1390
1246.6371744266116,1400
1248.7680712178621,1373
1250.898403134593,1393
1253.028170416058,1383
1255.1573733015875,1399
1257.2860120305932,1394
1259.4140868425648,1333
1261.54159797707,1414
1263.6685456737569,1372
1265.7949301723515,1374
1267.9207517126597,1408
1270.046010534565,1381
1272.1707068780306,1389
1274.2948409830983,1415
1276.4184130898889,1389
1278.541423438603,1388
1280.6638722695184,1462
1282.785759822993,1331
1284.9070863394636,1400
1287.0278520594447,1410
1289.1480572235314,1358
1291.2677020723963,1404
1293.3867868467923,1391
1295.5053117875495,1438
1297.623277135579,1411
1299.740683131868,1415
1301.8575300174857,1373
1303.973818033578,1378
1306.0895474213703,1470
1308.2047184221678,1328
1310.3193312773528,1434
1312.4333862283888,1382
1314.5468835168163,1387
1316.659823384255,1387
1318.7722060724045,1395
1320.8840318230418,1402
1322.9953008780249,1461
1325.1060134792888,1449
1327.2161698688478,1452
1329.3257702887959,1389
1331.4348149813054,1393
1333.5433041886276,1434
1335.6512381530933,1389
1337.7586171171101,1396
1339.8654413231675,1452
1341.9717110138317,1420
1344.0774264317488,1402
1346.1825878196432,1404
1348.2871954203192,1415
1350.3912494766587,1354
1352.4947502316231,1441
1354.5976979282532,1447
1356.7000928096686,1348
1358.8019351190665,1399
1360.9032250997243,1447
1363.0039629949988,1432
1365.1041490483235,1404
1367.2037835032133,1396
1369.3028666032606,1460
1371.401398592137,1428
1373.4993797135926,1413
1375.5968102114575,1365
1377.6936903296396,1396
1379.7900203121262,1412
1381.8858004029835,1434
1383.9810308463561,1447
1386.075711886469,1468
1388.1698437676241,1400
1390.2634267342032,1473
1392.356461030667,1394
1394.4489469015557,1434
1396.5408845914872,1502
1398.6322743451592,1383
1400.7231164073469,1371
1402.813411022907,1453
1404.903158436773,1463
1406.9923588939578,1430
1409.0810126395531,1389
1411.1691199187303,1466
1413.2566809767386,1439
1415.343696058907,1497
1417.4301654106425,1417
1419.5160892774315,1436
1421.6014679048399,1484
1423.6863015385125,1443
1425.7705904241707,1411
1427.8543348076178,1411
1429.9375349347342,1455
1432.0201910514802,1379
1434.102303403894,1380
1436.1838722380944,1400
1438.2648978002767,1481
1440.3453803367174,1458
1442.4253200937692,1465
1444.5047173178677,1424
1446.5835722555234,1493
1448.6618851533285,1454
1450.739656257952,1450
1452.8168858161434,1433
1454.8935740747306,1445
1456.96972128062,1417
1459.045327680797,1471
1461.120393522327,1456
1463.1949190523528,1424
1465.2689045180973,1439
1467.3423501668608,1455
1469.415256246024,1405
1471.4876230030463,1462
1473.559450685465,1457
1475.6307395408976,1416
1477.7014898170391,1457
1479.771701761665,1408
1481.8413756226287,1393
1483.9105116478618,1474
1485.9791100853772,1442
1488.0471711832643,1497
1490.1146951896926,1487
1492.1816823529098,1411
1494.2481329212433,1386
1496.3140471430984,1487
1498.3794252669609,1414
1500.4442675413939,1454
1502.5085742150404,1465
1504.572345536622,1513
1506.6355817549388,1541
1508.6982831188702,1439
1510.7604498773744,1494
1512.8220822794883,1475
1514.8831805743293,1476
1516.9437450110909,1484
1519.003775839048,1443
1521.0632733075522,1363
1523.1222376660367,1481
1525.1806691640113,1440
1527.2385680510652,1412
1529.2959345768668,1479
1531.3527689911643,1436
1533.4090715437833,1422
1535.4648424846291,1434
1537.5200820636855,1451
1539.5747905310159,1525
1541.6289681367616,1439
1543.6826151311434,1431
1545.7357317644614,1442
1547.7883182870937,1465
1549.8403749494987,1455
1551.8919020022113,1499
1553.9428996958477,1480
1555.9933682811015,1438
1558.0433080087469,1448
1560.0927191296346,1450
1562.1416018946961,1507
1564.1899565549415,1496
1566.2377833614592,1413
1568.2850825654164,1467
1570.3318544180606,1472
1572.3780991707158,1479
1574.423817074788,1446
1576.4690083817595,1406
1578.5136733431923,1424
1580.5578122107272,1413
1582.601425236085,1435
1584.6445126710646,1501
1586.6870747675434,1443
1588.7291117774776,1448
1590.7706239529034,1414
1592.8116115459347,1389
1594.8520748087658,1372
1596.8920139936686,1511
1598.9314293529933,1393
1600.9703211391711,1457
1603.008689604711,1376
1605.0465350022005,1383
1607.0838575843068,1450
1609.1206576037753,1380
1611.1569353134305,1415
1613.1926909661765,1437
1615.2279248149953,1449
1617.2626371129481,1378
1619.2968281131757,1420
1621.3304980688963,1436
1623.3636472334088,1434
1625.39627586009,1387
1627.428384202396,1400
1629.459972513861,1383
1631.4910410480993,1350
1633.5215900588028,1388
1635.551619799744,1385
1637.5811305247717,1388
1639.6101224878166,1428
1641.6385959428862,1368
1643.6665511440683,1455
1645.693988345528,1356
1647.7209078015112,1378
1649.7473097663405,1392
1651.7731944944203,1386
1653.7985622402307,1384
1655.823413258333,1384
1657.847747803366,1399
1659.8715661300494,1391
1661.8948684931793,1387
1663.9176551476316,1446
1665.9399263483624,1348
1667.9616823504057,1434
1669.982923408873,1371
1672.0036497789574,1368
1674.0238617159293,1371
1676.043559475138,1309
1678.0627433120121,1319
1680.081413482059,1424
1682.0995702408654,1451
1684.117213844096,1359
1686.134344547495,1399
1688.1509626068864,1422
1690.1670682781705,1361
1692.182661817329,1360
1694.1977434804217,1389
1696.2123135235875,1417
1698.226372203043,1364
1700.2399197750851,1440
1702.2529564960905,1394
1704.2654826225112,1449
1706.277498410882,1414
1708.2890041178139,1381
1710.2999999999988,1430
1712.3104863142066,1380
1714.3204633172854,1400
1716.329931266163,1406
1718.3388904178469,1400
1720.3473410294214,1424
1722.3552833580516,1433
1724.3627176609807,1414
1726.3696441955308,1379
1728.3760632191033,1453
1730.3819749891782,1453
1732.3873797633146,1384
1734.3922777991502,1391
1736.3966693544012,1390
1738.4005546868639,1412
1740.4039340544127,1409
1742.406807715001,1399
1744.4091759266616,1404
1746.4110389475054,1443
1748.4123970357223,1438
1750.413250449582,1390
1752.4135994474318,1413
1754.4134442876993,1422
1756.4127852288902,1483
1758.4116225295893,1452
1760.4099564484595,1411
1762.407787244244,1447
1764.405115175764,1425
1766.4019405019203,1470
1768.3982634816916,1448
1770.3940843741357,1440
1772.3894034383907,1417
1774.3842209336717,1458
1776.378537119274,1438
1778.372352254571,1406
1780.3656665990156,1382
1782.3584804121397,1414
1784.3507939535534,1420
1786.3426074829463,1424
1788.3339212600863,1458
1790.3247355448211,1416
1792.3150505970766,1399
1794.3048666768573,1431
1796.2941840442477,1456
1798.2830029594106,1388
1800.2713236825884,1441
1802.2591464741004,1451
1804.2464715943465,1382
1806.2332993038058,1404
1808.2196298630352,1380
1810.2054635326708,1422
1812.190800573428,1440
1814.175641246101,1445
1816.1599858115628,1418
1818.1438345307652,1448
1820.127187664738,1478
1822.1100454745924,1360
1824.092408221516,1419
1826.0742761667766,1415
1828.055649571721,1438
1830.0365286977735,1382
1832.0169138064398,1498
1833.9968051593014,1442
1835.9762030180214,1483
1837.9551076443408,1489
1839.9335193000788,1469
1841.9114382471344,1403
1843.888864747485,1420
1845.8657990631878,1433
1847.842241456378,1446
1849.8181921892697,1436
1851.7936515241558,1406
1853.7686197234098,1392
1855.7430970494815,1417
1857.7170837649014,1395
1859.6905801322787,1424
1861.6635864143004,1429
1863.6361028737338,1444
1865.608129773424,1385
1867.5796673762961,1418
1869.5507159453537,1427
1871.521275743678,1434
1873.4913470344313,1427
1875.4609300808534,1455
1877.4300251462632,1426
1879.3986324940588,1465
1881.366752387717,1468
1883.3343850907936,1451
1885.3015308669228,1436
1887.268189979819,1425
1889.2343626932739,1425
1891.2000492711595,1383
1893.1652499774254,1455
1895.1299650761011,1421
1897.0941948312952,1407
1899.0579395071945,1509
1901.0211993680641,1444
1902.98397467825,1387
1904.9462657021745,1397
1906.9080727043415,1374
1908.869395949332,1452
1910.8302357018065,1457
1912.790592226504,1415
1914.7504657882428,1410
1916.7098566519212,1402
1918.6687650825133,1465
1920.6271913450764,1392
1922.5851357047422,1363
1924.5425984267245,1366
1926.499579776314,1445
1928.4560800188833,1408
1930.4120994198802,1423
1932.367638244833,1466
1934.32269675935,1440
1936.2772752291175,1434
1938.231373919899,1408
1940.1849930975404,1388
1942.1381330279637,1439
1944.0907939771696,1438
1946.0429762112412,1389
1947.9946799963363,1408
1949.9459055986945,1439
1951.896653284633,1420
1953.8469233205478,1428
1955.7967159729142,1404
1957.7460315082863,1427
1959.6948701932974,1391
1961.6432322946594,1355
1963.5911180791632,1360
1965.5385278136787,1370
1967.4854617651545,1459
1969.4319202006182,1387
1971.377903387176,1427
1973.3234115920136,1378
1975.268445082395,1379
1977.2130041256642,1414
1979.1570889892423,1431
1981.1006999406304,1440
1983.04383724741,1396
1984.986501177238,1451
1986.928691997853,1448
1988.8704099770712,1427
1990.811655382789,1452
1992.7524284829801,1440
1994.692729545698,1447
1996.6325588390755,1447
1998.5719166313224,1512
2000.5108031907307,1484
2002.4492187856677,1384
2004.387163684583,1459
2006.3246381560011,1484
2008.2616424685298,1401
2010.1981768908527,1401
2012.1342416917332,1434
2014.069837140014,1359
2016.0049635046162,1429
2017.9396210545406,1504
2019.8738100588666,1464
2021.8075307867502,1415
2023.740783507431,1439
2025.6735684902228,1367
2027.6058860045214,1406
2029.5377363198004,1404
2031.4691197056118,1422
2033.4000364315875,1386
2035.3304867674374,1407
2037.260470982952,1445
2039.189989347998,1427
2041.1190421325232,1403
2043.047629606554,1413
2044.9757520401945,1402
2046.9034097036288,1417
2048.8306028671195,1413
2050.7573318010086,1416
2052.683596775716,1399
2054.609398061742,1410
2056.5347359296647,1425
2058.4596106501403,1428
2060.384022493906,1367
2062.3079717317764,1366
2064.231458634646,1395
2066.1544834734873,1402
2068.077046519352,1378
2069.99914804337,1411
2071.9207883167524,1403
2073.8419676107865,1388
2075.7626861968406,1404
2077.6829443463607,1508
2079.6027423308715,1405
2081.522080421977,1418
2083.440958891362,1399
2085.359378010786,1439
2087.2773380520907,1463
2089.194839287196,1380
2091.111881988101,1438
2093.0284664268825,1453
2094.9445928756973,1366
2096.86026160678,1406
2098.775472892446,1404
2100.690227005088,1417
2102.604524217178,1404
2104.5183648012676,1469
2106.431749029985,1444
2108.34467717604,1393
2110.2571495122206,1436
2112.169166311393,1403
2114.080727846503,1419
2115.9918343905747,1399
2117.902486216711,1401
2119.8126835980956,1402
2121.722426807987,1459
2123.6317161197285,1460
2125.5405518067364,1419
2127.448934142509,1488
2129.356863400624,1409
2131.264339854737,1508
2133.1713637785815,1498
2135.077935445972,1420
2136.9840551308002,1429
2138.889723107037,1452
2140.7949396487334,1438
2142.699705030018,1413
2144.6040195250994,1391
2146.507883408264,1486
2148.4112969538774,1458
2150.3142604363848,1454
2152.2167741303097,1482
2154.1188383102535,1499
2156.0204532508997,1434
2157.9216192270064,1447
2159.822336513414,1459
2161.7226053850413,1399
2163.622426116884,1450
2165.5217989840185,1458
2167.4207242616,1479
2169.319202224862,1435
2171.2172331491165,1474
2173.1148173097563,1483
2175.0119549822507,1515
2176.90864644215,1506
2178.8048919650823,1495
2180.7006918267534,1478
2182.596046302952,1453
2184.4909556695407,1497
2186.3854202024645,1497
2188.279440177746,1551
2190.173015871487,1462
2192.066147559868,1431
2193.958835519149,1485
2195.851080025667,1476
2197.7428813558417,1498
2199.6342397861667,1479
2201.5251555932186,1523
2203.415629053651,1458
2205.3056604441986,1492
2207.19525004167,1525
2209.084398122958,1525
2210.9731049650327,1494
2212.861370844941,1460
2214.749196039812,1510
2216.636580826851,1476
2218.523525483344,1485
2220.410030286655,1544
2222.296095514226,1523
2224.1817214435805,1486
2226.066908352319,1522
2227.951656518121,1487
2229.835966218746,1505
2231.71983773203,1515
2233.6032713358913,1556
2235.486267308324,1500
2237.3688259274036,1498
2239.2509474712824,1531
2241.132632218193,1482
2243.013880446447,1532
2244.8946924344323,1530
2246.7750684606203,1460
2248.6550088035574,1473
2250.534513741871,1506
2252.413583554265,1588
2254.292218519526,1568
2256.170418916517,1509
2258.0481850241786,1539
2259.925517121534,1492
2261.8024154876825,1527
2263.678880401803,1520
2265.5549121431536,1580
2267.430510991071,1492
2269.305677224971,1487
2271.180411124348,1505
2273.0547129687766,1452
2274.9285830379076,1525
2276.8020216114737,1514
2278.6750289692845,1447
2280.5476053912294,1567
2282.4197511572766,1556
2284.2914665474727,1521
2286.162751841943,1591
2288.0336073208937,1594
2289.904033264608,1537
2291.774029953448,1570
2293.6435976678554,1536
2295.5127366883517,1524
2297.381447295534,1472
2299.2497297700825,1417
2301.1175843927526,1385
2302.9850114443825,1380
2304.852011205885,1276
2306.7185839582553,1297
2308.5847299825664,1288
2310.4504495599676,1308
2312.3157429716925,1295
2314.1806104990483,1230
2316.0450524234247,1244
2317.9090690262888,1271
2319.772660589186,1286
2321.635827393742,1276
2323.498569721661,1270
2325.3608878547248,1283
2327.2227820747967,1289
2329.0842526638157,1226
2330.945299903803,1204
2332.805924076857,1231
2334.6661254651535,1283
2336.525904350951,1276
2338.3852610165827,1216
2340.244195744464,1213
2342.102708817088,1187
2343.9608005170253,1209
2345.8184711269287,1229
2347.675720929526,1215
2349.532550207628,1213
2351.38895924412,1240
2353.24494832197,1280
2355.100517724223,1225
2356.955667734004,1233
2358.810398634514,1254
2360.664710709037,1228
2362.5186042409337,1268
2364.3720795136437,1254
2366.225136810686,1279
2368.0777764156583,1268
2369.929998612237,1234
2371.7818036841777,1230
2373.633191915315,1257
2375.484163589562,1221
2377.3347189909114,1227
2379.184858403434,1210
2381.03458211128,1246
2382.8838903986775,1255
2384.732783549936,1274
2386.5812618494406,1308
2388.4293255816588,1280
2390.2769750311327,1240
2392.1242104824883,1205
2393.971032220427,1167
2395.8174405297295,1265
2397.6634356952563,1218
2399.509018001947,1260
2401.3541877348193,1224
2403.1989451789705,1246
2405.043290619576,1180
2406.8872243418905,1216
2408.730746631247,1274
2410.5738577730594,1285
2412.4165580528183,1269
2414.258847756095,1226
2416.100727168537,1243
2417.9421965758734,1242
2419.783256263912,1239
2421.623906518538,1274
2423.4641476257157,1258
2425.303979871491,1269
2427.143403541984,1309
2428.9824189233977,1252
2430.821026302012,1203
2432.6592259641866,1255
2434.497018196361,1299
2436.33440328505,1278
2438.171381516851,1275
2440.00795317844,1265
2441.844118556569,1233
2443.6798779380724,1253
2445.5152316098606,1228
2447.3501798589255,1255
2449.1847229723357,1223
2451.0188612372403,1300
2452.8525949408663,1230
2454.6859243705203,1248
2456.518849813587,1234
2458.3513715575314,1235
2460.183489889895,1221
2462.015205098301,1254
2463.8465174704493,1250
2465.67742729412,1251
2467.5079348571717,1267
2469.338040447542,1299
2471.1677443532476,1178
2472.9970468623833,1297
2474.825948263123,1260
2476.6544488437207,1242
2478.482548892508,1257
2480.310248697896,1273
2482.137548548374,1230
2483.9644487325118,1254
2485.790949538956,1250
2487.617051256433,1265
2489.44275417375,1278
2491.26805857979,1249
2493.0929647635157,1237
2494.917473013971,1259
2496.741583620276,1223
2498.5652968716304,1166
2500.3886130573137,1233
2502.2115324666834,1300
2504.0340553891765,1236
2505.856182114308,1261
2507.6779129316733,1269
2509.499248130945,1218
2511.3201880018764,1286
2513.140732834298,1224
2514.9608829181198,1236
2516.780638543331,1184
2518.6,1237
2520.418967578273,1246
2522.237541568376,1237
2524.0557222606144,1196
2525.8735099453706,1294
2527.6909049131086,1215
2529.507907454368,1306
2531.32451785977,1237
2533.140736420014,1231
2534.9565634258774,1221
2536.771999168218,1253
2538.5870439379714,1286
2540.4016980261526,1240
2542.2159617238544,1197
2544.02983532225,1244
2545.8433191125914,1251
2547.656413386209,1292
2549.4691184345115,1212
2551.2814345489874,1232
2553.093362021204,1227
2554.904901142808,1255
2556.716052205523,1226
2558.526815501153,1267
2560.3371913215824,1261
2562.147179958771,1230
2563.956781704761,1260
2565.7659968516705,1197
2567.5748256916986,1208
2569.3832685171224,1267
2571.1913256202984,1238
2572.9989972936614,1279
2574.806283829725,1191
2576.613185521084,1236
2578.4197026604074,1206
2580.2258355404483,1218
2582.031584454035,1255
2583.836949694077,1240
2585.6419315535613,1222
2587.4465303255533,1184
2589.2507463032002,1270
2591.0545797797245,1247
2592.8580310484303,1214
2594.6611004026995,1245
2596.463788135992,1254
2598.266094541849,1273
2600.0680199138874,1230
2601.869564545807,1224
2603.670728731383,1236
2605.4715127644704,1222
2607.2719169390048,1231
2609.071941548998,1270
2610.8715868885433,1228
2612.670853251811,1280
2614.469740933052,1311
2616.268250226594,1264
2618.0663814268455,1191
2619.864134828292,1208
2621.6615107255006,1297
2623.458509413115,1218
2625.2551311858597,1214
2627.0513763385347,1216
2628.8472451660223,1192
2630.6427379632833,1252
2632.4378550253564,1262
2634.232596647359,1233
2636.026963124488,1222
2637.8209547520187,1227
2639.6145718253065,1265
2641.407814639785,1269
2643.200683490966,1259
2644.9931786744414,1217
2646.7853004858807,1204
2648.577049221034,1328
2650.3684251757277,1243
2652.1594286458712,1247
2653.9500599274484,1267
2655.740319316525,1228
2657.5302071092437,1204
2659.3197236018286,1213
2661.10886909058,1260
2662.8976438718782,1302
2664.686048242183,1241
2666.4740824980327,1260
2668.2617469360443,1234
2670.0490418529134,1310
2671.8359675454153,1205
2673.622524310403,1230
2675.408712444811,1226
2677.1945322456495,1218
2678.979984010009,1256
2680.76506803506,1175
2682.5497846180497,1222
2684.334134056306,1235
2686.1181166472343,1183
2687.9017326883213,1190
2689.6849824771293,1233
2691.4678663113013,1256
2693.2503844885596,1276
2695.032537306705,1211
2696.8143250636167,1209
2698.5957480572542,1246
2700.3768065856534,1260
2702.1575009469316,1288
2703.937831439283,1273
2705.717798360982,1201
2707.4974020103837,1235
2709.276642685917,1208
2711.055520686095,1247
2712.834036309506,1220
2714.612189854819,1174
2716.389981620782,1235
2718.1674119062204,1234
2719.944481010041,1242
2721.721189231226,1238
2723.4975368688415,1224
2725.273524222027,1290
2727.0491515900053,1277
2728.824419272075,1238
2730.5993275676146,1241
2732.3738767760838,1272
2734.148067197016,1295
2735.921899130031,1250
2737.6953728748194,1223
2739.468488731156,1223
2741.2412469988926,1303
2743.0136479779617,1223
2744.785691968372,1191
2746.5573792702116,1292
2748.3287101836504,1237
2750.099685008934,1273
2751.870304046388,1277
2753.640567596418,1212
2755.4104759595057,1226
2757.1800294362156,1246
2758.949228327187,1252
2760.7180729331412,1267
2762.486563554877,1265
2764.254700493272,1261
2766.022484049284,1212
2767.789914523947,1246
2769.5569922183786,1251
2771.3237174337705,1239
2773.090090471394,1258
2774.8561116326036,1288
2776.6217812188274,1278
2778.3870995315756,1258
2780.1520668724356,1234
2781.9166835430747,1280
2783.6809498452394,1249
2785.444866080754,1202
2787.2084325515225,1213
2788.971649559527,1276
2790.73451740683,1278
2792.4970363955713,1215
2794.2592068279705,1248
2796.0210290063264,1223
2797.7825032330147,1245
2799.543629810493,1231
2801.304409041296,1275
2803.0648412280366,1250
2804.8249266734088,1233
2806.5846656801846,1252
2808.344058551212,1266
2810.1031055894246,1239
2811.8618070978273,1283
2813.6201633795085,1246
2815.378174737636,1253
2817.1358414754536,1259
2818.893163896285,1220
2820.6501423035334,1243
2822.4067770006814,1205
2824.1630682912883,1229
2825.9190164789957,1236
2827.6746218675207,1250
2829.429884760661,1239
2831.184805462294,1273
2832.9393842763743,1262
2834.693621506936,1304
2836.4475174580916,1271
2838.201072434034,1248
2839.954286739034,1228
2841.707160677441,1251
2843.459694553685,1288
2845.2118886722724,1254
2846.96374333779,1257
2848.7152588549034,1272
2850.4664355283567,1309
2852.217273662973,1321
2853.9677735636546,1287
2855.7179355353833,1235
2857.4677598832186,1305
2859.217246912299,1265
2860.9663969278427,1290
2862.715210235146,1222
2864.4636871395846,1267
2866.211827946614,1234
2867.9596329617652,1277
2869.7071024906536,1233
2871.4542368389684,1262
2873.20103631248,1246
2874.947501217038,1295
2876.6936318585695,1197
2878.4394285430812,1287
2880.1848915766604,1295
2881.9300212654707,1244
2883.6748179157553,1276
2885.4192818338374,1210
2887.1634133261173,1318
2888.907212699077,1219
2890.6506802592744,1242
2892.393816313348,1255
2894.1366211680142,1230
2895.8790951300693,1294
2897.621238506388,1279
2899.363051603925,1303
2901.1045347297118,1267
2902.8456881908596,1268
2904.58651229456,1306
2906.327007348081,1282
2908.067173658772,1298
2909.8070115340597,1299
2911.5465212814497,1210
2913.285703208527,1231
2915.0245576229563,1327
2916.7630848324807,1307
2918.5012851449196,1219
2920.2391588681758,1207
2921.976706310227,1240
2923.7139277791334,1264
2925.4508235830313,1262
2927.187394030137,1299
2928.923639428745,1252
2930.6595600872306,1252
2932.395156314046,1276
2934.1304284177218,1251
2935.8653767068713,1286
2937.6000014901815,1269
2939.3343030764227,1334
2941.068281774442,1248
2942.8019378931644,1315
2944.5352717415976,1284
2946.2682836288236,1252
2948.0009738640065,1335
2949.7333427563885,1254
2951.465390615289,1252
2953.1971177501086,1227
2954.9285244703265,1300
2956.6596110855,1291
2958.3903779052657,1329
2960.1208252393385,1333
2961.8509533975125,1259
2963.5807626896617,1210
2965.3102534257378,1208
2967.0394259157715,1220
2968.768280469873,1245
2970.496817398232,1263
2972.2250370111146,1305
2973.952939618869,1225
2975.6805255319196,1276
2977.4077950607707,1285
2979.134748516006,1283
2980.861386208289,1287
2982.587708448359,1246
2984.313715547037,1215
2986.039407815222,1231
2987.764785563891,1278
2989.489849104102,1255
2991.2145987469908,1281
2992.9390348037705,1236
2994.6631575857346,1246
2996.3869674042576,1259
2998.1104645707887,1307
2999.83364939686,1271
3001.5565221940783,1262
3003.2790832741334,1217
3005.0013329487924,1240
3006.7232715298996,1299
3008.4448993293804,1188
3010.166216659239,1240
3011.887223831558,1253
3013.607921158498,1269
3015.3283089522993,1245
3017.0483875252826,1277
3018.7681571898443,1270
3020.4876182584626,1260
3022.2067710436927,1213
3023.9256158581707,1255
3025.644153014609,1236
3027.362382825801,1221
3029.0803056046193,1196
3030.797921664012,1250
3032.5152313170106,1252
3034.2322348767225,1215
3035.9489326563353,1270
3037.665324969115,1247
3039.3814121284063,1190
3041.097194447633,1210
3042.812672240299,1220
3044.5278458199855,1203
3046.2427155003525,1224
3047.9572815951406,1277
3049.671544418167,1251
3051.38550428333,1267
3053.0991615046073,1209
3054.812516396051,1211
3056.5255692717974,1261
3058.2383204460575,1287
3059.9507702331257,1198
3061.662918947372,1253
3063.3747669032446,1233
3065.0863144152736,1244
3066.7975617980674,1254
3068.508509366309,1195
3070.219157434767,1255
3071.9295063182844,1224
3073.639556331785,1223
3075.3493077902704,1238
3077.058761008821,1263
3078.7679163025964,1260
3080.476773986837,1255
3082.1853343768594,1278
3083.89359778806,1275
3085.6015645359153,1214
3087.3092349359786,1211
3089.016609303884,1224
3090.7236879553434,1282
3092.4304712061476,1215
3094.136959372166,1209
3095.843152769349,1219
3097.5490517137237,1238
3099.2546565213966,1229
3100.959967508554,1258
3102.66498499146,1215
3104.3697092864577,1234
3106.0741407099695,1230
3107.778279578498,1256
3109.482126208622,1223
3111.1856809170004,1315
3112.8889440203716,1278
3114.5919158355528,1249
3116.294596679439,1204
3117.996986869006,1264
3119.6990867213062,1265
3121.4008965534726,1260
3123.102416682717,1234
3124.803647426329,1223
3126.5045891016784,1279
3128.205242026213,1288
3129.90560651746,1297
3131.605682893025,1301
3133.3054714705922,1251
3135.0049725679282,1287
3136.7041865028714,1282
3138.4031135933465,1243
3140.101754157353,1220
3141.800108512971,1235
3143.498176978357,1221
3145.1959598717494,1276
3146.8934575114636,1219
3148.5906702158954,1219
3150.2875983035183,1225
3151.9842420928853,1228
3153.680601902627,1228
3155.376678051456,1201
3157.07247085816,1183
3158.767980641609,1184
3160.463207720748,1207
3162.158152414606,1169
3163.8528150422862,1211
3165.5471959229726,1211
3167.2412953759303,1224
3168.9351137204976,1229
3170.628651276098,1174
3172.3219083622307,1186
3174.014885298474,1236
3175.707582404485,1234
3177.4000000000005,1235
3179.092138404835,1209
3180.7839979388846,1239
3182.47557892212,1221
3184.166881674594,1248
3185.8579065164386,1250
3187.5486537678626,1246
3189.2391237491547,1234
3190.9293167806827,1213
3192.6192331828934,1232
3194.3088732763117,1232
3195.998237381542,1231
3197.687325819268,1227
3199.376138910251,1247
3201.064676975334,1245
3202.7529403354347,1223
3204.4409293115523,1183
3206.1286442247647,1259
3207.816085396229,1201
3209.5032531471825,1174
3211.190147798936,1211
3212.8767696728846,1176
3214.5631190905015,1206
3216.2491963733373,1205
3217.9350018430214,1224
3219.6205358212637,1228
3221.305798629851,1228
3222.990790590651,1171
3224.6755120256103,1225
3226.359963256751,1194
3228.0441446061795,1185
3229.7280563960758,1245
3231.411698948703,1194
3233.0950725863995,1193
3234.778177631587,1232
3236.461014406761,1227
3238.1435832345005,1240
3239.8258844374595,1259
3241.507918338374,1261
3243.1896852600576,1249
3244.8711855254023,1193
3246.552419457381,1270
3248.233387379042,1237
3249.914089613516,1223
3251.59452648401,1301
3253.274698313813,1240
3254.95460542629,1216
3256.6342481448855,1256
3258.313626793125,1222
3259.9927416946084,1197
3261.6715931730196,1178
3263.3501815521176,1204
3265.0285071557437,1211
3266.706570307815,1212
3268.3843713323286,1170
3270.0619105533615,1211
3271.739188295068,1258
3273.4162048816834,1246
3275.0929606375184,1280
3276.769455886966,1241
3278.445690954498,1289
3280.1216661646613,1243
3281.797381842087,1264
3283.4728383114807,1260
3285.1480358976296,1233
3286.8229749253996,1225
3288.4976557197333,1218
3290.172078605655,1229
3291.846243908266,1159
3293.5201519527463,1208
3295.193803064357,1211
3296.8671975684374,1207
3298.5403357904024,1174
3300.21321805575,1216
3301.8858446900567,1203
3303.558216018975,1213
3305.23033236824,1252
3306.9021940636603,1221
3308.57380143113,1217
3310.2451547966184,1234
3311.916254486174,1187
3313.5871008259246,1258
3315.2576941420766,1262
3316.9280347609147,1277
3318.5981230088046,1246
3320.2679592121895,1223
3321.9375436975924,1260
3323.606876791612,1256
3325.27595882093,1192
3326.944790112305,1209
3328.6133709925753,1210
3330.2817017886573,1200
3331.949782827547,1196
3333.617614436319,1262
3335.2851969421245,1212
3336.952530672199,1212
3338.619615953853,1196
3340.286453114475,1219
3341.9530424815357,1211
3343.619384382583,1289
3345.2854791452437,1202
3346.951327097224,1252
3348.6169285663073,1179
3350.2822838803577,1271
3351.947393367319,1196
3353.61225735521,1233
3355.2768761721345,1229
3356.9412501462693,1206
3358.605379605873,1203
3360.2692648792827,1200
3361.9329062949146,1256
3363.596304181263,1203
