CollectionTime,7/11/2024 12:59:51 PM
ExposureUsed,3
CalibratedSpectrum
-962.7078968117929,500
-959.9714848408522,516
-957.2358232597828,535
-954.5009119013725,542
-951.7667505983302,573
-949.0333391832855,541
-946.3006774887896,536
-943.5687653473143,543
-940.837602591253,556
-938.1071890529199,603
-935.3775245645503,543
-932.6486089583007,557
-929.9204420662485,571
-927.1930237203925,539
-924.4663537526524,544
-921.7404319948689,546
-919.0152582788041,535
-916.2908324361409,620
-913.5671542984834,535
-910.8442236973568,567
-908.1220404642074,543
-905.4006044304027,579
-902.679915427231,561
-899.959973285902,529
-897.2407778375464,543
-894.5223289132158,549
-891.8046263438832,583
-889.0876699604426,550
-886.3714595937089,545
-883.6559950744183,558
-880.9412762332282,542
-878.2273029007168,518
-875.5140749073835,525
-872.8015920836489,535
-870.0898542598545,550
-867.3788612662631,514
-864.6686129330585,506
-861.9591090903457,528
-859.2503495681506,533
-856.5423341964203,550
-853.8350628050229,531
-851.1285352237478,527
-848.4227512823054,511
-845.7177108103272,541
-843.0134136373656,547
-840.3098595928943,549
-837.6070485063082,557
-834.9049802069229,544
-832.2036545239757,529
-829.5030712866244,523
-826.8032303239481,523
-824.1041314649472,538
-821.4057745385428,545
-818.7081593735775,551
-816.0112857988148,565
-813.3151536429393,561
-810.6197627345566,528
-807.9251129021936,553
-805.2312039742981,544
-802.5380357792392,528
-799.8456081453069,537
-797.1539209007124,551
-794.462973873588,546
-791.772766891987,555
-789.083299783884,531
-786.3945723771743,531
-783.7065844996748,554
-781.0193359791231,533
-778.3328266431781,564
-775.6470563194197,536
-772.9620248353489,541
-770.2777320183878,516
-767.5941776958798,548
-764.9113616950891,557
-762.2292838432011,568
-759.5479439673222,563
-756.8673418944801,559
-754.1874774516235,555
-751.5083504656222,562
-748.8299607632671,556
-746.15230817127,580
-743.475392516264,573
-740.7992136248035,567
-738.1237713233636,563
-735.4490654383407,578
-732.7750957960521,562
-730.1018622227365,596
-727.4293645445534,565
-724.7576025875837,559
-722.0865761778291,551
-719.4162851412126,588
-716.7467293035781,585
-714.0779084906909,607
-711.409822528237,630
-708.7424712418238,580
-706.0758544569796,606
-703.4099719991541,591
-700.7448236937178,596
-698.0804093659622,612
-695.4167288411002,587
-692.7537819442656,610
-690.0915685005134,586
-687.4300883348199,590
-684.7693412720819,600
-682.1093271371178,613
-679.4500457546669,622
-676.7914969493897,620
-674.1336805458676,610
-671.4765963686034,618
-668.8202442420206,607
-666.1646239904642,636
-663.5097354382001,624
-660.8555784094151,612
-658.2021527282176,633
-655.5494582186366,625
-652.8974947046223,623
-650.2462620100463,623
-647.5957599587009,641
-644.9459883742998,626
-642.2969470804776,642
-639.6486359007902,643
-637.0010546587141,656
-634.3542031776476,654
-631.7080812809096,665
-629.0626887917401,654
-626.4180255333008,659
-623.7740913286734,644
-621.1308860008619,653
-618.4884093727904,664
-615.8466612673046,673
-613.2056415071715,647
-610.5653499150785,646
-607.9257863136347,627
-605.28695052537,663
-602.6488423727357,648
-600.0114616781036,627
-597.3748082637674,611
-594.7388819519412,662
-592.1036825647604,692
-589.4692099242818,712
-586.8354638524829,655
-584.2024441712624,650
-581.5701507024403,677
-578.9385832677575,637
-576.3077416888759,652
-573.6776257873787,669
-571.0482353847704,637
-568.4195703024757,643
-565.7916303618415,632
-563.164415384135,674
-560.5379251905453,658
-557.9121596021815,661
-555.2871184400748,646
-552.6628015251767,700
-550.0392086783606,661
-547.4163397204204,677
-544.794194472071,643
-542.1727727539491,688
-539.5520743866118,696
-536.9320991905377,717
-534.3128469861261,727
-531.6943175936979,731
-529.0765108334947,747
-526.4594265256793,761
-523.8430644903358,872
-521.2274245474689,951
-518.612506517005,1012
-515.9983102187913,958
-513.3848354725959,1026
-510.77208209810846,1106
-508.16004991493924,1165
-505.5487387426199,1291
-502.9381484006032,1424
-500.3282787082628,1391
-497.71912948489364,1322
-495.1107005497117,1224
-492.5029917218539,1139
-489.8960028203786,1034
-487.28973366426493,933
-484.68418407241325,899
-482.07935386364494,891
-479.47524285670266,837
-476.87185087025,795
-474.2691777228715,787
-471.66722323307334,832
-469.0659872192821,822
-466.4654694998459,809
-463.86566989303384,869
-461.26658821703614,819
-458.66822428996414,819
-456.07057792985,812
-453.4736489546475,822
-450.877437182231,813
-448.28194243039627,799
-445.68716451686,818
-443.09310325926003,819
-440.49975847515555,825
-437.9071299820263,805
-435.31521759727354,834
-432.72402113821954,812
-430.13354042210767,844
-427.5437752661022,837
-424.95472548728867,862
-422.36639090267386,869
-419.7787713291855,871
-417.1918665836721,910
-414.60567648290385,905
-412.0202008435715,890
-409.4354394822874,909
-406.8513922155845,909
-404.26805885991723,879
-401.685439231661,891
-399.103533147112,911
-396.522340422488,896
-393.9418608739278,861
-391.3620943174908,845
-388.7830405691583,810
-386.2046994448317,788
-383.6270707603344,791
-381.05015433141045,722
-378.473949973725,662
-375.8984575028645,652
-373.32367673433623,645
-370.74960748356875,588
-368.1762495659117,553
-365.60360279663576,530
-363.03166699093265,497
-360.4604419639154,481
-357.8899275306178,447
-355.32012350599507,457
-352.7510297049233,479
-350.1826459421999,426
-347.61497203254316,419
-345.04800779059235,419
-342.4817530309082,430
-339.91620756797226,446
-337.35137121618743,458
-334.7872437898774,474
-332.22382510328725,469
-329.66111497058273,461
-327.09911320585127,432
-324.53781962310075,441
-321.9772340362607,452
-319.4173562591816,433
-316.8581861056348,433
-314.2997233893127,421
-311.7419679238294,430
-309.1849195227194,453
-306.62857799943856,478
-304.0729431673641,484
-301.51801483979375,474
-298.963792829947,478
-296.41027695096386,464
-293.85746701590574,500
-291.3053628377552,488
-288.7539642294155,521
-286.2032710037115,503
-283.65328297338897,469
-281.1039999511146,479
-278.5554217494762,521
-276.007548180983,514
-273.4603790580651,478
-270.9139141930734,478
-268.3681533982807,471
-265.8230964858798,486
-263.27874326798565,542
-260.7350935566336,511
-258.1921471637804,537
-255.6499039013039,484
-253.10836358100266,500
-250.56752601459698,536
-248.02739101372765,547
-245.48795838995704,563
-242.94922795476816,538
-240.41119951956557,512
-237.8738728956746,532
-235.33724789434166,573
-232.80132432673452,520
-230.2661020039418,515
-227.73158073697357,552
-225.19776033676033,559
-222.66464061415422,547
-220.1322213799284,509
-217.60050244477725,509
-215.06948361931552,523
-212.53916471408013,573
-210.00954553952818,555
-207.48062590603843,567
-204.9524056239104,590
-202.4248845033651,604
-199.8980623545441,588
-197.37193898751036,603
-194.84651421224817,591
-192.32178783866232,632
-189.79775967657952,602
-187.27442953574644,651
-184.7517972258321,665
-182.2298625564256,677
-179.7086253370378,667
-177.18808537710026,640
-174.66824248596583,636
-172.14909647290835,596
-169.6306471471229,716
-167.11289431772548,726
-164.59583779375328,682
-162.07947738416453,688
-159.5638128978386,732
-157.04884414357605,776
-154.53457093009854,801
-152.02099306604828,734
-149.50811035998936,602
-146.99592262040665,661
-144.48442965570587,662
-141.97363127421409,726
-139.46352728417958,814
-136.95411749377126,737
-134.44540171107985,720
-131.93737974411636,699
-129.43005140081357,655
-126.92341648902493,770
-124.41747481652521,972
-121.91222619101006,1150
-119.40767042009657,1376
-116.90380731132257,1560
-114.40063667214702,1498
-111.8981583099503,1438
-109.3963720320337,1142
-106.89527764561933,1097
-104.39487495785067,1223
-101.89516377579241,1777
-99.39614390642998,2118
-96.89781515667039,2247
-94.40017733334128,1925
-91.90323024319173,2043
-89.40697369289148,2969
-86.91140748903172,5070
-84.41653143812482,5462
-81.92234534660395,3765
-79.42884902082358,2648
-76.93604226705907,4332
-74.4439248915071,9290
-71.95249670028534,15153
-69.46175749943245,20758
-66.97170709490854,20845
-64.48234529259423,17552
-61.99367189829195,13647
-59.50568671772464,12392
-57.01838955653636,10159
-54.53178022029283,7243
-52.045858514480074,6443
-49.560624244506016,7189
-47.07607721569923,7888
-44.59221723330904,8215
-42.10904410250669,8679
-39.62655762838392,7960
-37.14475761595372,7059
-34.66364387015028,6643
-32.18321619582866,7099
-29.70347439776515,7280
-27.224418280657005,6936
-24.74604764912317,7397
-22.26836230770266,10300
-19.7913620608565,18176
-17.315046712966478,31924
-14.83941606833514,42206
-12.36446993118659,65039
-9.89020810566592,65039
-7.416630395839093,65039
-4.94373660569363,65039
-2.471526539137585,65039
-6.821210263296962E-13,65039
2.47084320796705,65039
4.941003281093458,65039
7.410480415786196,65039
9.879274808531363,65039
12.347386655893956,65039
14.814816154518212,65039
17.28156350112681,65039
19.74762889252179,65039
22.21301252558385,20880
24.67771459727237,3879
27.141735304626195,2178
29.605074844762612,1988
32.06773341487792,2037
34.52971121224755,1854
36.99100843422559,2086
39.45162527824516,1965
41.91156194181792,1403
44.370818622535126,1161
46.82939551806646,1070
49.287292826160524,1263
51.74451074464503,1559
54.201049471426245,1610
56.65690920448981,1293
59.112090141899785,1200
61.56659248179983,1130
64.02041642241159,960
66.4735621620365,976
68.92602989905402,907
71.37781983192338,970
73.82893215918205,986
76.27936707944684,1023
78.72912479141326,1005
81.17820549385567,1038
83.62660938562783,1137
86.07433666566146,1178
88.5213875329681,918
90.96776218663751,825
93.41346082583925,743
95.85848364982041,807
98.30283085790859,944
100.7465026495089,926
103.18949922410604,913
105.63182078126385,873
108.07346752062438,865
110.51443964190923,738
112.95473734491827,673
115.39436082953114,783
117.83331029570547,814
120.27158594347827,744
122.7091879729652,824
125.1461165843615,881
127.58237197794062,775
130.01795435405518,701
132.4528639131364,678
134.88710085569494,730
137.32066538231982,706
139.75355769367923,698
142.1857779905207,687
144.61732647366978,714
147.04820334403132,754
149.47840880258934,728
151.90794305040674,815
154.33680628862487,901
156.76499871846443,1155
159.19252054122433,1159
161.61937195828352,1278
164.04555317109896,1344
166.47106438120693,1533
168.89590579022217,1747
171.320077599839,1840
173.7435800118302,1950
176.16641322804742,2026
178.58857745042144,2175
181.01007288096173,2206
183.43089972175687,2281
185.85105817497413,2115
188.27054844285988,2243
190.6893707277394,2280
193.10752523201643,2309
195.5250121581745,2320
197.9418317087751,2359
200.3579840864594,2268
202.7734694939469,2385
205.18828813403627,2384
207.6024402096051,2487
210.01592592360964,2535
212.42874547908548,2483
214.84089907914665,2431
217.2523869269868,2414
219.66320922587727,2396
222.0733661791695,2317
224.48285799029293,2399
226.8916848627572,2490
229.29984700014882,2413
231.7073446061355,2529
234.11417788446204,2523
236.520347038953,2601
238.92585227351185,2626
241.33069379212054,2588
243.73487179884035,2743
246.1383864978112,2764
248.541238093252,2791
250.9434267894609,2777
253.34495279081432,2908
255.74581630176783,2857
258.1460175268563,2836
260.54555667069314,2886
262.9444339379703,2858
265.3426495334594,2895
267.7402036620107,2694
270.1370965285529,2680
272.53332833809407,2591
274.9288992957214,2447
277.32380960660055,2371
279.718059475976,2374
282.1116491091717,2373
284.5045787115897,2356
286.89684848871195,2230
289.2884586460981,2311
291.67940938938807,2243
294.0697009242996,2277
296.4593334566299,2265
298.84830719225477,2201
301.23662233712923,2280
303.6242790972866,2269
306.01127767884,2201
308.39761828798066,2172
310.78330113097934,2124
313.16832641418534,2101
315.5526943440269,2059
317.9364051270112,2157
320.3194589697242,2096
322.70185607883093,2131
325.0835966610754,2123
327.4646809232805,2072
329.8451090723478,1993
332.2248813152577,1893
334.6039978590701,1969
336.9824589109231,1950
339.36026467803447,1979
341.7374153677,1911
344.113911187295,1844
346.48975234427337,1944
348.8649390461686,1976
351.2394715005918,1928
353.61334991523415,1936
355.9865744978655,1913
358.35914545633375,1867
360.73106299856715,1949
363.10232733257146,1893
365.47293866643247,1873
367.84289720831396,1826
370.2122031664593,1880
372.5808567491905,1922
374.9488581649083,1814
377.31620762209275,1818
379.6829053293021,1836
382.0489514951745,1775
384.4143463284262,1740
386.7790900378528,1777
389.14318283232853,1742
391.50662492080653,1783
393.86941651231916,1807
396.23155781597745,1814
398.5930490409713,1755
400.9538903965696,1779
403.3140820921202,1744
405.6736243370498,1674
408.03251734086336,1806
410.3907613131465,1720
412.74835646356166,1788
415.10530300185144,1746
417.4616011378372,1789
419.81725108141893,1685
422.1722530425758,1697
424.5266072313656,1735
426.880313857925,1696
429.2333731324701,1712
431.58578526529516,1710
433.9375504667738,1702
436.2886689473588,1681
438.63914091758113,1713
440.9889665880513,1659
443.33814616945835,1613
445.68667987257015,1715
448.03456790823395,1608
450.3818104873759,1667
452.72840782100013,1658
455.07436012019105,1719
457.41966759611057,1650
459.7643304600007,1688
462.10834892318155,1673
464.4517231970525,1592
466.79445349309174,1678
469.1365400228566,1758
471.4779829979826,1685
473.81878263018564,1719
476.15893913125876,1703
478.4984527130747,1713
480.8373235875855,1836
483.17555196682144,1791
485.5131380628919,1756
487.8500820879857,1879
490.1863842543697,1851
492.52204477439034,2035
494.8570638604725,2224
497.1914417251204,2355
499.52517858091653,2668
501.85827464052306,2858
504.19073011668036,3012
506.5225452222086,3046
508.85372017000566,2977
511.18425517304956,2996
513.514150444396,2928
515.8434061971808,3412
518.1720226446176,3960
520.4999999999999,4064
522.8273384766991,3827
525.1540382881666,3410
527.480099647932,3121
529.8055227696037,2643
532.1303078668694,2190
534.454455153496,1886
536.777964843328,1826
539.1008371502907,1815
541.4230722883866,1728
543.744670471698,1681
546.0656319143858,1727
548.3859568306899,1697
550.7056454349294,1650
553.0246979415016,1731
555.3431145648834,1651
557.6608955196306,1660
559.978041020377,1615
562.2945512818363,1689
564.6104265188006,1707
566.9256669461412,1650
569.2402727788082,1651
571.5542442318302,1683
573.8675815203156,1704
576.1802848594508,1719
578.4923544645015,1748
580.8037905508126,1712
583.114593333807,1762
585.4247630289875,1723
587.7342998519354,1648
590.0432040183106,1745
592.3514757438526,1685
594.6591152443794,1742
596.9661227357875,1717
599.2724984340531,1681
601.578242555231,1771
603.8833553154542,1725
606.1878369309362,1693
608.4916876179676,1697
610.7949075929192,1774
613.0974970722403,1711
615.3994562724587,1678
617.7007854101818,1615
620.0014847020951,1720
622.3015543649641,1766
624.6009946156324,1798
626.8998056710224,1775
629.1979877481361,1668
631.4955410640538,1754
633.7924658359349,1793
636.0887622810175,1706
638.3844306166192,1755
640.6794710601358,1800
642.9738838290426,1847
645.2676691408932,1752
647.5608272133207,1730
649.853358264037,1810
652.1452625108324,1784
654.4365401715764,1810
656.7271914642178,1841
659.0172166067838,1785
661.3066158173809,1714
663.5953893141935,1828
665.8835373154867,1760
668.1710600396028,1833
670.4579577049639,1723
672.7442305300709,1740
675.0298787335033,1920
677.3149025339197,1798
679.599302150058,1843
681.8830778007342,1811
684.1662297048437,1767
686.4487580813608,1788
688.7306631493387,1817
691.0119451279091,1768
693.2926042362834,1784
695.5726406937516,1891
697.8520547196814,1835
700.1308465335215,1762
702.4090163547982,1836
704.6865644031171,1800
706.9634908981619,1709
709.2397960596965,1747
711.5154801075631,1752
713.7905432616823,1810
716.0649857420548,1753
718.3388077687592,1817
720.612009561953,1796
722.8845913418733,1782
725.1565533288352,1756
727.427895743234,1746
729.6986188055427,1772
731.9687227363137,1738
734.238207756178,1780
736.5070740858458,1760
738.7753219461066,1741
741.0429515578281,1756
743.3099631419569,1689
745.5763569195191,1824
747.8421331116193,1811
750.1072919394409,1764
752.3718336242467,1684
754.6357583873777,1727
756.8990664502545,1794
759.1617580343765,1795
761.423833361321,1775
763.6852926527457,1818
765.9461361303862,1778
768.206364016058,1822
770.4659765316536,1767
772.7249738991469,1805
774.9833563405886,1778
777.2411240781092,1752
779.4982773339183,1763
781.7548163303044,1834
784.010741289634,1821
786.2660524343538,1854
788.5207499869881,1862
790.7748341701416,1785
793.0283052064964,1836
795.2811633188143,1824
797.5334087299362,1789
799.7850416627813,1867
802.0360623403484,1802
804.2864709857143,1787
806.5362678220353,1796
808.7854530725468,1844
811.0340269605625,1821
813.2819897094754,1817
815.5293415427581,1768
817.77608268396,1824
820.0222133567116,1862
822.2677337847211,1801
824.5126441917765,1758
826.7569448017433,1805
829.0006358385675,1804
831.2437175262731,1832
833.4861900889629,1815
835.7280537508192,1772
837.9693087361026,1720
840.2099552691533,1814
842.4499935743896,1789
844.689423876309,1880
846.9282463994886,1795
849.1664613685833,1805
851.4040690083276,1846
853.6410695435349,1806
855.877463199097,1809
858.1132501999847,1824
860.3484307712487,1765
862.5830051380175,1795
864.8169735254988,1851
867.0503361589791,1803
869.2830932638243,1839
871.5152450654786,1781
873.7467917894654,1854
875.9777336613873,1758
878.2080709069252,1833
880.4378037518389,1842
882.666932421968,1842
884.8954571432301,1907
887.1233781416219,1886
889.3506956432192,1950
891.5774098741766,1888
893.803521060728,1901
896.0290294291852,1878
898.2539352059397,1863
900.4782386174619,1902
902.7019398903011,1929
904.925039251085,1807
907.147536926521,1873
909.3694331433943,1902
911.59072812857,1854
913.8114221089921,1882
916.0315153116827,1883
918.2510079637437,1851
920.4699002923547,1868
922.6881925247761,1824
924.905884888345,1825
927.1229776104793,1811
929.3394709186747,1783
931.555365040506,1862
933.7706602036275,1833
935.9853566357709,1845
938.1994545647489,1822
940.4129542184515,1868
942.6258558248488,1816
944.8381596119883,1798
947.0498658079974,1762
949.2609746410825,1858
951.4714863395287,1798
953.6814011316998,1736
955.8907192460387,1803
958.0994409110671,1817
960.3075663553858,1770
962.5150958076741,1815
964.7220294966913,1770
966.928367651274,1765
969.1341105003388,1804
971.3392582728806,1808
973.5438111979742,1764
975.747769504772,1725
977.9511334225061,1734
980.153903180487,1773
982.3560790081052,1707
984.5576611348289,1784
986.7586497902058,1701
988.9590452038618,1681
991.158847605503,1689
993.3580572249133,1690
995.5566742919558,1706
997.7546990365728,1666
999.952131688785,1628
1002.1489724786926,1574
1004.3452216364743,1618
1006.5408793923874,1636
1008.7359459767691,1578
1010.9304216200343,1581
1013.1243065526781,1540
1015.3176010052733,1522
1017.510305208472,1586
1019.7024193930064,1568
1021.8939437896848,1508
1024.0848786293977,1516
1026.2752241431122,1527
1028.4649805618747,1555
1030.6541481168115,1574
1032.842727039127,1510
1035.0307175601051,1527
1037.2181199111074,1462
1039.4049343235752,1511
1041.591161029029,1522
1043.7768002590683,1509
1045.9618522453698,1527
1048.1463172196918,1472
1050.3301954138697,1491
1052.513487059818,1514
1054.69619238953,1463
1056.8783116350783,1426
1059.0598450286152,1443
1061.2407928023704,1484
1063.4211551886528,1458
1065.6009324198508,1497
1067.780124728432,1434
1069.9587323469414,1464
1072.1367555080046,1417
1074.314194444325,1466
1076.4910493886855,1469
1078.667320573947,1403
1080.843008233051,1446
1083.0181125990161,1459
1085.1926339049414,1399
1087.3665723840027,1423
1089.5399282694575,1416
1091.7127017946405,1403
1093.8848931929647,1408
1096.0565026979243,1397
1098.2275305430899,1433
1100.3979769621128,1468
1102.567842188722,1384
1104.737126456726,1380
1106.9058300000124,1346
1109.0739530525475,1430
1111.2414958483764,1385
1113.4084586216231,1398
1115.5748416064907,1342
1117.7406450372605,1417
1119.9058691482942,1393
1122.0705141740304,1454
1124.2345803489884,1423
1126.3980679077658,1384
1128.5609770850388,1399
1130.7233081155623,1338
1132.8850612341707,1402
1135.0462366757774,1312
1137.2068346753745,1368
1139.3668554680326,1388
1141.526299288901,1333
1143.68516637321,1347
1145.8434569562655,1331
1148.001171273455,1369
1150.158309560244,1340
1152.3148720521767,1325
1154.470858984876,1350
1156.626270594044,1331
1158.7811071154629,1397
1160.9353687849912,1361
1163.089055838569,1399
1165.242168512213,1338
1167.3947070420209,1417
1169.5466716641677,1317
1171.6980626149075,1385
1173.8488801305748,1341
1175.9991244475814,1320
1178.1487958024186,1385
1180.2978944316555,1403
1182.4464205719428,1353
1184.5943744600072,1392
1186.7417563326567,1320
1188.8885664267755,1329
1191.0348049793297,1333
1193.1804722273619,1380
1195.325568407995,1339
1197.4700937584303,1351
1199.614048515948,1329
1201.7574329179074,1361
1203.900247201746,1331
1206.042491604982,1295
1208.1841663652099,1319
1210.3252717201053,1369
1212.465807907422,1386
1214.6057751649923,1407
1216.7451737307279,1345
1218.8840038426192,1363
1221.0222657387353,1341
1223.1599596572241,1351
1225.2970858363137,1312
1227.4336445143094,1373
1229.5696359295966,1342
1231.705060320639,1345
1233.8399179259786,1411
1235.9742089842384,1389
1238.107933734118,1355
1240.2410924143974,1410
1242.373685263935,1365
1244.5057125216676,1389
1246.6371744266116,1357
1248.7680712178621,1363
1250.898403134593,1410
1253.028170416058,1382
1255.1573733015875,1367
1257.2860120305932,1420
1259.4140868425648,1339
1261.54159797707,1427
1263.6685456737569,1435
1265.7949301723515,1374
1267.9207517126597,1450
1270.046010534565,1431
1272.1707068780306,1458
1274.2948409830983,1406
1276.4184130898889,1372
1278.541423438603,1367
1280.6638722695184,1443
1282.785759822993,1368
1284.9070863394636,1419
1287.0278520594447,1374
1289.1480572235314,1426
1291.2677020723963,1458
1293.3867868467923,1468
1295.5053117875495,1491
1297.623277135579,1464
1299.740683131868,1496
1301.8575300174857,1440
1303.973818033578,1479
1306.0895474213703,1498
1308.2047184221678,1527
1310.3193312773528,1525
1312.4333862283888,1548
1314.5468835168163,1515
1316.659823384255,1462
1318.7722060724045,1483
1320.8840318230418,1518
1322.9953008780249,1467
1325.1060134792888,1498
1327.2161698688478,1515
1329.3257702887959,1431
1331.4348149813054,1505
1333.5433041886276,1489
1335.6512381530933,1549
1337.7586171171101,1502
1339.8654413231675,1522
1341.9717110138317,1460
1344.0774264317488,1465
1346.1825878196432,1441
1348.2871954203192,1433
1350.3912494766587,1452
1352.4947502316231,1486
1354.5976979282532,1513
1356.7000928096686,1483
1358.8019351190665,1483
1360.9032250997243,1491
1363.0039629949988,1496
1365.1041490483235,1416
1367.2037835032133,1488
1369.3028666032606,1503
1371.401398592137,1570
1373.4993797135926,1464
1375.5968102114575,1501
1377.6936903296396,1492
1379.7900203121262,1444
1381.8858004029835,1523
1383.9810308463561,1551
1386.075711886469,1483
1388.1698437676241,1482
1390.2634267342032,1479
1392.356461030667,1498
1394.4489469015557,1509
1396.5408845914872,1485
1398.6322743451592,1482
1400.7231164073469,1574
1402.813411022907,1518
1404.903158436773,1607
1406.9923588939578,1538
1409.0810126395531,1623
1411.1691199187303,1567
1413.2566809767386,1532
1415.343696058907,1660
1417.4301654106425,1574
1419.5160892774315,1571
1421.6014679048399,1632
1423.6863015385125,1623
1425.7705904241707,1577
1427.8543348076178,1601
1429.9375349347342,1629
1432.0201910514802,1707
1434.102303403894,1674
1436.1838722380944,1720
1438.2648978002767,1743
1440.3453803367174,1706
1442.4253200937692,1703
1444.5047173178677,1752
1446.5835722555234,1755
1448.6618851533285,1868
1450.739656257952,1882
1452.8168858161434,1936
1454.8935740747306,1854
1456.96972128062,1856
1459.045327680797,1952
1461.120393522327,1952
1463.1949190523528,1972
1465.2689045180973,2012
1467.3423501668608,2064
1469.415256246024,2075
1471.4876230030463,2098
1473.559450685465,2185
1475.6307395408976,2238
1477.7014898170391,2210
1479.771701761665,2273
1481.8413756226287,2294
1483.9105116478618,2294
1485.9791100853772,2318
1488.0471711832643,2366
1490.1146951896926,2427
1492.1816823529098,2366
1494.2481329212433,2407
1496.3140471430984,2488
1498.3794252669609,2570
1500.4442675413939,2493
1502.5085742150404,2612
1504.572345536622,2537
1506.6355817549388,2611
1508.6982831188702,2595
1510.7604498773744,2541
1512.8220822794883,2620
1514.8831805743293,2653
1516.9437450110909,2563
1519.003775839048,2633
1521.0632733075522,2671
1523.1222376660367,2733
1525.1806691640113,2711
1527.2385680510652,2788
1529.2959345768668,2803
1531.3527689911643,2770
1533.4090715437833,2839
1535.4648424846291,2773
1537.5200820636855,2816
1539.5747905310159,2913
1541.6289681367616,2989
1543.6826151311434,2902
1545.7357317644614,2994
1547.7883182870937,2978
1549.8403749494987,2999
1551.8919020022113,3110
1553.9428996958477,3108
1555.9933682811015,3138
1558.0433080087469,3218
1560.0927191296346,3298
1562.1416018946961,3369
1564.1899565549415,3430
1566.2377833614592,3424
1568.2850825654164,3381
1570.3318544180606,3266
1572.3780991707158,3188
1574.423817074788,3113
1576.4690083817595,3080
1578.5136733431923,2812
1580.5578122107272,2750
1582.601425236085,2724
1584.6445126710646,2710
1586.6870747675434,2475
1588.7291117774776,2351
1590.7706239529034,2264
1592.8116115459347,2184
1594.8520748087658,2161
1596.8920139936686,2075
1598.9314293529933,2014
1600.9703211391711,1933
1603.008689604711,1897
1605.0465350022005,1847
1607.0838575843068,1795
1609.1206576037753,1744
1611.1569353134305,1664
1613.1926909661765,1668
1615.2279248149953,1674
1617.2626371129481,1635
1619.2968281131757,1615
1621.3304980688963,1589
1623.3636472334088,1552
1625.39627586009,1573
1627.428384202396,1556
1629.459972513861,1565
1631.4910410480993,1501
1633.5215900588028,1567
1635.551619799744,1472
1637.5811305247717,1496
1639.6101224878166,1431
1641.6385959428862,1486
1643.6665511440683,1537
1645.693988345528,1436
1647.7209078015112,1440
1649.7473097663405,1432
1651.7731944944203,1441
1653.7985622402307,1417
1655.823413258333,1414
1657.847747803366,1439
1659.8715661300494,1424
1661.8948684931793,1385
1663.9176551476316,1462
1665.9399263483624,1459
1667.9616823504057,1387
1669.982923408873,1407
1672.0036497789574,1406
1674.0238617159293,1438
1676.043559475138,1428
1678.0627433120121,1451
1680.081413482059,1428
1682.0995702408654,1425
1684.117213844096,1379
1686.134344547495,1469
1688.1509626068864,1443
1690.1670682781705,1416
1692.182661817329,1416
1694.1977434804217,1397
1696.2123135235875,1391
1698.226372203043,1389
1700.2399197750851,1358
1702.2529564960905,1417
1704.2654826225112,1416
1706.277498410882,1406
1708.2890041178139,1404
1710.2999999999988,1403
1712.3104863142066,1406
1714.3204633172854,1345
1716.329931266163,1382
1718.3388904178469,1363
1720.3473410294214,1334
1722.3552833580516,1360
1724.3627176609807,1363
1726.3696441955308,1413
1728.3760632191033,1381
1730.3819749891782,1369
1732.3873797633146,1338
1734.3922777991502,1357
1736.3966693544012,1374
1738.4005546868639,1255
1740.4039340544127,1333
1742.406807715001,1328
1744.4091759266616,1303
1746.4110389475054,1327
1748.4123970357223,1325
1750.413250449582,1365
1752.4135994474318,1323
1754.4134442876993,1304
1756.4127852288902,1337
1758.4116225295893,1338
1760.4099564484595,1304
1762.407787244244,1318
1764.405115175764,1348
1766.4019405019203,1302
1768.3982634816916,1312
1770.3940843741357,1241
1772.3894034383907,1334
1774.3842209336717,1332
1776.378537119274,1313
1778.372352254571,1331
1780.3656665990156,1287
1782.3584804121397,1282
1784.3507939535534,1315
1786.3426074829463,1313
1788.3339212600863,1260
1790.3247355448211,1321
1792.3150505970766,1239
1794.3048666768573,1270
1796.2941840442477,1213
1798.2830029594106,1286
1800.2713236825884,1312
1802.2591464741004,1321
1804.2464715943465,1296
1806.2332993038058,1277
1808.2196298630352,1239
1810.2054635326708,1303
1812.190800573428,1281
1814.175641246101,1241
1816.1599858115628,1305
1818.1438345307652,1262
1820.127187664738,1293
1822.1100454745924,1269
1824.092408221516,1293
1826.0742761667766,1259
1828.055649571721,1259
1830.0365286977735,1251
1832.0169138064398,1300
1833.9968051593014,1256
1835.9762030180214,1251
1837.9551076443408,1238
1839.9335193000788,1268
1841.9114382471344,1265
1843.888864747485,1267
1845.8657990631878,1280
1847.842241456378,1246
1849.8181921892697,1206
1851.7936515241558,1234
1853.7686197234098,1224
1855.7430970494815,1242
1857.7170837649014,1285
1859.6905801322787,1274
1861.6635864143004,1296
1863.6361028737338,1242
1865.608129773424,1263
1867.5796673762961,1277
1869.5507159453537,1235
1871.521275743678,1271
1873.4913470344313,1310
1875.4609300808534,1304
1877.4300251462632,1243
1879.3986324940588,1246
1881.366752387717,1321
1883.3343850907936,1295
1885.3015308669228,1255
1887.268189979819,1291
1889.2343626932739,1307
1891.2000492711595,1295
1893.1652499774254,1290
1895.1299650761011,1289
1897.0941948312952,1292
1899.0579395071945,1274
1901.0211993680641,1298
1902.98397467825,1273
1904.9462657021745,1328
1906.9080727043415,1329
1908.869395949332,1293
1910.8302357018065,1322
1912.790592226504,1275
1914.7504657882428,1315
1916.7098566519212,1218
1918.6687650825133,1311
1920.6271913450764,1362
1922.5851357047422,1269
1924.5425984267245,1327
1926.499579776314,1272
1928.4560800188833,1263
1930.4120994198802,1319
1932.367638244833,1318
1934.32269675935,1339
1936.2772752291175,1301
1938.231373919899,1309
1940.1849930975404,1278
1942.1381330279637,1306
1944.0907939771696,1310
1946.0429762112412,1315
1947.9946799963363,1294
1949.9459055986945,1269
1951.896653284633,1303
1953.8469233205478,1331
1955.7967159729142,1299
1957.7460315082863,1235
1959.6948701932974,1258
1961.6432322946594,1317
1963.5911180791632,1266
1965.5385278136787,1300
1967.4854617651545,1242
1969.4319202006182,1255
1971.377903387176,1256
1973.3234115920136,1241
1975.268445082395,1289
1977.2130041256642,1287
1979.1570889892423,1281
1981.1006999406304,1269
1983.04383724741,1267
1984.986501177238,1225
1986.928691997853,1259
1988.8704099770712,1280
1990.811655382789,1288
1992.7524284829801,1282
1994.692729545698,1280
1996.6325588390755,1253
1998.5719166313224,1331
2000.5108031907307,1274
2002.4492187856677,1263
2004.387163684583,1272
2006.3246381560011,1251
2008.2616424685298,1232
2010.1981768908527,1318
2012.1342416917332,1250
2014.069837140014,1243
2016.0049635046162,1301
2017.9396210545406,1236
2019.8738100588666,1247
2021.8075307867502,1259
2023.740783507431,1247
2025.6735684902228,1220
2027.6058860045214,1322
2029.5377363198004,1263
2031.4691197056118,1242
2033.4000364315875,1238
2035.3304867674374,1230
2037.260470982952,1207
2039.189989347998,1302
2041.1190421325232,1243
2043.047629606554,1229
2044.9757520401945,1239
2046.9034097036288,1243
2048.8306028671195,1274
2050.7573318010086,1265
2052.683596775716,1257
2054.609398061742,1246
2056.5347359296647,1220
2058.4596106501403,1239
2060.384022493906,1273
2062.3079717317764,1228
2064.231458634646,1249
2066.1544834734873,1200
2068.077046519352,1231
2069.99914804337,1240
2071.9207883167524,1267
2073.8419676107865,1219
2075.7626861968406,1256
2077.6829443463607,1166
2079.6027423308715,1223
2081.522080421977,1195
2083.440958891362,1248
2085.359378010786,1255
2087.2773380520907,1226
2089.194839287196,1229
2091.111881988101,1209
2093.0284664268825,1245
2094.9445928756973,1187
2096.86026160678,1242
2098.775472892446,1184
2100.690227005088,1282
2102.604524217178,1213
2104.5183648012676,1257
2106.431749029985,1252
2108.34467717604,1236
2110.2571495122206,1199
2112.169166311393,1248
2114.080727846503,1227
2115.9918343905747,1212
2117.902486216711,1234
2119.8126835980956,1202
2121.722426807987,1203
2123.6317161197285,1247
2125.5405518067364,1252
2127.448934142509,1243
2129.356863400624,1201
2131.264339854737,1224
2133.1713637785815,1224
2135.077935445972,1272
2136.9840551308002,1274
2138.889723107037,1254
2140.7949396487334,1248
2142.699705030018,1338
2144.6040195250994,1267
2146.507883408264,1244
2148.4112969538774,1241
2150.3142604363848,1282
2152.2167741303097,1256
2154.1188383102535,1242
2156.0204532508997,1270
2157.9216192270064,1203
2159.822336513414,1283
2161.7226053850413,1251
2163.622426116884,1325
2165.5217989840185,1250
2167.4207242616,1248
2169.319202224862,1248
2171.2172331491165,1264
2173.1148173097563,1295
2175.0119549822507,1275
2176.90864644215,1298
2178.8048919650823,1314
2180.7006918267534,1273
2182.596046302952,1267
2184.4909556695407,1290
2186.3854202024645,1266
2188.279440177746,1295
2190.173015871487,1379
2192.066147559868,1328
2193.958835519149,1269
2195.851080025667,1293
2197.7428813558417,1288
2199.6342397861667,1295
2201.5251555932186,1310
2203.415629053651,1198
2205.3056604441986,1325
2207.19525004167,1338
2209.084398122958,1276
2210.9731049650327,1313
2212.861370844941,1352
2214.749196039812,1308
2216.636580826851,1274
2218.523525483344,1295
2220.410030286655,1329
2222.296095514226,1308
2224.1817214435805,1279
2226.066908352319,1309
2227.951656518121,1344
2229.835966218746,1295
2231.71983773203,1322
2233.6032713358913,1405
2235.486267308324,1353
2237.3688259274036,1363
2239.2509474712824,1354
2241.132632218193,1344
2243.013880446447,1295
2244.8946924344323,1298
2246.7750684606203,1371
2248.6550088035574,1287
2250.534513741871,1312
2252.413583554265,1287
2254.292218519526,1281
2256.170418916517,1314
2258.0481850241786,1281
2259.925517121534,1306
2261.8024154876825,1339
2263.678880401803,1350
2265.5549121431536,1317
2267.430510991071,1317
2269.305677224971,1328
2271.180411124348,1298
2273.0547129687766,1231
2274.9285830379076,1253
2276.8020216114737,1254
2278.6750289692845,1296
2280.5476053912294,1275
2282.4197511572766,1359
2284.2914665474727,1311
2286.162751841943,1295
2288.0336073208937,1295
2289.904033264608,1382
2291.774029953448,1315
2293.6435976678554,1331
2295.5127366883517,1299
2297.381447295534,1276
2299.2497297700825,1257
2301.1175843927526,1267
2302.9850114443825,1190
2304.852011205885,1201
2306.7185839582553,1206
2308.5847299825664,1190
2310.4504495599676,1131
2312.3157429716925,1171
2314.1806104990483,1135
2316.0450524234247,1195
2317.9090690262888,1121
2319.772660589186,1126
2321.635827393742,1125
2323.498569721661,1084
2325.3608878547248,1166
2327.2227820747967,1131
2329.0842526638157,1101
2330.945299903803,1137
2332.805924076857,1138
2334.6661254651535,1173
2336.525904350951,1147
2338.3852610165827,1151
2340.244195744464,1142
2342.102708817088,1181
2343.9608005170253,1115
2345.8184711269287,1127
2347.675720929526,1165
2349.532550207628,1204
2351.38895924412,1132
2353.24494832197,1174
2355.100517724223,1159
2356.955667734004,1127
2358.810398634514,1170
2360.664710709037,1131
2362.5186042409337,1166
2364.3720795136437,1157
2366.225136810686,1219
2368.0777764156583,1153
2369.929998612237,1174
2371.7818036841777,1146
2373.633191915315,1151
2375.484163589562,1183
2377.3347189909114,1155
2379.184858403434,1169
2381.03458211128,1176
2382.8838903986775,1171
2384.732783549936,1130
2386.5812618494406,1162
2388.4293255816588,1186
2390.2769750311327,1186
2392.1242104824883,1154
2393.971032220427,1163
2395.8174405297295,1147
2397.6634356952563,1184
2399.509018001947,1182
2401.3541877348193,1178
2403.1989451789705,1139
2405.043290619576,1143
2406.8872243418905,1162
2408.730746631247,1198
2410.5738577730594,1177
2412.4165580528183,1206
2414.258847756095,1211
2416.100727168537,1204
2417.9421965758734,1168
2419.783256263912,1124
2421.623906518538,1188
2423.4641476257157,1140
2425.303979871491,1116
2427.143403541984,1130
2428.9824189233977,1231
2430.821026302012,1142
2432.6592259641866,1162
2434.497018196361,1160
2436.33440328505,1188
2438.171381516851,1193
2440.00795317844,1207
2441.844118556569,1191
2443.6798779380724,1214
2445.5152316098606,1202
2447.3501798589255,1184
2449.1847229723357,1205
2451.0188612372403,1178
2452.8525949408663,1208
2454.6859243705203,1217
2456.518849813587,1193
2458.3513715575314,1223
2460.183489889895,1164
2462.015205098301,1188
2463.8465174704493,1187
2465.67742729412,1226
2467.5079348571717,1217
2469.338040447542,1154
2471.1677443532476,1193
2472.9970468623833,1222
2474.825948263123,1182
2476.6544488437207,1226
2478.482548892508,1156
2480.310248697896,1219
2482.137548548374,1235
2483.9644487325118,1208
2485.790949538956,1229
2487.617051256433,1193
2489.44275417375,1211
2491.26805857979,1192
2493.0929647635157,1186
2494.917473013971,1254
2496.741583620276,1212
2498.5652968716304,1207
2500.3886130573137,1223
2502.2115324666834,1193
2504.0340553891765,1276
2505.856182114308,1251
2507.6779129316733,1195
2509.499248130945,1235
2511.3201880018764,1229
2513.140732834298,1239
2514.9608829181198,1228
2516.780638543331,1213
2518.6,1207
2520.418967578273,1190
2522.237541568376,1239
2524.0557222606144,1296
2525.8735099453706,1218
2527.6909049131086,1315
2529.507907454368,1333
2531.32451785977,1271
2533.140736420014,1284
2534.9565634258774,1296
2536.771999168218,1324
2538.5870439379714,1337
2540.4016980261526,1363
2542.2159617238544,1317
2544.02983532225,1290
2545.8433191125914,1341
2547.656413386209,1326
2549.4691184345115,1389
2551.2814345489874,1383
2553.093362021204,1406
2554.904901142808,1406
2556.716052205523,1449
2558.526815501153,1365
2560.3371913215824,1407
2562.147179958771,1426
2563.956781704761,1430
2565.7659968516705,1426
2567.5748256916986,1431
2569.3832685171224,1491
2571.1913256202984,1491
2572.9989972936614,1464
2574.806283829725,1405
2576.613185521084,1472
2578.4197026604074,1555
2580.2258355404483,1592
2582.031584454035,1514
2583.836949694077,1580
2585.6419315535613,1487
2587.4465303255533,1552
2589.2507463032002,1562
2591.0545797797245,1586
2592.8580310484303,1514
2594.6611004026995,1558
2596.463788135992,1607
2598.266094541849,1514
2600.0680199138874,1582
2601.869564545807,1570
2603.670728731383,1582
2605.4715127644704,1561
2607.2719169390048,1589
2609.071941548998,1544
2610.8715868885433,1545
2612.670853251811,1548
2614.469740933052,1556
2616.268250226594,1574
2618.0663814268455,1535
2619.864134828292,1541
2621.6615107255006,1545
2623.458509413115,1538
2625.2551311858597,1439
2627.0513763385347,1554
2628.8472451660223,1549
2630.6427379632833,1541
2632.4378550253564,1519
2634.232596647359,1423
2636.026963124488,1502
2637.8209547520187,1472
2639.6145718253065,1451
2641.407814639785,1480
2643.200683490966,1466
2644.9931786744414,1470
2646.7853004858807,1432
2648.577049221034,1428
2650.3684251757277,1422
2652.1594286458712,1365
2653.9500599274484,1335
2655.740319316525,1360
2657.5302071092437,1356
2659.3197236018286,1342
2661.10886909058,1317
2662.8976438718782,1277
2664.686048242183,1281
2666.4740824980327,1333
2668.2617469360443,1290
2670.0490418529134,1258
2671.8359675454153,1237
2673.622524310403,1261
2675.408712444811,1301
2677.1945322456495,1298
2678.979984010009,1288
2680.76506803506,1291
2682.5497846180497,1274
2684.334134056306,1258
2686.1181166472343,1309
2687.9017326883213,1287
2689.6849824771293,1212
2691.4678663113013,1222
2693.2503844885596,1216
2695.032537306705,1211
2696.8143250636167,1238
2698.5957480572542,1241
2700.3768065856534,1222
2702.1575009469316,1251
2703.937831439283,1193
2705.717798360982,1214
2707.4974020103837,1188
2709.276642685917,1237
2711.055520686095,1195
2712.834036309506,1189
2714.612189854819,1218
2716.389981620782,1224
2718.1674119062204,1227
2719.944481010041,1220
2721.721189231226,1158
2723.4975368688415,1140
2725.273524222027,1214
2727.0491515900053,1144
2728.824419272075,1185
2730.5993275676146,1139
2732.3738767760838,1111
2734.148067197016,1169
2735.921899130031,1174
2737.6953728748194,1153
2739.468488731156,1091
2741.2412469988926,1155
2743.0136479779617,1158
2744.785691968372,1162
2746.5573792702116,1146
2748.3287101836504,1125
2750.099685008934,1157
2751.870304046388,1115
2753.640567596418,1119
2755.4104759595057,1143
2757.1800294362156,1114
2758.949228327187,1143
2760.7180729331412,1135
2762.486563554877,1151
2764.254700493272,1165
2766.022484049284,1151
2767.789914523947,1142
2769.5569922183786,1101
2771.3237174337705,1107
2773.090090471394,1118
2774.8561116326036,1178
2776.6217812188274,1114
2778.3870995315756,1119
2780.1520668724356,1162
2781.9166835430747,1154
2783.6809498452394,1151
2785.444866080754,1170
2787.2084325515225,1134
2788.971649559527,1149
2790.73451740683,1143
2792.4970363955713,1163
2794.2592068279705,1114
2796.0210290063264,1156
2797.7825032330147,1119
2799.543629810493,1119
2801.304409041296,1086
2803.0648412280366,1107
2804.8249266734088,1158
2806.5846656801846,1141
2808.344058551212,1124
2810.1031055894246,1135
2811.8618070978273,1163
2813.6201633795085,1086
2815.378174737636,1152
2817.1358414754536,1123
2818.893163896285,1093
2820.6501423035334,1083
2822.4067770006814,1129
2824.1630682912883,1144
2825.9190164789957,1146
2827.6746218675207,1140
2829.429884760661,1130
2831.184805462294,1116
2832.9393842763743,1163
2834.693621506936,1123
2836.4475174580916,1127
2838.201072434034,1115
2839.954286739034,1083
2841.707160677441,1104
2843.459694553685,1141
2845.2118886722724,1159
2846.96374333779,1145
2848.7152588549034,1156
2850.4664355283567,1118
2852.217273662973,1122
2853.9677735636546,1074
2855.7179355353833,1137
2857.4677598832186,1136
2859.217246912299,1140
2860.9663969278427,1166
2862.715210235146,1183
2864.4636871395846,1098
2866.211827946614,1120
2867.9596329617652,1122
2869.7071024906536,1153
2871.4542368389684,1135
2873.20103631248,1135
2874.947501217038,1117
2876.6936318585695,1188
2878.4394285430812,1139
2880.1848915766604,1178
2881.9300212654707,1114
2883.6748179157553,1115
2885.4192818338374,1135
2887.1634133261173,1141
2888.907212699077,1153
2890.6506802592744,1120
2892.393816313348,1140
2894.1366211680142,1100
2895.8790951300693,1100
2897.621238506388,1122
2899.363051603925,1115
2901.1045347297118,1148
2902.8456881908596,1145
2904.58651229456,1135
2906.327007348081,1134
2908.067173658772,1113
2909.8070115340597,1127
2911.5465212814497,1161
2913.285703208527,1124
2915.0245576229563,1122
2916.7630848324807,1133
2918.5012851449196,1149
2920.2391588681758,1140
2921.976706310227,1142
2923.7139277791334,1127
2925.4508235830313,1109
2927.187394030137,1110
2928.923639428745,1074
2930.6595600872306,1142
2932.395156314046,1160
2934.1304284177218,1105
2935.8653767068713,1084
2937.6000014901815,1090
2939.3343030764227,1156
2941.068281774442,1131
2942.8019378931644,1131
2944.5352717415976,1126
2946.2682836288236,1111
2948.0009738640065,1088
2949.7333427563885,1100
2951.465390615289,1089
2953.1971177501086,1110
2954.9285244703265,1124
2956.6596110855,1156
2958.3903779052657,1180
2960.1208252393385,1114
2961.8509533975125,1088
2963.5807626896617,1112
2965.3102534257378,1099
2967.0394259157715,1187
2968.768280469873,1127
2970.496817398232,1144
2972.2250370111146,1125
2973.952939618869,1142
2975.6805255319196,1119
2977.4077950607707,1123
2979.134748516006,1137
2980.861386208289,1105
2982.587708448359,1144
2984.313715547037,1135
2986.039407815222,1136
2987.764785563891,1125
2989.489849104102,1095
2991.2145987469908,1142
2992.9390348037705,1137
2994.6631575857346,1114
2996.3869674042576,1087
2998.1104645707887,1096
2999.83364939686,1088
3001.5565221940783,1105
3003.2790832741334,1123
3005.0013329487924,1096
3006.7232715298996,1119
3008.4448993293804,1139
3010.166216659239,1128
3011.887223831558,1080
3013.607921158498,1141
3015.3283089522993,1137
3017.0483875252826,1114
3018.7681571898443,1126
3020.4876182584626,1134
3022.2067710436927,1070
3023.9256158581707,1111
3025.644153014609,1135
3027.362382825801,1161
3029.0803056046193,1117
3030.797921664012,1146
3032.5152313170106,1100
3034.2322348767225,1124
3035.9489326563353,1095
3037.665324969115,1100
3039.3814121284063,1127
3041.097194447633,1144
3042.812672240299,1101
3044.5278458199855,1109
3046.2427155003525,1137
3047.9572815951406,1097
3049.671544418167,1135
3051.38550428333,1075
3053.0991615046073,1151
3054.812516396051,1115
3056.5255692717974,1095
3058.2383204460575,1061
3059.9507702331257,1075
3061.662918947372,1124
3063.3747669032446,1109
3065.0863144152736,1104
3066.7975617980674,1100
3068.508509366309,1143
3070.219157434767,1167
3071.9295063182844,1168
3073.639556331785,1171
3075.3493077902704,1061
3077.058761008821,1123
3078.7679163025964,1121
3080.476773986837,1102
3082.1853343768594,1093
3083.89359778806,1151
3085.6015645359153,1161
3087.3092349359786,1160
3089.016609303884,1116
3090.7236879553434,1100
3092.4304712061476,1079
3094.136959372166,1119
3095.843152769349,1109
3097.5490517137237,1090
3099.2546565213966,1137
3100.959967508554,1112
3102.66498499146,1136
3104.3697092864577,1120
3106.0741407099695,1145
3107.778279578498,1131
3109.482126208622,1109
3111.1856809170004,1161
3112.8889440203716,1079
3114.5919158355528,1131
3116.294596679439,1174
3117.996986869006,1132
3119.6990867213062,1177
3121.4008965534726,1147
3123.102416682717,1181
3124.803647426329,1178
3126.5045891016784,1122
3128.205242026213,1163
3129.90560651746,1168
3131.605682893025,1156
3133.3054714705922,1157
3135.0049725679282,1191
3136.7041865028714,1160
3138.4031135933465,1121
3140.101754157353,1156
3141.800108512971,1104
3143.498176978357,1162
3145.1959598717494,1071
3146.8934575114636,1037
3148.5906702158954,1126
3150.2875983035183,1117
3151.9842420928853,1083
3153.680601902627,1105
3155.376678051456,1099
3157.07247085816,1094
3158.767980641609,1130
3160.463207720748,1123
3162.158152414606,1121
3163.8528150422862,1131
3165.5471959229726,1127
3167.2412953759303,1106
3168.9351137204976,1144
3170.628651276098,1141
3172.3219083622307,1115
3174.014885298474,1155
3175.707582404485,1101
3177.4000000000005,1081
3179.092138404835,1102
3180.7839979388846,1104
3182.47557892212,1122
3184.166881674594,1143
3185.8579065164386,1121
3187.5486537678626,1131
3189.2391237491547,1103
3190.9293167806827,1093
3192.6192331828934,1136
3194.3088732763117,1064
3195.998237381542,1134
3197.687325819268,1120
3199.376138910251,1086
3201.064676975334,1135
3202.7529403354347,1123
3204.4409293115523,1050
3206.1286442247647,1076
3207.816085396229,1103
3209.5032531471825,1083
3211.190147798936,1097
3212.8767696728846,1115
3214.5631190905015,1067
3216.2491963733373,1090
3217.9350018430214,1147
3219.6205358212637,1080
3221.305798629851,1061
3222.990790590651,1040
3224.6755120256103,1111
3226.359963256751,1111
3228.0441446061795,1116
3229.7280563960758,1123
3231.411698948703,1062
3233.0950725863995,1096
3234.778177631587,1139
3236.461014406761,1095
3238.1435832345005,1074
3239.8258844374595,1116
3241.507918338374,1060
3243.1896852600576,1107
3244.8711855254023,1108
3246.552419457381,1089
3248.233387379042,1099
3249.914089613516,1111
3251.59452648401,1148
3253.274698313813,1055
3254.95460542629,1124
3256.6342481448855,1141
3258.313626793125,1067
3259.9927416946084,1105
3261.6715931730196,1081
3263.3501815521176,1046
3265.0285071557437,1055
3266.706570307815,1070
3268.3843713323286,1079
3270.0619105533615,1097
3271.739188295068,1085
3273.4162048816834,1109
3275.0929606375184,1090
3276.769455886966,1117
3278.445690954498,1088
3280.1216661646613,1096
3281.797381842087,1117
3283.4728383114807,1112
3285.1480358976296,1136
3286.8229749253996,1102
3288.4976557197333,1094
3290.172078605655,1114
3291.846243908266,1092
3293.5201519527463,1111
3295.193803064357,1074
3296.8671975684374,1069
3298.5403357904024,1105
3300.21321805575,1118
3301.8858446900567,1078
3303.558216018975,1079
3305.23033236824,1034
3306.9021940636603,1084
3308.57380143113,1095
3310.2451547966184,1049
3311.916254486174,1143
3313.5871008259246,1053
3315.2576941420766,1089
3316.9280347609147,1130
3318.5981230088046,1111
3320.2679592121895,1048
3321.9375436975924,1045
3323.606876791612,1074
3325.27595882093,1056
3326.944790112305,1065
3328.6133709925753,1075
3330.2817017886573,1071
3331.949782827547,1113
3333.617614436319,1083
3335.2851969421245,1100
3336.952530672199,1077
3338.619615953853,1097
3340.286453114475,1115
3341.9530424815357,1069
3343.619384382583,1108
3345.2854791452437,1068
3346.951327097224,1093
3348.6169285663073,1096
3350.2822838803577,1130
3351.947393367319,1064
3353.61225735521,1084
3355.2768761721345,1084
3356.9412501462693,1079
3358.605379605873,1089
3360.2692648792827,1124
3361.9329062949146,1047
3363.596304181263,1055
