CollectionTime,7/11/2024 1:02:16 PM
ExposureUsed,3
CalibratedSpectrum
-962.7078968117929,518
-959.9714848408522,561
-957.2358232597828,534
-954.5009119013725,554
-951.7667505983302,559
-949.0333391832855,566
-946.3006774887896,562
-943.5687653473143,556
-940.837602591253,561
-938.1071890529199,552
-935.3775245645503,557
-932.6486089583007,540
-929.9204420662485,554
-927.1930237203925,567
-924.4663537526524,561
-921.7404319948689,550
-919.0152582788041,557
-916.2908324361409,560
-913.5671542984834,590
-910.8442236973568,535
-908.1220404642074,568
-905.4006044304027,576
-902.679915427231,551
-899.959973285902,541
-897.2407778375464,542
-894.5223289132158,552
-891.8046263438832,526
-889.0876699604426,537
-886.3714595937089,529
-883.6559950744183,526
-880.9412762332282,545
-878.2273029007168,541
-875.5140749073835,536
-872.8015920836489,506
-870.0898542598545,548
-867.3788612662631,524
-864.6686129330585,562
-861.9591090903457,539
-859.2503495681506,543
-856.5423341964203,568
-853.8350628050229,527
-851.1285352237478,520
-848.4227512823054,547
-845.7177108103272,534
-843.0134136373656,536
-840.3098595928943,560
-837.6070485063082,566
-834.9049802069229,537
-832.2036545239757,558
-829.5030712866244,566
-826.8032303239481,542
-824.1041314649472,554
-821.4057745385428,510
-818.7081593735775,535
-816.0112857988148,583
-813.3151536429393,601
-810.6197627345566,585
-807.9251129021936,530
-805.2312039742981,545
-802.5380357792392,552
-799.8456081453069,550
-797.1539209007124,547
-794.462973873588,558
-791.772766891987,567
-789.083299783884,564
-786.3945723771743,538
-783.7065844996748,567
-781.0193359791231,533
-778.3328266431781,557
-775.6470563194197,577
-772.9620248353489,553
-770.2777320183878,566
-767.5941776958798,548
-764.9113616950891,589
-762.2292838432011,557
-759.5479439673222,531
-756.8673418944801,557
-754.1874774516235,561
-751.5083504656222,564
-748.8299607632671,578
-746.15230817127,565
-743.475392516264,583
-740.7992136248035,584
-738.1237713233636,571
-735.4490654383407,575
-732.7750957960521,558
-730.1018622227365,576
-727.4293645445534,612
-724.7576025875837,577
-722.0865761778291,576
-719.4162851412126,612
-716.7467293035781,613
-714.0779084906909,571
-711.409822528237,600
-708.7424712418238,591
-706.0758544569796,623
-703.4099719991541,626
-700.7448236937178,613
-698.0804093659622,608
-695.4167288411002,622
-692.7537819442656,631
-690.0915685005134,617
-687.4300883348199,641
-684.7693412720819,636
-682.1093271371178,634
-679.4500457546669,631
-676.7914969493897,635
-674.1336805458676,608
-671.4765963686034,596
-668.8202442420206,632
-666.1646239904642,626
-663.5097354382001,613
-660.8555784094151,610
-658.2021527282176,659
-655.5494582186366,622
-652.8974947046223,652
-650.2462620100463,649
-647.5957599587009,585
-644.9459883742998,650
-642.2969470804776,683
-639.6486359007902,646
-637.0010546587141,656
-634.3542031776476,646
-631.7080812809096,642
-629.0626887917401,645
-626.4180255333008,629
-623.7740913286734,626
-621.1308860008619,646
-618.4884093727904,647
-615.8466612673046,657
-613.2056415071715,662
-610.5653499150785,640
-607.9257863136347,654
-605.28695052537,694
-602.6488423727357,639
-600.0114616781036,661
-597.3748082637674,663
-594.7388819519412,662
-592.1036825647604,694
-589.4692099242818,667
-586.8354638524829,688
-584.2024441712624,663
-581.5701507024403,671
-578.9385832677575,653
-576.3077416888759,665
-573.6776257873787,701
-571.0482353847704,704
-568.4195703024757,635
-565.7916303618415,660
-563.164415384135,664
-560.5379251905453,659
-557.9121596021815,682
-555.2871184400748,636
-552.6628015251767,644
-550.0392086783606,674
-547.4163397204204,666
-544.794194472071,655
-542.1727727539491,657
-539.5520743866118,702
-536.9320991905377,742
-534.3128469861261,724
-531.6943175936979,748
-529.0765108334947,787
-526.4594265256793,832
-523.8430644903358,911
-521.2274245474689,937
-518.612506517005,1012
-515.9983102187913,992
-513.3848354725959,1057
-510.77208209810846,1029
-508.16004991493924,1070
-505.5487387426199,1257
-502.9381484006032,1346
-500.3282787082628,1350
-497.71912948489364,1287
-495.1107005497117,1180
-492.5029917218539,1095
-489.8960028203786,1002
-487.28973366426493,921
-484.68418407241325,907
-482.07935386364494,823
-479.47524285670266,807
-476.87185087025,846
-474.2691777228715,800
-471.66722323307334,834
-469.0659872192821,797
-466.4654694998459,843
-463.86566989303384,766
-461.26658821703614,822
-458.66822428996414,840
-456.07057792985,818
-453.4736489546475,783
-450.877437182231,794
-448.28194243039627,785
-445.68716451686,796
-443.09310325926003,802
-440.49975847515555,757
-437.9071299820263,764
-435.31521759727354,820
-432.72402113821954,861
-430.13354042210767,860
-427.5437752661022,838
-424.95472548728867,826
-422.36639090267386,877
-419.7787713291855,893
-417.1918665836721,875
-414.60567648290385,949
-412.0202008435715,907
-409.4354394822874,862
-406.8513922155845,902
-404.26805885991723,862
-401.685439231661,895
-399.103533147112,872
-396.522340422488,869
-393.9418608739278,877
-391.3620943174908,867
-388.7830405691583,799
-386.2046994448317,802
-383.6270707603344,796
-381.05015433141045,743
-378.473949973725,698
-375.8984575028645,659
-373.32367673433623,628
-370.74960748356875,616
-368.1762495659117,565
-365.60360279663576,538
-363.03166699093265,496
-360.4604419639154,478
-357.8899275306178,463
-355.32012350599507,447
-352.7510297049233,447
-350.1826459421999,420
-347.61497203254316,424
-345.04800779059235,418
-342.4817530309082,422
-339.91620756797226,423
-337.35137121618743,415
-334.7872437898774,438
-332.22382510328725,457
-329.66111497058273,430
-327.09911320585127,430
-324.53781962310075,411
-321.9772340362607,429
-319.4173562591816,421
-316.8581861056348,413
-314.2997233893127,450
-311.7419679238294,417
-309.1849195227194,432
-306.62857799943856,450
-304.0729431673641,499
-301.51801483979375,486
-298.963792829947,470
-296.41027695096386,474
-293.85746701590574,486
-291.3053628377552,498
-288.7539642294155,468
-286.2032710037115,472
-283.65328297338897,489
-281.1039999511146,512
-278.5554217494762,546
-276.007548180983,550
-273.4603790580651,527
-270.9139141930734,555
-268.3681533982807,545
-265.8230964858798,516
-263.27874326798565,546
-260.7350935566336,548
-258.1921471637804,526
-255.6499039013039,516
-253.10836358100266,518
-250.56752601459698,488
-248.02739101372765,535
-245.48795838995704,544
-242.94922795476816,531
-240.41119951956557,518
-237.8738728956746,556
-235.33724789434166,548
-232.80132432673452,566
-230.2661020039418,565
-227.73158073697357,526
-225.19776033676033,573
-222.66464061415422,575
-220.1322213799284,563
-217.60050244477725,530
-215.06948361931552,547
-212.53916471408013,593
-210.00954553952818,597
-207.48062590603843,566
-204.9524056239104,555
-202.4248845033651,570
-199.8980623545441,571
-197.37193898751036,596
-194.84651421224817,635
-192.32178783866232,628
-189.79775967657952,672
-187.27442953574644,679
-184.7517972258321,682
-182.2298625564256,723
-179.7086253370378,700
-177.18808537710026,654
-174.66824248596583,648
-172.14909647290835,611
-169.6306471471229,657
-167.11289431772548,717
-164.59583779375328,738
-162.07947738416453,714
-159.5638128978386,711
-157.04884414357605,739
-154.53457093009854,814
-152.02099306604828,746
-149.50811035998936,678
-146.99592262040665,736
-144.48442965570587,781
-141.97363127421409,880
-139.46352728417958,864
-136.95411749377126,809
-134.44540171107985,770
-131.93737974411636,720
-129.43005140081357,734
-126.92341648902493,818
-124.41747481652521,940
-121.91222619101006,1178
-119.40767042009657,1410
-116.90380731132257,1586
-114.40063667214702,1544
-111.8981583099503,1453
-109.3963720320337,1185
-106.89527764561933,1111
-104.39487495785067,1169
-101.89516377579241,1462
-99.39614390642998,1838
-96.89781515667039,2150
-94.40017733334128,1925
-91.90323024319173,1943
-89.40697369289148,2618
-86.91140748903172,4067
-84.41653143812482,4344
-81.92234534660395,3254
-79.42884902082358,2477
-76.93604226705907,3884
-74.4439248915071,7394
-71.95249670028534,12942
-69.46175749943245,16922
-66.97170709490854,18166
-64.48234529259423,15973
-61.99367189829195,14346
-59.50568671772464,13546
-57.01838955653636,11147
-54.53178022029283,7377
-52.045858514480074,6827
-49.560624244506016,8623
-47.07607721569923,9369
-44.59221723330904,9071
-42.10904410250669,9269
-39.62655762838392,8085
-37.14475761595372,7392
-34.66364387015028,7523
-32.18321619582866,7460
-29.70347439776515,7410
-27.224418280657005,6847
-24.74604764912317,6605
-22.26836230770266,9367
-19.7913620608565,16958
-17.315046712966478,28057
-14.83941606833514,34097
-12.36446993118659,48707
-9.89020810566592,65038
-7.416630395839093,65038
-4.94373660569363,65038
-2.471526539137585,65038
-6.821210263296962E-13,65038
2.47084320796705,65038
4.941003281093458,65038
7.410480415786196,65038
9.879274808531363,65038
12.347386655893956,65038
14.814816154518212,65038
17.28156350112681,65038
19.74762889252179,65038
22.21301252558385,20918
24.67771459727237,3727
27.141735304626195,2325
29.605074844762612,1923
32.06773341487792,1968
34.52971121224755,2230
36.99100843422559,2067
39.45162527824516,1872
41.91156194181792,1478
44.370818622535126,1197
46.82939551806646,1085
49.287292826160524,1111
51.74451074464503,1298
54.201049471426245,1489
56.65690920448981,1426
59.112090141899785,1103
61.56659248179983,1070
64.02041642241159,1117
66.4735621620365,1101
68.92602989905402,1013
71.37781983192338,985
73.82893215918205,1047
76.27936707944684,1087
78.72912479141326,1006
81.17820549385567,976
83.62660938562783,994
86.07433666566146,1011
88.5213875329681,930
90.96776218663751,805
93.41346082583925,759
95.85848364982041,778
98.30283085790859,946
100.7465026495089,943
103.18949922410604,919
105.63182078126385,919
108.07346752062438,854
110.51443964190923,783
112.95473734491827,742
115.39436082953114,782
117.83331029570547,769
120.27158594347827,767
122.7091879729652,866
125.1461165843615,890
127.58237197794062,804
130.01795435405518,800
132.4528639131364,881
134.88710085569494,927
137.32066538231982,754
139.75355769367923,809
142.1857779905207,791
144.61732647366978,786
147.04820334403132,759
149.47840880258934,780
151.90794305040674,821
154.33680628862487,973
156.76499871846443,1122
159.19252054122433,1234
161.61937195828352,1302
164.04555317109896,1418
166.47106438120693,1570
168.89590579022217,1735
171.320077599839,1796
173.7435800118302,1853
176.16641322804742,1939
178.58857745042144,2173
181.01007288096173,2297
183.43089972175687,2293
185.85105817497413,2261
188.27054844285988,2186
190.6893707277394,2209
193.10752523201643,2198
195.5250121581745,2389
197.9418317087751,2352
200.3579840864594,2337
202.7734694939469,2394
205.18828813403627,2398
207.6024402096051,2528
210.01592592360964,2540
212.42874547908548,2415
214.84089907914665,2436
217.2523869269868,2414
219.66320922587727,2394
222.0733661791695,2427
224.48285799029293,2399
226.8916848627572,2442
229.29984700014882,2550
231.7073446061355,2560
234.11417788446204,2538
236.520347038953,2507
238.92585227351185,2595
241.33069379212054,2636
243.73487179884035,2695
246.1383864978112,2815
248.541238093252,2675
250.9434267894609,2730
253.34495279081432,2862
255.74581630176783,2834
258.1460175268563,2784
260.54555667069314,2827
262.9444339379703,2805
265.3426495334594,2697
267.7402036620107,2590
270.1370965285529,2583
272.53332833809407,2538
274.9288992957214,2355
277.32380960660055,2285
279.718059475976,2431
282.1116491091717,2299
284.5045787115897,2306
286.89684848871195,2257
289.2884586460981,2223
291.67940938938807,2234
294.0697009242996,2239
296.4593334566299,2192
298.84830719225477,2169
301.23662233712923,2213
303.6242790972866,2182
306.01127767884,2101
308.39761828798066,2070
310.78330113097934,2017
313.16832641418534,2095
315.5526943440269,2070
317.9364051270112,2081
320.3194589697242,2003
322.70185607883093,2038
325.0835966610754,1997
327.4646809232805,1966
329.8451090723478,2001
332.2248813152577,1954
334.6039978590701,1957
336.9824589109231,1982
339.36026467803447,1926
341.7374153677,1887
344.113911187295,1881
346.48975234427337,1865
348.8649390461686,1910
351.2394715005918,1885
353.61334991523415,1869
355.9865744978655,1803
358.35914545633375,1845
360.73106299856715,1850
363.10232733257146,1848
365.47293866643247,1911
367.84289720831396,1837
370.2122031664593,1847
372.5808567491905,1752
374.9488581649083,1734
377.31620762209275,1757
379.6829053293021,1736
382.0489514951745,1855
384.4143463284262,1798
386.7790900378528,1801
389.14318283232853,1776
391.50662492080653,1788
393.86941651231916,1814
396.23155781597745,1803
398.5930490409713,1784
400.9538903965696,1834
403.3140820921202,1771
405.6736243370498,1769
408.03251734086336,1768
410.3907613131465,1719
412.74835646356166,1682
415.10530300185144,1794
417.4616011378372,1863
419.81725108141893,1727
422.1722530425758,1727
424.5266072313656,1730
426.880313857925,1752
429.2333731324701,1729
431.58578526529516,1680
433.9375504667738,1719
436.2886689473588,1732
438.63914091758113,1703
440.9889665880513,1656
443.33814616945835,1715
445.68667987257015,1648
448.03456790823395,1730
450.3818104873759,1685
452.72840782100013,1645
455.07436012019105,1686
457.41966759611057,1670
459.7643304600007,1635
462.10834892318155,1664
464.4517231970525,1699
466.79445349309174,1674
469.1365400228566,1691
471.4779829979826,1650
473.81878263018564,1695
476.15893913125876,1684
478.4984527130747,1686
480.8373235875855,1686
483.17555196682144,1763
485.5131380628919,1786
487.8500820879857,1792
490.1863842543697,1907
492.52204477439034,2013
494.8570638604725,2143
497.1914417251204,2346
499.52517858091653,2667
501.85827464052306,2777
504.19073011668036,2896
506.5225452222086,2864
508.85372017000566,2856
511.18425517304956,2778
513.514150444396,2795
515.8434061971808,3308
518.1720226446176,3771
520.4999999999999,3848
522.8273384766991,3633
525.1540382881666,3436
527.480099647932,3000
529.8055227696037,2584
532.1303078668694,2199
534.454455153496,1934
536.777964843328,1810
539.1008371502907,1741
541.4230722883866,1780
543.744670471698,1682
546.0656319143858,1705
548.3859568306899,1735
550.7056454349294,1659
553.0246979415016,1663
555.3431145648834,1680
557.6608955196306,1696
559.978041020377,1700
562.2945512818363,1658
564.6104265188006,1635
566.9256669461412,1697
569.2402727788082,1683
571.5542442318302,1674
573.8675815203156,1599
576.1802848594508,1698
578.4923544645015,1654
580.8037905508126,1660
583.114593333807,1674
585.4247630289875,1638
587.7342998519354,1610
590.0432040183106,1688
592.3514757438526,1647
594.6591152443794,1688
596.9661227357875,1701
599.2724984340531,1709
601.578242555231,1665
603.8833553154542,1607
606.1878369309362,1673
608.4916876179676,1699
610.7949075929192,1696
613.0974970722403,1722
615.3994562724587,1684
617.7007854101818,1698
620.0014847020951,1664
622.3015543649641,1713
624.6009946156324,1747
626.8998056710224,1774
629.1979877481361,1711
631.4955410640538,1699
633.7924658359349,1733
636.0887622810175,1686
638.3844306166192,1698
640.6794710601358,1776
642.9738838290426,1817
645.2676691408932,1805
647.5608272133207,1721
649.853358264037,1718
652.1452625108324,1783
654.4365401715764,1727
656.7271914642178,1812
659.0172166067838,1806
661.3066158173809,1786
663.5953893141935,1760
665.8835373154867,1746
668.1710600396028,1789
670.4579577049639,1708
672.7442305300709,1738
675.0298787335033,1737
677.3149025339197,1743
679.599302150058,1809
681.8830778007342,1791
684.1662297048437,1814
686.4487580813608,1773
688.7306631493387,1796
691.0119451279091,1759
693.2926042362834,1781
695.5726406937516,1796
697.8520547196814,1781
700.1308465335215,1759
702.4090163547982,1759
704.6865644031171,1743
706.9634908981619,1708
709.2397960596965,1769
711.5154801075631,1716
713.7905432616823,1734
716.0649857420548,1725
718.3388077687592,1701
720.612009561953,1761
722.8845913418733,1697
725.1565533288352,1800
727.427895743234,1810
729.6986188055427,1754
731.9687227363137,1742
734.238207756178,1669
736.5070740858458,1757
738.7753219461066,1734
741.0429515578281,1737
743.3099631419569,1764
745.5763569195191,1774
747.8421331116193,1763
750.1072919394409,1690
752.3718336242467,1731
754.6357583873777,1712
756.8990664502545,1834
759.1617580343765,1794
761.423833361321,1779
763.6852926527457,1707
765.9461361303862,1702
768.206364016058,1781
770.4659765316536,1802
772.7249738991469,1732
774.9833563405886,1779
777.2411240781092,1773
779.4982773339183,1795
781.7548163303044,1784
784.010741289634,1727
786.2660524343538,1891
788.5207499869881,1782
790.7748341701416,1834
793.0283052064964,1777
795.2811633188143,1842
797.5334087299362,1819
799.7850416627813,1771
802.0360623403484,1700
804.2864709857143,1774
806.5362678220353,1836
808.7854530725468,1797
811.0340269605625,1714
813.2819897094754,1829
815.5293415427581,1784
817.77608268396,1783
820.0222133567116,1838
822.2677337847211,1771
824.5126441917765,1755
826.7569448017433,1769
829.0006358385675,1781
831.2437175262731,1786
833.4861900889629,1799
835.7280537508192,1807
837.9693087361026,1751
840.2099552691533,1754
842.4499935743896,1805
844.689423876309,1788
846.9282463994886,1780
849.1664613685833,1817
851.4040690083276,1795
853.6410695435349,1817
855.877463199097,1756
858.1132501999847,1795
860.3484307712487,1783
862.5830051380175,1750
864.8169735254988,1818
867.0503361589791,1822
869.2830932638243,1805
871.5152450654786,1752
873.7467917894654,1790
875.9777336613873,1837
878.2080709069252,1762
880.4378037518389,1809
882.666932421968,1833
884.8954571432301,1850
887.1233781416219,1775
889.3506956432192,1812
891.5774098741766,1821
893.803521060728,1865
896.0290294291852,1825
898.2539352059397,1850
900.4782386174619,1845
902.7019398903011,1831
904.925039251085,1813
907.147536926521,1903
909.3694331433943,1866
911.59072812857,1824
913.8114221089921,1825
916.0315153116827,1774
918.2510079637437,1851
920.4699002923547,1848
922.6881925247761,1691
924.905884888345,1778
927.1229776104793,1786
929.3394709186747,1808
931.555365040506,1773
933.7706602036275,1718
935.9853566357709,1815
938.1994545647489,1840
940.4129542184515,1796
942.6258558248488,1748
944.8381596119883,1722
947.0498658079974,1836
949.2609746410825,1705
951.4714863395287,1737
953.6814011316998,1753
955.8907192460387,1769
958.0994409110671,1709
960.3075663553858,1756
962.5150958076741,1726
964.7220294966913,1782
966.928367651274,1730
969.1341105003388,1797
971.3392582728806,1720
973.5438111979742,1671
975.747769504772,1680
977.9511334225061,1694
980.153903180487,1684
982.3560790081052,1760
984.5576611348289,1723
986.7586497902058,1652
988.9590452038618,1642
991.158847605503,1614
993.3580572249133,1725
995.5566742919558,1613
997.7546990365728,1569
999.952131688785,1647
1002.1489724786926,1579
1004.3452216364743,1551
1006.5408793923874,1519
1008.7359459767691,1526
1010.9304216200343,1522
1013.1243065526781,1486
1015.3176010052733,1490
1017.510305208472,1576
1019.7024193930064,1506
1021.8939437896848,1480
1024.0848786293977,1528
1026.2752241431122,1487
1028.4649805618747,1522
1030.6541481168115,1497
1032.842727039127,1484
1035.0307175601051,1536
1037.2181199111074,1471
1039.4049343235752,1442
1041.591161029029,1471
1043.7768002590683,1506
1045.9618522453698,1451
1048.1463172196918,1434
1050.3301954138697,1465
1052.513487059818,1481
1054.69619238953,1488
1056.8783116350783,1510
1059.0598450286152,1432
1061.2407928023704,1476
1063.4211551886528,1454
1065.6009324198508,1461
1067.780124728432,1451
1069.9587323469414,1409
1072.1367555080046,1414
1074.314194444325,1505
1076.4910493886855,1394
1078.667320573947,1416
1080.843008233051,1394
1083.0181125990161,1377
1085.1926339049414,1362
1087.3665723840027,1418
1089.5399282694575,1493
1091.7127017946405,1466
1093.8848931929647,1425
1096.0565026979243,1407
1098.2275305430899,1339
1100.3979769621128,1395
1102.567842188722,1416
1104.737126456726,1427
1106.9058300000124,1356
1109.0739530525475,1373
1111.2414958483764,1390
1113.4084586216231,1399
1115.5748416064907,1352
1117.7406450372605,1343
1119.9058691482942,1371
1122.0705141740304,1423
1124.2345803489884,1430
1126.3980679077658,1304
1128.5609770850388,1303
1130.7233081155623,1386
1132.8850612341707,1374
1135.0462366757774,1362
1137.2068346753745,1428
1139.3668554680326,1378
1141.526299288901,1366
1143.68516637321,1367
1145.8434569562655,1356
1148.001171273455,1290
1150.158309560244,1369
1152.3148720521767,1365
1154.470858984876,1290
1156.626270594044,1307
1158.7811071154629,1327
1160.9353687849912,1287
1163.089055838569,1307
1165.242168512213,1317
1167.3947070420209,1286
1169.5466716641677,1354
1171.6980626149075,1334
1173.8488801305748,1345
1175.9991244475814,1287
1178.1487958024186,1281
1180.2978944316555,1350
1182.4464205719428,1328
1184.5943744600072,1337
1186.7417563326567,1295
1188.8885664267755,1380
1191.0348049793297,1325
1193.1804722273619,1339
1195.325568407995,1327
1197.4700937584303,1314
1199.614048515948,1311
1201.7574329179074,1332
1203.900247201746,1334
1206.042491604982,1346
1208.1841663652099,1328
1210.3252717201053,1280
1212.465807907422,1297
1214.6057751649923,1348
1216.7451737307279,1322
1218.8840038426192,1328
1221.0222657387353,1326
1223.1599596572241,1296
1225.2970858363137,1313
1227.4336445143094,1354
1229.5696359295966,1376
1231.705060320639,1381
1233.8399179259786,1371
1235.9742089842384,1384
1238.107933734118,1312
1240.2410924143974,1413
1242.373685263935,1392
1244.5057125216676,1406
1246.6371744266116,1405
1248.7680712178621,1384
1250.898403134593,1372
1253.028170416058,1403
1255.1573733015875,1387
1257.2860120305932,1348
1259.4140868425648,1372
1261.54159797707,1333
1263.6685456737569,1383
1265.7949301723515,1393
1267.9207517126597,1421
1270.046010534565,1456
1272.1707068780306,1420
1274.2948409830983,1399
1276.4184130898889,1400
1278.541423438603,1376
1280.6638722695184,1428
1282.785759822993,1484
1284.9070863394636,1447
1287.0278520594447,1478
1289.1480572235314,1435
1291.2677020723963,1497
1293.3867868467923,1478
1295.5053117875495,1464
1297.623277135579,1477
1299.740683131868,1507
1301.8575300174857,1533
1303.973818033578,1464
1306.0895474213703,1491
1308.2047184221678,1483
1310.3193312773528,1491
1312.4333862283888,1511
1314.5468835168163,1526
1316.659823384255,1562
1318.7722060724045,1505
1320.8840318230418,1482
1322.9953008780249,1481
1325.1060134792888,1562
1327.2161698688478,1511
1329.3257702887959,1455
1331.4348149813054,1549
1333.5433041886276,1504
1335.6512381530933,1503
1337.7586171171101,1506
1339.8654413231675,1508
1341.9717110138317,1510
1344.0774264317488,1513
1346.1825878196432,1467
1348.2871954203192,1493
1350.3912494766587,1496
1352.4947502316231,1457
1354.5976979282532,1490
1356.7000928096686,1496
1358.8019351190665,1500
1360.9032250997243,1513
1363.0039629949988,1530
1365.1041490483235,1461
1367.2037835032133,1490
1369.3028666032606,1524
1371.401398592137,1555
1373.4993797135926,1465
1375.5968102114575,1599
1377.6936903296396,1502
1379.7900203121262,1468
1381.8858004029835,1550
1383.9810308463561,1499
1386.075711886469,1525
1388.1698437676241,1492
1390.2634267342032,1539
1392.356461030667,1534
1394.4489469015557,1484
1396.5408845914872,1489
1398.6322743451592,1526
1400.7231164073469,1579
1402.813411022907,1497
1404.903158436773,1606
1406.9923588939578,1558
1409.0810126395531,1606
1411.1691199187303,1589
1413.2566809767386,1555
1415.343696058907,1604
1417.4301654106425,1670
1419.5160892774315,1634
1421.6014679048399,1635
1423.6863015385125,1638
1425.7705904241707,1651
1427.8543348076178,1684
1429.9375349347342,1711
1432.0201910514802,1706
1434.102303403894,1662
1436.1838722380944,1697
1438.2648978002767,1760
1440.3453803367174,1751
1442.4253200937692,1680
1444.5047173178677,1733
1446.5835722555234,1839
1448.6618851533285,1873
1450.739656257952,1904
1452.8168858161434,1850
1454.8935740747306,1954
1456.96972128062,1995
1459.045327680797,2054
1461.120393522327,2033
1463.1949190523528,2014
1465.2689045180973,2146
1467.3423501668608,2175
1469.415256246024,2206
1471.4876230030463,2200
1473.559450685465,2134
1475.6307395408976,2239
1477.7014898170391,2277
1479.771701761665,2321
1481.8413756226287,2402
1483.9105116478618,2314
1485.9791100853772,2443
1488.0471711832643,2470
1490.1146951896926,2521
1492.1816823529098,2459
1494.2481329212433,2527
1496.3140471430984,2617
1498.3794252669609,2533
1500.4442675413939,2722
1502.5085742150404,2689
1504.572345536622,2655
1506.6355817549388,2705
1508.6982831188702,2725
1510.7604498773744,2694
1512.8220822794883,2792
1514.8831805743293,2768
1516.9437450110909,2668
1519.003775839048,2810
1521.0632733075522,2817
1523.1222376660367,2871
1525.1806691640113,2869
1527.2385680510652,2928
1529.2959345768668,2910
1531.3527689911643,2907
1533.4090715437833,2963
1535.4648424846291,2926
1537.5200820636855,3055
1539.5747905310159,3136
1541.6289681367616,3042
1543.6826151311434,3160
1545.7357317644614,3174
1547.7883182870937,3277
1549.8403749494987,3270
1551.8919020022113,3281
1553.9428996958477,3442
1555.9933682811015,3520
1558.0433080087469,3547
1560.0927191296346,3530
1562.1416018946961,3622
1564.1899565549415,3582
1566.2377833614592,3619
1568.2850825654164,3455
1570.3318544180606,3502
1572.3780991707158,3393
1574.423817074788,3339
1576.4690083817595,3066
1578.5136733431923,3086
1580.5578122107272,2946
1582.601425236085,2678
1584.6445126710646,2666
1586.6870747675434,2543
1588.7291117774776,2494
1590.7706239529034,2357
1592.8116115459347,2216
1594.8520748087658,2247
1596.8920139936686,2088
1598.9314293529933,2071
1600.9703211391711,1967
1603.008689604711,1939
1605.0465350022005,1911
1607.0838575843068,1869
1609.1206576037753,1784
1611.1569353134305,1778
1613.1926909661765,1789
1615.2279248149953,1681
1617.2626371129481,1681
1619.2968281131757,1662
1621.3304980688963,1633
1623.3636472334088,1660
1625.39627586009,1640
1627.428384202396,1538
1629.459972513861,1622
1631.4910410480993,1544
1633.5215900588028,1531
1635.551619799744,1571
1637.5811305247717,1510
1639.6101224878166,1546
1641.6385959428862,1529
1643.6665511440683,1520
1645.693988345528,1500
1647.7209078015112,1474
1649.7473097663405,1486
1651.7731944944203,1441
1653.7985622402307,1501
1655.823413258333,1440
1657.847747803366,1505
1659.8715661300494,1483
1661.8948684931793,1424
1663.9176551476316,1409
1665.9399263483624,1495
1667.9616823504057,1398
1669.982923408873,1425
1672.0036497789574,1442
1674.0238617159293,1428
1676.043559475138,1541
1678.0627433120121,1404
1680.081413482059,1481
1682.0995702408654,1466
1684.117213844096,1435
1686.134344547495,1368
1688.1509626068864,1469
1690.1670682781705,1419
1692.182661817329,1469
1694.1977434804217,1445
1696.2123135235875,1403
1698.226372203043,1532
1700.2399197750851,1443
1702.2529564960905,1398
1704.2654826225112,1427
1706.277498410882,1425
1708.2890041178139,1431
1710.2999999999988,1438
1712.3104863142066,1405
1714.3204633172854,1363
1716.329931266163,1401
1718.3388904178469,1398
1720.3473410294214,1378
1722.3552833580516,1380
1724.3627176609807,1414
1726.3696441955308,1364
1728.3760632191033,1401
1730.3819749891782,1402
1732.3873797633146,1346
1734.3922777991502,1372
1736.3966693544012,1337
1738.4005546868639,1338
1740.4039340544127,1328
1742.406807715001,1363
1744.4091759266616,1326
1746.4110389475054,1336
1748.4123970357223,1379
1750.413250449582,1367
1752.4135994474318,1353
1754.4134442876993,1329
1756.4127852288902,1300
1758.4116225295893,1378
1760.4099564484595,1320
1762.407787244244,1284
1764.405115175764,1323
1766.4019405019203,1323
1768.3982634816916,1324
1770.3940843741357,1312
1772.3894034383907,1284
1774.3842209336717,1254
1776.378537119274,1293
1778.372352254571,1311
1780.3656665990156,1289
1782.3584804121397,1362
1784.3507939535534,1268
1786.3426074829463,1216
1788.3339212600863,1315
1790.3247355448211,1304
1792.3150505970766,1262
1794.3048666768573,1309
1796.2941840442477,1275
1798.2830029594106,1288
1800.2713236825884,1297
1802.2591464741004,1272
1804.2464715943465,1322
1806.2332993038058,1318
1808.2196298630352,1224
1810.2054635326708,1223
1812.190800573428,1264
1814.175641246101,1315
1816.1599858115628,1293
1818.1438345307652,1239
1820.127187664738,1289
1822.1100454745924,1288
1824.092408221516,1246
1826.0742761667766,1285
1828.055649571721,1300
1830.0365286977735,1328
1832.0169138064398,1294
1833.9968051593014,1270
1835.9762030180214,1291
1837.9551076443408,1296
1839.9335193000788,1306
1841.9114382471344,1297
1843.888864747485,1271
1845.8657990631878,1277
1847.842241456378,1224
1849.8181921892697,1222
1851.7936515241558,1300
1853.7686197234098,1200
1855.7430970494815,1283
1857.7170837649014,1252
1859.6905801322787,1237
1861.6635864143004,1226
1863.6361028737338,1236
1865.608129773424,1243
1867.5796673762961,1254
1869.5507159453537,1338
1871.521275743678,1295
1873.4913470344313,1287
1875.4609300808534,1293
1877.4300251462632,1274
1879.3986324940588,1269
1881.366752387717,1254
1883.3343850907936,1244
1885.3015308669228,1310
1887.268189979819,1224
1889.2343626932739,1269
1891.2000492711595,1271
1893.1652499774254,1291
1895.1299650761011,1297
1897.0941948312952,1278
1899.0579395071945,1280
1901.0211993680641,1288
1902.98397467825,1247
1904.9462657021745,1290
1906.9080727043415,1292
1908.869395949332,1275
1910.8302357018065,1261
1912.790592226504,1283
1914.7504657882428,1277
1916.7098566519212,1258
1918.6687650825133,1280
1920.6271913450764,1257
1922.5851357047422,1246
1924.5425984267245,1311
1926.499579776314,1266
1928.4560800188833,1308
1930.4120994198802,1317
1932.367638244833,1265
1934.32269675935,1230
1936.2772752291175,1310
1938.231373919899,1247
1940.1849930975404,1267
1942.1381330279637,1235
1944.0907939771696,1277
1946.0429762112412,1299
1947.9946799963363,1256
1949.9459055986945,1271
1951.896653284633,1291
1953.8469233205478,1250
1955.7967159729142,1315
1957.7460315082863,1307
1959.6948701932974,1296
1961.6432322946594,1252
1963.5911180791632,1305
1965.5385278136787,1267
1967.4854617651545,1304
1969.4319202006182,1243
1971.377903387176,1252
1973.3234115920136,1306
1975.268445082395,1300
1977.2130041256642,1245
1979.1570889892423,1246
1981.1006999406304,1263
1983.04383724741,1193
1984.986501177238,1204
1986.928691997853,1309
1988.8704099770712,1224
1990.811655382789,1275
1992.7524284829801,1235
1994.692729545698,1286
1996.6325588390755,1224
1998.5719166313224,1272
2000.5108031907307,1297
2002.4492187856677,1229
2004.387163684583,1276
2006.3246381560011,1257
2008.2616424685298,1186
2010.1981768908527,1258
2012.1342416917332,1262
2014.069837140014,1243
2016.0049635046162,1188
2017.9396210545406,1237
2019.8738100588666,1250
2021.8075307867502,1242
2023.740783507431,1254
2025.6735684902228,1208
2027.6058860045214,1217
2029.5377363198004,1257
2031.4691197056118,1235
2033.4000364315875,1232
2035.3304867674374,1193
2037.260470982952,1202
2039.189989347998,1192
2041.1190421325232,1223
2043.047629606554,1197
2044.9757520401945,1209
2046.9034097036288,1205
2048.8306028671195,1210
2050.7573318010086,1239
2052.683596775716,1268
2054.609398061742,1188
2056.5347359296647,1187
2058.4596106501403,1277
2060.384022493906,1188
2062.3079717317764,1241
2064.231458634646,1204
2066.1544834734873,1253
2068.077046519352,1230
2069.99914804337,1210
2071.9207883167524,1197
2073.8419676107865,1190
2075.7626861968406,1210
2077.6829443463607,1190
2079.6027423308715,1168
2081.522080421977,1186
2083.440958891362,1238
2085.359378010786,1208
2087.2773380520907,1207
2089.194839287196,1230
2091.111881988101,1194
2093.0284664268825,1228
2094.9445928756973,1254
2096.86026160678,1267
2098.775472892446,1216
2100.690227005088,1184
2102.604524217178,1209
2104.5183648012676,1231
2106.431749029985,1231
2108.34467717604,1211
2110.2571495122206,1225
2112.169166311393,1185
2114.080727846503,1201
2115.9918343905747,1206
2117.902486216711,1217
2119.8126835980956,1242
2121.722426807987,1245
2123.6317161197285,1244
2125.5405518067364,1207
2127.448934142509,1301
2129.356863400624,1327
2131.264339854737,1188
2133.1713637785815,1192
2135.077935445972,1314
2136.9840551308002,1227
2138.889723107037,1275
2140.7949396487334,1228
2142.699705030018,1237
2144.6040195250994,1279
2146.507883408264,1233
2148.4112969538774,1242
2150.3142604363848,1287
2152.2167741303097,1242
2154.1188383102535,1244
2156.0204532508997,1285
2157.9216192270064,1223
2159.822336513414,1245
2161.7226053850413,1230
2163.622426116884,1194
2165.5217989840185,1251
2167.4207242616,1275
2169.319202224862,1270
2171.2172331491165,1266
2173.1148173097563,1266
2175.0119549822507,1324
2176.90864644215,1269
2178.8048919650823,1261
2180.7006918267534,1295
2182.596046302952,1275
2184.4909556695407,1279
2186.3854202024645,1217
2188.279440177746,1249
2190.173015871487,1263
2192.066147559868,1239
2193.958835519149,1246
2195.851080025667,1292
2197.7428813558417,1284
2199.6342397861667,1300
2201.5251555932186,1301
2203.415629053651,1294
2205.3056604441986,1263
2207.19525004167,1294
2209.084398122958,1291
2210.9731049650327,1316
2212.861370844941,1275
2214.749196039812,1282
2216.636580826851,1283
2218.523525483344,1311
2220.410030286655,1314
2222.296095514226,1316
2224.1817214435805,1298
2226.066908352319,1317
2227.951656518121,1284
2229.835966218746,1354
2231.71983773203,1284
2233.6032713358913,1408
2235.486267308324,1298
2237.3688259274036,1357
2239.2509474712824,1372
2241.132632218193,1335
2243.013880446447,1364
2244.8946924344323,1351
2246.7750684606203,1315
2248.6550088035574,1331
2250.534513741871,1339
2252.413583554265,1295
2254.292218519526,1343
2256.170418916517,1297
2258.0481850241786,1349
2259.925517121534,1335
2261.8024154876825,1290
2263.678880401803,1363
2265.5549121431536,1331
2267.430510991071,1342
2269.305677224971,1315
2271.180411124348,1293
2273.0547129687766,1297
2274.9285830379076,1267
2276.8020216114737,1276
2278.6750289692845,1338
2280.5476053912294,1277
2282.4197511572766,1320
2284.2914665474727,1382
2286.162751841943,1330
2288.0336073208937,1334
2289.904033264608,1342
2291.774029953448,1366
2293.6435976678554,1317
2295.5127366883517,1326
2297.381447295534,1314
2299.2497297700825,1329
2301.1175843927526,1255
2302.9850114443825,1243
2304.852011205885,1241
2306.7185839582553,1241
2308.5847299825664,1168
2310.4504495599676,1176
2312.3157429716925,1169
2314.1806104990483,1162
2316.0450524234247,1156
2317.9090690262888,1177
2319.772660589186,1175
2321.635827393742,1153
2323.498569721661,1134
2325.3608878547248,1107
2327.2227820747967,1151
2329.0842526638157,1175
2330.945299903803,1103
2332.805924076857,1126
2334.6661254651535,1148
2336.525904350951,1122
2338.3852610165827,1189
2340.244195744464,1140
2342.102708817088,1093
2343.9608005170253,1177
2345.8184711269287,1198
2347.675720929526,1161
2349.532550207628,1132
2351.38895924412,1122
2353.24494832197,1195
2355.100517724223,1172
2356.955667734004,1121
2358.810398634514,1197
2360.664710709037,1190
2362.5186042409337,1179
2364.3720795136437,1155
2366.225136810686,1151
2368.0777764156583,1172
2369.929998612237,1179
2371.7818036841777,1234
2373.633191915315,1181
2375.484163589562,1132
2377.3347189909114,1181
2379.184858403434,1139
2381.03458211128,1200
2382.8838903986775,1168
2384.732783549936,1155
2386.5812618494406,1142
2388.4293255816588,1163
2390.2769750311327,1188
2392.1242104824883,1198
2393.971032220427,1152
2395.8174405297295,1222
2397.6634356952563,1180
2399.509018001947,1168
2401.3541877348193,1212
2403.1989451789705,1182
2405.043290619576,1160
2406.8872243418905,1151
2408.730746631247,1173
2410.5738577730594,1146
2412.4165580528183,1218
2414.258847756095,1166
2416.100727168537,1191
2417.9421965758734,1126
2419.783256263912,1104
2421.623906518538,1197
2423.4641476257157,1174
2425.303979871491,1174
2427.143403541984,1175
2428.9824189233977,1216
2430.821026302012,1191
2432.6592259641866,1210
2434.497018196361,1167
2436.33440328505,1173
2438.171381516851,1207
2440.00795317844,1227
2441.844118556569,1208
2443.6798779380724,1217
2445.5152316098606,1190
2447.3501798589255,1230
2449.1847229723357,1216
2451.0188612372403,1159
2452.8525949408663,1170
2454.6859243705203,1193
2456.518849813587,1232
2458.3513715575314,1191
2460.183489889895,1178
2462.015205098301,1216
2463.8465174704493,1172
2465.67742729412,1187
2467.5079348571717,1239
2469.338040447542,1211
2471.1677443532476,1213
2472.9970468623833,1211
2474.825948263123,1181
2476.6544488437207,1162
2478.482548892508,1145
2480.310248697896,1141
2482.137548548374,1184
2483.9644487325118,1203
2485.790949538956,1232
2487.617051256433,1178
2489.44275417375,1238
2491.26805857979,1237
2493.0929647635157,1200
2494.917473013971,1229
2496.741583620276,1267
2498.5652968716304,1260
2500.3886130573137,1251
2502.2115324666834,1258
2504.0340553891765,1188
2505.856182114308,1294
2507.6779129316733,1235
2509.499248130945,1267
2511.3201880018764,1217
2513.140732834298,1252
2514.9608829181198,1283
2516.780638543331,1296
2518.6,1254
2520.418967578273,1202
2522.237541568376,1332
2524.0557222606144,1264
2525.8735099453706,1284
2527.6909049131086,1257
2529.507907454368,1272
2531.32451785977,1299
2533.140736420014,1309
2534.9565634258774,1344
2536.771999168218,1312
2538.5870439379714,1347
2540.4016980261526,1354
2542.2159617238544,1355
2544.02983532225,1346
2545.8433191125914,1332
2547.656413386209,1409
2549.4691184345115,1378
2551.2814345489874,1391
2553.093362021204,1328
2554.904901142808,1435
2556.716052205523,1406
2558.526815501153,1403
2560.3371913215824,1439
2562.147179958771,1440
2563.956781704761,1482
2565.7659968516705,1445
2567.5748256916986,1479
2569.3832685171224,1527
2571.1913256202984,1516
2572.9989972936614,1506
2574.806283829725,1530
2576.613185521084,1518
2578.4197026604074,1505
2580.2258355404483,1474
2582.031584454035,1484
2583.836949694077,1524
2585.6419315535613,1589
2587.4465303255533,1617
2589.2507463032002,1575
2591.0545797797245,1539
2592.8580310484303,1537
2594.6611004026995,1563
2596.463788135992,1639
2598.266094541849,1579
2600.0680199138874,1580
2601.869564545807,1578
2603.670728731383,1551
2605.4715127644704,1527
2607.2719169390048,1647
2609.071941548998,1580
2610.8715868885433,1602
2612.670853251811,1537
2614.469740933052,1585
2616.268250226594,1575
2618.0663814268455,1565
2619.864134828292,1635
2621.6615107255006,1588
2623.458509413115,1530
2625.2551311858597,1561
2627.0513763385347,1533
2628.8472451660223,1541
2630.6427379632833,1544
2632.4378550253564,1606
2634.232596647359,1490
2636.026963124488,1567
2637.8209547520187,1514
2639.6145718253065,1482
2641.407814639785,1458
2643.200683490966,1464
2644.9931786744414,1435
2646.7853004858807,1452
2648.577049221034,1446
2650.3684251757277,1418
2652.1594286458712,1394
2653.9500599274484,1397
2655.740319316525,1335
2657.5302071092437,1315
2659.3197236018286,1331
2661.10886909058,1350
2662.8976438718782,1359
2664.686048242183,1354
2666.4740824980327,1313
2668.2617469360443,1353
2670.0490418529134,1293
2671.8359675454153,1323
2673.622524310403,1323
2675.408712444811,1318
2677.1945322456495,1291
2678.979984010009,1264
2680.76506803506,1318
2682.5497846180497,1293
2684.334134056306,1270
2686.1181166472343,1295
2687.9017326883213,1203
2689.6849824771293,1296
2691.4678663113013,1256
2693.2503844885596,1264
2695.032537306705,1308
2696.8143250636167,1204
2698.5957480572542,1237
2700.3768065856534,1274
2702.1575009469316,1241
2703.937831439283,1229
2705.717798360982,1236
2707.4974020103837,1272
2709.276642685917,1270
2711.055520686095,1129
2712.834036309506,1153
2714.612189854819,1145
2716.389981620782,1185
2718.1674119062204,1205
2719.944481010041,1229
2721.721189231226,1159
2723.4975368688415,1150
2725.273524222027,1159
2727.0491515900053,1143
2728.824419272075,1186
2730.5993275676146,1237
2732.3738767760838,1133
2734.148067197016,1149
2735.921899130031,1091
2737.6953728748194,1122
2739.468488731156,1145
2741.2412469988926,1125
2743.0136479779617,1184
2744.785691968372,1211
2746.5573792702116,1137
2748.3287101836504,1146
2750.099685008934,1178
2751.870304046388,1141
2753.640567596418,1170
2755.4104759595057,1107
2757.1800294362156,1135
2758.949228327187,1079
2760.7180729331412,1095
2762.486563554877,1155
2764.254700493272,1164
2766.022484049284,1148
2767.789914523947,1152
2769.5569922183786,1149
2771.3237174337705,1171
2773.090090471394,1142
2774.8561116326036,1133
2776.6217812188274,1176
2778.3870995315756,1151
2780.1520668724356,1151
2781.9166835430747,1124
2783.6809498452394,1117
2785.444866080754,1160
2787.2084325515225,1093
2788.971649559527,1116
2790.73451740683,1122
2792.4970363955713,1079
2794.2592068279705,1095
2796.0210290063264,1140
2797.7825032330147,1157
2799.543629810493,1137
2801.304409041296,1152
2803.0648412280366,1200
2804.8249266734088,1129
2806.5846656801846,1165
2808.344058551212,1128
2810.1031055894246,1183
2811.8618070978273,1152
2813.6201633795085,1146
2815.378174737636,1180
2817.1358414754536,1127
2818.893163896285,1113
2820.6501423035334,1150
2822.4067770006814,1148
2824.1630682912883,1146
2825.9190164789957,1166
2827.6746218675207,1112
2829.429884760661,1136
2831.184805462294,1084
2832.9393842763743,1166
2834.693621506936,1159
2836.4475174580916,1158
2838.201072434034,1115
2839.954286739034,1154
2841.707160677441,1179
2843.459694553685,1120
2845.2118886722724,1090
2846.96374333779,1141
2848.7152588549034,1149
2850.4664355283567,1125
2852.217273662973,1135
2853.9677735636546,1154
2855.7179355353833,1156
2857.4677598832186,1152
2859.217246912299,1102
2860.9663969278427,1165
2862.715210235146,1122
2864.4636871395846,1122
2866.211827946614,1133
2867.9596329617652,1132
2869.7071024906536,1194
2871.4542368389684,1155
2873.20103631248,1124
2874.947501217038,1143
2876.6936318585695,1111
2878.4394285430812,1111
2880.1848915766604,1134
2881.9300212654707,1120
2883.6748179157553,1095
2885.4192818338374,1109
2887.1634133261173,1209
2888.907212699077,1199
2890.6506802592744,1091
2892.393816313348,1186
2894.1366211680142,1150
2895.8790951300693,1160
2897.621238506388,1146
2899.363051603925,1151
2901.1045347297118,1167
2902.8456881908596,1114
2904.58651229456,1189
2906.327007348081,1165
2908.067173658772,1120
2909.8070115340597,1117
2911.5465212814497,1122
2913.285703208527,1200
2915.0245576229563,1155
2916.7630848324807,1140
2918.5012851449196,1147
2920.2391588681758,1136
2921.976706310227,1129
2923.7139277791334,1173
2925.4508235830313,1128
2927.187394030137,1132
2928.923639428745,1147
2930.6595600872306,1121
2932.395156314046,1112
2934.1304284177218,1176
2935.8653767068713,1120
2937.6000014901815,1123
2939.3343030764227,1182
2941.068281774442,1135
2942.8019378931644,1161
2944.5352717415976,1170
2946.2682836288236,1170
2948.0009738640065,1173
2949.7333427563885,1074
2951.465390615289,1125
2953.1971177501086,1174
2954.9285244703265,1148
2956.6596110855,1131
2958.3903779052657,1158
2960.1208252393385,1142
2961.8509533975125,1127
2963.5807626896617,1130
2965.3102534257378,1138
2967.0394259157715,1086
2968.768280469873,1164
2970.496817398232,1102
2972.2250370111146,1092
2973.952939618869,1116
2975.6805255319196,1189
2977.4077950607707,1093
2979.134748516006,1155
2980.861386208289,1132
2982.587708448359,1112
2984.313715547037,1202
2986.039407815222,1146
2987.764785563891,1164
2989.489849104102,1127
2991.2145987469908,1102
2992.9390348037705,1091
2994.6631575857346,1119
2996.3869674042576,1104
2998.1104645707887,1128
2999.83364939686,1124
3001.5565221940783,1122
3003.2790832741334,1167
3005.0013329487924,1116
3006.7232715298996,1070
3008.4448993293804,1082
3010.166216659239,1138
3011.887223831558,1086
3013.607921158498,1107
3015.3283089522993,1112
3017.0483875252826,1104
3018.7681571898443,1122
3020.4876182584626,1101
3022.2067710436927,1127
3023.9256158581707,1104
3025.644153014609,1158
3027.362382825801,1143
3029.0803056046193,1133
3030.797921664012,1106
3032.5152313170106,1095
3034.2322348767225,1137
3035.9489326563353,1138
3037.665324969115,1124
3039.3814121284063,1102
3041.097194447633,1155
3042.812672240299,1140
3044.5278458199855,1121
3046.2427155003525,1076
3047.9572815951406,1138
3049.671544418167,1122
3051.38550428333,1119
3053.0991615046073,1079
3054.812516396051,1135
3056.5255692717974,1130
3058.2383204460575,1134
3059.9507702331257,1094
3061.662918947372,1101
3063.3747669032446,1133
3065.0863144152736,1124
3066.7975617980674,1101
3068.508509366309,1154
3070.219157434767,1116
3071.9295063182844,1119
3073.639556331785,1125
3075.3493077902704,1116
3077.058761008821,1146
3078.7679163025964,1170
3080.476773986837,1153
3082.1853343768594,1103
3083.89359778806,1128
3085.6015645359153,1148
3087.3092349359786,1132
3089.016609303884,1134
3090.7236879553434,1109
3092.4304712061476,1130
3094.136959372166,1081
3095.843152769349,1151
3097.5490517137237,1145
3099.2546565213966,1134
3100.959967508554,1135
3102.66498499146,1145
3104.3697092864577,1121
3106.0741407099695,1155
3107.778279578498,1166
3109.482126208622,1185
3111.1856809170004,1117
3112.8889440203716,1137
3114.5919158355528,1177
3116.294596679439,1136
3117.996986869006,1092
3119.6990867213062,1209
3121.4008965534726,1177
3123.102416682717,1120
3124.803647426329,1131
3126.5045891016784,1152
3128.205242026213,1148
3129.90560651746,1139
3131.605682893025,1132
3133.3054714705922,1139
3135.0049725679282,1180
3136.7041865028714,1110
3138.4031135933465,1146
3140.101754157353,1124
3141.800108512971,1140
3143.498176978357,1102
3145.1959598717494,1116
3146.8934575114636,1143
3148.5906702158954,1130
3150.2875983035183,1114
3151.9842420928853,1108
3153.680601902627,1111
3155.376678051456,1052
3157.07247085816,1097
3158.767980641609,1156
3160.463207720748,1138
3162.158152414606,1169
3163.8528150422862,1208
3165.5471959229726,1185
3167.2412953759303,1127
3168.9351137204976,1154
3170.628651276098,1111
3172.3219083622307,1127
3174.014885298474,1118
3175.707582404485,1183
3177.4000000000005,1118
3179.092138404835,1095
3180.7839979388846,1143
3182.47557892212,1123
3184.166881674594,1120
3185.8579065164386,1118
3187.5486537678626,1161
3189.2391237491547,1131
3190.9293167806827,1102
3192.6192331828934,1148
3194.3088732763117,1113
3195.998237381542,1106
3197.687325819268,1006
3199.376138910251,1071
3201.064676975334,1096
3202.7529403354347,1086
3204.4409293115523,1047
3206.1286442247647,1120
3207.816085396229,1066
3209.5032531471825,1078
3211.190147798936,1126
3212.8767696728846,1118
3214.5631190905015,1079
3216.2491963733373,1104
3217.9350018430214,1099
3219.6205358212637,1111
3221.305798629851,1103
3222.990790590651,1091
3224.6755120256103,1083
3226.359963256751,1106
3228.0441446061795,1114
3229.7280563960758,1141
3231.411698948703,1120
3233.0950725863995,1097
3234.778177631587,1109
3236.461014406761,1122
3238.1435832345005,1145
3239.8258844374595,1123
3241.507918338374,1141
3243.1896852600576,1104
3244.8711855254023,1087
3246.552419457381,1073
3248.233387379042,1117
3249.914089613516,1117
3251.59452648401,1125
3253.274698313813,1123
3254.95460542629,1136
3256.6342481448855,1104
3258.313626793125,1091
3259.9927416946084,1096
3261.6715931730196,1061
3263.3501815521176,1067
3265.0285071557437,1036
3266.706570307815,1084
3268.3843713323286,1060
3270.0619105533615,1075
3271.739188295068,1050
3273.4162048816834,1082
3275.0929606375184,1087
3276.769455886966,1103
3278.445690954498,1107
3280.1216661646613,1048
3281.797381842087,1055
3283.4728383114807,1071
3285.1480358976296,1063
3286.8229749253996,1134
3288.4976557197333,1072
3290.172078605655,1077
3291.846243908266,1065
3293.5201519527463,1096
3295.193803064357,1081
3296.8671975684374,1161
3298.5403357904024,1030
3300.21321805575,1063
3301.8858446900567,1096
3303.558216018975,1080
3305.23033236824,1091
3306.9021940636603,1064
3308.57380143113,1098
3310.2451547966184,1113
3311.916254486174,1082
3313.5871008259246,1086
3315.2576941420766,1078
3316.9280347609147,1057
3318.5981230088046,1051
3320.2679592121895,1059
3321.9375436975924,1058
3323.606876791612,1089
3325.27595882093,1094
3326.944790112305,1081
3328.6133709925753,1054
3330.2817017886573,1078
3331.949782827547,1104
3333.617614436319,1118
3335.2851969421245,1118
3336.952530672199,1072
3338.619615953853,1098
3340.286453114475,1107
3341.9530424815357,1073
3343.619384382583,1080
3345.2854791452437,1039
3346.951327097224,1064
3348.6169285663073,1110
3350.2822838803577,1097
3351.947393367319,1093
3353.61225735521,1074
3355.2768761721345,1128
3356.9412501462693,1088
3358.605379605873,1085
3360.2692648792827,1064
3361.9329062949146,1064
3363.596304181263,1101
