CollectionTime,7/11/2024 12:46:24 PM
ExposureUsed,3
CalibratedSpectrum
-962.7078968117929,1000
-959.9714848408522,1072
-957.2358232597828,1025
-954.5009119013725,1013
-951.7667505983302,1036
-949.0333391832855,1137
-946.3006774887896,1097
-943.5687653473143,1071
-940.837602591253,1083
-938.1071890529199,1057
-935.3775245645503,1061
-932.6486089583007,1063
-929.9204420662485,1037
-927.1930237203925,1060
-924.4663537526524,1084
-921.7404319948689,1058
-919.0152582788041,1103
-916.2908324361409,1099
-913.5671542984834,1037
-910.8442236973568,1076
-908.1220404642074,1100
-905.4006044304027,1032
-902.679915427231,1058
-899.959973285902,1020
-897.2407778375464,1062
-894.5223289132158,1053
-891.8046263438832,1023
-889.0876699604426,1071
-886.3714595937089,1078
-883.6559950744183,1057
-880.9412762332282,988
-878.2273029007168,1081
-875.5140749073835,1029
-872.8015920836489,1083
-870.0898542598545,995
-867.3788612662631,1067
-864.6686129330585,1078
-861.9591090903457,1027
-859.2503495681506,990
-856.5423341964203,1054
-853.8350628050229,1105
-851.1285352237478,1074
-848.4227512823054,1082
-845.7177108103272,1082
-843.0134136373656,1081
-840.3098595928943,1059
-837.6070485063082,1104
-834.9049802069229,1132
-832.2036545239757,1119
-829.5030712866244,1089
-826.8032303239481,1162
-824.1041314649472,1114
-821.4057745385428,1052
-818.7081593735775,1127
-816.0112857988148,1124
-813.3151536429393,1115
-810.6197627345566,1054
-807.9251129021936,1082
-805.2312039742981,1082
-802.5380357792392,1085
-799.8456081453069,1102
-797.1539209007124,1134
-794.462973873588,1074
-791.772766891987,1066
-789.083299783884,1072
-786.3945723771743,1169
-783.7065844996748,1136
-781.0193359791231,1162
-778.3328266431781,1134
-775.6470563194197,1121
-772.9620248353489,1122
-770.2777320183878,1086
-767.5941776958798,1128
-764.9113616950891,1155
-762.2292838432011,1166
-759.5479439673222,1149
-756.8673418944801,1196
-754.1874774516235,1127
-751.5083504656222,1079
-748.8299607632671,1146
-746.15230817127,1187
-743.475392516264,1167
-740.7992136248035,1210
-738.1237713233636,1147
-735.4490654383407,1178
-732.7750957960521,1174
-730.1018622227365,1189
-727.4293645445534,1207
-724.7576025875837,1116
-722.0865761778291,1152
-719.4162851412126,1205
-716.7467293035781,1211
-714.0779084906909,1165
-711.409822528237,1216
-708.7424712418238,1174
-706.0758544569796,1154
-703.4099719991541,1216
-700.7448236937178,1265
-698.0804093659622,1275
-695.4167288411002,1204
-692.7537819442656,1188
-690.0915685005134,1221
-687.4300883348199,1197
-684.7693412720819,1206
-682.1093271371178,1238
-679.4500457546669,1250
-676.7914969493897,1225
-674.1336805458676,1262
-671.4765963686034,1260
-668.8202442420206,1239
-666.1646239904642,1207
-663.5097354382001,1254
-660.8555784094151,1233
-658.2021527282176,1255
-655.5494582186366,1263
-652.8974947046223,1239
-650.2462620100463,1304
-647.5957599587009,1246
-644.9459883742998,1332
-642.2969470804776,1290
-639.6486359007902,1334
-637.0010546587141,1352
-634.3542031776476,1325
-631.7080812809096,1289
-629.0626887917401,1273
-626.4180255333008,1250
-623.7740913286734,1337
-621.1308860008619,1364
-618.4884093727904,1277
-615.8466612673046,1232
-613.2056415071715,1311
-610.5653499150785,1271
-607.9257863136347,1291
-605.28695052537,1307
-602.6488423727357,1288
-600.0114616781036,1252
-597.3748082637674,1337
-594.7388819519412,1375
-592.1036825647604,1412
-589.4692099242818,1432
-586.8354638524829,1312
-584.2024441712624,1407
-581.5701507024403,1423
-578.9385832677575,1358
-576.3077416888759,1362
-573.6776257873787,1349
-571.0482353847704,1340
-568.4195703024757,1363
-565.7916303618415,1356
-563.164415384135,1380
-560.5379251905453,1358
-557.9121596021815,1344
-555.2871184400748,1364
-552.6628015251767,1429
-550.0392086783606,1385
-547.4163397204204,1409
-544.794194472071,1393
-542.1727727539491,1390
-539.5520743866118,1382
-536.9320991905377,1398
-534.3128469861261,1444
-531.6943175936979,1464
-529.0765108334947,1491
-526.4594265256793,1528
-523.8430644903358,1620
-521.2274245474689,1680
-518.612506517005,1756
-515.9983102187913,1770
-513.3848354725959,1733
-510.77208209810846,1837
-508.16004991493924,1781
-505.5487387426199,1907
-502.9381484006032,2019
-500.3282787082628,2099
-497.71912948489364,2072
-495.1107005497117,2017
-492.5029917218539,1955
-489.8960028203786,1757
-487.28973366426493,1685
-484.68418407241325,1634
-482.07935386364494,1582
-479.47524285670266,1571
-476.87185087025,1580
-474.2691777228715,1612
-471.66722323307334,1575
-469.0659872192821,1591
-466.4654694998459,1598
-463.86566989303384,1642
-461.26658821703614,1627
-458.66822428996414,1610
-456.07057792985,1631
-453.4736489546475,1596
-450.877437182231,1533
-448.28194243039627,1547
-445.68716451686,1615
-443.09310325926003,1598
-440.49975847515555,1547
-437.9071299820263,1584
-435.31521759727354,1552
-432.72402113821954,1603
-430.13354042210767,1639
-427.5437752661022,1522
-424.95472548728867,1623
-422.36639090267386,1555
-419.7787713291855,1656
-417.1918665836721,1728
-414.60567648290385,1694
-412.0202008435715,1650
-409.4354394822874,1631
-406.8513922155845,1730
-404.26805885991723,1707
-401.685439231661,1622
-399.103533147112,1597
-396.522340422488,1643
-393.9418608739278,1567
-391.3620943174908,1599
-388.7830405691583,1547
-386.2046994448317,1496
-383.6270707603344,1387
-381.05015433141045,1306
-378.473949973725,1249
-375.8984575028645,1167
-373.32367673433623,998
-370.74960748356875,948
-368.1762495659117,865
-365.60360279663576,737
-363.03166699093265,649
-360.4604419639154,587
-357.8899275306178,549
-355.32012350599507,505
-352.7510297049233,520
-350.1826459421999,471
-347.61497203254316,459
-345.04800779059235,483
-342.4817530309082,498
-339.91620756797226,473
-337.35137121618743,500
-334.7872437898774,570
-332.22382510328725,550
-329.66111497058273,469
-327.09911320585127,475
-324.53781962310075,527
-321.9772340362607,492
-319.4173562591816,442
-316.8581861056348,412
-314.2997233893127,457
-311.7419679238294,468
-309.1849195227194,483
-306.62857799943856,517
-304.0729431673641,551
-301.51801483979375,524
-298.963792829947,558
-296.41027695096386,537
-293.85746701590574,571
-291.3053628377552,559
-288.7539642294155,528
-286.2032710037115,526
-283.65328297338897,554
-281.1039999511146,613
-278.5554217494762,610
-276.007548180983,537
-273.4603790580651,517
-270.9139141930734,529
-268.3681533982807,527
-265.8230964858798,514
-263.27874326798565,521
-260.7350935566336,541
-258.1921471637804,584
-255.6499039013039,557
-253.10836358100266,581
-250.56752601459698,554
-248.02739101372765,616
-245.48795838995704,661
-242.94922795476816,625
-240.41119951956557,605
-237.8738728956746,653
-235.33724789434166,618
-232.80132432673452,550
-230.2661020039418,556
-227.73158073697357,580
-225.19776033676033,665
-222.66464061415422,662
-220.1322213799284,678
-217.60050244477725,603
-215.06948361931552,602
-212.53916471408013,654
-210.00954553952818,712
-207.48062590603843,628
-204.9524056239104,608
-202.4248845033651,641
-199.8980623545441,687
-197.37193898751036,708
-194.84651421224817,729
-192.32178783866232,739
-189.79775967657952,686
-187.27442953574644,717
-184.7517972258321,823
-182.2298625564256,846
-179.7086253370378,813
-177.18808537710026,746
-174.66824248596583,768
-172.14909647290835,714
-169.6306471471229,734
-167.11289431772548,735
-164.59583779375328,764
-162.07947738416453,751
-159.5638128978386,769
-157.04884414357605,782
-154.53457093009854,824
-152.02099306604828,902
-149.50811035998936,747
-146.99592262040665,719
-144.48442965570587,931
-141.97363127421409,819
-139.46352728417958,773
-136.95411749377126,875
-134.44540171107985,794
-131.93737974411636,736
-129.43005140081357,834
-126.92341648902493,1104
-124.41747481652521,1086
-121.91222619101006,963
-119.40767042009657,1087
-116.90380731132257,1427
-114.40063667214702,1737
-111.8981583099503,2037
-109.3963720320337,2092
-106.89527764561933,2476
-104.39487495785067,2307
-101.89516377579241,3105
-99.39614390642998,4106
-96.89781515667039,6119
-94.40017733334128,7681
-91.90323024319173,7650
-89.40697369289148,6785
-86.91140748903172,6497
-84.41653143812482,6444
-81.92234534660395,6427
-79.42884902082358,6316
-76.93604226705907,9426
-74.4439248915071,15382
-71.95249670028534,23075
-69.46175749943245,29872
-66.97170709490854,31458
-64.48234529259423,27856
-61.99367189829195,21510
-59.50568671772464,16320
-57.01838955653636,13900
-54.53178022029283,11456
-52.045858514480074,10640
-49.560624244506016,11997
-47.07607721569923,13104
-44.59221723330904,12663
-42.10904410250669,11025
-39.62655762838392,8855
-37.14475761595372,7482
-34.66364387015028,6903
-32.18321619582866,7480
-29.70347439776515,8520
-27.224418280657005,7672
-24.74604764912317,8726
-22.26836230770266,13365
-19.7913620608565,26240
-17.315046712966478,47377
-14.83941606833514,65039
-12.36446993118659,65039
-9.89020810566592,65039
-7.416630395839093,65039
-4.94373660569363,65039
-2.471526539137585,65039
-6.821210263296962E-13,65039
2.47084320796705,65039
4.941003281093458,65039
7.410480415786196,65039
9.879274808531363,65039
12.347386655893956,65039
14.814816154518212,65039
17.28156350112681,65039
19.74762889252179,65039
22.21301252558385,21030
24.67771459727237,3926
27.141735304626195,2828
29.605074844762612,2964
32.06773341487792,2599
34.52971121224755,2429
36.99100843422559,2572
39.45162527824516,2327
41.91156194181792,1686
44.370818622535126,1507
46.82939551806646,1398
49.287292826160524,1761
51.74451074464503,2574
54.201049471426245,2467
56.65690920448981,1696
59.112090141899785,1492
61.56659248179983,1443
64.02041642241159,1387
66.4735621620365,1227
68.92602989905402,1249
71.37781983192338,1234
73.82893215918205,1274
76.27936707944684,1181
78.72912479141326,1119
81.17820549385567,1361
83.62660938562783,1609
86.07433666566146,1414
88.5213875329681,933
90.96776218663751,890
93.41346082583925,1013
95.85848364982041,1240
98.30283085790859,1342
100.7465026495089,1189
103.18949922410604,1178
105.63182078126385,1174
108.07346752062438,1133
110.51443964190923,947
112.95473734491827,793
115.39436082953114,822
117.83331029570547,905
120.27158594347827,870
122.7091879729652,907
125.1461165843615,1012
127.58237197794062,981
130.01795435405518,892
132.4528639131364,921
134.88710085569494,1005
137.32066538231982,938
139.75355769367923,897
142.1857779905207,944
144.61732647366978,813
147.04820334403132,800
149.47840880258934,893
151.90794305040674,944
154.33680628862487,1139
156.76499871846443,1357
159.19252054122433,1480
161.61937195828352,1633
164.04555317109896,1809
166.47106438120693,2141
168.89590579022217,2383
171.320077599839,2450
173.7435800118302,2695
176.16641322804742,2903
178.58857745042144,3028
181.01007288096173,3111
183.43089972175687,3167
185.85105817497413,3212
188.27054844285988,3290
190.6893707277394,3303
193.10752523201643,3422
195.5250121581745,3464
197.9418317087751,3441
200.3579840864594,3571
202.7734694939469,3610
205.18828813403627,3651
207.6024402096051,3744
210.01592592360964,3778
212.42874547908548,3744
214.84089907914665,3751
217.2523869269868,3635
219.66320922587727,3675
222.0733661791695,3747
224.48285799029293,3648
226.8916848627572,3672
229.29984700014882,3784
231.7073446061355,3887
234.11417788446204,3910
236.520347038953,3972
238.92585227351185,3943
241.33069379212054,3933
243.73487179884035,4138
246.1383864978112,4184
248.541238093252,4085
250.9434267894609,4101
253.34495279081432,4079
255.74581630176783,4046
258.1460175268563,4133
260.54555667069314,4036
262.9444339379703,3995
265.3426495334594,3996
267.7402036620107,3960
270.1370965285529,3846
272.53332833809407,3901
274.9288992957214,3765
277.32380960660055,3709
279.718059475976,3648
282.1116491091717,3645
284.5045787115897,3625
286.89684848871195,3600
289.2884586460981,3607
291.67940938938807,3580
294.0697009242996,3631
296.4593334566299,3637
298.84830719225477,3588
301.23662233712923,3523
303.6242790972866,3503
306.01127767884,3518
308.39761828798066,3446
310.78330113097934,3508
313.16832641418534,3450
315.5526943440269,3243
317.9364051270112,3408
320.3194589697242,3421
322.70185607883093,3444
325.0835966610754,3504
327.4646809232805,3271
329.8451090723478,3337
332.2248813152577,3326
334.6039978590701,3392
336.9824589109231,3396
339.36026467803447,3266
341.7374153677,3211
344.113911187295,3260
346.48975234427337,3345
348.8649390461686,3188
351.2394715005918,3307
353.61334991523415,3226
355.9865744978655,3274
358.35914545633375,3307
360.73106299856715,3326
363.10232733257146,3317
365.47293866643247,3201
367.84289720831396,3283
370.2122031664593,3189
372.5808567491905,3284
374.9488581649083,3183
377.31620762209275,3158
379.6829053293021,3195
382.0489514951745,3191
384.4143463284262,3263
386.7790900378528,3251
389.14318283232853,3179
391.50662492080653,3184
393.86941651231916,3240
396.23155781597745,3225
398.5930490409713,3276
400.9538903965696,3253
403.3140820921202,3256
405.6736243370498,3214
408.03251734086336,3129
410.3907613131465,3164
412.74835646356166,3219
415.10530300185144,3173
417.4616011378372,3144
419.81725108141893,3092
422.1722530425758,3149
424.5266072313656,3193
426.880313857925,3166
429.2333731324701,3210
431.58578526529516,3150
433.9375504667738,3176
436.2886689473588,3180
438.63914091758113,3078
440.9889665880513,3110
443.33814616945835,3113
445.68667987257015,3013
448.03456790823395,3041
450.3818104873759,3049
452.72840782100013,2974
455.07436012019105,3122
457.41966759611057,3043
459.7643304600007,3151
462.10834892318155,3101
464.4517231970525,3040
466.79445349309174,3057
469.1365400228566,3087
471.4779829979826,3105
473.81878263018564,3107
476.15893913125876,3118
478.4984527130747,3215
480.8373235875855,3196
483.17555196682144,3162
485.5131380628919,3185
487.8500820879857,3377
490.1863842543697,3406
492.52204477439034,3602
494.8570638604725,3813
497.1914417251204,3967
499.52517858091653,4188
501.85827464052306,4230
504.19073011668036,4266
506.5225452222086,4332
508.85372017000566,4243
511.18425517304956,4247
513.514150444396,4331
515.8434061971808,4643
518.1720226446176,5481
520.4999999999999,5450
522.8273384766991,5278
525.1540382881666,5048
527.480099647932,4688
529.8055227696037,4156
532.1303078668694,3759
534.454455153496,3485
536.777964843328,3332
539.1008371502907,3283
541.4230722883866,3272
543.744670471698,3223
546.0656319143858,3267
548.3859568306899,3283
550.7056454349294,3199
553.0246979415016,3233
555.3431145648834,3044
557.6608955196306,3303
559.978041020377,3233
562.2945512818363,3218
564.6104265188006,3186
566.9256669461412,3236
569.2402727788082,3251
571.5542442318302,3260
573.8675815203156,3260
576.1802848594508,3179
578.4923544645015,3272
580.8037905508126,3395
583.114593333807,3358
585.4247630289875,3338
587.7342998519354,3254
590.0432040183106,3302
592.3514757438526,3331
594.6591152443794,3282
596.9661227357875,3224
599.2724984340531,3283
601.578242555231,3268
603.8833553154542,3283
606.1878369309362,3360
608.4916876179676,3293
610.7949075929192,3360
613.0974970722403,3302
615.3994562724587,3304
617.7007854101818,3374
620.0014847020951,3287
622.3015543649641,3276
624.6009946156324,3358
626.8998056710224,3267
629.1979877481361,3335
631.4955410640538,3359
633.7924658359349,3281
636.0887622810175,3311
638.3844306166192,3322
640.6794710601358,3352
642.9738838290426,3417
645.2676691408932,3422
647.5608272133207,3352
649.853358264037,3398
652.1452625108324,3389
654.4365401715764,3406
656.7271914642178,3383
659.0172166067838,3493
661.3066158173809,3436
663.5953893141935,3353
665.8835373154867,3396
668.1710600396028,3352
670.4579577049639,3405
672.7442305300709,3410
675.0298787335033,3331
677.3149025339197,3415
679.599302150058,3437
681.8830778007342,3345
684.1662297048437,3417
686.4487580813608,3377
688.7306631493387,3479
691.0119451279091,3400
693.2926042362834,3463
695.5726406937516,3444
697.8520547196814,3449
700.1308465335215,3425
702.4090163547982,3382
704.6865644031171,3418
706.9634908981619,3438
709.2397960596965,3426
711.5154801075631,3296
713.7905432616823,3414
716.0649857420548,3367
718.3388077687592,3440
720.612009561953,3462
722.8845913418733,3345
725.1565533288352,3404
727.427895743234,3409
729.6986188055427,3481
731.9687227363137,3423
734.238207756178,3486
736.5070740858458,3384
738.7753219461066,3471
741.0429515578281,3328
743.3099631419569,3387
745.5763569195191,3466
747.8421331116193,3397
750.1072919394409,3424
752.3718336242467,3419
754.6357583873777,3482
756.8990664502545,3502
759.1617580343765,3439
761.423833361321,3449
763.6852926527457,3541
765.9461361303862,3476
768.206364016058,3362
770.4659765316536,3464
772.7249738991469,3341
774.9833563405886,3559
777.2411240781092,3437
779.4982773339183,3422
781.7548163303044,3553
784.010741289634,3473
786.2660524343538,3499
788.5207499869881,3480
790.7748341701416,3505
793.0283052064964,3506
795.2811633188143,3541
797.5334087299362,3494
799.7850416627813,3646
802.0360623403484,3493
804.2864709857143,3507
806.5362678220353,3641
808.7854530725468,3531
811.0340269605625,3472
813.2819897094754,3491
815.5293415427581,3591
817.77608268396,3480
820.0222133567116,3531
822.2677337847211,3434
824.5126441917765,3474
826.7569448017433,3624
829.0006358385675,3498
831.2437175262731,3537
833.4861900889629,3490
835.7280537508192,3586
837.9693087361026,3510
840.2099552691533,3624
842.4499935743896,3496
844.689423876309,3558
846.9282463994886,3412
849.1664613685833,3520
851.4040690083276,3529
853.6410695435349,3657
855.877463199097,3579
858.1132501999847,3570
860.3484307712487,3591
862.5830051380175,3477
864.8169735254988,3587
867.0503361589791,3553
869.2830932638243,3587
871.5152450654786,3644
873.7467917894654,3568
875.9777336613873,3645
878.2080709069252,3485
880.4378037518389,3564
882.666932421968,3662
884.8954571432301,3656
887.1233781416219,3663
889.3506956432192,3632
891.5774098741766,3677
893.803521060728,3609
896.0290294291852,3548
898.2539352059397,3697
900.4782386174619,3718
902.7019398903011,3619
904.925039251085,3631
907.147536926521,3706
909.3694331433943,3539
911.59072812857,3601
913.8114221089921,3633
916.0315153116827,3708
918.2510079637437,3659
920.4699002923547,3634
922.6881925247761,3547
924.905884888345,3635
927.1229776104793,3561
929.3394709186747,3537
931.555365040506,3593
933.7706602036275,3563
935.9853566357709,3601
938.1994545647489,3627
940.4129542184515,3633
942.6258558248488,3474
944.8381596119883,3595
947.0498658079974,3644
949.2609746410825,3571
951.4714863395287,3539
953.6814011316998,3517
955.8907192460387,3586
958.0994409110671,3587
960.3075663553858,3497
962.5150958076741,3633
964.7220294966913,3547
966.928367651274,3600
969.1341105003388,3519
971.3392582728806,3446
973.5438111979742,3636
975.747769504772,3474
977.9511334225061,3458
980.153903180487,3534
982.3560790081052,3552
984.5576611348289,3555
986.7586497902058,3570
988.9590452038618,3503
991.158847605503,3483
993.3580572249133,3523
995.5566742919558,3578
997.7546990365728,3544
999.952131688785,3414
1002.1489724786926,3353
1004.3452216364743,3419
1006.5408793923874,3409
1008.7359459767691,3357
1010.9304216200343,3296
1013.1243065526781,3306
1015.3176010052733,3318
1017.510305208472,3252
1019.7024193930064,3330
1021.8939437896848,3272
1024.0848786293977,3296
1026.2752241431122,3365
1028.4649805618747,3402
1030.6541481168115,3321
1032.842727039127,3318
1035.0307175601051,3300
1037.2181199111074,3289
1039.4049343235752,3304
1041.591161029029,3372
1043.7768002590683,3364
1045.9618522453698,3313
1048.1463172196918,3317
1050.3301954138697,3366
1052.513487059818,3301
1054.69619238953,3323
1056.8783116350783,3310
1059.0598450286152,3271
1061.2407928023704,3301
1063.4211551886528,3245
1065.6009324198508,3400
1067.780124728432,3242
1069.9587323469414,3390
1072.1367555080046,3372
1074.314194444325,3291
1076.4910493886855,3344
1078.667320573947,3280
1080.843008233051,3377
1083.0181125990161,3272
1085.1926339049414,3304
1087.3665723840027,3329
1089.5399282694575,3264
1091.7127017946405,3294
1093.8848931929647,3273
1096.0565026979243,3276
1098.2275305430899,3299
1100.3979769621128,3194
1102.567842188722,3210
1104.737126456726,3244
1106.9058300000124,3371
1109.0739530525475,3250
1111.2414958483764,3276
1113.4084586216231,3254
1115.5748416064907,3227
1117.7406450372605,3339
1119.9058691482942,3281
1122.0705141740304,3209
1124.2345803489884,3217
1126.3980679077658,3311
1128.5609770850388,3337
1130.7233081155623,3260
1132.8850612341707,3295
1135.0462366757774,3252
1137.2068346753745,3286
1139.3668554680326,3354
1141.526299288901,3252
1143.68516637321,3183
1145.8434569562655,3276
1148.001171273455,3342
1150.158309560244,3263
1152.3148720521767,3126
1154.470858984876,3185
1156.626270594044,3297
1158.7811071154629,3294
1160.9353687849912,3234
1163.089055838569,3150
1165.242168512213,3201
1167.3947070420209,3256
1169.5466716641677,3319
1171.6980626149075,3233
1173.8488801305748,3261
1175.9991244475814,3250
1178.1487958024186,3292
1180.2978944316555,3123
1182.4464205719428,3221
1184.5943744600072,3268
1186.7417563326567,3157
1188.8885664267755,3181
1191.0348049793297,3182
1193.1804722273619,3193
1195.325568407995,3262
1197.4700937584303,3119
1199.614048515948,3276
1201.7574329179074,3199
1203.900247201746,3250
1206.042491604982,3209
1208.1841663652099,3352
1210.3252717201053,3226
1212.465807907422,3273
1214.6057751649923,3329
1216.7451737307279,3334
1218.8840038426192,3409
1221.0222657387353,3239
1223.1599596572241,3272
1225.2970858363137,3322
1227.4336445143094,3262
1229.5696359295966,3309
1231.705060320639,3328
1233.8399179259786,3298
1235.9742089842384,3430
1238.107933734118,3316
1240.2410924143974,3345
1242.373685263935,3298
1244.5057125216676,3315
1246.6371744266116,3287
1248.7680712178621,3355
1250.898403134593,3340
1253.028170416058,3374
1255.1573733015875,3359
1257.2860120305932,3364
1259.4140868425648,3324
1261.54159797707,3302
1263.6685456737569,3425
1265.7949301723515,3335
1267.9207517126597,3372
1270.046010534565,3402
1272.1707068780306,3452
1274.2948409830983,3428
1276.4184130898889,3462
1278.541423438603,3460
1280.6638722695184,3406
1282.785759822993,3430
1284.9070863394636,3388
1287.0278520594447,3411
1289.1480572235314,3452
1291.2677020723963,3434
1293.3867868467923,3473
1295.5053117875495,3516
1297.623277135579,3490
1299.740683131868,3470
1301.8575300174857,3500
1303.973818033578,3557
1306.0895474213703,3585
1308.2047184221678,3478
1310.3193312773528,3534
1312.4333862283888,3535
1314.5468835168163,3509
1316.659823384255,3497
1318.7722060724045,3520
1320.8840318230418,3537
1322.9953008780249,3553
1325.1060134792888,3552
1327.2161698688478,3485
1329.3257702887959,3531
1331.4348149813054,3501
1333.5433041886276,3502
1335.6512381530933,3551
1337.7586171171101,3499
1339.8654413231675,3383
1341.9717110138317,3495
1344.0774264317488,3495
1346.1825878196432,3500
1348.2871954203192,3504
1350.3912494766587,3402
1352.4947502316231,3488
1354.5976979282532,3641
1356.7000928096686,3563
1358.8019351190665,3398
1360.9032250997243,3471
1363.0039629949988,3432
1365.1041490483235,3520
1367.2037835032133,3529
1369.3028666032606,3446
1371.401398592137,3535
1373.4993797135926,3514
1375.5968102114575,3501
1377.6936903296396,3650
1379.7900203121262,3509
1381.8858004029835,3542
1383.9810308463561,3564
1386.075711886469,3524
1388.1698437676241,3481
1390.2634267342032,3640
1392.356461030667,3602
1394.4489469015557,3606
1396.5408845914872,3578
1398.6322743451592,3600
1400.7231164073469,3599
1402.813411022907,3482
1404.903158436773,3693
1406.9923588939578,3648
1409.0810126395531,3702
1411.1691199187303,3744
1413.2566809767386,3685
1415.343696058907,3612
1417.4301654106425,3665
1419.5160892774315,3683
1421.6014679048399,3680
1423.6863015385125,3704
1425.7705904241707,3772
1427.8543348076178,3766
1429.9375349347342,3747
1432.0201910514802,3739
1434.102303403894,3754
1436.1838722380944,3761
1438.2648978002767,3859
1440.3453803367174,3887
1442.4253200937692,3807
1444.5047173178677,3864
1446.5835722555234,3861
1448.6618851533285,4003
1450.739656257952,3876
1452.8168858161434,4029
1454.8935740747306,4016
1456.96972128062,4077
1459.045327680797,4017
1461.120393522327,4030
1463.1949190523528,4042
1465.2689045180973,4121
1467.3423501668608,4238
1469.415256246024,4124
1471.4876230030463,4287
1473.559450685465,4370
1475.6307395408976,4341
1477.7014898170391,4458
1479.771701761665,4505
1481.8413756226287,4465
1483.9105116478618,4480
1485.9791100853772,4560
1488.0471711832643,4609
1490.1146951896926,4570
1492.1816823529098,4569
1494.2481329212433,4574
1496.3140471430984,4627
1498.3794252669609,4688
1500.4442675413939,4719
1502.5085742150404,4785
1504.572345536622,4775
1506.6355817549388,4873
1508.6982831188702,4789
1510.7604498773744,4859
1512.8220822794883,4891
1514.8831805743293,4991
1516.9437450110909,4941
1519.003775839048,5044
1521.0632733075522,5087
1523.1222376660367,5020
1525.1806691640113,5108
1527.2385680510652,5097
1529.2959345768668,5163
1531.3527689911643,5148
1533.4090715437833,5233
1535.4648424846291,5216
1537.5200820636855,5335
1539.5747905310159,5368
1541.6289681367616,5404
1543.6826151311434,5397
1545.7357317644614,5500
1547.7883182870937,5526
1549.8403749494987,5597
1551.8919020022113,5660
1553.9428996958477,5758
1555.9933682811015,5878
1558.0433080087469,5832
1560.0927191296346,6011
1562.1416018946961,6064
1564.1899565549415,5827
1566.2377833614592,5841
1568.2850825654164,5969
1570.3318544180606,5686
1572.3780991707158,5783
1574.423817074788,5563
1576.4690083817595,5359
1578.5136733431923,5346
1580.5578122107272,5005
1582.601425236085,4988
1584.6445126710646,4833
1586.6870747675434,4704
1588.7291117774776,4534
1590.7706239529034,4519
1592.8116115459347,4393
1594.8520748087658,4279
1596.8920139936686,4267
1598.9314293529933,4148
1600.9703211391711,4197
1603.008689604711,4098
1605.0465350022005,3972
1607.0838575843068,4016
1609.1206576037753,3931
1611.1569353134305,3961
1613.1926909661765,3878
1615.2279248149953,3867
1617.2626371129481,3905
1619.2968281131757,3768
1621.3304980688963,3808
1623.3636472334088,3844
1625.39627586009,3763
1627.428384202396,3678
1629.459972513861,3706
1631.4910410480993,3591
1633.5215900588028,3688
1635.551619799744,3739
1637.5811305247717,3649
1639.6101224878166,3704
1641.6385959428862,3723
1643.6665511440683,3731
1645.693988345528,3731
1647.7209078015112,3684
1649.7473097663405,3578
1651.7731944944203,3631
1653.7985622402307,3637
1655.823413258333,3565
1657.847747803366,3719
1659.8715661300494,3600
1661.8948684931793,3634
1663.9176551476316,3669
1665.9399263483624,3514
1667.9616823504057,3589
1669.982923408873,3529
1672.0036497789574,3622
1674.0238617159293,3696
1676.043559475138,3642
1678.0627433120121,3595
1680.081413482059,3566
1682.0995702408654,3557
1684.117213844096,3568
1686.134344547495,3569
1688.1509626068864,3600
1690.1670682781705,3562
1692.182661817329,3538
1694.1977434804217,3590
1696.2123135235875,3568
1698.226372203043,3681
1700.2399197750851,3540
1702.2529564960905,3595
1704.2654826225112,3682
1706.277498410882,3562
1708.2890041178139,3640
1710.2999999999988,3624
1712.3104863142066,3541
1714.3204633172854,3656
1716.329931266163,3586
1718.3388904178469,3589
1720.3473410294214,3637
1722.3552833580516,3538
1724.3627176609807,3587
1726.3696441955308,3662
1728.3760632191033,3650
1730.3819749891782,3592
1732.3873797633146,3528
1734.3922777991502,3657
1736.3966693544012,3481
1738.4005546868639,3541
1740.4039340544127,3542
1742.406807715001,3452
1744.4091759266616,3492
1746.4110389475054,3606
1748.4123970357223,3576
1750.413250449582,3485
1752.4135994474318,3474
1754.4134442876993,3507
1756.4127852288902,3577
1758.4116225295893,3515
1760.4099564484595,3456
1762.407787244244,3557
1764.405115175764,3518
1766.4019405019203,3515
1768.3982634816916,3484
1770.3940843741357,3486
1772.3894034383907,3443
1774.3842209336717,3459
1776.378537119274,3459
1778.372352254571,3453
1780.3656665990156,3481
1782.3584804121397,3535
1784.3507939535534,3416
1786.3426074829463,3553
1788.3339212600863,3456
1790.3247355448211,3496
1792.3150505970766,3465
1794.3048666768573,3514
1796.2941840442477,3525
1798.2830029594106,3443
1800.2713236825884,3547
1802.2591464741004,3464
1804.2464715943465,3520
1806.2332993038058,3525
1808.2196298630352,3534
1810.2054635326708,3505
1812.190800573428,3491
1814.175641246101,3532
1816.1599858115628,3469
1818.1438345307652,3420
1820.127187664738,3536
1822.1100454745924,3546
1824.092408221516,3546
1826.0742761667766,3501
1828.055649571721,3514
1830.0365286977735,3500
1832.0169138064398,3611
1833.9968051593014,3503
1835.9762030180214,3462
1837.9551076443408,3502
1839.9335193000788,3509
1841.9114382471344,3515
1843.888864747485,3452
1845.8657990631878,3512
1847.842241456378,3531
1849.8181921892697,3509
1851.7936515241558,3374
1853.7686197234098,3566
1855.7430970494815,3431
1857.7170837649014,3482
1859.6905801322787,3486
1861.6635864143004,3474
1863.6361028737338,3528
1865.608129773424,3436
1867.5796673762961,3472
1869.5507159453537,3568
1871.521275743678,3480
1873.4913470344313,3521
1875.4609300808534,3508
1877.4300251462632,3442
1879.3986324940588,3532
1881.366752387717,3516
1883.3343850907936,3562
1885.3015308669228,3531
1887.268189979819,3538
1889.2343626932739,3510
1891.2000492711595,3586
1893.1652499774254,3493
1895.1299650761011,3525
1897.0941948312952,3495
1899.0579395071945,3543
1901.0211993680641,3602
1902.98397467825,3597
1904.9462657021745,3556
1906.9080727043415,3515
1908.869395949332,3551
1910.8302357018065,3559
1912.790592226504,3542
1914.7504657882428,3615
1916.7098566519212,3443
1918.6687650825133,3486
1920.6271913450764,3534
1922.5851357047422,3593
1924.5425984267245,3560
1926.499579776314,3548
1928.4560800188833,3609
1930.4120994198802,3539
1932.367638244833,3519
1934.32269675935,3399
1936.2772752291175,3484
1938.231373919899,3550
1940.1849930975404,3545
1942.1381330279637,3637
1944.0907939771696,3575
1946.0429762112412,3518
1947.9946799963363,3565
1949.9459055986945,3522
1951.896653284633,3484
1953.8469233205478,3578
1955.7967159729142,3539
1957.7460315082863,3578
1959.6948701932974,3476
1961.6432322946594,3556
1963.5911180791632,3581
1965.5385278136787,3477
1967.4854617651545,3484
1969.4319202006182,3625
1971.377903387176,3562
1973.3234115920136,3562
1975.268445082395,3682
1977.2130041256642,3607
1979.1570889892423,3553
1981.1006999406304,3563
1983.04383724741,3549
1984.986501177238,3545
1986.928691997853,3571
1988.8704099770712,3597
1990.811655382789,3615
1992.7524284829801,3554
1994.692729545698,3538
1996.6325588390755,3615
1998.5719166313224,3545
2000.5108031907307,3615
2002.4492187856677,3588
2004.387163684583,3493
2006.3246381560011,3581
2008.2616424685298,3436
2010.1981768908527,3572
2012.1342416917332,3516
2014.069837140014,3486
2016.0049635046162,3542
2017.9396210545406,3646
2019.8738100588666,3480
2021.8075307867502,3627
2023.740783507431,3566
2025.6735684902228,3564
2027.6058860045214,3538
2029.5377363198004,3601
2031.4691197056118,3539
2033.4000364315875,3544
2035.3304867674374,3539
2037.260470982952,3688
2039.189989347998,3502
2041.1190421325232,3449
2043.047629606554,3529
2044.9757520401945,3584
2046.9034097036288,3586
2048.8306028671195,3548
2050.7573318010086,3609
2052.683596775716,3577
2054.609398061742,3574
2056.5347359296647,3589
2058.4596106501403,3515
2060.384022493906,3571
2062.3079717317764,3746
2064.231458634646,3578
2066.1544834734873,3576
2068.077046519352,3593
2069.99914804337,3577
2071.9207883167524,3581
2073.8419676107865,3692
2075.7626861968406,3629
2077.6829443463607,3635
2079.6027423308715,3715
2081.522080421977,3596
2083.440958891362,3641
2085.359378010786,3626
2087.2773380520907,3590
2089.194839287196,3645
2091.111881988101,3726
2093.0284664268825,3565
2094.9445928756973,3538
2096.86026160678,3601
2098.775472892446,3682
2100.690227005088,3591
2102.604524217178,3702
2104.5183648012676,3691
2106.431749029985,3691
2108.34467717604,3604
2110.2571495122206,3663
2112.169166311393,3569
2114.080727846503,3585
2115.9918343905747,3637
2117.902486216711,3728
2119.8126835980956,3632
2121.722426807987,3641
2123.6317161197285,3645
2125.5405518067364,3666
2127.448934142509,3689
2129.356863400624,3670
2131.264339854737,3622
2133.1713637785815,3689
2135.077935445972,3648
2136.9840551308002,3632
2138.889723107037,3592
2140.7949396487334,3742
2142.699705030018,3775
2144.6040195250994,3616
2146.507883408264,3739
2148.4112969538774,3737
2150.3142604363848,3697
2152.2167741303097,3767
2154.1188383102535,3674
2156.0204532508997,3634
2157.9216192270064,3764
2159.822336513414,3682
2161.7226053850413,3679
2163.622426116884,3699
2165.5217989840185,3787
2167.4207242616,3808
2169.319202224862,3786
2171.2172331491165,3815
2173.1148173097563,3751
2175.0119549822507,3834
2176.90864644215,3761
2178.8048919650823,3757
2180.7006918267534,3735
2182.596046302952,3847
2184.4909556695407,3767
2186.3854202024645,3761
2188.279440177746,3737
2190.173015871487,3675
2192.066147559868,3679
2193.958835519149,3832
2195.851080025667,3775
2197.7428813558417,3705
2199.6342397861667,3707
2201.5251555932186,3765
2203.415629053651,3669
2205.3056604441986,3869
2207.19525004167,3806
2209.084398122958,3850
2210.9731049650327,3895
2212.861370844941,3849
2214.749196039812,3859
2216.636580826851,3759
2218.523525483344,3900
2220.410030286655,3838
2222.296095514226,3815
2224.1817214435805,3853
2226.066908352319,3782
2227.951656518121,3776
2229.835966218746,3979
2231.71983773203,3841
2233.6032713358913,3840
2235.486267308324,3814
2237.3688259274036,3906
2239.2509474712824,3849
2241.132632218193,3864
2243.013880446447,3777
2244.8946924344323,3929
2246.7750684606203,3872
2248.6550088035574,3781
2250.534513741871,3995
2252.413583554265,3821
2254.292218519526,3849
2256.170418916517,3823
2258.0481850241786,3741
2259.925517121534,3778
2261.8024154876825,3831
2263.678880401803,3849
2265.5549121431536,3794
2267.430510991071,3874
2269.305677224971,3842
2271.180411124348,3862
2273.0547129687766,3841
2274.9285830379076,3733
2276.8020216114737,3947
2278.6750289692845,3845
2280.5476053912294,3837
2282.4197511572766,3886
2284.2914665474727,3892
2286.162751841943,3981
2288.0336073208937,3896
2289.904033264608,3850
2291.774029953448,3879
2293.6435976678554,3859
2295.5127366883517,3926
2297.381447295534,3894
2299.2497297700825,3821
2301.1175843927526,3765
2302.9850114443825,3766
2304.852011205885,3738
2306.7185839582553,3692
2308.5847299825664,3764
2310.4504495599676,3730
2312.3157429716925,3683
2314.1806104990483,3701
2316.0450524234247,3725
2317.9090690262888,3697
2319.772660589186,3758
2321.635827393742,3732
2323.498569721661,3734
2325.3608878547248,3675
2327.2227820747967,3785
2329.0842526638157,3726
2330.945299903803,3833
2332.805924076857,3683
2334.6661254651535,3735
2336.525904350951,3692
2338.3852610165827,3748
2340.244195744464,3667
2342.102708817088,3837
2343.9608005170253,3759
2345.8184711269287,3728
2347.675720929526,3790
2349.532550207628,3709
2351.38895924412,3904
2353.24494832197,3670
2355.100517724223,3587
2356.955667734004,3775
2358.810398634514,3754
2360.664710709037,3818
2362.5186042409337,3822
2364.3720795136437,3799
2366.225136810686,3782
2368.0777764156583,3829
2369.929998612237,3683
2371.7818036841777,3854
2373.633191915315,3815
2375.484163589562,3651
2377.3347189909114,3765
2379.184858403434,3774
2381.03458211128,3788
2382.8838903986775,3814
2384.732783549936,3891
2386.5812618494406,3809
2388.4293255816588,3754
2390.2769750311327,3758
2392.1242104824883,3935
2393.971032220427,3812
2395.8174405297295,3857
2397.6634356952563,3837
2399.509018001947,3842
2401.3541877348193,3782
2403.1989451789705,3684
2405.043290619576,3748
2406.8872243418905,3830
2408.730746631247,3784
2410.5738577730594,3804
2412.4165580528183,3739
2414.258847756095,3856
2416.100727168537,3759
2417.9421965758734,3844
2419.783256263912,3726
2421.623906518538,3854
2423.4641476257157,3869
2425.303979871491,3684
2427.143403541984,3765
2428.9824189233977,3809
2430.821026302012,3736
2432.6592259641866,3816
2434.497018196361,3750
2436.33440328505,3859
2438.171381516851,3805
2440.00795317844,3755
2441.844118556569,3878
2443.6798779380724,3817
2445.5152316098606,3887
2447.3501798589255,3824
2449.1847229723357,3862
2451.0188612372403,3869
2452.8525949408663,3783
2454.6859243705203,3828
2456.518849813587,3799
2458.3513715575314,3865
2460.183489889895,3939
2462.015205098301,3764
2463.8465174704493,3762
2465.67742729412,3893
2467.5079348571717,3876
2469.338040447542,3926
2471.1677443532476,3750
2472.9970468623833,3845
2474.825948263123,3800
2476.6544488437207,3854
2478.482548892508,3880
2480.310248697896,3833
2482.137548548374,3810
2483.9644487325118,3956
2485.790949538956,3912
2487.617051256433,3873
2489.44275417375,3883
2491.26805857979,3838
2493.0929647635157,3917
2494.917473013971,3911
2496.741583620276,3863
2498.5652968716304,3919
2500.3886130573137,3880
2502.2115324666834,3934
2504.0340553891765,3874
2505.856182114308,3951
2507.6779129316733,3975
2509.499248130945,3936
2511.3201880018764,3909
2513.140732834298,4010
2514.9608829181198,4005
2516.780638543331,3920
2518.6,3781
2520.418967578273,4092
2522.237541568376,3989
2524.0557222606144,4042
2525.8735099453706,3941
2527.6909049131086,3961
2529.507907454368,3998
2531.32451785977,3955
2533.140736420014,3916
2534.9565634258774,4102
2536.771999168218,4026
2538.5870439379714,4091
2540.4016980261526,4120
2542.2159617238544,4130
2544.02983532225,4112
2545.8433191125914,4126
2547.656413386209,4041
2549.4691184345115,4174
2551.2814345489874,4071
2553.093362021204,4120
2554.904901142808,4178
2556.716052205523,4037
2558.526815501153,4043
2560.3371913215824,4158
2562.147179958771,4127
2563.956781704761,4094
2565.7659968516705,4283
2567.5748256916986,4157
2569.3832685171224,4233
2571.1913256202984,4130
2572.9989972936614,4257
2574.806283829725,4204
2576.613185521084,4174
2578.4197026604074,4190
2580.2258355404483,4295
2582.031584454035,4199
2583.836949694077,4280
2585.6419315535613,4203
2587.4465303255533,4292
2589.2507463032002,4301
2591.0545797797245,4211
2592.8580310484303,4179
2594.6611004026995,4199
2596.463788135992,4411
2598.266094541849,4296
2600.0680199138874,4288
2601.869564545807,4311
2603.670728731383,4356
2605.4715127644704,4146
2607.2719169390048,4347
2609.071941548998,4227
2610.8715868885433,4294
2612.670853251811,4330
2614.469740933052,4364
2616.268250226594,4328
2618.0663814268455,4360
2619.864134828292,4294
2621.6615107255006,4307
2623.458509413115,4255
2625.2551311858597,4240
2627.0513763385347,4314
2628.8472451660223,4298
2630.6427379632833,4377
2632.4378550253564,4437
2634.232596647359,4171
2636.026963124488,4240
2637.8209547520187,4245
2639.6145718253065,4284
2641.407814639785,4142
2643.200683490966,4141
2644.9931786744414,4149
2646.7853004858807,4200
2648.577049221034,4210
2650.3684251757277,4221
2652.1594286458712,4175
2653.9500599274484,4165
2655.740319316525,4219
2657.5302071092437,4066
2659.3197236018286,4052
2661.10886909058,4114
2662.8976438718782,4106
2664.686048242183,4184
2666.4740824980327,4188
2668.2617469360443,4106
2670.0490418529134,4133
2671.8359675454153,4116
2673.622524310403,4135
2675.408712444811,4150
2677.1945322456495,4016
2678.979984010009,4060
2680.76506803506,4036
2682.5497846180497,4048
2684.334134056306,4048
2686.1181166472343,4103
2687.9017326883213,3999
2689.6849824771293,3984
2691.4678663113013,4074
2693.2503844885596,4170
2695.032537306705,4050
2696.8143250636167,4007
2698.5957480572542,4041
2700.3768065856534,4022
2702.1575009469316,4026
2703.937831439283,3982
2705.717798360982,3983
2707.4974020103837,4015
2709.276642685917,3859
2711.055520686095,4127
2712.834036309506,3995
2714.612189854819,3839
2716.389981620782,4031
2718.1674119062204,3914
2719.944481010041,3840
2721.721189231226,3889
2723.4975368688415,3913
2725.273524222027,3938
2727.0491515900053,4066
2728.824419272075,3915
2730.5993275676146,3988
2732.3738767760838,3991
2734.148067197016,4015
2735.921899130031,3985
2737.6953728748194,3922
2739.468488731156,3907
2741.2412469988926,4049
2743.0136479779617,3956
2744.785691968372,4017
2746.5573792702116,4032
2748.3287101836504,3872
2750.099685008934,3897
2751.870304046388,4028
2753.640567596418,3910
2755.4104759595057,4047
2757.1800294362156,4009
2758.949228327187,4003
2760.7180729331412,4012
2762.486563554877,4075
2764.254700493272,3995
2766.022484049284,3928
2767.789914523947,3995
2769.5569922183786,4026
2771.3237174337705,4021
2773.090090471394,3897
2774.8561116326036,3977
2776.6217812188274,3996
2778.3870995315756,3915
2780.1520668724356,4043
2781.9166835430747,3945
2783.6809498452394,3939
2785.444866080754,4079
2787.2084325515225,4050
2788.971649559527,3864
2790.73451740683,4001
2792.4970363955713,3980
2794.2592068279705,4087
2796.0210290063264,4009
2797.7825032330147,3957
2799.543629810493,3925
2801.304409041296,3991
2803.0648412280366,4000
2804.8249266734088,3986
2806.5846656801846,3900
2808.344058551212,4064
2810.1031055894246,3894
2811.8618070978273,4040
2813.6201633795085,4023
2815.378174737636,4149
2817.1358414754536,3989
2818.893163896285,4020
2820.6501423035334,3952
2822.4067770006814,3960
2824.1630682912883,4019
2825.9190164789957,4002
2827.6746218675207,4106
2829.429884760661,4109
2831.184805462294,4116
2832.9393842763743,4135
2834.693621506936,4104
2836.4475174580916,4045
2838.201072434034,4080
2839.954286739034,4050
2841.707160677441,4135
2843.459694553685,3996
2845.2118886722724,3951
2846.96374333779,4044
2848.7152588549034,4023
2850.4664355283567,4057
2852.217273662973,4077
2853.9677735636546,4137
2855.7179355353833,4060
2857.4677598832186,4000
2859.217246912299,4051
2860.9663969278427,4104
2862.715210235146,4064
2864.4636871395846,4003
2866.211827946614,4023
2867.9596329617652,4072
2869.7071024906536,3965
2871.4542368389684,4063
2873.20103631248,4227
2874.947501217038,4042
2876.6936318585695,3938
2878.4394285430812,4013
2880.1848915766604,3948
2881.9300212654707,4041
2883.6748179157553,4139
2885.4192818338374,3998
2887.1634133261173,4002
2888.907212699077,4034
2890.6506802592744,4082
2892.393816313348,4102
2894.1366211680142,4102
2895.8790951300693,4177
2897.621238506388,4103
2899.363051603925,4079
2901.1045347297118,4050
2902.8456881908596,4147
2904.58651229456,4090
2906.327007348081,4055
2908.067173658772,4062
2909.8070115340597,4151
2911.5465212814497,4013
2913.285703208527,4070
2915.0245576229563,3961
2916.7630848324807,3965
2918.5012851449196,3960
2920.2391588681758,4029
2921.976706310227,4052
2923.7139277791334,4018
2925.4508235830313,4084
2927.187394030137,4071
2928.923639428745,4095
2930.6595600872306,4081
2932.395156314046,3981
2934.1304284177218,4202
2935.8653767068713,4119
2937.6000014901815,4179
2939.3343030764227,4173
2941.068281774442,4067
2942.8019378931644,4115
2944.5352717415976,4120
2946.2682836288236,4112
2948.0009738640065,4200
2949.7333427563885,4188
2951.465390615289,4107
2953.1971177501086,4076
2954.9285244703265,4095
2956.6596110855,4162
2958.3903779052657,4064
2960.1208252393385,4027
2961.8509533975125,4039
2963.5807626896617,4144
2965.3102534257378,3999
2967.0394259157715,4170
2968.768280469873,4268
2970.496817398232,4159
2972.2250370111146,4077
2973.952939618869,4176
2975.6805255319196,4151
2977.4077950607707,4227
2979.134748516006,4168
2980.861386208289,4191
2982.587708448359,4161
2984.313715547037,4182
2986.039407815222,4219
2987.764785563891,4169
2989.489849104102,4185
2991.2145987469908,4233
2992.9390348037705,4126
2994.6631575857346,4164
2996.3869674042576,4194
2998.1104645707887,4118
2999.83364939686,4158
3001.5565221940783,4166
3003.2790832741334,4181
3005.0013329487924,4128
3006.7232715298996,4111
3008.4448993293804,4051
3010.166216659239,4069
3011.887223831558,4053
3013.607921158498,4078
3015.3283089522993,4152
3017.0483875252826,4110
3018.7681571898443,4100
3020.4876182584626,4212
3022.2067710436927,4047
3023.9256158581707,4219
3025.644153014609,4187
3027.362382825801,4198
3029.0803056046193,4116
3030.797921664012,4220
3032.5152313170106,4136
3034.2322348767225,4054
3035.9489326563353,4177
3037.665324969115,4139
3039.3814121284063,4158
3041.097194447633,4164
3042.812672240299,4213
3044.5278458199855,4248
3046.2427155003525,4099
3047.9572815951406,4221
3049.671544418167,4187
3051.38550428333,4180
3053.0991615046073,4126
3054.812516396051,4160
3056.5255692717974,4208
3058.2383204460575,4202
3059.9507702331257,4206
3061.662918947372,4150
3063.3747669032446,4235
3065.0863144152736,4185
3066.7975617980674,4194
3068.508509366309,4222
3070.219157434767,4155
3071.9295063182844,4261
3073.639556331785,4223
3075.3493077902704,4158
3077.058761008821,4181
3078.7679163025964,4200
3080.476773986837,4225
3082.1853343768594,4181
3083.89359778806,4213
3085.6015645359153,4158
3087.3092349359786,4019
3089.016609303884,4247
3090.7236879553434,4232
3092.4304712061476,4233
3094.136959372166,4248
3095.843152769349,4206
3097.5490517137237,4175
3099.2546565213966,4241
3100.959967508554,4173
3102.66498499146,4286
3104.3697092864577,4175
3106.0741407099695,4308
3107.778279578498,4219
3109.482126208622,4244
3111.1856809170004,4201
3112.8889440203716,4316
3114.5919158355528,4305
3116.294596679439,4119
3117.996986869006,4363
3119.6990867213062,4433
3121.4008965534726,4342
3123.102416682717,4358
3124.803647426329,4157
3126.5045891016784,4281
3128.205242026213,4279
3129.90560651746,4329
3131.605682893025,4323
3133.3054714705922,4239
3135.0049725679282,4335
3136.7041865028714,4355
3138.4031135933465,4235
3140.101754157353,4264
3141.800108512971,4286
3143.498176978357,4359
3145.1959598717494,4176
3146.8934575114636,4294
3148.5906702158954,4262
3150.2875983035183,4257
3151.9842420928853,4125
3153.680601902627,4215
3155.376678051456,4250
3157.07247085816,4268
3158.767980641609,4316
3160.463207720748,4189
3162.158152414606,4286
3163.8528150422862,4288
3165.5471959229726,4372
3167.2412953759303,4346
3168.9351137204976,4190
3170.628651276098,4289
3172.3219083622307,4322
3174.014885298474,4267
3175.707582404485,4274
3177.4000000000005,4381
3179.092138404835,4359
3180.7839979388846,4323
3182.47557892212,4327
3184.166881674594,4308
3185.8579065164386,4307
3187.5486537678626,4332
3189.2391237491547,4324
3190.9293167806827,4243
3192.6192331828934,4333
3194.3088732763117,4188
3195.998237381542,4183
3197.687325819268,4277
3199.376138910251,4325
3201.064676975334,4323
3202.7529403354347,4218
3204.4409293115523,4147
3206.1286442247647,4321
3207.816085396229,4232
3209.5032531471825,4240
3211.190147798936,4272
3212.8767696728846,4167
3214.5631190905015,4151
3216.2491963733373,4138
3217.9350018430214,4336
3219.6205358212637,4229
3221.305798629851,4182
3222.990790590651,4176
3224.6755120256103,4271
3226.359963256751,4217
3228.0441446061795,4267
3229.7280563960758,4286
3231.411698948703,4470
3233.0950725863995,4280
3234.778177631587,4333
3236.461014406761,4329
3238.1435832345005,4303
3239.8258844374595,4249
3241.507918338374,4284
3243.1896852600576,4430
3244.8711855254023,4344
3246.552419457381,4339
3248.233387379042,4401
3249.914089613516,4282
3251.59452648401,4185
3253.274698313813,4281
3254.95460542629,4187
3256.6342481448855,4317
3258.313626793125,4274
3259.9927416946084,4259
3261.6715931730196,4258
3263.3501815521176,4320
3265.0285071557437,4271
3266.706570307815,4283
3268.3843713323286,4262
3270.0619105533615,4179
3271.739188295068,4200
3273.4162048816834,4363
3275.0929606375184,4371
3276.769455886966,4332
3278.445690954498,4366
3280.1216661646613,4318
3281.797381842087,4337
3283.4728383114807,4296
3285.1480358976296,4314
3286.8229749253996,4308
3288.4976557197333,4342
3290.172078605655,4142
3291.846243908266,4303
3293.5201519527463,4298
3295.193803064357,4170
3296.8671975684374,4203
3298.5403357904024,4259
3300.21321805575,4217
3301.8858446900567,4232
3303.558216018975,4308
3305.23033236824,4351
3306.9021940636603,4379
3308.57380143113,4199
3310.2451547966184,4372
3311.916254486174,4337
3313.5871008259246,4347
3315.2576941420766,4275
3316.9280347609147,4317
3318.5981230088046,4310
3320.2679592121895,4310
3321.9375436975924,4313
3323.606876791612,4245
3325.27595882093,4270
3326.944790112305,4279
3328.6133709925753,4288
3330.2817017886573,4301
3331.949782827547,4331
3333.617614436319,4415
3335.2851969421245,4260
3336.952530672199,4397
3338.619615953853,4391
3340.286453114475,4411
3341.9530424815357,4368
3343.619384382583,4411
3345.2854791452437,4356
3346.951327097224,4361
3348.6169285663073,4436
3350.2822838803577,4499
3351.947393367319,4384
3353.61225735521,4474
3355.2768761721345,4311
3356.9412501462693,4484
3358.605379605873,4451
3360.2692648792827,4306
3361.9329062949146,4369
3363.596304181263,4390
