CollectionTime,7/11/2024 12:46:30 PM
ExposureUsed,3
CalibratedSpectrum
-962.7078968117929,1024
-959.9714848408522,1075
-957.2358232597828,1135
-954.5009119013725,1091
-951.7667505983302,1113
-949.0333391832855,1104
-946.3006774887896,1134
-943.5687653473143,1109
-940.837602591253,1134
-938.1071890529199,1128
-935.3775245645503,1084
-932.6486089583007,1085
-929.9204420662485,1170
-927.1930237203925,1147
-924.4663537526524,1174
-921.7404319948689,1136
-919.0152582788041,1168
-916.2908324361409,1199
-913.5671542984834,1107
-910.8442236973568,1125
-908.1220404642074,1119
-905.4006044304027,1179
-902.679915427231,1154
-899.959973285902,1104
-897.2407778375464,1156
-894.5223289132158,1141
-891.8046263438832,1118
-889.0876699604426,1099
-886.3714595937089,1112
-883.6559950744183,1175
-880.9412762332282,1091
-878.2273029007168,1120
-875.5140749073835,1142
-872.8015920836489,1131
-870.0898542598545,1157
-867.3788612662631,1102
-864.6686129330585,1096
-861.9591090903457,1120
-859.2503495681506,1140
-856.5423341964203,1179
-853.8350628050229,1143
-851.1285352237478,1137
-848.4227512823054,1150
-845.7177108103272,1168
-843.0134136373656,1139
-840.3098595928943,1157
-837.6070485063082,1132
-834.9049802069229,1148
-832.2036545239757,1137
-829.5030712866244,1146
-826.8032303239481,1163
-824.1041314649472,1206
-821.4057745385428,1116
-818.7081593735775,1203
-816.0112857988148,1182
-813.3151536429393,1176
-810.6197627345566,1171
-807.9251129021936,1202
-805.2312039742981,1203
-802.5380357792392,1226
-799.8456081453069,1169
-797.1539209007124,1188
-794.462973873588,1207
-791.772766891987,1169
-789.083299783884,1171
-786.3945723771743,1170
-783.7065844996748,1211
-781.0193359791231,1160
-778.3328266431781,1171
-775.6470563194197,1233
-772.9620248353489,1244
-770.2777320183878,1216
-767.5941776958798,1224
-764.9113616950891,1212
-762.2292838432011,1257
-759.5479439673222,1224
-756.8673418944801,1174
-754.1874774516235,1220
-751.5083504656222,1270
-748.8299607632671,1191
-746.15230817127,1227
-743.475392516264,1256
-740.7992136248035,1274
-738.1237713233636,1246
-735.4490654383407,1222
-732.7750957960521,1262
-730.1018622227365,1223
-727.4293645445534,1235
-724.7576025875837,1267
-722.0865761778291,1273
-719.4162851412126,1303
-716.7467293035781,1298
-714.0779084906909,1308
-711.409822528237,1265
-708.7424712418238,1260
-706.0758544569796,1256
-703.4099719991541,1323
-700.7448236937178,1305
-698.0804093659622,1314
-695.4167288411002,1334
-692.7537819442656,1292
-690.0915685005134,1331
-687.4300883348199,1300
-684.7693412720819,1324
-682.1093271371178,1311
-679.4500457546669,1297
-676.7914969493897,1283
-674.1336805458676,1349
-671.4765963686034,1408
-668.8202442420206,1335
-666.1646239904642,1330
-663.5097354382001,1342
-660.8555784094151,1403
-658.2021527282176,1384
-655.5494582186366,1379
-652.8974947046223,1331
-650.2462620100463,1346
-647.5957599587009,1467
-644.9459883742998,1431
-642.2969470804776,1432
-639.6486359007902,1406
-637.0010546587141,1462
-634.3542031776476,1429
-631.7080812809096,1404
-629.0626887917401,1407
-626.4180255333008,1345
-623.7740913286734,1468
-621.1308860008619,1401
-618.4884093727904,1400
-615.8466612673046,1393
-613.2056415071715,1403
-610.5653499150785,1341
-607.9257863136347,1460
-605.28695052537,1385
-602.6488423727357,1445
-600.0114616781036,1371
-597.3748082637674,1421
-594.7388819519412,1404
-592.1036825647604,1478
-589.4692099242818,1504
-586.8354638524829,1512
-584.2024441712624,1462
-581.5701507024403,1444
-578.9385832677575,1429
-576.3077416888759,1497
-573.6776257873787,1455
-571.0482353847704,1392
-568.4195703024757,1457
-565.7916303618415,1509
-563.164415384135,1420
-560.5379251905453,1434
-557.9121596021815,1475
-555.2871184400748,1485
-552.6628015251767,1474
-550.0392086783606,1482
-547.4163397204204,1447
-544.794194472071,1457
-542.1727727539491,1514
-539.5520743866118,1573
-536.9320991905377,1559
-534.3128469861261,1552
-531.6943175936979,1568
-529.0765108334947,1571
-526.4594265256793,1641
-523.8430644903358,1712
-521.2274245474689,1703
-518.612506517005,1820
-515.9983102187913,1896
-513.3848354725959,1901
-510.77208209810846,1876
-508.16004991493924,2012
-505.5487387426199,2035
-502.9381484006032,2224
-500.3282787082628,2205
-497.71912948489364,2146
-495.1107005497117,2062
-492.5029917218539,2109
-489.8960028203786,1875
-487.28973366426493,1795
-484.68418407241325,1774
-482.07935386364494,1662
-479.47524285670266,1690
-476.87185087025,1672
-474.2691777228715,1644
-471.66722323307334,1676
-469.0659872192821,1765
-466.4654694998459,1699
-463.86566989303384,1684
-461.26658821703614,1761
-458.66822428996414,1732
-456.07057792985,1766
-453.4736489546475,1730
-450.877437182231,1632
-448.28194243039627,1642
-445.68716451686,1701
-443.09310325926003,1649
-440.49975847515555,1653
-437.9071299820263,1651
-435.31521759727354,1708
-432.72402113821954,1654
-430.13354042210767,1698
-427.5437752661022,1732
-424.95472548728867,1691
-422.36639090267386,1733
-419.7787713291855,1729
-417.1918665836721,1723
-414.60567648290385,1779
-412.0202008435715,1714
-409.4354394822874,1836
-406.8513922155845,1841
-404.26805885991723,1830
-401.685439231661,1811
-399.103533147112,1792
-396.522340422488,1775
-393.9418608739278,1705
-391.3620943174908,1738
-388.7830405691583,1596
-386.2046994448317,1549
-383.6270707603344,1505
-381.05015433141045,1428
-378.473949973725,1328
-375.8984575028645,1222
-373.32367673433623,1088
-370.74960748356875,997
-368.1762495659117,920
-365.60360279663576,757
-363.03166699093265,645
-360.4604419639154,599
-357.8899275306178,546
-355.32012350599507,511
-352.7510297049233,527
-350.1826459421999,490
-347.61497203254316,491
-345.04800779059235,506
-342.4817530309082,475
-339.91620756797226,466
-337.35137121618743,532
-334.7872437898774,568
-332.22382510328725,528
-329.66111497058273,494
-327.09911320585127,462
-324.53781962310075,489
-321.9772340362607,497
-319.4173562591816,429
-316.8581861056348,457
-314.2997233893127,456
-311.7419679238294,468
-309.1849195227194,464
-306.62857799943856,526
-304.0729431673641,566
-301.51801483979375,543
-298.963792829947,525
-296.41027695096386,542
-293.85746701590574,560
-291.3053628377552,571
-288.7539642294155,515
-286.2032710037115,532
-283.65328297338897,592
-281.1039999511146,624
-278.5554217494762,587
-276.007548180983,540
-273.4603790580651,506
-270.9139141930734,544
-268.3681533982807,526
-265.8230964858798,516
-263.27874326798565,531
-260.7350935566336,546
-258.1921471637804,593
-255.6499039013039,543
-253.10836358100266,573
-250.56752601459698,615
-248.02739101372765,621
-245.48795838995704,631
-242.94922795476816,654
-240.41119951956557,608
-237.8738728956746,622
-235.33724789434166,602
-232.80132432673452,569
-230.2661020039418,597
-227.73158073697357,574
-225.19776033676033,636
-222.66464061415422,668
-220.1322213799284,653
-217.60050244477725,601
-215.06948361931552,569
-212.53916471408013,669
-210.00954553952818,694
-207.48062590603843,630
-204.9524056239104,639
-202.4248845033651,649
-199.8980623545441,687
-197.37193898751036,712
-194.84651421224817,743
-192.32178783866232,757
-189.79775967657952,724
-187.27442953574644,757
-184.7517972258321,870
-182.2298625564256,805
-179.7086253370378,815
-177.18808537710026,783
-174.66824248596583,732
-172.14909647290835,781
-169.6306471471229,755
-167.11289431772548,726
-164.59583779375328,742
-162.07947738416453,732
-159.5638128978386,747
-157.04884414357605,789
-154.53457093009854,839
-152.02099306604828,890
-149.50811035998936,756
-146.99592262040665,711
-144.48442965570587,847
-141.97363127421409,846
-139.46352728417958,817
-136.95411749377126,866
-134.44540171107985,744
-131.93737974411636,741
-129.43005140081357,812
-126.92341648902493,1085
-124.41747481652521,1094
-121.91222619101006,1025
-119.40767042009657,1144
-116.90380731132257,1495
-114.40063667214702,1763
-111.8981583099503,2016
-109.3963720320337,2052
-106.89527764561933,2324
-104.39487495785067,2346
-101.89516377579241,3228
-99.39614390642998,4412
-96.89781515667039,6612
-94.40017733334128,7938
-91.90323024319173,7663
-89.40697369289148,6502
-86.91140748903172,6253
-84.41653143812482,6320
-81.92234534660395,6024
-79.42884902082358,6079
-76.93604226705907,9162
-74.4439248915071,15470
-71.95249670028534,22685
-69.46175749943245,29288
-66.97170709490854,30172
-64.48234529259423,26937
-61.99367189829195,20443
-59.50568671772464,15733
-57.01838955653636,13042
-54.53178022029283,10683
-52.045858514480074,10091
-49.560624244506016,11527
-47.07607721569923,12363
-44.59221723330904,11778
-42.10904410250669,10590
-39.62655762838392,8545
-37.14475761595372,7270
-34.66364387015028,6866
-32.18321619582866,7527
-29.70347439776515,8762
-27.224418280657005,8197
-24.74604764912317,9346
-22.26836230770266,14350
-19.7913620608565,27075
-17.315046712966478,49434
-14.83941606833514,65039
-12.36446993118659,65039
-9.89020810566592,65039
-7.416630395839093,65039
-4.94373660569363,65039
-2.471526539137585,65039
-6.821210263296962E-13,65039
2.47084320796705,65039
4.941003281093458,65039
7.410480415786196,65039
9.879274808531363,65039
12.347386655893956,65039
14.814816154518212,65039
17.28156350112681,65039
19.74762889252179,65039
22.21301252558385,20965
24.67771459727237,3812
27.141735304626195,2773
29.605074844762612,2969
32.06773341487792,2541
34.52971121224755,2452
36.99100843422559,2514
39.45162527824516,2188
41.91156194181792,1545
44.370818622535126,1505
46.82939551806646,1396
49.287292826160524,1819
51.74451074464503,2593
54.201049471426245,2347
56.65690920448981,1646
59.112090141899785,1540
61.56659248179983,1459
64.02041642241159,1352
66.4735621620365,1274
68.92602989905402,1266
71.37781983192338,1164
73.82893215918205,1336
76.27936707944684,1153
78.72912479141326,1066
81.17820549385567,1390
83.62660938562783,1683
86.07433666566146,1325
88.5213875329681,892
90.96776218663751,909
93.41346082583925,996
95.85848364982041,1252
98.30283085790859,1286
100.7465026495089,1129
103.18949922410604,1250
105.63182078126385,1206
108.07346752062438,1090
110.51443964190923,922
112.95473734491827,774
115.39436082953114,816
117.83331029570547,873
120.27158594347827,872
122.7091879729652,947
125.1461165843615,1066
127.58237197794062,963
130.01795435405518,830
132.4528639131364,876
134.88710085569494,932
137.32066538231982,906
139.75355769367923,932
142.1857779905207,906
144.61732647366978,816
147.04820334403132,795
149.47840880258934,861
151.90794305040674,974
154.33680628862487,1154
156.76499871846443,1400
159.19252054122433,1543
161.61937195828352,1657
164.04555317109896,1931
166.47106438120693,2116
168.89590579022217,2469
171.320077599839,2584
173.7435800118302,2855
176.16641322804742,2967
178.58857745042144,3083
181.01007288096173,3311
183.43089972175687,3395
185.85105817497413,3305
188.27054844285988,3337
190.6893707277394,3497
193.10752523201643,3520
195.5250121581745,3625
197.9418317087751,3718
200.3579840864594,3790
202.7734694939469,3849
205.18828813403627,3900
207.6024402096051,3958
210.01592592360964,3894
212.42874547908548,3963
214.84089907914665,3809
217.2523869269868,3941
219.66320922587727,4035
222.0733661791695,4013
224.48285799029293,3952
226.8916848627572,3879
229.29984700014882,3987
231.7073446061355,3934
234.11417788446204,3989
236.520347038953,4123
238.92585227351185,4119
241.33069379212054,4200
243.73487179884035,4301
246.1383864978112,4344
248.541238093252,4183
250.9434267894609,4197
253.34495279081432,4249
255.74581630176783,4231
258.1460175268563,4286
260.54555667069314,4223
262.9444339379703,4154
265.3426495334594,4190
267.7402036620107,4293
270.1370965285529,4177
272.53332833809407,4025
274.9288992957214,3916
277.32380960660055,3806
279.718059475976,3877
282.1116491091717,3817
284.5045787115897,3784
286.89684848871195,3759
289.2884586460981,3836
291.67940938938807,3830
294.0697009242996,3920
296.4593334566299,3866
298.84830719225477,3795
301.23662233712923,3792
303.6242790972866,3758
306.01127767884,3759
308.39761828798066,3690
310.78330113097934,3699
313.16832641418534,3715
315.5526943440269,3662
317.9364051270112,3531
320.3194589697242,3703
322.70185607883093,3702
325.0835966610754,3488
327.4646809232805,3543
329.8451090723478,3557
332.2248813152577,3434
334.6039978590701,3521
336.9824589109231,3554
339.36026467803447,3476
341.7374153677,3474
344.113911187295,3424
346.48975234427337,3459
348.8649390461686,3424
351.2394715005918,3442
353.61334991523415,3448
355.9865744978655,3475
358.35914545633375,3483
360.73106299856715,3434
363.10232733257146,3438
365.47293866643247,3467
367.84289720831396,3358
370.2122031664593,3433
372.5808567491905,3373
374.9488581649083,3392
377.31620762209275,3420
379.6829053293021,3385
382.0489514951745,3441
384.4143463284262,3362
386.7790900378528,3488
389.14318283232853,3344
391.50662492080653,3421
393.86941651231916,3374
396.23155781597745,3454
398.5930490409713,3419
400.9538903965696,3476
403.3140820921202,3399
405.6736243370498,3348
408.03251734086336,3296
410.3907613131465,3407
412.74835646356166,3374
415.10530300185144,3354
417.4616011378372,3384
419.81725108141893,3481
422.1722530425758,3336
424.5266072313656,3338
426.880313857925,3361
429.2333731324701,3396
431.58578526529516,3485
433.9375504667738,3353
436.2886689473588,3377
438.63914091758113,3386
440.9889665880513,3284
443.33814616945835,3313
445.68667987257015,3303
448.03456790823395,3337
450.3818104873759,3270
452.72840782100013,3189
455.07436012019105,3348
457.41966759611057,3347
459.7643304600007,3363
462.10834892318155,3294
464.4517231970525,3373
466.79445349309174,3371
469.1365400228566,3338
471.4779829979826,3350
473.81878263018564,3348
476.15893913125876,3435
478.4984527130747,3350
480.8373235875855,3400
483.17555196682144,3319
485.5131380628919,3530
487.8500820879857,3509
490.1863842543697,3593
492.52204477439034,3718
494.8570638604725,3970
497.1914417251204,4166
499.52517858091653,4359
501.85827464052306,4536
504.19073011668036,4587
506.5225452222086,4627
508.85372017000566,4439
511.18425517304956,4388
513.514150444396,4409
515.8434061971808,5080
518.1720226446176,5622
520.4999999999999,5744
522.8273384766991,5571
525.1540382881666,5231
527.480099647932,4978
529.8055227696037,4427
532.1303078668694,3954
534.454455153496,3679
536.777964843328,3599
539.1008371502907,3591
541.4230722883866,3479
543.744670471698,3399
546.0656319143858,3443
548.3859568306899,3428
550.7056454349294,3526
553.0246979415016,3455
555.3431145648834,3438
557.6608955196306,3397
559.978041020377,3457
562.2945512818363,3360
564.6104265188006,3443
566.9256669461412,3562
569.2402727788082,3349
571.5542442318302,3441
573.8675815203156,3368
576.1802848594508,3556
578.4923544645015,3559
580.8037905508126,3588
583.114593333807,3646
585.4247630289875,3487
587.7342998519354,3482
590.0432040183106,3566
592.3514757438526,3545
594.6591152443794,3572
596.9661227357875,3491
599.2724984340531,3519
601.578242555231,3533
603.8833553154542,3543
606.1878369309362,3591
608.4916876179676,3650
610.7949075929192,3556
613.0974970722403,3521
615.3994562724587,3632
617.7007854101818,3582
620.0014847020951,3519
622.3015543649641,3680
624.6009946156324,3605
626.8998056710224,3508
629.1979877481361,3485
631.4955410640538,3528
633.7924658359349,3516
636.0887622810175,3611
638.3844306166192,3541
640.6794710601358,3625
642.9738838290426,3717
645.2676691408932,3648
647.5608272133207,3718
649.853358264037,3685
652.1452625108324,3600
654.4365401715764,3597
656.7271914642178,3596
659.0172166067838,3580
661.3066158173809,3656
663.5953893141935,3740
665.8835373154867,3706
668.1710600396028,3619
670.4579577049639,3648
672.7442305300709,3668
675.0298787335033,3674
677.3149025339197,3683
679.599302150058,3745
681.8830778007342,3653
684.1662297048437,3686
686.4487580813608,3750
688.7306631493387,3779
691.0119451279091,3679
693.2926042362834,3700
695.5726406937516,3637
697.8520547196814,3585
700.1308465335215,3654
702.4090163547982,3719
704.6865644031171,3724
706.9634908981619,3708
709.2397960596965,3730
711.5154801075631,3658
713.7905432616823,3662
716.0649857420548,3604
718.3388077687592,3541
720.612009561953,3663
722.8845913418733,3680
725.1565533288352,3718
727.427895743234,3678
729.6986188055427,3724
731.9687227363137,3627
734.238207756178,3784
736.5070740858458,3742
738.7753219461066,3728
741.0429515578281,3631
743.3099631419569,3646
745.5763569195191,3752
747.8421331116193,3734
750.1072919394409,3653
752.3718336242467,3694
754.6357583873777,3682
756.8990664502545,3648
759.1617580343765,3729
761.423833361321,3682
763.6852926527457,3769
765.9461361303862,3760
768.206364016058,3819
770.4659765316536,3586
772.7249738991469,3678
774.9833563405886,3810
777.2411240781092,3658
779.4982773339183,3681
781.7548163303044,3756
784.010741289634,3826
786.2660524343538,3822
788.5207499869881,3689
790.7748341701416,3684
793.0283052064964,3830
795.2811633188143,3828
797.5334087299362,3816
799.7850416627813,3785
802.0360623403484,3725
804.2864709857143,3779
806.5362678220353,3809
808.7854530725468,3763
811.0340269605625,3844
813.2819897094754,3803
815.5293415427581,3817
817.77608268396,3867
820.0222133567116,3835
822.2677337847211,3785
824.5126441917765,3847
826.7569448017433,3919
829.0006358385675,3886
831.2437175262731,3812
833.4861900889629,3791
835.7280537508192,3780
837.9693087361026,3778
840.2099552691533,3752
842.4499935743896,3851
844.689423876309,3832
846.9282463994886,3862
849.1664613685833,3783
851.4040690083276,3851
853.6410695435349,3826
855.877463199097,3806
858.1132501999847,3790
860.3484307712487,3835
862.5830051380175,3915
864.8169735254988,3842
867.0503361589791,3888
869.2830932638243,3811
871.5152450654786,4002
873.7467917894654,3910
875.9777336613873,3964
878.2080709069252,4014
880.4378037518389,3933
882.666932421968,3953
884.8954571432301,3961
887.1233781416219,3907
889.3506956432192,3966
891.5774098741766,3945
893.803521060728,3938
896.0290294291852,3852
898.2539352059397,3933
900.4782386174619,3921
902.7019398903011,3917
904.925039251085,3924
907.147536926521,3869
909.3694331433943,3886
911.59072812857,4006
913.8114221089921,3874
916.0315153116827,3914
918.2510079637437,3888
920.4699002923547,3812
922.6881925247761,3863
924.905884888345,3924
927.1229776104793,3849
929.3394709186747,3923
931.555365040506,3813
933.7706602036275,3880
935.9853566357709,3863
938.1994545647489,3957
940.4129542184515,3922
942.6258558248488,3891
944.8381596119883,3830
947.0498658079974,3902
949.2609746410825,3876
951.4714863395287,3792
953.6814011316998,3751
955.8907192460387,3845
958.0994409110671,3913
960.3075663553858,3988
962.5150958076741,3931
964.7220294966913,3912
966.928367651274,3834
969.1341105003388,3819
971.3392582728806,3840
973.5438111979742,3817
975.747769504772,3790
977.9511334225061,3832
980.153903180487,3794
982.3560790081052,3784
984.5576611348289,3866
986.7586497902058,3903
988.9590452038618,3810
991.158847605503,3738
993.3580572249133,3804
995.5566742919558,3778
997.7546990365728,3799
999.952131688785,3674
1002.1489724786926,3770
1004.3452216364743,3666
1006.5408793923874,3709
1008.7359459767691,3719
1010.9304216200343,3671
1013.1243065526781,3623
1015.3176010052733,3616
1017.510305208472,3600
1019.7024193930064,3601
1021.8939437896848,3670
1024.0848786293977,3699
1026.2752241431122,3656
1028.4649805618747,3608
1030.6541481168115,3687
1032.842727039127,3655
1035.0307175601051,3597
1037.2181199111074,3620
1039.4049343235752,3671
1041.591161029029,3579
1043.7768002590683,3649
1045.9618522453698,3589
1048.1463172196918,3681
1050.3301954138697,3710
1052.513487059818,3629
1054.69619238953,3698
1056.8783116350783,3643
1059.0598450286152,3729
1061.2407928023704,3680
1063.4211551886528,3655
1065.6009324198508,3623
1067.780124728432,3656
1069.9587323469414,3634
1072.1367555080046,3527
1074.314194444325,3665
1076.4910493886855,3616
1078.667320573947,3626
1080.843008233051,3548
1083.0181125990161,3543
1085.1926339049414,3550
1087.3665723840027,3626
1089.5399282694575,3530
1091.7127017946405,3630
1093.8848931929647,3524
1096.0565026979243,3585
1098.2275305430899,3515
1100.3979769621128,3491
1102.567842188722,3693
1104.737126456726,3537
1106.9058300000124,3635
1109.0739530525475,3510
1111.2414958483764,3536
1113.4084586216231,3496
1115.5748416064907,3512
1117.7406450372605,3499
1119.9058691482942,3508
1122.0705141740304,3610
1124.2345803489884,3526
1126.3980679077658,3551
1128.5609770850388,3612
1130.7233081155623,3566
1132.8850612341707,3483
1135.0462366757774,3537
1137.2068346753745,3589
1139.3668554680326,3616
1141.526299288901,3594
1143.68516637321,3656
1145.8434569562655,3635
1148.001171273455,3548
1150.158309560244,3686
1152.3148720521767,3585
1154.470858984876,3579
1156.626270594044,3562
1158.7811071154629,3585
1160.9353687849912,3511
1163.089055838569,3574
1165.242168512213,3515
1167.3947070420209,3524
1169.5466716641677,3620
1171.6980626149075,3535
1173.8488801305748,3629
1175.9991244475814,3688
1178.1487958024186,3517
1180.2978944316555,3496
1182.4464205719428,3435
1184.5943744600072,3490
1186.7417563326567,3509
1188.8885664267755,3468
1191.0348049793297,3493
1193.1804722273619,3485
1195.325568407995,3611
1197.4700937584303,3542
1199.614048515948,3607
1201.7574329179074,3589
1203.900247201746,3587
1206.042491604982,3485
1208.1841663652099,3579
1210.3252717201053,3519
1212.465807907422,3546
1214.6057751649923,3592
1216.7451737307279,3671
1218.8840038426192,3698
1221.0222657387353,3570
1223.1599596572241,3639
1225.2970858363137,3617
1227.4336445143094,3611
1229.5696359295966,3644
1231.705060320639,3694
1233.8399179259786,3527
1235.9742089842384,3678
1238.107933734118,3649
1240.2410924143974,3640
1242.373685263935,3701
1244.5057125216676,3748
1246.6371744266116,3626
1248.7680712178621,3707
1250.898403134593,3667
1253.028170416058,3675
1255.1573733015875,3657
1257.2860120305932,3675
1259.4140868425648,3618
1261.54159797707,3749
1263.6685456737569,3723
1265.7949301723515,3670
1267.9207517126597,3736
1270.046010534565,3659
1272.1707068780306,3728
1274.2948409830983,3743
1276.4184130898889,3762
1278.541423438603,3629
1280.6638722695184,3683
1282.785759822993,3722
1284.9070863394636,3748
1287.0278520594447,3731
1289.1480572235314,3790
1291.2677020723963,3751
1293.3867868467923,3777
1295.5053117875495,3821
1297.623277135579,3828
1299.740683131868,3788
1301.8575300174857,3775
1303.973818033578,3736
1306.0895474213703,3903
1308.2047184221678,3783
1310.3193312773528,3794
1312.4333862283888,3779
1314.5468835168163,3899
1316.659823384255,3814
1318.7722060724045,3910
1320.8840318230418,3741
1322.9953008780249,3866
1325.1060134792888,3852
1327.2161698688478,3830
1329.3257702887959,3814
1331.4348149813054,3936
1333.5433041886276,3785
1335.6512381530933,3890
1337.7586171171101,3900
1339.8654413231675,3894
1341.9717110138317,3861
1344.0774264317488,3818
1346.1825878196432,3862
1348.2871954203192,3908
1350.3912494766587,3906
1352.4947502316231,3762
1354.5976979282532,3878
1356.7000928096686,3864
1358.8019351190665,3930
1360.9032250997243,3873
1363.0039629949988,3804
1365.1041490483235,3915
1367.2037835032133,3805
1369.3028666032606,3814
1371.401398592137,3842
1373.4993797135926,3956
1375.5968102114575,3959
1377.6936903296396,3931
1379.7900203121262,3819
1381.8858004029835,3823
1383.9810308463561,3857
1386.075711886469,3981
1388.1698437676241,3911
1390.2634267342032,3989
1392.356461030667,4055
1394.4489469015557,3870
1396.5408845914872,3941
1398.6322743451592,3990
1400.7231164073469,4041
1402.813411022907,4058
1404.903158436773,3995
1406.9923588939578,4029
1409.0810126395531,3914
1411.1691199187303,3955
1413.2566809767386,3926
1415.343696058907,3989
1417.4301654106425,4009
1419.5160892774315,3989
1421.6014679048399,3942
1423.6863015385125,3950
1425.7705904241707,4007
1427.8543348076178,3958
1429.9375349347342,4079
1432.0201910514802,4093
1434.102303403894,4115
1436.1838722380944,4132
1438.2648978002767,4183
1440.3453803367174,4187
1442.4253200937692,4013
1444.5047173178677,4166
1446.5835722555234,4241
1448.6618851533285,4219
1450.739656257952,4337
1452.8168858161434,4215
1454.8935740747306,4319
1456.96972128062,4238
1459.045327680797,4395
1461.120393522327,4341
1463.1949190523528,4458
1465.2689045180973,4501
1467.3423501668608,4553
1469.415256246024,4528
1471.4876230030463,4763
1473.559450685465,4657
1475.6307395408976,4704
1477.7014898170391,4646
1479.771701761665,4879
1481.8413756226287,4842
1483.9105116478618,4756
1485.9791100853772,4812
1488.0471711832643,5029
1490.1146951896926,4918
1492.1816823529098,4804
1494.2481329212433,4949
1496.3140471430984,4934
1498.3794252669609,5024
1500.4442675413939,5004
1502.5085742150404,5008
1504.572345536622,5131
1506.6355817549388,5165
1508.6982831188702,5187
1510.7604498773744,5189
1512.8220822794883,5203
1514.8831805743293,5240
1516.9437450110909,5174
1519.003775839048,5381
1521.0632733075522,5391
1523.1222376660367,5361
1525.1806691640113,5361
1527.2385680510652,5308
1529.2959345768668,5424
1531.3527689911643,5630
1533.4090715437833,5627
1535.4648424846291,5642
1537.5200820636855,5675
1539.5747905310159,5770
1541.6289681367616,5804
1543.6826151311434,5745
1545.7357317644614,5885
1547.7883182870937,5883
1549.8403749494987,6165
1551.8919020022113,6092
1553.9428996958477,6107
1555.9933682811015,6167
1558.0433080087469,6261
1560.0927191296346,6254
1562.1416018946961,6250
1564.1899565549415,6259
1566.2377833614592,6287
1568.2850825654164,6248
1570.3318544180606,6092
1572.3780991707158,6047
1574.423817074788,5873
1576.4690083817595,5727
1578.5136733431923,5522
1580.5578122107272,5499
1582.601425236085,5193
1584.6445126710646,5059
1586.6870747675434,5009
1588.7291117774776,4849
1590.7706239529034,4876
1592.8116115459347,4728
1594.8520748087658,4594
1596.8920139936686,4651
1598.9314293529933,4527
1600.9703211391711,4402
1603.008689604711,4376
1605.0465350022005,4328
1607.0838575843068,4302
1609.1206576037753,4261
1611.1569353134305,4246
1613.1926909661765,4286
1615.2279248149953,4253
1617.2626371129481,4115
1619.2968281131757,4122
1621.3304980688963,4234
1623.3636472334088,4213
1625.39627586009,4116
1627.428384202396,4110
1629.459972513861,4027
1631.4910410480993,4021
1633.5215900588028,4049
1635.551619799744,3999
1637.5811305247717,4037
1639.6101224878166,3939
1641.6385959428862,4028
1643.6665511440683,3962
1645.693988345528,3996
1647.7209078015112,3974
1649.7473097663405,3955
1651.7731944944203,4076
1653.7985622402307,3965
1655.823413258333,3946
1657.847747803366,3914
1659.8715661300494,3891
1661.8948684931793,3918
1663.9176551476316,3937
1665.9399263483624,3927
1667.9616823504057,3954
1669.982923408873,3951
1672.0036497789574,3934
1674.0238617159293,3977
1676.043559475138,3880
1678.0627433120121,3864
1680.081413482059,4012
1682.0995702408654,4028
1684.117213844096,4014
1686.134344547495,3929
1688.1509626068864,3924
1690.1670682781705,3889
1692.182661817329,3926
1694.1977434804217,3950
1696.2123135235875,3951
1698.226372203043,3910
1700.2399197750851,3957
1702.2529564960905,3964
1704.2654826225112,3942
1706.277498410882,3943
1708.2890041178139,3885
1710.2999999999988,3974
1712.3104863142066,3875
1714.3204633172854,3974
1716.329931266163,3992
1718.3388904178469,3856
1720.3473410294214,3945
1722.3552833580516,3870
1724.3627176609807,3827
1726.3696441955308,3935
1728.3760632191033,3910
1730.3819749891782,3765
1732.3873797633146,3929
1734.3922777991502,3994
1736.3966693544012,3899
1738.4005546868639,3990
1740.4039340544127,3891
1742.406807715001,3905
1744.4091759266616,3903
1746.4110389475054,3866
1748.4123970357223,3882
1750.413250449582,3954
1752.4135994474318,4001
1754.4134442876993,3913
1756.4127852288902,3802
1758.4116225295893,3879
1760.4099564484595,3853
1762.407787244244,3884
1764.405115175764,3912
1766.4019405019203,3742
1768.3982634816916,3690
1770.3940843741357,3807
1772.3894034383907,3736
1774.3842209336717,3734
1776.378537119274,3841
1778.372352254571,3913
1780.3656665990156,3876
1782.3584804121397,3832
1784.3507939535534,3889
1786.3426074829463,3823
1788.3339212600863,3821
1790.3247355448211,3808
1792.3150505970766,3826
1794.3048666768573,3915
1796.2941840442477,3820
1798.2830029594106,3855
1800.2713236825884,3831
1802.2591464741004,3803
1804.2464715943465,3847
1806.2332993038058,3882
1808.2196298630352,3876
1810.2054635326708,3866
1812.190800573428,3890
1814.175641246101,3873
1816.1599858115628,3866
1818.1438345307652,3853
1820.127187664738,3925
1822.1100454745924,3763
1824.092408221516,3769
1826.0742761667766,3835
1828.055649571721,3937
1830.0365286977735,3836
1832.0169138064398,3888
1833.9968051593014,3886
1835.9762030180214,3790
1837.9551076443408,3789
1839.9335193000788,3865
1841.9114382471344,3822
1843.888864747485,3860
1845.8657990631878,3847
1847.842241456378,3805
1849.8181921892697,3781
1851.7936515241558,3826
1853.7686197234098,3815
1855.7430970494815,3771
1857.7170837649014,3860
1859.6905801322787,3838
1861.6635864143004,3915
1863.6361028737338,3794
1865.608129773424,3898
1867.5796673762961,3916
1869.5507159453537,3779
1871.521275743678,3756
1873.4913470344313,3942
1875.4609300808534,3840
1877.4300251462632,3814
1879.3986324940588,4006
1881.366752387717,3837
1883.3343850907936,3850
1885.3015308669228,3944
1887.268189979819,3818
1889.2343626932739,3808
1891.2000492711595,3810
1893.1652499774254,3891
1895.1299650761011,4029
1897.0941948312952,3856
1899.0579395071945,3901
1901.0211993680641,4007
1902.98397467825,3980
1904.9462657021745,3954
1906.9080727043415,3928
1908.869395949332,3840
1910.8302357018065,3905
1912.790592226504,3921
1914.7504657882428,3918
1916.7098566519212,3895
1918.6687650825133,3920
1920.6271913450764,3868
1922.5851357047422,3937
1924.5425984267245,3945
1926.499579776314,3931
1928.4560800188833,3881
1930.4120994198802,3940
1932.367638244833,3976
1934.32269675935,3875
1936.2772752291175,3932
1938.231373919899,3876
1940.1849930975404,3846
1942.1381330279637,3901
1944.0907939771696,3925
1946.0429762112412,3907
1947.9946799963363,3912
1949.9459055986945,3903
1951.896653284633,3993
1953.8469233205478,3942
1955.7967159729142,3990
1957.7460315082863,3972
1959.6948701932974,3924
1961.6432322946594,3900
1963.5911180791632,3926
1965.5385278136787,3960
1967.4854617651545,3939
1969.4319202006182,3942
1971.377903387176,3990
1973.3234115920136,4000
1975.268445082395,3955
1977.2130041256642,3882
1979.1570889892423,3917
1981.1006999406304,3830
1983.04383724741,4026
1984.986501177238,3910
1986.928691997853,4051
1988.8704099770712,3900
1990.811655382789,3874
1992.7524284829801,3895
1994.692729545698,3977
1996.6325588390755,3939
1998.5719166313224,3834
2000.5108031907307,3931
2002.4492187856677,4005
2004.387163684583,3949
2006.3246381560011,3958
2008.2616424685298,3877
2010.1981768908527,3915
2012.1342416917332,3898
2014.069837140014,3945
2016.0049635046162,3982
2017.9396210545406,3895
2019.8738100588666,3978
2021.8075307867502,3957
2023.740783507431,3824
2025.6735684902228,3900
2027.6058860045214,3965
2029.5377363198004,3818
2031.4691197056118,3931
2033.4000364315875,3913
2035.3304867674374,3826
2037.260470982952,3962
2039.189989347998,3979
2041.1190421325232,3960
2043.047629606554,3959
2044.9757520401945,3951
2046.9034097036288,3899
2048.8306028671195,3975
2050.7573318010086,3947
2052.683596775716,4053
2054.609398061742,3932
2056.5347359296647,3893
2058.4596106501403,3942
2060.384022493906,4036
2062.3079717317764,3951
2064.231458634646,3926
2066.1544834734873,3993
2068.077046519352,3930
2069.99914804337,4014
2071.9207883167524,4045
2073.8419676107865,4008
2075.7626861968406,3947
2077.6829443463607,3993
2079.6027423308715,4007
2081.522080421977,4002
2083.440958891362,4120
2085.359378010786,4028
2087.2773380520907,4060
2089.194839287196,3889
2091.111881988101,3961
2093.0284664268825,3921
2094.9445928756973,4004
2096.86026160678,3937
2098.775472892446,3984
2100.690227005088,4087
2102.604524217178,3953
2104.5183648012676,3978
2106.431749029985,4063
2108.34467717604,3883
2110.2571495122206,4047
2112.169166311393,4010
2114.080727846503,4022
2115.9918343905747,4040
2117.902486216711,3929
2119.8126835980956,4051
2121.722426807987,4065
2123.6317161197285,3987
2125.5405518067364,4003
2127.448934142509,3993
2129.356863400624,4056
2131.264339854737,4030
2133.1713637785815,4106
2135.077935445972,4094
2136.9840551308002,4031
2138.889723107037,4013
2140.7949396487334,4078
2142.699705030018,4002
2144.6040195250994,4092
2146.507883408264,4055
2148.4112969538774,4196
2150.3142604363848,4140
2152.2167741303097,4037
2154.1188383102535,3981
2156.0204532508997,4127
2157.9216192270064,4177
2159.822336513414,4175
2161.7226053850413,4136
2163.622426116884,4052
2165.5217989840185,4047
2167.4207242616,4092
2169.319202224862,4083
2171.2172331491165,4129
2173.1148173097563,4150
2175.0119549822507,4093
2176.90864644215,4139
2178.8048919650823,4126
2180.7006918267534,4150
2182.596046302952,4093
2184.4909556695407,4105
2186.3854202024645,4118
2188.279440177746,4216
2190.173015871487,4147
2192.066147559868,4147
2193.958835519149,4115
2195.851080025667,4149
2197.7428813558417,4075
2199.6342397861667,4022
2201.5251555932186,4099
2203.415629053651,4174
2205.3056604441986,4171
2207.19525004167,4171
2209.084398122958,4288
2210.9731049650327,4158
2212.861370844941,4272
2214.749196039812,4160
2216.636580826851,4292
2218.523525483344,4257
2220.410030286655,4151
2222.296095514226,4292
2224.1817214435805,4218
2226.066908352319,4190
2227.951656518121,4265
2229.835966218746,4289
2231.71983773203,4247
2233.6032713358913,4283
2235.486267308324,4359
2237.3688259274036,4313
2239.2509474712824,4239
2241.132632218193,4172
2243.013880446447,4197
2244.8946924344323,4224
2246.7750684606203,4085
2248.6550088035574,4267
2250.534513741871,4311
2252.413583554265,4264
2254.292218519526,4109
2256.170418916517,4224
2258.0481850241786,4243
2259.925517121534,4237
2261.8024154876825,4258
2263.678880401803,4240
2265.5549121431536,4275
2267.430510991071,4260
2269.305677224971,4250
2271.180411124348,4205
2273.0547129687766,4123
2274.9285830379076,4125
2276.8020216114737,4144
2278.6750289692845,4335
2280.5476053912294,4283
2282.4197511572766,4320
2284.2914665474727,4167
2286.162751841943,4284
2288.0336073208937,4254
2289.904033264608,4232
2291.774029953448,4326
2293.6435976678554,4310
2295.5127366883517,4262
2297.381447295534,4146
2299.2497297700825,4220
2301.1175843927526,4172
2302.9850114443825,4222
2304.852011205885,4172
2306.7185839582553,4153
2308.5847299825664,4105
2310.4504495599676,4097
2312.3157429716925,4096
2314.1806104990483,4223
2316.0450524234247,4060
2317.9090690262888,4096
2319.772660589186,4180
2321.635827393742,4231
2323.498569721661,4061
2325.3608878547248,4092
2327.2227820747967,4033
2329.0842526638157,4043
2330.945299903803,4122
2332.805924076857,4144
2334.6661254651535,4105
2336.525904350951,4165
2338.3852610165827,4192
2340.244195744464,4067
2342.102708817088,4087
2343.9608005170253,4135
2345.8184711269287,4195
2347.675720929526,4209
2349.532550207628,4064
2351.38895924412,4098
2353.24494832197,4087
2355.100517724223,4110
2356.955667734004,4145
2358.810398634514,4077
2360.664710709037,4092
2362.5186042409337,4105
2364.3720795136437,3994
2366.225136810686,4056
2368.0777764156583,4119
2369.929998612237,4173
2371.7818036841777,4296
2373.633191915315,4142
2375.484163589562,4181
2377.3347189909114,4194
2379.184858403434,4124
2381.03458211128,4210
2382.8838903986775,4169
2384.732783549936,4190
2386.5812618494406,4095
2388.4293255816588,4187
2390.2769750311327,4200
2392.1242104824883,4226
2393.971032220427,4104
2395.8174405297295,4266
2397.6634356952563,4184
2399.509018001947,4217
2401.3541877348193,4258
2403.1989451789705,4196
2405.043290619576,4197
2406.8872243418905,4251
2408.730746631247,4175
2410.5738577730594,4160
2412.4165580528183,4156
2414.258847756095,4212
2416.100727168537,4176
2417.9421965758734,4085
2419.783256263912,4168
2421.623906518538,4213
2423.4641476257157,4289
2425.303979871491,4126
2427.143403541984,4169
2428.9824189233977,4214
2430.821026302012,4195
2432.6592259641866,4307
2434.497018196361,4161
2436.33440328505,4231
2438.171381516851,4225
2440.00795317844,4187
2441.844118556569,4263
2443.6798779380724,4251
2445.5152316098606,4172
2447.3501798589255,4231
2449.1847229723357,4320
2451.0188612372403,4199
2452.8525949408663,4066
2454.6859243705203,4219
2456.518849813587,4164
2458.3513715575314,4173
2460.183489889895,4246
2462.015205098301,4319
2463.8465174704493,4198
2465.67742729412,4178
2467.5079348571717,4256
2469.338040447542,4350
2471.1677443532476,4283
2472.9970468623833,4275
2474.825948263123,4404
2476.6544488437207,4333
2478.482548892508,4237
2480.310248697896,4306
2482.137548548374,4336
2483.9644487325118,4220
2485.790949538956,4285
2487.617051256433,4326
2489.44275417375,4287
2491.26805857979,4368
2493.0929647635157,4325
2494.917473013971,4280
2496.741583620276,4304
2498.5652968716304,4281
2500.3886130573137,4407
2502.2115324666834,4232
2504.0340553891765,4260
2505.856182114308,4402
2507.6779129316733,4368
2509.499248130945,4348
2511.3201880018764,4280
2513.140732834298,4360
2514.9608829181198,4345
2516.780638543331,4389
2518.6,4365
2520.418967578273,4464
2522.237541568376,4391
2524.0557222606144,4404
2525.8735099453706,4430
2527.6909049131086,4363
2529.507907454368,4280
2531.32451785977,4547
2533.140736420014,4335
2534.9565634258774,4420
2536.771999168218,4497
2538.5870439379714,4372
2540.4016980261526,4406
2542.2159617238544,4546
2544.02983532225,4486
2545.8433191125914,4498
2547.656413386209,4469
2549.4691184345115,4424
2551.2814345489874,4441
2553.093362021204,4487
2554.904901142808,4569
2556.716052205523,4599
2558.526815501153,4623
2560.3371913215824,4615
2562.147179958771,4600
2563.956781704761,4558
2565.7659968516705,4577
2567.5748256916986,4643
2569.3832685171224,4679
2571.1913256202984,4684
2572.9989972936614,4520
2574.806283829725,4697
2576.613185521084,4713
2578.4197026604074,4662
2580.2258355404483,4559
2582.031584454035,4691
2583.836949694077,4798
2585.6419315535613,4666
2587.4465303255533,4706
2589.2507463032002,4733
2591.0545797797245,4679
2592.8580310484303,4659
2594.6611004026995,4672
2596.463788135992,4660
2598.266094541849,4741
2600.0680199138874,4684
2601.869564545807,4788
2603.670728731383,4779
2605.4715127644704,4810
2607.2719169390048,4771
2609.071941548998,4718
2610.8715868885433,4725
2612.670853251811,4782
2614.469740933052,4676
2616.268250226594,4752
2618.0663814268455,4683
2619.864134828292,4782
2621.6615107255006,4707
2623.458509413115,4669
2625.2551311858597,4623
2627.0513763385347,4604
2628.8472451660223,4695
2630.6427379632833,4649
2632.4378550253564,4748
2634.232596647359,4645
2636.026963124488,4678
2637.8209547520187,4596
2639.6145718253065,4620
2641.407814639785,4670
2643.200683490966,4542
2644.9931786744414,4671
2646.7853004858807,4579
2648.577049221034,4614
2650.3684251757277,4660
2652.1594286458712,4614
2653.9500599274484,4657
2655.740319316525,4519
2657.5302071092437,4545
2659.3197236018286,4503
2661.10886909058,4528
2662.8976438718782,4609
2664.686048242183,4481
2666.4740824980327,4416
2668.2617469360443,4507
2670.0490418529134,4473
2671.8359675454153,4525
2673.622524310403,4558
2675.408712444811,4407
2677.1945322456495,4430
2678.979984010009,4521
2680.76506803506,4533
2682.5497846180497,4434
2684.334134056306,4422
2686.1181166472343,4471
2687.9017326883213,4372
2689.6849824771293,4373
2691.4678663113013,4453
2693.2503844885596,4380
2695.032537306705,4419
2696.8143250636167,4497
2698.5957480572542,4504
2700.3768065856534,4432
2702.1575009469316,4501
2703.937831439283,4487
2705.717798360982,4484
2707.4974020103837,4356
2709.276642685917,4493
2711.055520686095,4459
2712.834036309506,4586
2714.612189854819,4441
2716.389981620782,4520
2718.1674119062204,4307
2719.944481010041,4327
2721.721189231226,4412
2723.4975368688415,4339
2725.273524222027,4422
2727.0491515900053,4432
2728.824419272075,4402
2730.5993275676146,4351
2732.3738767760838,4389
2734.148067197016,4360
2735.921899130031,4411
2737.6953728748194,4496
2739.468488731156,4452
2741.2412469988926,4392
2743.0136479779617,4560
2744.785691968372,4428
2746.5573792702116,4338
2748.3287101836504,4322
2750.099685008934,4410
2751.870304046388,4366
2753.640567596418,4427
2755.4104759595057,4422
2757.1800294362156,4465
2758.949228327187,4377
2760.7180729331412,4528
2762.486563554877,4488
2764.254700493272,4469
2766.022484049284,4436
2767.789914523947,4351
2769.5569922183786,4458
2771.3237174337705,4320
2773.090090471394,4433
2774.8561116326036,4471
2776.6217812188274,4318
2778.3870995315756,4375
2780.1520668724356,4310
2781.9166835430747,4503
2783.6809498452394,4421
2785.444866080754,4390
2787.2084325515225,4438
2788.971649559527,4344
2790.73451740683,4375
2792.4970363955713,4339
2794.2592068279705,4497
2796.0210290063264,4312
2797.7825032330147,4327
2799.543629810493,4340
2801.304409041296,4373
2803.0648412280366,4515
2804.8249266734088,4347
2806.5846656801846,4494
2808.344058551212,4433
2810.1031055894246,4500
2811.8618070978273,4419
2813.6201633795085,4539
2815.378174737636,4448
2817.1358414754536,4499
2818.893163896285,4452
2820.6501423035334,4452
2822.4067770006814,4460
2824.1630682912883,4457
2825.9190164789957,4522
2827.6746218675207,4450
2829.429884760661,4407
2831.184805462294,4437
2832.9393842763743,4420
2834.693621506936,4472
2836.4475174580916,4483
2838.201072434034,4493
2839.954286739034,4462
2841.707160677441,4463
2843.459694553685,4413
2845.2118886722724,4507
2846.96374333779,4522
2848.7152588549034,4511
2850.4664355283567,4471
2852.217273662973,4427
2853.9677735636546,4437
2855.7179355353833,4352
2857.4677598832186,4491
2859.217246912299,4532
2860.9663969278427,4510
2862.715210235146,4436
2864.4636871395846,4404
2866.211827946614,4546
2867.9596329617652,4440
2869.7071024906536,4474
2871.4542368389684,4514
2873.20103631248,4417
2874.947501217038,4571
2876.6936318585695,4582
2878.4394285430812,4416
2880.1848915766604,4371
2881.9300212654707,4459
2883.6748179157553,4543
2885.4192818338374,4491
2887.1634133261173,4569
2888.907212699077,4487
2890.6506802592744,4574
2892.393816313348,4577
2894.1366211680142,4511
2895.8790951300693,4447
2897.621238506388,4445
2899.363051603925,4402
2901.1045347297118,4538
2902.8456881908596,4472
2904.58651229456,4508
2906.327007348081,4435
2908.067173658772,4527
2909.8070115340597,4430
2911.5465212814497,4426
2913.285703208527,4403
2915.0245576229563,4497
2916.7630848324807,4361
2918.5012851449196,4535
2920.2391588681758,4398
2921.976706310227,4378
2923.7139277791334,4503
2925.4508235830313,4554
2927.187394030137,4584
2928.923639428745,4460
2930.6595600872306,4520
2932.395156314046,4516
2934.1304284177218,4670
2935.8653767068713,4562
2937.6000014901815,4559
2939.3343030764227,4477
2941.068281774442,4545
2942.8019378931644,4571
2944.5352717415976,4646
2946.2682836288236,4568
2948.0009738640065,4674
2949.7333427563885,4496
2951.465390615289,4538
2953.1971177501086,4579
2954.9285244703265,4646
2956.6596110855,4518
2958.3903779052657,4532
2960.1208252393385,4728
2961.8509533975125,4470
2963.5807626896617,4463
2965.3102534257378,4511
2967.0394259157715,4564
2968.768280469873,4535
2970.496817398232,4656
2972.2250370111146,4570
2973.952939618869,4507
2975.6805255319196,4599
2977.4077950607707,4641
2979.134748516006,4561
2980.861386208289,4520
2982.587708448359,4766
2984.313715547037,4581
2986.039407815222,4580
2987.764785563891,4604
2989.489849104102,4600
2991.2145987469908,4548
2992.9390348037705,4544
2994.6631575857346,4606
2996.3869674042576,4595
2998.1104645707887,4589
2999.83364939686,4540
3001.5565221940783,4717
3003.2790832741334,4507
3005.0013329487924,4580
3006.7232715298996,4613
3008.4448993293804,4672
3010.166216659239,4686
3011.887223831558,4614
3013.607921158498,4571
3015.3283089522993,4559
3017.0483875252826,4520
3018.7681571898443,4595
3020.4876182584626,4587
3022.2067710436927,4476
3023.9256158581707,4507
3025.644153014609,4490
3027.362382825801,4561
3029.0803056046193,4635
3030.797921664012,4612
3032.5152313170106,4555
3034.2322348767225,4618
3035.9489326563353,4610
3037.665324969115,4537
3039.3814121284063,4646
3041.097194447633,4605
3042.812672240299,4617
3044.5278458199855,4603
3046.2427155003525,4574
3047.9572815951406,4683
3049.671544418167,4668
3051.38550428333,4589
3053.0991615046073,4647
3054.812516396051,4553
3056.5255692717974,4511
3058.2383204460575,4653
3059.9507702331257,4585
3061.662918947372,4539
3063.3747669032446,4625
3065.0863144152736,4586
3066.7975617980674,4633
3068.508509366309,4609
3070.219157434767,4665
3071.9295063182844,4767
3073.639556331785,4740
3075.3493077902704,4694
3077.058761008821,4712
3078.7679163025964,4588
3080.476773986837,4636
3082.1853343768594,4633
3083.89359778806,4668
3085.6015645359153,4615
3087.3092349359786,4583
3089.016609303884,4681
3090.7236879553434,4563
3092.4304712061476,4579
3094.136959372166,4646
3095.843152769349,4682
3097.5490517137237,4769
3099.2546565213966,4713
3100.959967508554,4618
3102.66498499146,4720
3104.3697092864577,4722
3106.0741407099695,4678
3107.778279578498,4620
3109.482126208622,4634
3111.1856809170004,4709
3112.8889440203716,4722
3114.5919158355528,4628
3116.294596679439,4639
3117.996986869006,4714
3119.6990867213062,4681
3121.4008965534726,4720
3123.102416682717,4814
3124.803647426329,4820
3126.5045891016784,4730
3128.205242026213,4763
3129.90560651746,4739
3131.605682893025,4750
3133.3054714705922,4643
3135.0049725679282,4734
3136.7041865028714,4711
3138.4031135933465,4768
3140.101754157353,4772
3141.800108512971,4671
3143.498176978357,4743
3145.1959598717494,4700
3146.8934575114636,4666
3148.5906702158954,4715
3150.2875983035183,4763
3151.9842420928853,4596
3153.680601902627,4638
3155.376678051456,4565
3157.07247085816,4833
3158.767980641609,4717
3160.463207720748,4677
3162.158152414606,4688
3163.8528150422862,4683
3165.5471959229726,4666
3167.2412953759303,4826
3168.9351137204976,4902
3170.628651276098,4796
3172.3219083622307,4841
3174.014885298474,4685
3175.707582404485,4770
3177.4000000000005,4752
3179.092138404835,4726
3180.7839979388846,4909
3182.47557892212,4890
3184.166881674594,4733
3185.8579065164386,4859
3187.5486537678626,4860
3189.2391237491547,4920
3190.9293167806827,4737
3192.6192331828934,4681
3194.3088732763117,4713
3195.998237381542,4790
3197.687325819268,4712
3199.376138910251,4732
3201.064676975334,4782
3202.7529403354347,4707
3204.4409293115523,4727
3206.1286442247647,4832
3207.816085396229,4790
3209.5032531471825,4802
3211.190147798936,4662
3212.8767696728846,4714
3214.5631190905015,4731
3216.2491963733373,4651
3217.9350018430214,4640
3219.6205358212637,4706
3221.305798629851,4711
3222.990790590651,4675
3224.6755120256103,4677
3226.359963256751,4672
3228.0441446061795,4718
3229.7280563960758,4763
3231.411698948703,4718
3233.0950725863995,4697
3234.778177631587,4744
3236.461014406761,4787
3238.1435832345005,4699
3239.8258844374595,4904
3241.507918338374,4700
3243.1896852600576,4900
3244.8711855254023,4840
3246.552419457381,4823
3248.233387379042,4727
3249.914089613516,4869
3251.59452648401,4796
3253.274698313813,4732
3254.95460542629,4741
3256.6342481448855,4772
3258.313626793125,4798
3259.9927416946084,4866
3261.6715931730196,4651
3263.3501815521176,4697
3265.0285071557437,4682
3266.706570307815,4722
3268.3843713323286,4707
3270.0619105533615,4737
3271.739188295068,4741
3273.4162048816834,4748
3275.0929606375184,4835
3276.769455886966,4931
3278.445690954498,4871
3280.1216661646613,4879
3281.797381842087,4783
3283.4728383114807,4852
3285.1480358976296,4795
3286.8229749253996,4680
3288.4976557197333,4778
3290.172078605655,4767
3291.846243908266,4798
3293.5201519527463,4658
3295.193803064357,4648
3296.8671975684374,4668
3298.5403357904024,4757
3300.21321805575,4719
3301.8858446900567,4856
3303.558216018975,4827
3305.23033236824,4729
3306.9021940636603,4804
3308.57380143113,4893
3310.2451547966184,4847
3311.916254486174,4871
3313.5871008259246,4838
3315.2576941420766,4730
3316.9280347609147,4783
3318.5981230088046,4773
3320.2679592121895,4759
3321.9375436975924,4804
3323.606876791612,4769
3325.27595882093,4783
3326.944790112305,4717
3328.6133709925753,4807
3330.2817017886573,4720
3331.949782827547,4677
3333.617614436319,4868
3335.2851969421245,4874
3336.952530672199,4857
3338.619615953853,4804
3340.286453114475,4842
3341.9530424815357,4906
3343.619384382583,4843
3345.2854791452437,4778
3346.951327097224,4859
3348.6169285663073,4960
3350.2822838803577,5010
3351.947393367319,4909
3353.61225735521,4828
3355.2768761721345,4963
3356.9412501462693,4944
3358.605379605873,4866
3360.2692648792827,4886
3361.9329062949146,4835
3363.596304181263,4822
