CollectionTime,7/11/2024 12:43:39 PM
ExposureUsed,3
CalibratedSpectrum
-962.7078968117929,561
-959.9714848408522,585
-957.2358232597828,556
-954.5009119013725,546
-951.7667505983302,545
-949.0333391832855,577
-946.3006774887896,590
-943.5687653473143,553
-940.837602591253,568
-938.1071890529199,554
-935.3775245645503,554
-932.6486089583007,587
-929.9204420662485,612
-927.1930237203925,578
-924.4663537526524,564
-921.7404319948689,556
-919.0152582788041,587
-916.2908324361409,652
-913.5671542984834,625
-910.8442236973568,567
-908.1220404642074,560
-905.4006044304027,628
-902.679915427231,599
-899.959973285902,579
-897.2407778375464,587
-894.5223289132158,578
-891.8046263438832,565
-889.0876699604426,560
-886.3714595937089,554
-883.6559950744183,547
-880.9412762332282,565
-878.2273029007168,539
-875.5140749073835,563
-872.8015920836489,549
-870.0898542598545,562
-867.3788612662631,555
-864.6686129330585,547
-861.9591090903457,531
-859.2503495681506,545
-856.5423341964203,566
-853.8350628050229,567
-851.1285352237478,537
-848.4227512823054,527
-845.7177108103272,562
-843.0134136373656,582
-840.3098595928943,574
-837.6070485063082,565
-834.9049802069229,600
-832.2036545239757,589
-829.5030712866244,578
-826.8032303239481,589
-824.1041314649472,548
-821.4057745385428,574
-818.7081593735775,582
-816.0112857988148,571
-813.3151536429393,571
-810.6197627345566,545
-807.9251129021936,576
-805.2312039742981,579
-802.5380357792392,517
-799.8456081453069,581
-797.1539209007124,544
-794.462973873588,572
-791.772766891987,576
-789.083299783884,565
-786.3945723771743,578
-783.7065844996748,590
-781.0193359791231,578
-778.3328266431781,566
-775.6470563194197,575
-772.9620248353489,588
-770.2777320183878,588
-767.5941776958798,591
-764.9113616950891,564
-762.2292838432011,604
-759.5479439673222,575
-756.8673418944801,585
-754.1874774516235,598
-751.5083504656222,580
-748.8299607632671,577
-746.15230817127,586
-743.475392516264,591
-740.7992136248035,614
-738.1237713233636,597
-735.4490654383407,632
-732.7750957960521,598
-730.1018622227365,620
-727.4293645445534,637
-724.7576025875837,586
-722.0865761778291,630
-719.4162851412126,631
-716.7467293035781,611
-714.0779084906909,621
-711.409822528237,637
-708.7424712418238,605
-706.0758544569796,577
-703.4099719991541,625
-700.7448236937178,661
-698.0804093659622,641
-695.4167288411002,637
-692.7537819442656,637
-690.0915685005134,620
-687.4300883348199,640
-684.7693412720819,651
-682.1093271371178,621
-679.4500457546669,628
-676.7914969493897,644
-674.1336805458676,651
-671.4765963686034,638
-668.8202442420206,662
-666.1646239904642,629
-663.5097354382001,668
-660.8555784094151,645
-658.2021527282176,648
-655.5494582186366,650
-652.8974947046223,633
-650.2462620100463,671
-647.5957599587009,655
-644.9459883742998,700
-642.2969470804776,691
-639.6486359007902,667
-637.0010546587141,695
-634.3542031776476,698
-631.7080812809096,648
-629.0626887917401,667
-626.4180255333008,684
-623.7740913286734,697
-621.1308860008619,704
-618.4884093727904,706
-615.8466612673046,651
-613.2056415071715,682
-610.5653499150785,705
-607.9257863136347,669
-605.28695052537,707
-602.6488423727357,681
-600.0114616781036,674
-597.3748082637674,661
-594.7388819519412,673
-592.1036825647604,741
-589.4692099242818,771
-586.8354638524829,729
-584.2024441712624,718
-581.5701507024403,738
-578.9385832677575,702
-576.3077416888759,709
-573.6776257873787,719
-571.0482353847704,695
-568.4195703024757,671
-565.7916303618415,741
-563.164415384135,686
-560.5379251905453,690
-557.9121596021815,716
-555.2871184400748,727
-552.6628015251767,741
-550.0392086783606,684
-547.4163397204204,698
-544.794194472071,700
-542.1727727539491,742
-539.5520743866118,760
-536.9320991905377,775
-534.3128469861261,775
-531.6943175936979,787
-529.0765108334947,796
-526.4594265256793,813
-523.8430644903358,953
-521.2274245474689,1042
-518.612506517005,1079
-515.9983102187913,1000
-513.3848354725959,1097
-510.77208209810846,1128
-508.16004991493924,1240
-505.5487387426199,1350
-502.9381484006032,1449
-500.3282787082628,1610
-497.71912948489364,1467
-495.1107005497117,1410
-492.5029917218539,1362
-489.8960028203786,1200
-487.28973366426493,1062
-484.68418407241325,961
-482.07935386364494,958
-479.47524285670266,885
-476.87185087025,898
-474.2691777228715,944
-471.66722323307334,883
-469.0659872192821,910
-466.4654694998459,856
-463.86566989303384,880
-461.26658821703614,881
-458.66822428996414,936
-456.07057792985,895
-453.4736489546475,869
-450.877437182231,856
-448.28194243039627,838
-445.68716451686,902
-443.09310325926003,883
-440.49975847515555,913
-437.9071299820263,821
-435.31521759727354,865
-432.72402113821954,888
-430.13354042210767,939
-427.5437752661022,863
-424.95472548728867,934
-422.36639090267386,899
-419.7787713291855,936
-417.1918665836721,948
-414.60567648290385,984
-412.0202008435715,947
-409.4354394822874,960
-406.8513922155845,959
-404.26805885991723,961
-401.685439231661,996
-399.103533147112,974
-396.522340422488,940
-393.9418608739278,921
-391.3620943174908,904
-388.7830405691583,955
-386.2046994448317,875
-383.6270707603344,843
-381.05015433141045,786
-378.473949973725,729
-375.8984575028645,715
-373.32367673433623,662
-370.74960748356875,641
-368.1762495659117,641
-365.60360279663576,589
-363.03166699093265,533
-360.4604419639154,531
-357.8899275306178,480
-355.32012350599507,478
-352.7510297049233,482
-350.1826459421999,452
-347.61497203254316,453
-345.04800779059235,497
-342.4817530309082,512
-339.91620756797226,489
-337.35137121618743,463
-334.7872437898774,541
-332.22382510328725,577
-329.66111497058273,516
-327.09911320585127,466
-324.53781962310075,486
-321.9772340362607,515
-319.4173562591816,496
-316.8581861056348,458
-314.2997233893127,507
-311.7419679238294,468
-309.1849195227194,504
-306.62857799943856,517
-304.0729431673641,512
-301.51801483979375,528
-298.963792829947,543
-296.41027695096386,542
-293.85746701590574,637
-291.3053628377552,579
-288.7539642294155,548
-286.2032710037115,556
-283.65328297338897,547
-281.1039999511146,606
-278.5554217494762,614
-276.007548180983,554
-273.4603790580651,523
-270.9139141930734,500
-268.3681533982807,505
-265.8230964858798,512
-263.27874326798565,551
-260.7350935566336,570
-258.1921471637804,602
-255.6499039013039,552
-253.10836358100266,552
-250.56752601459698,563
-248.02739101372765,587
-245.48795838995704,649
-242.94922795476816,590
-240.41119951956557,605
-237.8738728956746,663
-235.33724789434166,652
-232.80132432673452,616
-230.2661020039418,611
-227.73158073697357,596
-225.19776033676033,632
-222.66464061415422,712
-220.1322213799284,677
-217.60050244477725,578
-215.06948361931552,599
-212.53916471408013,694
-210.00954553952818,679
-207.48062590603843,671
-204.9524056239104,656
-202.4248845033651,727
-199.8980623545441,742
-197.37193898751036,776
-194.84651421224817,779
-192.32178783866232,794
-189.79775967657952,765
-187.27442953574644,731
-184.7517972258321,872
-182.2298625564256,846
-179.7086253370378,841
-177.18808537710026,825
-174.66824248596583,785
-172.14909647290835,883
-169.6306471471229,857
-167.11289431772548,865
-164.59583779375328,857
-162.07947738416453,803
-159.5638128978386,794
-157.04884414357605,872
-154.53457093009854,838
-152.02099306604828,944
-149.50811035998936,851
-146.99592262040665,833
-144.48442965570587,832
-141.97363127421409,839
-139.46352728417958,818
-136.95411749377126,898
-134.44540171107985,885
-131.93737974411636,853
-129.43005140081357,897
-126.92341648902493,1090
-124.41747481652521,1318
-121.91222619101006,1440
-119.40767042009657,1573
-116.90380731132257,2075
-114.40063667214702,2134
-111.8981583099503,2196
-109.3963720320337,1873
-106.89527764561933,1872
-104.39487495785067,1807
-101.89516377579241,2354
-99.39614390642998,2990
-96.89781515667039,2975
-94.40017733334128,2607
-91.90323024319173,3017
-89.40697369289148,5155
-86.91140748903172,7676
-84.41653143812482,9578
-81.92234534660395,7707
-79.42884902082358,4497
-76.93604226705907,6316
-74.4439248915071,13575
-71.95249670028534,23167
-69.46175749943245,30202
-66.97170709490854,33281
-64.48234529259423,30909
-61.99367189829195,24162
-59.50568671772464,17369
-57.01838955653636,15505
-54.53178022029283,14208
-52.045858514480074,13304
-49.560624244506016,14005
-47.07607721569923,15715
-44.59221723330904,15286
-42.10904410250669,13401
-39.62655762838392,10346
-37.14475761595372,8874
-34.66364387015028,8277
-32.18321619582866,8880
-29.70347439776515,10113
-27.224418280657005,9774
-24.74604764912317,10618
-22.26836230770266,15690
-19.7913620608565,28124
-17.315046712966478,48615
-14.83941606833514,64301
-12.36446993118659,65038
-9.89020810566592,65038
-7.416630395839093,65038
-4.94373660569363,65038
-2.471526539137585,65038
-6.821210263296962E-13,65038
2.47084320796705,65038
4.941003281093458,65038
7.410480415786196,65038
9.879274808531363,65038
12.347386655893956,65038
14.814816154518212,65038
17.28156350112681,65038
19.74762889252179,65038
22.21301252558385,65038
24.67771459727237,20276
27.141735304626195,4069
29.605074844762612,2954
32.06773341487792,2524
34.52971121224755,2618
36.99100843422559,3028
39.45162527824516,2279
41.91156194181792,1779
44.370818622535126,1597
46.82939551806646,1362
49.287292826160524,1442
51.74451074464503,2121
54.201049471426245,2480
56.65690920448981,1931
59.112090141899785,1614
61.56659248179983,1626
64.02041642241159,1508
66.4735621620365,1260
68.92602989905402,1225
71.37781983192338,1259
73.82893215918205,1333
76.27936707944684,1340
78.72912479141326,1247
81.17820549385567,1326
83.62660938562783,1675
86.07433666566146,1515
88.5213875329681,1094
90.96776218663751,1057
93.41346082583925,1049
95.85848364982041,1095
98.30283085790859,1281
100.7465026495089,1263
103.18949922410604,1171
105.63182078126385,1169
108.07346752062438,1108
110.51443964190923,881
112.95473734491827,812
115.39436082953114,883
117.83331029570547,944
120.27158594347827,1046
122.7091879729652,1117
125.1461165843615,1020
127.58237197794062,940
130.01795435405518,850
132.4528639131364,921
134.88710085569494,1073
137.32066538231982,960
139.75355769367923,864
142.1857779905207,810
144.61732647366978,811
147.04820334403132,831
149.47840880258934,873
151.90794305040674,986
154.33680628862487,1110
156.76499871846443,1304
159.19252054122433,1431
161.61937195828352,1468
164.04555317109896,1638
166.47106438120693,1722
168.89590579022217,1961
171.320077599839,2128
173.7435800118302,2240
176.16641322804742,2242
178.58857745042144,2427
181.01007288096173,2577
183.43089972175687,2478
185.85105817497413,2401
188.27054844285988,2427
190.6893707277394,2497
193.10752523201643,2449
195.5250121581745,2503
197.9418317087751,2548
200.3579840864594,2569
202.7734694939469,2589
205.18828813403627,2619
207.6024402096051,2663
210.01592592360964,2673
212.42874547908548,2669
214.84089907914665,2677
217.2523869269868,2646
219.66320922587727,2571
222.0733661791695,2610
224.48285799029293,2699
226.8916848627572,2563
229.29984700014882,2683
231.7073446061355,2666
234.11417788446204,2659
236.520347038953,2798
238.92585227351185,2762
241.33069379212054,2880
243.73487179884035,3036
246.1383864978112,2921
248.541238093252,2861
250.9434267894609,2830
253.34495279081432,2907
255.74581630176783,2949
258.1460175268563,2889
260.54555667069314,2880
262.9444339379703,2879
265.3426495334594,2774
267.7402036620107,2724
270.1370965285529,2811
272.53332833809407,2683
274.9288992957214,2574
277.32380960660055,2614
279.718059475976,2557
282.1116491091717,2555
284.5045787115897,2558
286.89684848871195,2449
289.2884586460981,2506
291.67940938938807,2540
294.0697009242996,2490
296.4593334566299,2512
298.84830719225477,2520
301.23662233712923,2428
303.6242790972866,2433
306.01127767884,2374
308.39761828798066,2307
310.78330113097934,2342
313.16832641418534,2233
315.5526943440269,2313
317.9364051270112,2256
320.3194589697242,2287
322.70185607883093,2273
325.0835966610754,2243
327.4646809232805,2167
329.8451090723478,2211
332.2248813152577,2157
334.6039978590701,2137
336.9824589109231,2106
339.36026467803447,2164
341.7374153677,2152
344.113911187295,2153
346.48975234427337,2169
348.8649390461686,2026
351.2394715005918,2093
353.61334991523415,2055
355.9865744978655,2003
358.35914545633375,2007
360.73106299856715,2040
363.10232733257146,2143
365.47293866643247,2029
367.84289720831396,2004
370.2122031664593,1937
372.5808567491905,2056
374.9488581649083,1947
377.31620762209275,1983
379.6829053293021,1955
382.0489514951745,1983
384.4143463284262,1939
386.7790900378528,1938
389.14318283232853,1961
391.50662492080653,2035
393.86941651231916,1970
396.23155781597745,2005
398.5930490409713,1941
400.9538903965696,1963
403.3140820921202,1889
405.6736243370498,2000
408.03251734086336,2030
410.3907613131465,1942
412.74835646356166,1923
415.10530300185144,1923
417.4616011378372,1888
419.81725108141893,1873
422.1722530425758,1928
424.5266072313656,1888
426.880313857925,1849
429.2333731324701,1885
431.58578526529516,1825
433.9375504667738,1913
436.2886689473588,1830
438.63914091758113,1800
440.9889665880513,1834
443.33814616945835,1822
445.68667987257015,1862
448.03456790823395,1774
450.3818104873759,1826
452.72840782100013,1809
455.07436012019105,1759
457.41966759611057,1836
459.7643304600007,1849
462.10834892318155,1765
464.4517231970525,1814
466.79445349309174,1849
469.1365400228566,1802
471.4779829979826,1838
473.81878263018564,1847
476.15893913125876,1897
478.4984527130747,1960
480.8373235875855,1915
483.17555196682144,1914
485.5131380628919,1970
487.8500820879857,2094
490.1863842543697,2205
492.52204477439034,2313
494.8570638604725,2437
497.1914417251204,2859
499.52517858091653,3062
501.85827464052306,3226
504.19073011668036,3300
506.5225452222086,3310
508.85372017000566,3179
511.18425517304956,3124
513.514150444396,3220
515.8434061971808,3665
518.1720226446176,4357
520.4999999999999,4423
522.8273384766991,4208
525.1540382881666,3874
527.480099647932,3519
529.8055227696037,2994
532.1303078668694,2441
534.454455153496,2111
536.777964843328,2012
539.1008371502907,1926
541.4230722883866,1837
543.744670471698,1876
546.0656319143858,1862
548.3859568306899,1887
550.7056454349294,1803
553.0246979415016,1875
555.3431145648834,1767
557.6608955196306,1788
559.978041020377,1817
562.2945512818363,1757
564.6104265188006,1846
566.9256669461412,1853
569.2402727788082,1862
571.5542442318302,1783
573.8675815203156,1878
576.1802848594508,1845
578.4923544645015,1838
580.8037905508126,1860
583.114593333807,1886
585.4247630289875,1760
587.7342998519354,1827
590.0432040183106,1833
592.3514757438526,1862
594.6591152443794,1856
596.9661227357875,1839
599.2724984340531,1907
601.578242555231,1831
603.8833553154542,1833
606.1878369309362,1855
608.4916876179676,1850
610.7949075929192,1855
613.0974970722403,1860
615.3994562724587,1875
617.7007854101818,1880
620.0014847020951,1864
622.3015543649641,1845
624.6009946156324,1921
626.8998056710224,1879
629.1979877481361,1850
631.4955410640538,1809
633.7924658359349,1824
636.0887622810175,1897
638.3844306166192,1874
640.6794710601358,1902
642.9738838290426,1917
645.2676691408932,1939
647.5608272133207,1877
649.853358264037,1961
652.1452625108324,1967
654.4365401715764,2019
656.7271914642178,1991
659.0172166067838,1952
661.3066158173809,1942
663.5953893141935,1966
665.8835373154867,1915
668.1710600396028,1953
670.4579577049639,1903
672.7442305300709,1933
675.0298787335033,1870
677.3149025339197,1984
679.599302150058,1963
681.8830778007342,1939
684.1662297048437,1920
686.4487580813608,1905
688.7306631493387,1970
691.0119451279091,1984
693.2926042362834,1966
695.5726406937516,2000
697.8520547196814,1933
700.1308465335215,1930
702.4090163547982,1932
704.6865644031171,1946
706.9634908981619,1918
709.2397960596965,1918
711.5154801075631,1964
713.7905432616823,1951
716.0649857420548,1998
718.3388077687592,1948
720.612009561953,1907
722.8845913418733,1891
725.1565533288352,1867
727.427895743234,1941
729.6986188055427,1920
731.9687227363137,2007
734.238207756178,1988
736.5070740858458,1900
738.7753219461066,1899
741.0429515578281,1877
743.3099631419569,1867
745.5763569195191,1918
747.8421331116193,1970
750.1072919394409,1925
752.3718336242467,1867
754.6357583873777,1897
756.8990664502545,1930
759.1617580343765,1889
761.423833361321,1917
763.6852926527457,1964
765.9461361303862,1911
768.206364016058,1982
770.4659765316536,1866
772.7249738991469,1995
774.9833563405886,1918
777.2411240781092,1895
779.4982773339183,1935
781.7548163303044,1942
784.010741289634,2020
786.2660524343538,2021
788.5207499869881,1972
790.7748341701416,1905
793.0283052064964,1972
795.2811633188143,1943
797.5334087299362,1955
799.7850416627813,2078
802.0360623403484,2040
804.2864709857143,1981
806.5362678220353,1962
808.7854530725468,1964
811.0340269605625,1919
813.2819897094754,1949
815.5293415427581,1942
817.77608268396,1940
820.0222133567116,2018
822.2677337847211,1916
824.5126441917765,1965
826.7569448017433,2003
829.0006358385675,1963
831.2437175262731,1916
833.4861900889629,1973
835.7280537508192,1989
837.9693087361026,1891
840.2099552691533,2001
842.4499935743896,1970
844.689423876309,1947
846.9282463994886,1982
849.1664613685833,1995
851.4040690083276,2016
853.6410695435349,1942
855.877463199097,1974
858.1132501999847,1963
860.3484307712487,1966
862.5830051380175,1995
864.8169735254988,1990
867.0503361589791,1990
869.2830932638243,2009
871.5152450654786,2052
873.7467917894654,2011
875.9777336613873,2003
878.2080709069252,1956
880.4378037518389,1983
882.666932421968,2040
884.8954571432301,1961
887.1233781416219,2070
889.3506956432192,2082
891.5774098741766,1990
893.803521060728,1965
896.0290294291852,2028
898.2539352059397,2027
900.4782386174619,2047
902.7019398903011,2007
904.925039251085,2113
907.147536926521,2029
909.3694331433943,2005
911.59072812857,1922
913.8114221089921,2033
916.0315153116827,1957
918.2510079637437,1957
920.4699002923547,1956
922.6881925247761,1974
924.905884888345,1888
927.1229776104793,1972
929.3394709186747,1902
931.555365040506,1942
933.7706602036275,1944
935.9853566357709,1951
938.1994545647489,1968
940.4129542184515,1989
942.6258558248488,1990
944.8381596119883,1990
947.0498658079974,1993
949.2609746410825,1915
951.4714863395287,1942
953.6814011316998,1940
955.8907192460387,1929
958.0994409110671,1879
960.3075663553858,1938
962.5150958076741,1902
964.7220294966913,1923
966.928367651274,1971
969.1341105003388,1890
971.3392582728806,1869
973.5438111979742,1855
975.747769504772,1849
977.9511334225061,1782
980.153903180487,1831
982.3560790081052,1860
984.5576611348289,1886
986.7586497902058,1834
988.9590452038618,1842
991.158847605503,1777
993.3580572249133,1752
995.5566742919558,1765
997.7546990365728,1753
999.952131688785,1771
1002.1489724786926,1754
1004.3452216364743,1730
1006.5408793923874,1732
1008.7359459767691,1637
1010.9304216200343,1593
1013.1243065526781,1646
1015.3176010052733,1648
1017.510305208472,1667
1019.7024193930064,1646
1021.8939437896848,1578
1024.0848786293977,1615
1026.2752241431122,1635
1028.4649805618747,1541
1030.6541481168115,1612
1032.842727039127,1575
1035.0307175601051,1557
1037.2181199111074,1618
1039.4049343235752,1561
1041.591161029029,1578
1043.7768002590683,1581
1045.9618522453698,1573
1048.1463172196918,1645
1050.3301954138697,1599
1052.513487059818,1527
1054.69619238953,1615
1056.8783116350783,1602
1059.0598450286152,1592
1061.2407928023704,1578
1063.4211551886528,1539
1065.6009324198508,1585
1067.780124728432,1528
1069.9587323469414,1581
1072.1367555080046,1589
1074.314194444325,1537
1076.4910493886855,1527
1078.667320573947,1516
1080.843008233051,1505
1083.0181125990161,1507
1085.1926339049414,1490
1087.3665723840027,1522
1089.5399282694575,1526
1091.7127017946405,1527
1093.8848931929647,1440
1096.0565026979243,1476
1098.2275305430899,1453
1100.3979769621128,1526
1102.567842188722,1456
1104.737126456726,1483
1106.9058300000124,1513
1109.0739530525475,1523
1111.2414958483764,1479
1113.4084586216231,1486
1115.5748416064907,1440
1117.7406450372605,1410
1119.9058691482942,1463
1122.0705141740304,1509
1124.2345803489884,1459
1126.3980679077658,1440
1128.5609770850388,1494
1130.7233081155623,1470
1132.8850612341707,1463
1135.0462366757774,1484
1137.2068346753745,1454
1139.3668554680326,1450
1141.526299288901,1458
1143.68516637321,1442
1145.8434569562655,1400
1148.001171273455,1481
1150.158309560244,1473
1152.3148720521767,1470
1154.470858984876,1453
1156.626270594044,1463
1158.7811071154629,1459
1160.9353687849912,1343
1163.089055838569,1397
1165.242168512213,1420
1167.3947070420209,1442
1169.5466716641677,1420
1171.6980626149075,1434
1173.8488801305748,1423
1175.9991244475814,1404
1178.1487958024186,1415
1180.2978944316555,1459
1182.4464205719428,1357
1184.5943744600072,1394
1186.7417563326567,1351
1188.8885664267755,1442
1191.0348049793297,1407
1193.1804722273619,1415
1195.325568407995,1385
1197.4700937584303,1382
1199.614048515948,1374
1201.7574329179074,1451
1203.900247201746,1447
1206.042491604982,1353
1208.1841663652099,1325
1210.3252717201053,1416
1212.465807907422,1361
1214.6057751649923,1433
1216.7451737307279,1429
1218.8840038426192,1399
1221.0222657387353,1481
1223.1599596572241,1433
1225.2970858363137,1456
1227.4336445143094,1378
1229.5696359295966,1458
1231.705060320639,1450
1233.8399179259786,1487
1235.9742089842384,1496
1238.107933734118,1430
1240.2410924143974,1500
1242.373685263935,1394
1244.5057125216676,1452
1246.6371744266116,1501
1248.7680712178621,1462
1250.898403134593,1502
1253.028170416058,1445
1255.1573733015875,1546
1257.2860120305932,1475
1259.4140868425648,1467
1261.54159797707,1445
1263.6685456737569,1473
1265.7949301723515,1515
1267.9207517126597,1455
1270.046010534565,1504
1272.1707068780306,1489
1274.2948409830983,1473
1276.4184130898889,1492
1278.541423438603,1514
1280.6638722695184,1509
1282.785759822993,1505
1284.9070863394636,1484
1287.0278520594447,1498
1289.1480572235314,1558
1291.2677020723963,1492
1293.3867868467923,1558
1295.5053117875495,1597
1297.623277135579,1620
1299.740683131868,1572
1301.8575300174857,1574
1303.973818033578,1563
1306.0895474213703,1600
1308.2047184221678,1507
1310.3193312773528,1532
1312.4333862283888,1567
1314.5468835168163,1512
1316.659823384255,1587
1318.7722060724045,1562
1320.8840318230418,1601
1322.9953008780249,1539
1325.1060134792888,1548
1327.2161698688478,1546
1329.3257702887959,1570
1331.4348149813054,1564
1333.5433041886276,1568
1335.6512381530933,1559
1337.7586171171101,1541
1339.8654413231675,1527
1341.9717110138317,1531
1344.0774264317488,1552
1346.1825878196432,1559
1348.2871954203192,1564
1350.3912494766587,1560
1352.4947502316231,1583
1354.5976979282532,1569
1356.7000928096686,1545
1358.8019351190665,1582
1360.9032250997243,1567
1363.0039629949988,1543
1365.1041490483235,1534
1367.2037835032133,1563
1369.3028666032606,1597
1371.401398592137,1596
1373.4993797135926,1596
1375.5968102114575,1593
1377.6936903296396,1546
1379.7900203121262,1611
1381.8858004029835,1555
1383.9810308463561,1598
1386.075711886469,1596
1388.1698437676241,1591
1390.2634267342032,1624
1392.356461030667,1567
1394.4489469015557,1593
1396.5408845914872,1629
1398.6322743451592,1652
1400.7231164073469,1638
1402.813411022907,1605
1404.903158436773,1620
1406.9923588939578,1657
1409.0810126395531,1637
1411.1691199187303,1656
1413.2566809767386,1669
1415.343696058907,1619
1417.4301654106425,1658
1419.5160892774315,1706
1421.6014679048399,1692
1423.6863015385125,1649
1425.7705904241707,1658
1427.8543348076178,1684
1429.9375349347342,1768
1432.0201910514802,1705
1434.102303403894,1678
1436.1838722380944,1773
1438.2648978002767,1723
1440.3453803367174,1750
1442.4253200937692,1762
1444.5047173178677,1802
1446.5835722555234,1762
1448.6618851533285,1850
1450.739656257952,1955
1452.8168858161434,1789
1454.8935740747306,1956
1456.96972128062,1938
1459.045327680797,1978
1461.120393522327,2000
1463.1949190523528,2039
1465.2689045180973,2038
1467.3423501668608,2084
1469.415256246024,2111
1471.4876230030463,2154
1473.559450685465,2128
1475.6307395408976,2176
1477.7014898170391,2210
1479.771701761665,2313
1481.8413756226287,2221
1483.9105116478618,2310
1485.9791100853772,2300
1488.0471711832643,2353
1490.1146951896926,2406
1492.1816823529098,2404
1494.2481329212433,2439
1496.3140471430984,2500
1498.3794252669609,2592
1500.4442675413939,2511
1502.5085742150404,2536
1504.572345536622,2582
1506.6355817549388,2519
1508.6982831188702,2561
1510.7604498773744,2592
1512.8220822794883,2644
1514.8831805743293,2581
1516.9437450110909,2598
1519.003775839048,2701
1521.0632733075522,2660
1523.1222376660367,2820
1525.1806691640113,2687
1527.2385680510652,2728
1529.2959345768668,2831
1531.3527689911643,2798
1533.4090715437833,2867
1535.4648424846291,2850
1537.5200820636855,2962
1539.5747905310159,2900
1541.6289681367616,3013
1543.6826151311434,3057
1545.7357317644614,3058
1547.7883182870937,3128
1549.8403749494987,3053
1551.8919020022113,3174
1553.9428996958477,3209
1555.9933682811015,3271
1558.0433080087469,3336
1560.0927191296346,3490
1562.1416018946961,3349
1564.1899565549415,3509
1566.2377833614592,3442
1568.2850825654164,3419
1570.3318544180606,3322
1572.3780991707158,3209
1574.423817074788,3154
1576.4690083817595,2979
1578.5136733431923,3006
1580.5578122107272,2710
1582.601425236085,2586
1584.6445126710646,2571
1586.6870747675434,2470
1588.7291117774776,2316
1590.7706239529034,2291
1592.8116115459347,2202
1594.8520748087658,2097
1596.8920139936686,1973
1598.9314293529933,1963
1600.9703211391711,1967
1603.008689604711,1946
1605.0465350022005,1879
1607.0838575843068,1810
1609.1206576037753,1798
1611.1569353134305,1772
1613.1926909661765,1796
1615.2279248149953,1707
1617.2626371129481,1734
1619.2968281131757,1691
1621.3304980688963,1718
1623.3636472334088,1677
1625.39627586009,1647
1627.428384202396,1589
1629.459972513861,1626
1631.4910410480993,1615
1633.5215900588028,1598
1635.551619799744,1646
1637.5811305247717,1552
1639.6101224878166,1594
1641.6385959428862,1575
1643.6665511440683,1569
1645.693988345528,1575
1647.7209078015112,1563
1649.7473097663405,1590
1651.7731944944203,1521
1653.7985622402307,1574
1655.823413258333,1548
1657.847747803366,1504
1659.8715661300494,1559
1661.8948684931793,1540
1663.9176551476316,1564
1665.9399263483624,1565
1667.9616823504057,1551
1669.982923408873,1579
1672.0036497789574,1474
1674.0238617159293,1511
1676.043559475138,1518
1678.0627433120121,1537
1680.081413482059,1551
1682.0995702408654,1529
1684.117213844096,1587
1686.134344547495,1523
1688.1509626068864,1531
1690.1670682781705,1521
1692.182661817329,1493
1694.1977434804217,1554
1696.2123135235875,1527
1698.226372203043,1541
1700.2399197750851,1545
1702.2529564960905,1522
1704.2654826225112,1493
1706.277498410882,1497
1708.2890041178139,1552
1710.2999999999988,1546
1712.3104863142066,1506
1714.3204633172854,1560
1716.329931266163,1458
1718.3388904178469,1542
1720.3473410294214,1457
1722.3552833580516,1509
1724.3627176609807,1501
1726.3696441955308,1514
1728.3760632191033,1533
1730.3819749891782,1488
1732.3873797633146,1516
1734.3922777991502,1466
1736.3966693544012,1476
1738.4005546868639,1463
1740.4039340544127,1452
1742.406807715001,1522
1744.4091759266616,1462
1746.4110389475054,1479
1748.4123970357223,1412
1750.413250449582,1420
1752.4135994474318,1443
1754.4134442876993,1445
1756.4127852288902,1491
1758.4116225295893,1471
1760.4099564484595,1427
1762.407787244244,1430
1764.405115175764,1433
1766.4019405019203,1404
1768.3982634816916,1414
1770.3940843741357,1444
1772.3894034383907,1410
1774.3842209336717,1405
1776.378537119274,1400
1778.372352254571,1429
1780.3656665990156,1416
1782.3584804121397,1335
1784.3507939535534,1368
1786.3426074829463,1402
1788.3339212600863,1369
1790.3247355448211,1421
1792.3150505970766,1455
1794.3048666768573,1399
1796.2941840442477,1398
1798.2830029594106,1437
1800.2713236825884,1401
1802.2591464741004,1400
1804.2464715943465,1358
1806.2332993038058,1460
1808.2196298630352,1460
1810.2054635326708,1378
1812.190800573428,1384
1814.175641246101,1439
1816.1599858115628,1403
1818.1438345307652,1377
1820.127187664738,1405
1822.1100454745924,1422
1824.092408221516,1359
1826.0742761667766,1391
1828.055649571721,1396
1830.0365286977735,1339
1832.0169138064398,1413
1833.9968051593014,1347
1835.9762030180214,1369
1837.9551076443408,1383
1839.9335193000788,1412
1841.9114382471344,1431
1843.888864747485,1328
1845.8657990631878,1382
1847.842241456378,1371
1849.8181921892697,1360
1851.7936515241558,1384
1853.7686197234098,1342
1855.7430970494815,1411
1857.7170837649014,1343
1859.6905801322787,1466
1861.6635864143004,1462
1863.6361028737338,1409
1865.608129773424,1399
1867.5796673762961,1401
1869.5507159453537,1312
1871.521275743678,1443
1873.4913470344313,1354
1875.4609300808534,1419
1877.4300251462632,1360
1879.3986324940588,1384
1881.366752387717,1285
1883.3343850907936,1409
1885.3015308669228,1409
1887.268189979819,1445
1889.2343626932739,1371
1891.2000492711595,1407
1893.1652499774254,1363
1895.1299650761011,1340
1897.0941948312952,1379
1899.0579395071945,1438
1901.0211993680641,1413
1902.98397467825,1451
1904.9462657021745,1463
1906.9080727043415,1369
1908.869395949332,1401
1910.8302357018065,1428
1912.790592226504,1413
1914.7504657882428,1389
1916.7098566519212,1396
1918.6687650825133,1397
1920.6271913450764,1382
1922.5851357047422,1392
1924.5425984267245,1364
1926.499579776314,1392
1928.4560800188833,1372
1930.4120994198802,1430
1932.367638244833,1380
1934.32269675935,1423
1936.2772752291175,1334
1938.231373919899,1486
1940.1849930975404,1347
1942.1381330279637,1377
1944.0907939771696,1397
1946.0429762112412,1351
1947.9946799963363,1360
1949.9459055986945,1381
1951.896653284633,1386
1953.8469233205478,1383
1955.7967159729142,1381
1957.7460315082863,1315
1959.6948701932974,1324
1961.6432322946594,1376
1963.5911180791632,1415
1965.5385278136787,1411
1967.4854617651545,1393
1969.4319202006182,1414
1971.377903387176,1349
1973.3234115920136,1335
1975.268445082395,1381
1977.2130041256642,1366
1979.1570889892423,1377
1981.1006999406304,1307
1983.04383724741,1324
1984.986501177238,1286
1986.928691997853,1395
1988.8704099770712,1333
1990.811655382789,1381
1992.7524284829801,1351
1994.692729545698,1410
1996.6325588390755,1402
1998.5719166313224,1322
2000.5108031907307,1363
2002.4492187856677,1336
2004.387163684583,1340
2006.3246381560011,1342
2008.2616424685298,1365
2010.1981768908527,1386
2012.1342416917332,1344
2014.069837140014,1330
2016.0049635046162,1366
2017.9396210545406,1370
2019.8738100588666,1326
2021.8075307867502,1338
2023.740783507431,1425
2025.6735684902228,1394
2027.6058860045214,1323
2029.5377363198004,1362
2031.4691197056118,1322
2033.4000364315875,1330
2035.3304867674374,1346
2037.260470982952,1382
2039.189989347998,1359
2041.1190421325232,1324
2043.047629606554,1292
2044.9757520401945,1326
2046.9034097036288,1333
2048.8306028671195,1344
2050.7573318010086,1365
2052.683596775716,1308
2054.609398061742,1376
2056.5347359296647,1329
2058.4596106501403,1339
2060.384022493906,1363
2062.3079717317764,1293
2064.231458634646,1372
2066.1544834734873,1297
2068.077046519352,1307
2069.99914804337,1323
2071.9207883167524,1334
2073.8419676107865,1324
2075.7626861968406,1333
2077.6829443463607,1312
2079.6027423308715,1326
2081.522080421977,1316
2083.440958891362,1364
2085.359378010786,1365
2087.2773380520907,1338
2089.194839287196,1340
2091.111881988101,1351
2093.0284664268825,1330
2094.9445928756973,1399
2096.86026160678,1280
2098.775472892446,1290
2100.690227005088,1324
2102.604524217178,1321
2104.5183648012676,1340
2106.431749029985,1285
2108.34467717604,1341
2110.2571495122206,1353
2112.169166311393,1327
2114.080727846503,1369
2115.9918343905747,1289
2117.902486216711,1327
2119.8126835980956,1332
2121.722426807987,1327
2123.6317161197285,1377
2125.5405518067364,1360
2127.448934142509,1315
2129.356863400624,1316
2131.264339854737,1301
2133.1713637785815,1309
2135.077935445972,1321
2136.9840551308002,1349
2138.889723107037,1380
2140.7949396487334,1357
2142.699705030018,1374
2144.6040195250994,1366
2146.507883408264,1310
2148.4112969538774,1291
2150.3142604363848,1386
2152.2167741303097,1348
2154.1188383102535,1352
2156.0204532508997,1464
2157.9216192270064,1342
2159.822336513414,1404
2161.7226053850413,1414
2163.622426116884,1352
2165.5217989840185,1367
2167.4207242616,1395
2169.319202224862,1380
2171.2172331491165,1433
2173.1148173097563,1353
2175.0119549822507,1354
2176.90864644215,1378
2178.8048919650823,1428
2180.7006918267534,1387
2182.596046302952,1425
2184.4909556695407,1383
2186.3854202024645,1481
2188.279440177746,1416
2190.173015871487,1400
2192.066147559868,1392
2193.958835519149,1443
2195.851080025667,1399
2197.7428813558417,1345
2199.6342397861667,1352
2201.5251555932186,1408
2203.415629053651,1412
2205.3056604441986,1415
2207.19525004167,1476
2209.084398122958,1464
2210.9731049650327,1459
2212.861370844941,1462
2214.749196039812,1413
2216.636580826851,1422
2218.523525483344,1490
2220.410030286655,1510
2222.296095514226,1429
2224.1817214435805,1473
2226.066908352319,1475
2227.951656518121,1441
2229.835966218746,1479
2231.71983773203,1446
2233.6032713358913,1427
2235.486267308324,1429
2237.3688259274036,1533
2239.2509474712824,1481
2241.132632218193,1501
2243.013880446447,1496
2244.8946924344323,1429
2246.7750684606203,1487
2248.6550088035574,1480
2250.534513741871,1398
2252.413583554265,1435
2254.292218519526,1473
2256.170418916517,1431
2258.0481850241786,1396
2259.925517121534,1412
2261.8024154876825,1426
2263.678880401803,1412
2265.5549121431536,1462
2267.430510991071,1498
2269.305677224971,1452
2271.180411124348,1405
2273.0547129687766,1403
2274.9285830379076,1446
2276.8020216114737,1414
2278.6750289692845,1430
2280.5476053912294,1413
2282.4197511572766,1456
2284.2914665474727,1494
2286.162751841943,1510
2288.0336073208937,1517
2289.904033264608,1513
2291.774029953448,1480
2293.6435976678554,1494
2295.5127366883517,1456
2297.381447295534,1394
2299.2497297700825,1345
2301.1175843927526,1345
2302.9850114443825,1370
2304.852011205885,1326
2306.7185839582553,1273
2308.5847299825664,1289
2310.4504495599676,1251
2312.3157429716925,1309
2314.1806104990483,1234
2316.0450524234247,1269
2317.9090690262888,1233
2319.772660589186,1210
2321.635827393742,1289
2323.498569721661,1215
2325.3608878547248,1272
2327.2227820747967,1240
2329.0842526638157,1249
2330.945299903803,1252
2332.805924076857,1214
2334.6661254651535,1191
2336.525904350951,1243
2338.3852610165827,1212
2340.244195744464,1219
2342.102708817088,1220
2343.9608005170253,1239
2345.8184711269287,1272
2347.675720929526,1222
2349.532550207628,1243
2351.38895924412,1179
2353.24494832197,1223
2355.100517724223,1197
2356.955667734004,1216
2358.810398634514,1198
2360.664710709037,1239
2362.5186042409337,1205
2364.3720795136437,1219
2366.225136810686,1252
2368.0777764156583,1246
2369.929998612237,1266
2371.7818036841777,1285
2373.633191915315,1249
2375.484163589562,1266
2377.3347189909114,1272
2379.184858403434,1286
2381.03458211128,1271
2382.8838903986775,1223
2384.732783549936,1234
2386.5812618494406,1250
2388.4293255816588,1337
2390.2769750311327,1282
2392.1242104824883,1282
2393.971032220427,1287
2395.8174405297295,1297
2397.6634356952563,1294
2399.509018001947,1316
2401.3541877348193,1268
2403.1989451789705,1267
2405.043290619576,1235
2406.8872243418905,1217
2408.730746631247,1277
2410.5738577730594,1209
2412.4165580528183,1259
2414.258847756095,1234
2416.100727168537,1233
2417.9421965758734,1256
2419.783256263912,1238
2421.623906518538,1274
2423.4641476257157,1296
2425.303979871491,1264
2427.143403541984,1273
2428.9824189233977,1229
2430.821026302012,1257
2432.6592259641866,1233
2434.497018196361,1252
2436.33440328505,1265
2438.171381516851,1247
2440.00795317844,1298
2441.844118556569,1261
2443.6798779380724,1276
2445.5152316098606,1250
2447.3501798589255,1268
2449.1847229723357,1270
2451.0188612372403,1298
2452.8525949408663,1313
2454.6859243705203,1279
2456.518849813587,1234
2458.3513715575314,1248
2460.183489889895,1336
2462.015205098301,1236
2463.8465174704493,1299
2465.67742729412,1298
2467.5079348571717,1239
2469.338040447542,1308
2471.1677443532476,1351
2472.9970468623833,1309
2474.825948263123,1273
2476.6544488437207,1263
2478.482548892508,1301
2480.310248697896,1263
2482.137548548374,1290
2483.9644487325118,1276
2485.790949538956,1260
2487.617051256433,1298
2489.44275417375,1279
2491.26805857979,1270
2493.0929647635157,1315
2494.917473013971,1364
2496.741583620276,1366
2498.5652968716304,1311
2500.3886130573137,1306
2502.2115324666834,1321
2504.0340553891765,1316
2505.856182114308,1335
2507.6779129316733,1317
2509.499248130945,1336
2511.3201880018764,1379
2513.140732834298,1346
2514.9608829181198,1391
2516.780638543331,1324
2518.6,1348
2520.418967578273,1339
2522.237541568376,1360
2524.0557222606144,1355
2525.8735099453706,1371
2527.6909049131086,1336
2529.507907454368,1342
2531.32451785977,1386
2533.140736420014,1417
2534.9565634258774,1314
2536.771999168218,1427
2538.5870439379714,1362
2540.4016980261526,1392
2542.2159617238544,1436
2544.02983532225,1425
2545.8433191125914,1393
2547.656413386209,1455
2549.4691184345115,1458
2551.2814345489874,1433
2553.093362021204,1454
2554.904901142808,1460
2556.716052205523,1499
2558.526815501153,1446
2560.3371913215824,1459
2562.147179958771,1462
2563.956781704761,1505
2565.7659968516705,1546
2567.5748256916986,1570
2569.3832685171224,1552
2571.1913256202984,1532
2572.9989972936614,1546
2574.806283829725,1549
2576.613185521084,1549
2578.4197026604074,1553
2580.2258355404483,1631
2582.031584454035,1608
2583.836949694077,1570
2585.6419315535613,1586
2587.4465303255533,1605
2589.2507463032002,1566
2591.0545797797245,1624
2592.8580310484303,1655
2594.6611004026995,1643
2596.463788135992,1615
2598.266094541849,1646
2600.0680199138874,1580
2601.869564545807,1582
2603.670728731383,1634
2605.4715127644704,1661
2607.2719169390048,1626
2609.071941548998,1602
2610.8715868885433,1656
2612.670853251811,1589
2614.469740933052,1607
2616.268250226594,1568
2618.0663814268455,1626
2619.864134828292,1657
2621.6615107255006,1603
2623.458509413115,1624
2625.2551311858597,1566
2627.0513763385347,1584
2628.8472451660223,1640
2630.6427379632833,1570
2632.4378550253564,1637
2634.232596647359,1550
2636.026963124488,1484
2637.8209547520187,1543
2639.6145718253065,1544
2641.407814639785,1470
2643.200683490966,1521
2644.9931786744414,1501
2646.7853004858807,1477
2648.577049221034,1546
2650.3684251757277,1498
2652.1594286458712,1461
2653.9500599274484,1436
2655.740319316525,1426
2657.5302071092437,1474
2659.3197236018286,1403
2661.10886909058,1385
2662.8976438718782,1439
2664.686048242183,1450
2666.4740824980327,1402
2668.2617469360443,1357
2670.0490418529134,1421
2671.8359675454153,1373
2673.622524310403,1404
2675.408712444811,1385
2677.1945322456495,1374
2678.979984010009,1380
2680.76506803506,1345
2682.5497846180497,1350
2684.334134056306,1312
2686.1181166472343,1336
2687.9017326883213,1346
2689.6849824771293,1321
2691.4678663113013,1336
2693.2503844885596,1350
2695.032537306705,1375
2696.8143250636167,1347
2698.5957480572542,1321
2700.3768065856534,1324
2702.1575009469316,1265
2703.937831439283,1280
2705.717798360982,1232
2707.4974020103837,1321
2709.276642685917,1255
2711.055520686095,1261
2712.834036309506,1284
2714.612189854819,1343
2716.389981620782,1292
2718.1674119062204,1267
2719.944481010041,1223
2721.721189231226,1327
2723.4975368688415,1308
2725.273524222027,1291
2727.0491515900053,1289
2728.824419272075,1268
2730.5993275676146,1300
2732.3738767760838,1258
2734.148067197016,1252
2735.921899130031,1253
2737.6953728748194,1228
2739.468488731156,1281
2741.2412469988926,1226
2743.0136479779617,1265
2744.785691968372,1208
2746.5573792702116,1266
2748.3287101836504,1243
2750.099685008934,1210
2751.870304046388,1283
2753.640567596418,1197
2755.4104759595057,1170
2757.1800294362156,1230
2758.949228327187,1247
2760.7180729331412,1296
2762.486563554877,1235
2764.254700493272,1309
2766.022484049284,1213
2767.789914523947,1200
2769.5569922183786,1244
2771.3237174337705,1249
2773.090090471394,1223
2774.8561116326036,1234
2776.6217812188274,1235
2778.3870995315756,1242
2780.1520668724356,1232
2781.9166835430747,1256
2783.6809498452394,1228
2785.444866080754,1244
2787.2084325515225,1216
2788.971649559527,1243
2790.73451740683,1205
2792.4970363955713,1242
2794.2592068279705,1214
2796.0210290063264,1260
2797.7825032330147,1266
2799.543629810493,1192
2801.304409041296,1224
2803.0648412280366,1224
2804.8249266734088,1270
2806.5846656801846,1252
2808.344058551212,1149
2810.1031055894246,1202
2811.8618070978273,1180
2813.6201633795085,1240
2815.378174737636,1238
2817.1358414754536,1262
2818.893163896285,1196
2820.6501423035334,1271
2822.4067770006814,1231
2824.1630682912883,1189
2825.9190164789957,1200
2827.6746218675207,1243
2829.429884760661,1233
2831.184805462294,1215
2832.9393842763743,1225
2834.693621506936,1271
2836.4475174580916,1212
2838.201072434034,1277
2839.954286739034,1253
2841.707160677441,1211
2843.459694553685,1286
2845.2118886722724,1234
2846.96374333779,1264
2848.7152588549034,1272
2850.4664355283567,1226
2852.217273662973,1298
2853.9677735636546,1255
2855.7179355353833,1288
2857.4677598832186,1264
2859.217246912299,1232
2860.9663969278427,1227
2862.715210235146,1284
2864.4636871395846,1197
2866.211827946614,1178
2867.9596329617652,1249
2869.7071024906536,1243
2871.4542368389684,1205
2873.20103631248,1246
2874.947501217038,1203
2876.6936318585695,1187
2878.4394285430812,1161
2880.1848915766604,1206
2881.9300212654707,1181
2883.6748179157553,1218
2885.4192818338374,1245
2887.1634133261173,1224
2888.907212699077,1256
2890.6506802592744,1198
2892.393816313348,1236
2894.1366211680142,1241
2895.8790951300693,1218
2897.621238506388,1244
2899.363051603925,1263
2901.1045347297118,1223
2902.8456881908596,1249
2904.58651229456,1236
2906.327007348081,1169
2908.067173658772,1255
2909.8070115340597,1254
2911.5465212814497,1174
2913.285703208527,1183
2915.0245576229563,1235
2916.7630848324807,1193
2918.5012851449196,1242
2920.2391588681758,1266
2921.976706310227,1196
2923.7139277791334,1216
2925.4508235830313,1287
2927.187394030137,1190
2928.923639428745,1240
2930.6595600872306,1216
2932.395156314046,1221
2934.1304284177218,1214
2935.8653767068713,1231
2937.6000014901815,1201
2939.3343030764227,1221
2941.068281774442,1245
2942.8019378931644,1243
2944.5352717415976,1195
2946.2682836288236,1267
2948.0009738640065,1227
2949.7333427563885,1262
2951.465390615289,1258
2953.1971177501086,1205
2954.9285244703265,1253
2956.6596110855,1211
2958.3903779052657,1200
2960.1208252393385,1213
2961.8509533975125,1226
2963.5807626896617,1221
2965.3102534257378,1175
2967.0394259157715,1201
2968.768280469873,1190
2970.496817398232,1200
2972.2250370111146,1212
2973.952939618869,1242
2975.6805255319196,1274
2977.4077950607707,1292
2979.134748516006,1249
2980.861386208289,1318
2982.587708448359,1244
2984.313715547037,1261
2986.039407815222,1246
2987.764785563891,1203
2989.489849104102,1184
2991.2145987469908,1171
2992.9390348037705,1207
2994.6631575857346,1246
2996.3869674042576,1192
2998.1104645707887,1257
2999.83364939686,1185
3001.5565221940783,1240
3003.2790832741334,1228
3005.0013329487924,1218
3006.7232715298996,1190
3008.4448993293804,1238
3010.166216659239,1205
3011.887223831558,1202
3013.607921158498,1246
3015.3283089522993,1236
3017.0483875252826,1210
3018.7681571898443,1203
3020.4876182584626,1201
3022.2067710436927,1253
3023.9256158581707,1257
3025.644153014609,1234
3027.362382825801,1256
3029.0803056046193,1227
3030.797921664012,1192
3032.5152313170106,1196
3034.2322348767225,1206
3035.9489326563353,1210
3037.665324969115,1166
3039.3814121284063,1183
3041.097194447633,1176
3042.812672240299,1270
3044.5278458199855,1294
3046.2427155003525,1225
3047.9572815951406,1187
3049.671544418167,1246
3051.38550428333,1259
3053.0991615046073,1205
3054.812516396051,1250
3056.5255692717974,1231
3058.2383204460575,1204
3059.9507702331257,1231
3061.662918947372,1166
3063.3747669032446,1217
3065.0863144152736,1234
3066.7975617980674,1261
3068.508509366309,1242
3070.219157434767,1203
3071.9295063182844,1229
3073.639556331785,1227
3075.3493077902704,1211
3077.058761008821,1272
3078.7679163025964,1270
3080.476773986837,1193
3082.1853343768594,1221
3083.89359778806,1286
3085.6015645359153,1213
3087.3092349359786,1211
3089.016609303884,1252
3090.7236879553434,1270
3092.4304712061476,1195
3094.136959372166,1249
3095.843152769349,1235
3097.5490517137237,1190
3099.2546565213966,1182
3100.959967508554,1244
3102.66498499146,1228
3104.3697092864577,1207
3106.0741407099695,1210
3107.778279578498,1171
3109.482126208622,1205
3111.1856809170004,1232
3112.8889440203716,1231
3114.5919158355528,1200
3116.294596679439,1202
3117.996986869006,1205
3119.6990867213062,1285
3121.4008965534726,1241
3123.102416682717,1191
3124.803647426329,1237
3126.5045891016784,1258
3128.205242026213,1252
3129.90560651746,1221
3131.605682893025,1223
3133.3054714705922,1233
3135.0049725679282,1261
3136.7041865028714,1245
3138.4031135933465,1199
3140.101754157353,1199
3141.800108512971,1216
3143.498176978357,1250
3145.1959598717494,1235
3146.8934575114636,1219
3148.5906702158954,1200
3150.2875983035183,1206
3151.9842420928853,1202
3153.680601902627,1159
3155.376678051456,1198
3157.07247085816,1187
3158.767980641609,1168
3160.463207720748,1254
3162.158152414606,1228
3163.8528150422862,1211
3165.5471959229726,1262
3167.2412953759303,1171
3168.9351137204976,1157
3170.628651276098,1223
3172.3219083622307,1278
3174.014885298474,1172
3175.707582404485,1199
3177.4000000000005,1269
3179.092138404835,1241
3180.7839979388846,1241
3182.47557892212,1244
3184.166881674594,1200
3185.8579065164386,1163
3187.5486537678626,1180
3189.2391237491547,1228
3190.9293167806827,1264
3192.6192331828934,1226
3194.3088732763117,1202
3195.998237381542,1160
3197.687325819268,1155
3199.376138910251,1149
3201.064676975334,1175
3202.7529403354347,1183
3204.4409293115523,1252
3206.1286442247647,1167
3207.816085396229,1157
3209.5032531471825,1199
3211.190147798936,1169
3212.8767696728846,1133
3214.5631190905015,1140
3216.2491963733373,1180
3217.9350018430214,1187
3219.6205358212637,1193
3221.305798629851,1188
3222.990790590651,1179
3224.6755120256103,1180
3226.359963256751,1217
3228.0441446061795,1154
3229.7280563960758,1199
3231.411698948703,1163
3233.0950725863995,1160
3234.778177631587,1198
3236.461014406761,1190
3238.1435832345005,1217
3239.8258844374595,1244
3241.507918338374,1193
3243.1896852600576,1190
3244.8711855254023,1253
3246.552419457381,1218
3248.233387379042,1210
3249.914089613516,1236
3251.59452648401,1257
3253.274698313813,1248
3254.95460542629,1134
3256.6342481448855,1193
3258.313626793125,1209
3259.9927416946084,1192
3261.6715931730196,1183
3263.3501815521176,1150
3265.0285071557437,1173
3266.706570307815,1138
3268.3843713323286,1180
3270.0619105533615,1167
3271.739188295068,1175
3273.4162048816834,1189
3275.0929606375184,1190
3276.769455886966,1199
3278.445690954498,1195
3280.1216661646613,1264
3281.797381842087,1181
3283.4728383114807,1261
3285.1480358976296,1223
3286.8229749253996,1173
3288.4976557197333,1252
3290.172078605655,1216
3291.846243908266,1198
3293.5201519527463,1240
3295.193803064357,1111
3296.8671975684374,1123
3298.5403357904024,1188
3300.21321805575,1220
3301.8858446900567,1147
3303.558216018975,1142
3305.23033236824,1188
3306.9021940636603,1202
3308.57380143113,1161
3310.2451547966184,1202
3311.916254486174,1192
3313.5871008259246,1186
3315.2576941420766,1215
3316.9280347609147,1191
3318.5981230088046,1197
3320.2679592121895,1195
3321.9375436975924,1171
3323.606876791612,1174
3325.27595882093,1200
3326.944790112305,1209
3328.6133709925753,1200
3330.2817017886573,1201
3331.949782827547,1199
3333.617614436319,1153
3335.2851969421245,1135
3336.952530672199,1170
3338.619615953853,1187
3340.286453114475,1214
3341.9530424815357,1202
3343.619384382583,1223
3345.2854791452437,1200
3346.951327097224,1189
3348.6169285663073,1198
3350.2822838803577,1188
3351.947393367319,1193
3353.61225735521,1157
3355.2768761721345,1190
3356.9412501462693,1164
3358.605379605873,1200
3360.2692648792827,1218
3361.9329062949146,1183
3363.596304181263,1202
