CollectionTime,7/9/2024 12:25:25 PM
ExposureUsed,3
CalibratedSpectrum
-962.7078968117929,489
-959.9714848408522,497
-957.2358232597828,458
-954.5009119013725,500
-951.7667505983302,510
-949.0333391832855,539
-946.3006774887896,532
-943.5687653473143,517
-940.837602591253,496
-938.1071890529199,507
-935.3775245645503,489
-932.6486089583007,529
-929.9204420662485,526
-927.1930237203925,500
-924.4663537526524,529
-921.7404319948689,529
-919.0152582788041,500
-916.2908324361409,526
-913.5671542984834,522
-910.8442236973568,525
-908.1220404642074,526
-905.4006044304027,501
-902.679915427231,490
-899.959973285902,536
-897.2407778375464,511
-894.5223289132158,505
-891.8046263438832,528
-889.0876699604426,507
-886.3714595937089,497
-883.6559950744183,502
-880.9412762332282,486
-878.2273029007168,528
-875.5140749073835,501
-872.8015920836489,514
-870.0898542598545,533
-867.3788612662631,503
-864.6686129330585,503
-861.9591090903457,514
-859.2503495681506,515
-856.5423341964203,495
-853.8350628050229,504
-851.1285352237478,518
-848.4227512823054,505
-845.7177108103272,508
-843.0134136373656,518
-840.3098595928943,516
-837.6070485063082,547
-834.9049802069229,550
-832.2036545239757,525
-829.5030712866244,517
-826.8032303239481,538
-824.1041314649472,541
-821.4057745385428,523
-818.7081593735775,530
-816.0112857988148,521
-813.3151536429393,523
-810.6197627345566,544
-807.9251129021936,557
-805.2312039742981,525
-802.5380357792392,536
-799.8456081453069,526
-797.1539209007124,527
-794.462973873588,530
-791.772766891987,524
-789.083299783884,531
-786.3945723771743,537
-783.7065844996748,533
-781.0193359791231,541
-778.3328266431781,537
-775.6470563194197,552
-772.9620248353489,540
-770.2777320183878,535
-767.5941776958798,553
-764.9113616950891,525
-762.2292838432011,551
-759.5479439673222,519
-756.8673418944801,533
-754.1874774516235,533
-751.5083504656222,527
-748.8299607632671,572
-746.15230817127,532
-743.475392516264,533
-740.7992136248035,546
-738.1237713233636,566
-735.4490654383407,550
-732.7750957960521,578
-730.1018622227365,543
-727.4293645445534,551
-724.7576025875837,540
-722.0865761778291,576
-719.4162851412126,554
-716.7467293035781,578
-714.0779084906909,569
-711.409822528237,571
-708.7424712418238,546
-706.0758544569796,552
-703.4099719991541,557
-700.7448236937178,567
-698.0804093659622,599
-695.4167288411002,570
-692.7537819442656,575
-690.0915685005134,582
-687.4300883348199,600
-684.7693412720819,597
-682.1093271371178,582
-679.4500457546669,592
-676.7914969493897,601
-674.1336805458676,622
-671.4765963686034,595
-668.8202442420206,583
-666.1646239904642,630
-663.5097354382001,637
-660.8555784094151,601
-658.2021527282176,630
-655.5494582186366,630
-652.8974947046223,586
-650.2462620100463,611
-647.5957599587009,590
-644.9459883742998,640
-642.2969470804776,580
-639.6486359007902,633
-637.0010546587141,634
-634.3542031776476,624
-631.7080812809096,633
-629.0626887917401,598
-626.4180255333008,615
-623.7740913286734,602
-621.1308860008619,597
-618.4884093727904,634
-615.8466612673046,619
-613.2056415071715,645
-610.5653499150785,645
-607.9257863136347,601
-605.28695052537,620
-602.6488423727357,622
-600.0114616781036,610
-597.3748082637674,610
-594.7388819519412,640
-592.1036825647604,644
-589.4692099242818,614
-586.8354638524829,605
-584.2024441712624,626
-581.5701507024403,672
-578.9385832677575,612
-576.3077416888759,649
-573.6776257873787,639
-571.0482353847704,621
-568.4195703024757,636
-565.7916303618415,619
-563.164415384135,637
-560.5379251905453,639
-557.9121596021815,645
-555.2871184400748,645
-552.6628015251767,660
-550.0392086783606,666
-547.4163397204204,661
-544.794194472071,669
-542.1727727539491,652
-539.5520743866118,653
-536.9320991905377,687
-534.3128469861261,672
-531.6943175936979,670
-529.0765108334947,721
-526.4594265256793,749
-523.8430644903358,834
-521.2274245474689,934
-518.612506517005,1007
-515.9983102187913,926
-513.3848354725959,975
-510.77208209810846,1011
-508.16004991493924,1051
-505.5487387426199,1142
-502.9381484006032,1171
-500.3282787082628,1199
-497.71912948489364,1102
-495.1107005497117,1048
-492.5029917218539,976
-489.8960028203786,891
-487.28973366426493,825
-484.68418407241325,783
-482.07935386364494,769
-479.47524285670266,770
-476.87185087025,759
-474.2691777228715,761
-471.66722323307334,788
-469.0659872192821,792
-466.4654694998459,814
-463.86566989303384,743
-461.26658821703614,828
-458.66822428996414,807
-456.07057792985,770
-453.4736489546475,794
-450.877437182231,779
-448.28194243039627,785
-445.68716451686,781
-443.09310325926003,776
-440.49975847515555,782
-437.9071299820263,789
-435.31521759727354,793
-432.72402113821954,816
-430.13354042210767,827
-427.5437752661022,786
-424.95472548728867,778
-422.36639090267386,818
-419.7787713291855,790
-417.1918665836721,830
-414.60567648290385,874
-412.0202008435715,836
-409.4354394822874,872
-406.8513922155845,886
-404.26805885991723,844
-401.685439231661,910
-399.103533147112,857
-396.522340422488,851
-393.9418608739278,787
-391.3620943174908,804
-388.7830405691583,809
-386.2046994448317,805
-383.6270707603344,755
-381.05015433141045,714
-378.473949973725,714
-375.8984575028645,644
-373.32367673433623,628
-370.74960748356875,608
-368.1762495659117,565
-365.60360279663576,524
-363.03166699093265,529
-360.4604419639154,499
-357.8899275306178,474
-355.32012350599507,466
-352.7510297049233,475
-350.1826459421999,429
-347.61497203254316,435
-345.04800779059235,447
-342.4817530309082,432
-339.91620756797226,409
-337.35137121618743,426
-334.7872437898774,400
-332.22382510328725,410
-329.66111497058273,420
-327.09911320585127,418
-324.53781962310075,464
-321.9772340362607,460
-319.4173562591816,442
-316.8581861056348,439
-314.2997233893127,402
-311.7419679238294,415
-309.1849195227194,408
-306.62857799943856,436
-304.0729431673641,456
-301.51801483979375,448
-298.963792829947,446
-296.41027695096386,450
-293.85746701590574,482
-291.3053628377552,449
-288.7539642294155,442
-286.2032710037115,463
-283.65328297338897,450
-281.1039999511146,470
-278.5554217494762,491
-276.007548180983,434
-273.4603790580651,468
-270.9139141930734,493
-268.3681533982807,517
-265.8230964858798,491
-263.27874326798565,519
-260.7350935566336,484
-258.1921471637804,465
-255.6499039013039,469
-253.10836358100266,480
-250.56752601459698,486
-248.02739101372765,481
-245.48795838995704,530
-242.94922795476816,497
-240.41119951956557,494
-237.8738728956746,492
-235.33724789434166,576
-232.80132432673452,518
-230.2661020039418,500
-227.73158073697357,519
-225.19776033676033,544
-222.66464061415422,612
-220.1322213799284,571
-217.60050244477725,577
-215.06948361931552,559
-212.53916471408013,531
-210.00954553952818,571
-207.48062590603843,564
-204.9524056239104,558
-202.4248845033651,631
-199.8980623545441,568
-197.37193898751036,593
-194.84651421224817,593
-192.32178783866232,628
-189.79775967657952,626
-187.27442953574644,616
-184.7517972258321,601
-182.2298625564256,604
-179.7086253370378,585
-177.18808537710026,567
-174.66824248596583,556
-172.14909647290835,602
-169.6306471471229,624
-167.11289431772548,649
-164.59583779375328,639
-162.07947738416453,611
-159.5638128978386,637
-157.04884414357605,660
-154.53457093009854,664
-152.02099306604828,693
-149.50811035998936,644
-146.99592262040665,622
-144.48442965570587,632
-141.97363127421409,681
-139.46352728417958,728
-136.95411749377126,743
-134.44540171107985,734
-131.93737974411636,702
-129.43005140081357,631
-126.92341648902493,712
-124.41747481652521,775
-121.91222619101006,909
-119.40767042009657,1042
-116.90380731132257,1125
-114.40063667214702,1220
-111.8981583099503,1286
-109.3963720320337,1283
-106.89527764561933,1176
-104.39487495785067,1074
-101.89516377579241,1207
-99.39614390642998,1539
-96.89781515667039,1937
-94.40017733334128,2264
-91.90323024319173,2429
-89.40697369289148,2333
-86.91140748903172,2168
-84.41653143812482,2268
-81.92234534660395,2243
-79.42884902082358,1874
-76.93604226705907,1889
-74.4439248915071,1918
-71.95249670028534,2591
-69.46175749943245,3417
-66.97170709490854,4012
-64.48234529259423,4828
-61.99367189829195,5165
-59.50568671772464,5173
-57.01838955653636,4825
-54.53178022029283,5333
-52.045858514480074,6847
-49.560624244506016,8044
-47.07607721569923,9480
-44.59221723330904,9931
-42.10904410250669,9370
-39.62655762838392,8255
-37.14475761595372,6404
-34.66364387015028,5068
-32.18321619582866,4335
-29.70347439776515,4266
-27.224418280657005,4924
-24.74604764912317,5561
-22.26836230770266,8293
-19.7913620608565,14197
-17.315046712966478,24044
-14.83941606833514,32932
-12.36446993118659,41704
-9.89020810566592,65041
-7.416630395839093,65041
-4.94373660569363,65041
-2.471526539137585,65041
-6.821210263296962E-13,65041
2.47084320796705,65041
4.941003281093458,65041
7.410480415786196,65041
9.879274808531363,65041
12.347386655893956,65041
14.814816154518212,65041
17.28156350112681,65041
19.74762889252179,65041
22.21301252558385,65041
24.67771459727237,19796
27.141735304626195,3046
29.605074844762612,1616
32.06773341487792,1382
34.52971121224755,1277
36.99100843422559,1250
39.45162527824516,1139
41.91156194181792,1182
44.370818622535126,1118
46.82939551806646,1037
49.287292826160524,1048
51.74451074464503,1056
54.201049471426245,914
56.65690920448981,915
59.112090141899785,787
61.56659248179983,820
64.02041642241159,771
66.4735621620365,751
68.92602989905402,775
71.37781983192338,807
73.82893215918205,797
76.27936707944684,835
78.72912479141326,910
81.17820549385567,854
83.62660938562783,767
86.07433666566146,867
88.5213875329681,756
90.96776218663751,681
93.41346082583925,704
95.85848364982041,745
98.30283085790859,746
100.7465026495089,723
103.18949922410604,758
105.63182078126385,716
108.07346752062438,784
110.51443964190923,774
112.95473734491827,716
115.39436082953114,650
117.83331029570547,681
120.27158594347827,752
122.7091879729652,715
125.1461165843615,629
127.58237197794062,711
130.01795435405518,700
132.4528639131364,692
134.88710085569494,713
137.32066538231982,680
139.75355769367923,660
142.1857779905207,629
144.61732647366978,651
147.04820334403132,646
149.47840880258934,657
151.90794305040674,740
154.33680628862487,776
156.76499871846443,941
159.19252054122433,1084
161.61937195828352,1192
164.04555317109896,1277
166.47106438120693,1379
168.89590579022217,1468
171.320077599839,1629
173.7435800118302,1737
176.16641322804742,1812
178.58857745042144,1793
181.01007288096173,1852
183.43089972175687,1878
185.85105817497413,1905
188.27054844285988,1930
190.6893707277394,1943
193.10752523201643,1971
195.5250121581745,2080
197.9418317087751,2077
200.3579840864594,2134
202.7734694939469,2146
205.18828813403627,2177
207.6024402096051,2220
210.01592592360964,2136
212.42874547908548,2178
214.84089907914665,2153
217.2523869269868,2205
219.66320922587727,2157
222.0733661791695,2281
224.48285799029293,2282
226.8916848627572,2331
229.29984700014882,2275
231.7073446061355,2340
234.11417788446204,2240
236.520347038953,2330
238.92585227351185,2403
241.33069379212054,2446
243.73487179884035,2397
246.1383864978112,2494
248.541238093252,2450
250.9434267894609,2503
253.34495279081432,2605
255.74581630176783,2637
258.1460175268563,2633
260.54555667069314,2639
262.9444339379703,2592
265.3426495334594,2595
267.7402036620107,2472
270.1370965285529,2422
272.53332833809407,2302
274.9288992957214,2306
277.32380960660055,2300
279.718059475976,2228
282.1116491091717,2213
284.5045787115897,2208
286.89684848871195,2158
289.2884586460981,2156
291.67940938938807,2177
294.0697009242996,2194
296.4593334566299,2101
298.84830719225477,2106
301.23662233712923,2188
303.6242790972866,2182
306.01127767884,2058
308.39761828798066,2091
310.78330113097934,2048
313.16832641418534,2071
315.5526943440269,2039
317.9364051270112,2024
320.3194589697242,2039
322.70185607883093,1979
325.0835966610754,2033
327.4646809232805,1906
329.8451090723478,1818
332.2248813152577,1918
334.6039978590701,1892
336.9824589109231,1930
339.36026467803447,1852
341.7374153677,1850
344.113911187295,1831
346.48975234427337,1851
348.8649390461686,1821
351.2394715005918,1863
353.61334991523415,1844
355.9865744978655,1835
358.35914545633375,1821
360.73106299856715,1871
363.10232733257146,1831
365.47293866643247,1814
367.84289720831396,1834
370.2122031664593,1797
372.5808567491905,1785
374.9488581649083,1796
377.31620762209275,1757
379.6829053293021,1765
382.0489514951745,1770
384.4143463284262,1779
386.7790900378528,1817
389.14318283232853,1689
391.50662492080653,1751
393.86941651231916,1687
396.23155781597745,1749
398.5930490409713,1757
400.9538903965696,1736
403.3140820921202,1791
405.6736243370498,1748
408.03251734086336,1740
410.3907613131465,1724
412.74835646356166,1683
415.10530300185144,1637
417.4616011378372,1717
419.81725108141893,1743
422.1722530425758,1720
424.5266072313656,1738
426.880313857925,1706
429.2333731324701,1777
431.58578526529516,1767
433.9375504667738,1752
436.2886689473588,1710
438.63914091758113,1660
440.9889665880513,1630
443.33814616945835,1689
445.68667987257015,1666
448.03456790823395,1658
450.3818104873759,1654
452.72840782100013,1676
455.07436012019105,1632
457.41966759611057,1648
459.7643304600007,1666
462.10834892318155,1637
464.4517231970525,1671
466.79445349309174,1660
469.1365400228566,1615
471.4779829979826,1695
473.81878263018564,1606
476.15893913125876,1693
478.4984527130747,1658
480.8373235875855,1701
483.17555196682144,1710
485.5131380628919,1761
487.8500820879857,1787
490.1863842543697,1829
492.52204477439034,1923
494.8570638604725,2015
497.1914417251204,2163
499.52517858091653,2422
501.85827464052306,2585
504.19073011668036,2770
506.5225452222086,2806
508.85372017000566,2840
511.18425517304956,2749
513.514150444396,2960
515.8434061971808,3425
518.1720226446176,4253
520.4999999999999,4394
522.8273384766991,4129
525.1540382881666,3757
527.480099647932,3251
529.8055227696037,2737
532.1303078668694,2198
534.454455153496,1966
536.777964843328,1854
539.1008371502907,1717
541.4230722883866,1724
543.744670471698,1669
546.0656319143858,1693
548.3859568306899,1644
550.7056454349294,1684
553.0246979415016,1597
555.3431145648834,1574
557.6608955196306,1577
559.978041020377,1566
562.2945512818363,1601
564.6104265188006,1690
566.9256669461412,1709
569.2402727788082,1710
571.5542442318302,1628
573.8675815203156,1698
576.1802848594508,1654
578.4923544645015,1695
580.8037905508126,1693
583.114593333807,1725
585.4247630289875,1672
587.7342998519354,1685
590.0432040183106,1661
592.3514757438526,1695
594.6591152443794,1771
596.9661227357875,1664
599.2724984340531,1708
601.578242555231,1686
603.8833553154542,1712
606.1878369309362,1683
608.4916876179676,1644
610.7949075929192,1625
613.0974970722403,1683
615.3994562724587,1687
617.7007854101818,1725
620.0014847020951,1707
622.3015543649641,1717
624.6009946156324,1701
626.8998056710224,1744
629.1979877481361,1757
631.4955410640538,1734
633.7924658359349,1669
636.0887622810175,1736
638.3844306166192,1754
640.6794710601358,1760
642.9738838290426,1742
645.2676691408932,1694
647.5608272133207,1742
649.853358264037,1719
652.1452625108324,1740
654.4365401715764,1766
656.7271914642178,1728
659.0172166067838,1820
661.3066158173809,1783
663.5953893141935,1711
665.8835373154867,1807
668.1710600396028,1762
670.4579577049639,1716
672.7442305300709,1725
675.0298787335033,1764
677.3149025339197,1817
679.599302150058,1815
681.8830778007342,1767
684.1662297048437,1703
686.4487580813608,1803
688.7306631493387,1749
691.0119451279091,1807
693.2926042362834,1809
695.5726406937516,1794
697.8520547196814,1705
700.1308465335215,1712
702.4090163547982,1772
704.6865644031171,1793
706.9634908981619,1708
709.2397960596965,1731
711.5154801075631,1674
713.7905432616823,1688
716.0649857420548,1795
718.3388077687592,1741
720.612009561953,1783
722.8845913418733,1770
725.1565533288352,1709
727.427895743234,1724
729.6986188055427,1796
731.9687227363137,1706
734.238207756178,1773
736.5070740858458,1742
738.7753219461066,1734
741.0429515578281,1750
743.3099631419569,1737
745.5763569195191,1751
747.8421331116193,1721
750.1072919394409,1704
752.3718336242467,1788
754.6357583873777,1717
756.8990664502545,1799
759.1617580343765,1734
761.423833361321,1741
763.6852926527457,1771
765.9461361303862,1768
768.206364016058,1723
770.4659765316536,1770
772.7249738991469,1789
774.9833563405886,1705
777.2411240781092,1777
779.4982773339183,1747
781.7548163303044,1725
784.010741289634,1752
786.2660524343538,1827
788.5207499869881,1743
790.7748341701416,1743
793.0283052064964,1769
795.2811633188143,1740
797.5334087299362,1711
799.7850416627813,1816
802.0360623403484,1736
804.2864709857143,1684
806.5362678220353,1779
808.7854530725468,1761
811.0340269605625,1774
813.2819897094754,1779
815.5293415427581,1771
817.77608268396,1764
820.0222133567116,1783
822.2677337847211,1736
824.5126441917765,1837
826.7569448017433,1821
829.0006358385675,1805
831.2437175262731,1767
833.4861900889629,1808
835.7280537508192,1736
837.9693087361026,1809
840.2099552691533,1755
842.4499935743896,1790
844.689423876309,1735
846.9282463994886,1776
849.1664613685833,1765
851.4040690083276,1805
853.6410695435349,1794
855.877463199097,1778
858.1132501999847,1769
860.3484307712487,1827
862.5830051380175,1773
864.8169735254988,1758
867.0503361589791,1854
869.2830932638243,1839
871.5152450654786,1783
873.7467917894654,1816
875.9777336613873,1769
878.2080709069252,1804
880.4378037518389,1794
882.666932421968,1793
884.8954571432301,1876
887.1233781416219,1847
889.3506956432192,1863
891.5774098741766,1897
893.803521060728,1822
896.0290294291852,1860
898.2539352059397,1832
900.4782386174619,1843
902.7019398903011,1900
904.925039251085,1863
907.147536926521,1819
909.3694331433943,1731
911.59072812857,1821
913.8114221089921,1842
916.0315153116827,1801
918.2510079637437,1777
920.4699002923547,1801
922.6881925247761,1716
924.905884888345,1820
927.1229776104793,1713
929.3394709186747,1757
931.555365040506,1719
933.7706602036275,1766
935.9853566357709,1773
938.1994545647489,1731
940.4129542184515,1768
942.6258558248488,1802
944.8381596119883,1806
947.0498658079974,1766
949.2609746410825,1799
951.4714863395287,1743
953.6814011316998,1868
955.8907192460387,1726
958.0994409110671,1734
960.3075663553858,1752
962.5150958076741,1795
964.7220294966913,1738
966.928367651274,1784
969.1341105003388,1729
971.3392582728806,1769
973.5438111979742,1701
975.747769504772,1676
977.9511334225061,1697
980.153903180487,1738
982.3560790081052,1746
984.5576611348289,1672
986.7586497902058,1757
988.9590452038618,1709
991.158847605503,1687
993.3580572249133,1693
995.5566742919558,1641
997.7546990365728,1562
999.952131688785,1582
1002.1489724786926,1617
1004.3452216364743,1635
1006.5408793923874,1544
1008.7359459767691,1550
1010.9304216200343,1519
1013.1243065526781,1537
1015.3176010052733,1519
1017.510305208472,1532
1019.7024193930064,1452
1021.8939437896848,1480
1024.0848786293977,1526
1026.2752241431122,1542
1028.4649805618747,1445
1030.6541481168115,1502
1032.842727039127,1469
1035.0307175601051,1422
1037.2181199111074,1474
1039.4049343235752,1480
1041.591161029029,1530
1043.7768002590683,1506
1045.9618522453698,1519
1048.1463172196918,1509
1050.3301954138697,1421
1052.513487059818,1463
1054.69619238953,1414
1056.8783116350783,1494
1059.0598450286152,1526
1061.2407928023704,1503
1063.4211551886528,1472
1065.6009324198508,1503
1067.780124728432,1494
1069.9587323469414,1484
1072.1367555080046,1504
1074.314194444325,1455
1076.4910493886855,1493
1078.667320573947,1445
1080.843008233051,1445
1083.0181125990161,1411
1085.1926339049414,1442
1087.3665723840027,1423
1089.5399282694575,1429
1091.7127017946405,1442
1093.8848931929647,1393
1096.0565026979243,1422
1098.2275305430899,1373
1100.3979769621128,1374
1102.567842188722,1406
1104.737126456726,1401
1106.9058300000124,1385
1109.0739530525475,1431
1111.2414958483764,1392
1113.4084586216231,1382
1115.5748416064907,1377
1117.7406450372605,1388
1119.9058691482942,1395
1122.0705141740304,1415
1124.2345803489884,1371
1126.3980679077658,1349
1128.5609770850388,1363
1130.7233081155623,1377
1132.8850612341707,1423
1135.0462366757774,1414
1137.2068346753745,1417
1139.3668554680326,1359
1141.526299288901,1386
1143.68516637321,1374
1145.8434569562655,1379
1148.001171273455,1359
1150.158309560244,1344
1152.3148720521767,1362
1154.470858984876,1372
1156.626270594044,1346
1158.7811071154629,1330
1160.9353687849912,1365
1163.089055838569,1344
1165.242168512213,1412
1167.3947070420209,1333
1169.5466716641677,1368
1171.6980626149075,1365
1173.8488801305748,1329
1175.9991244475814,1355
1178.1487958024186,1354
1180.2978944316555,1381
1182.4464205719428,1353
1184.5943744600072,1391
1186.7417563326567,1336
1188.8885664267755,1320
1191.0348049793297,1353
1193.1804722273619,1352
1195.325568407995,1367
1197.4700937584303,1414
1199.614048515948,1307
1201.7574329179074,1361
1203.900247201746,1321
1206.042491604982,1334
1208.1841663652099,1408
1210.3252717201053,1387
1212.465807907422,1373
1214.6057751649923,1293
1216.7451737307279,1330
1218.8840038426192,1386
1221.0222657387353,1362
1223.1599596572241,1361
1225.2970858363137,1381
1227.4336445143094,1347
1229.5696359295966,1384
1231.705060320639,1443
1233.8399179259786,1411
1235.9742089842384,1422
1238.107933734118,1352
1240.2410924143974,1423
1242.373685263935,1385
1244.5057125216676,1410
1246.6371744266116,1450
1248.7680712178621,1442
1250.898403134593,1389
1253.028170416058,1348
1255.1573733015875,1377
1257.2860120305932,1402
1259.4140868425648,1431
1261.54159797707,1404
1263.6685456737569,1425
1265.7949301723515,1462
1267.9207517126597,1421
1270.046010534565,1473
1272.1707068780306,1507
1274.2948409830983,1450
1276.4184130898889,1527
1278.541423438603,1483
1280.6638722695184,1480
1282.785759822993,1444
1284.9070863394636,1509
1287.0278520594447,1540
1289.1480572235314,1474
1291.2677020723963,1476
1293.3867868467923,1539
1295.5053117875495,1536
1297.623277135579,1478
1299.740683131868,1594
1301.8575300174857,1605
1303.973818033578,1547
1306.0895474213703,1607
1308.2047184221678,1640
1310.3193312773528,1619
1312.4333862283888,1608
1314.5468835168163,1660
1316.659823384255,1639
1318.7722060724045,1592
1320.8840318230418,1661
1322.9953008780249,1638
1325.1060134792888,1560
1327.2161698688478,1582
1329.3257702887959,1617
1331.4348149813054,1601
1333.5433041886276,1611
1335.6512381530933,1582
1337.7586171171101,1595
1339.8654413231675,1632
1341.9717110138317,1577
1344.0774264317488,1600
1346.1825878196432,1632
1348.2871954203192,1600
1350.3912494766587,1569
1352.4947502316231,1596
1354.5976979282532,1590
1356.7000928096686,1601
1358.8019351190665,1553
1360.9032250997243,1498
1363.0039629949988,1552
1365.1041490483235,1562
1367.2037835032133,1544
1369.3028666032606,1533
1371.401398592137,1576
1373.4993797135926,1562
1375.5968102114575,1591
1377.6936903296396,1581
1379.7900203121262,1533
1381.8858004029835,1528
1383.9810308463561,1557
1386.075711886469,1591
1388.1698437676241,1583
1390.2634267342032,1549
1392.356461030667,1536
1394.4489469015557,1549
1396.5408845914872,1549
1398.6322743451592,1585
1400.7231164073469,1575
1402.813411022907,1664
1404.903158436773,1631
1406.9923588939578,1591
1409.0810126395531,1653
1411.1691199187303,1626
1413.2566809767386,1542
1415.343696058907,1615
1417.4301654106425,1620
1419.5160892774315,1641
1421.6014679048399,1647
1423.6863015385125,1806
1425.7705904241707,1719
1427.8543348076178,1672
1429.9375349347342,1693
1432.0201910514802,1711
1434.102303403894,1741
1436.1838722380944,1755
1438.2648978002767,1728
1440.3453803367174,1777
1442.4253200937692,1806
1444.5047173178677,1833
1446.5835722555234,1850
1448.6618851533285,1900
1450.739656257952,1889
1452.8168858161434,1878
1454.8935740747306,1936
1456.96972128062,1984
1459.045327680797,1982
1461.120393522327,1994
1463.1949190523528,2005
1465.2689045180973,2083
1467.3423501668608,2018
1469.415256246024,2142
1471.4876230030463,2089
1473.559450685465,2169
1475.6307395408976,2252
1477.7014898170391,2235
1479.771701761665,2325
1481.8413756226287,2288
1483.9105116478618,2346
1485.9791100853772,2253
1488.0471711832643,2357
1490.1146951896926,2354
1492.1816823529098,2418
1494.2481329212433,2383
1496.3140471430984,2367
1498.3794252669609,2434
1500.4442675413939,2465
1502.5085742150404,2414
1504.572345536622,2434
1506.6355817549388,2518
1508.6982831188702,2504
1510.7604498773744,2501
1512.8220822794883,2603
1514.8831805743293,2595
1516.9437450110909,2599
1519.003775839048,2582
1521.0632733075522,2593
1523.1222376660367,2661
1525.1806691640113,2596
1527.2385680510652,2757
1529.2959345768668,2671
1531.3527689911643,2636
1533.4090715437833,2661
1535.4648424846291,2675
1537.5200820636855,2687
1539.5747905310159,2778
1541.6289681367616,2670
1543.6826151311434,2789
1545.7357317644614,2799
1547.7883182870937,2921
1549.8403749494987,2874
1551.8919020022113,2944
1553.9428996958477,3041
1555.9933682811015,3050
1558.0433080087469,3170
1560.0927191296346,3203
1562.1416018946961,3278
1564.1899565549415,3248
1566.2377833614592,3241
1568.2850825654164,3215
1570.3318544180606,3212
1572.3780991707158,3118
1574.423817074788,3022
1576.4690083817595,3017
1578.5136733431923,2921
1580.5578122107272,2864
1582.601425236085,2685
1584.6445126710646,2634
1586.6870747675434,2556
1588.7291117774776,2328
1590.7706239529034,2407
1592.8116115459347,2210
1594.8520748087658,2181
1596.8920139936686,2135
1598.9314293529933,2064
1600.9703211391711,2016
1603.008689604711,1986
1605.0465350022005,1959
1607.0838575843068,1942
1609.1206576037753,1830
1611.1569353134305,1841
1613.1926909661765,1731
1615.2279248149953,1639
1617.2626371129481,1735
1619.2968281131757,1731
1621.3304980688963,1710
1623.3636472334088,1720
1625.39627586009,1639
1627.428384202396,1616
1629.459972513861,1587
1631.4910410480993,1534
1633.5215900588028,1576
1635.551619799744,1563
1637.5811305247717,1526
1639.6101224878166,1517
1641.6385959428862,1540
1643.6665511440683,1547
1645.693988345528,1523
1647.7209078015112,1477
1649.7473097663405,1471
1651.7731944944203,1516
1653.7985622402307,1459
1655.823413258333,1485
1657.847747803366,1437
1659.8715661300494,1483
1661.8948684931793,1468
1663.9176551476316,1449
1665.9399263483624,1469
1667.9616823504057,1529
1669.982923408873,1465
1672.0036497789574,1477
1674.0238617159293,1450
1676.043559475138,1455
1678.0627433120121,1437
1680.081413482059,1483
1682.0995702408654,1436
1684.117213844096,1443
1686.134344547495,1487
1688.1509626068864,1435
1690.1670682781705,1400
1692.182661817329,1442
1694.1977434804217,1450
1696.2123135235875,1372
1698.226372203043,1452
1700.2399197750851,1397
1702.2529564960905,1388
1704.2654826225112,1382
1706.277498410882,1515
1708.2890041178139,1472
1710.2999999999988,1397
1712.3104863142066,1410
1714.3204633172854,1432
1716.329931266163,1410
1718.3388904178469,1457
1720.3473410294214,1391
1722.3552833580516,1394
1724.3627176609807,1386
1726.3696441955308,1467
1728.3760632191033,1375
1730.3819749891782,1412
1732.3873797633146,1399
1734.3922777991502,1369
1736.3966693544012,1383
1738.4005546868639,1342
1740.4039340544127,1359
1742.406807715001,1387
1744.4091759266616,1399
1746.4110389475054,1394
1748.4123970357223,1397
1750.413250449582,1386
1752.4135994474318,1373
1754.4134442876993,1334
1756.4127852288902,1329
1758.4116225295893,1381
1760.4099564484595,1395
1762.407787244244,1352
1764.405115175764,1288
1766.4019405019203,1357
1768.3982634816916,1361
1770.3940843741357,1313
1772.3894034383907,1330
1774.3842209336717,1299
1776.378537119274,1315
1778.372352254571,1333
1780.3656665990156,1285
1782.3584804121397,1390
1784.3507939535534,1346
1786.3426074829463,1328
1788.3339212600863,1314
1790.3247355448211,1299
1792.3150505970766,1345
1794.3048666768573,1333
1796.2941840442477,1329
1798.2830029594106,1275
1800.2713236825884,1342
1802.2591464741004,1348
1804.2464715943465,1353
1806.2332993038058,1265
1808.2196298630352,1296
1810.2054635326708,1318
1812.190800573428,1320
1814.175641246101,1315
1816.1599858115628,1342
1818.1438345307652,1301
1820.127187664738,1305
1822.1100454745924,1271
1824.092408221516,1368
1826.0742761667766,1302
1828.055649571721,1320
1830.0365286977735,1260
1832.0169138064398,1312
1833.9968051593014,1269
1835.9762030180214,1261
1837.9551076443408,1365
1839.9335193000788,1261
1841.9114382471344,1342
1843.888864747485,1334
1845.8657990631878,1298
1847.842241456378,1329
1849.8181921892697,1317
1851.7936515241558,1288
1853.7686197234098,1281
1855.7430970494815,1343
1857.7170837649014,1332
1859.6905801322787,1306
1861.6635864143004,1329
1863.6361028737338,1316
1865.608129773424,1317
1867.5796673762961,1354
1869.5507159453537,1336
1871.521275743678,1344
1873.4913470344313,1325
1875.4609300808534,1315
1877.4300251462632,1385
1879.3986324940588,1371
1881.366752387717,1353
1883.3343850907936,1313
1885.3015308669228,1309
1887.268189979819,1331
1889.2343626932739,1344
1891.2000492711595,1360
1893.1652499774254,1395
1895.1299650761011,1349
1897.0941948312952,1342
1899.0579395071945,1381
1901.0211993680641,1363
1902.98397467825,1284
1904.9462657021745,1354
1906.9080727043415,1371
1908.869395949332,1333
1910.8302357018065,1364
1912.790592226504,1313
1914.7504657882428,1387
1916.7098566519212,1364
1918.6687650825133,1367
1920.6271913450764,1372
1922.5851357047422,1345
1924.5425984267245,1311
1926.499579776314,1305
1928.4560800188833,1331
1930.4120994198802,1365
1932.367638244833,1337
1934.32269675935,1368
1936.2772752291175,1364
1938.231373919899,1298
1940.1849930975404,1351
1942.1381330279637,1320
1944.0907939771696,1291
1946.0429762112412,1341
1947.9946799963363,1347
1949.9459055986945,1305
1951.896653284633,1318
1953.8469233205478,1228
1955.7967159729142,1318
1957.7460315082863,1300
1959.6948701932974,1296
1961.6432322946594,1267
1963.5911180791632,1367
1965.5385278136787,1327
1967.4854617651545,1284
1969.4319202006182,1284
1971.377903387176,1329
1973.3234115920136,1276
1975.268445082395,1290
1977.2130041256642,1310
1979.1570889892423,1269
1981.1006999406304,1300
1983.04383724741,1267
1984.986501177238,1229
1986.928691997853,1244
1988.8704099770712,1284
1990.811655382789,1288
1992.7524284829801,1306
1994.692729545698,1230
1996.6325588390755,1270
1998.5719166313224,1309
2000.5108031907307,1255
2002.4492187856677,1303
2004.387163684583,1253
2006.3246381560011,1264
2008.2616424685298,1295
2010.1981768908527,1213
2012.1342416917332,1249
2014.069837140014,1283
2016.0049635046162,1250
2017.9396210545406,1244
2019.8738100588666,1269
2021.8075307867502,1299
2023.740783507431,1266
2025.6735684902228,1304
2027.6058860045214,1290
2029.5377363198004,1266
2031.4691197056118,1265
2033.4000364315875,1247
2035.3304867674374,1240
2037.260470982952,1266
2039.189989347998,1237
2041.1190421325232,1244
2043.047629606554,1331
2044.9757520401945,1303
2046.9034097036288,1222
2048.8306028671195,1210
2050.7573318010086,1214
2052.683596775716,1270
2054.609398061742,1219
2056.5347359296647,1267
2058.4596106501403,1210
2060.384022493906,1259
2062.3079717317764,1252
2064.231458634646,1306
2066.1544834734873,1272
2068.077046519352,1254
2069.99914804337,1217
2071.9207883167524,1244
2073.8419676107865,1202
2075.7626861968406,1257
2077.6829443463607,1268
2079.6027423308715,1243
2081.522080421977,1271
2083.440958891362,1231
2085.359378010786,1252
2087.2773380520907,1242
2089.194839287196,1285
2091.111881988101,1275
2093.0284664268825,1190
2094.9445928756973,1228
2096.86026160678,1192
2098.775472892446,1198
2100.690227005088,1246
2102.604524217178,1238
2104.5183648012676,1201
2106.431749029985,1218
2108.34467717604,1260
2110.2571495122206,1301
2112.169166311393,1170
2114.080727846503,1277
2115.9918343905747,1246
2117.902486216711,1236
2119.8126835980956,1264
2121.722426807987,1267
2123.6317161197285,1222
2125.5405518067364,1232
2127.448934142509,1255
2129.356863400624,1251
2131.264339854737,1218
2133.1713637785815,1244
2135.077935445972,1299
2136.9840551308002,1250
2138.889723107037,1333
2140.7949396487334,1257
2142.699705030018,1240
2144.6040195250994,1283
2146.507883408264,1234
2148.4112969538774,1260
2150.3142604363848,1243
2152.2167741303097,1278
2154.1188383102535,1276
2156.0204532508997,1278
2157.9216192270064,1264
2159.822336513414,1280
2161.7226053850413,1271
2163.622426116884,1213
2165.5217989840185,1250
2167.4207242616,1231
2169.319202224862,1269
2171.2172331491165,1260
2173.1148173097563,1296
2175.0119549822507,1289
2176.90864644215,1301
2178.8048919650823,1272
2180.7006918267534,1260
2182.596046302952,1296
2184.4909556695407,1285
2186.3854202024645,1268
2188.279440177746,1243
2190.173015871487,1290
2192.066147559868,1282
2193.958835519149,1294
2195.851080025667,1278
2197.7428813558417,1275
2199.6342397861667,1294
2201.5251555932186,1291
2203.415629053651,1285
2205.3056604441986,1272
2207.19525004167,1282
2209.084398122958,1260
2210.9731049650327,1241
2212.861370844941,1302
2214.749196039812,1289
2216.636580826851,1331
2218.523525483344,1328
2220.410030286655,1280
2222.296095514226,1290
2224.1817214435805,1301
2226.066908352319,1296
2227.951656518121,1310
2229.835966218746,1306
2231.71983773203,1331
2233.6032713358913,1259
2235.486267308324,1267
2237.3688259274036,1301
2239.2509474712824,1347
2241.132632218193,1319
2243.013880446447,1329
2244.8946924344323,1259
2246.7750684606203,1302
2248.6550088035574,1244
2250.534513741871,1293
2252.413583554265,1305
2254.292218519526,1289
2256.170418916517,1297
2258.0481850241786,1330
2259.925517121534,1286
2261.8024154876825,1308
2263.678880401803,1332
2265.5549121431536,1326
2267.430510991071,1330
2269.305677224971,1265
2271.180411124348,1272
2273.0547129687766,1292
2274.9285830379076,1290
2276.8020216114737,1203
2278.6750289692845,1287
2280.5476053912294,1307
2282.4197511572766,1294
2284.2914665474727,1316
2286.162751841943,1276
2288.0336073208937,1308
2289.904033264608,1304
2291.774029953448,1292
2293.6435976678554,1265
2295.5127366883517,1281
2297.381447295534,1269
2299.2497297700825,1234
2301.1175843927526,1255
2302.9850114443825,1238
2304.852011205885,1172
2306.7185839582553,1173
2308.5847299825664,1222
2310.4504495599676,1178
2312.3157429716925,1206
2314.1806104990483,1153
2316.0450524234247,1167
2317.9090690262888,1206
2319.772660589186,1137
2321.635827393742,1188
2323.498569721661,1162
2325.3608878547248,1112
2327.2227820747967,1194
2329.0842526638157,1161
2330.945299903803,1165
2332.805924076857,1142
2334.6661254651535,1144
2336.525904350951,1200
2338.3852610165827,1203
2340.244195744464,1166
2342.102708817088,1211
2343.9608005170253,1223
2345.8184711269287,1207
2347.675720929526,1200
2349.532550207628,1211
2351.38895924412,1192
2353.24494832197,1222
2355.100517724223,1237
2356.955667734004,1209
2358.810398634514,1157
2360.664710709037,1140
2362.5186042409337,1176
2364.3720795136437,1208
2366.225136810686,1161
2368.0777764156583,1169
2369.929998612237,1191
2371.7818036841777,1183
2373.633191915315,1198
2375.484163589562,1208
2377.3347189909114,1169
2379.184858403434,1223
2381.03458211128,1162
2382.8838903986775,1205
2384.732783549936,1203
2386.5812618494406,1215
2388.4293255816588,1193
2390.2769750311327,1240
2392.1242104824883,1233
2393.971032220427,1189
2395.8174405297295,1208
2397.6634356952563,1213
2399.509018001947,1211
2401.3541877348193,1164
2403.1989451789705,1200
2405.043290619576,1203
2406.8872243418905,1252
2408.730746631247,1234
2410.5738577730594,1227
2412.4165580528183,1229
2414.258847756095,1185
2416.100727168537,1268
2417.9421965758734,1230
2419.783256263912,1191
2421.623906518538,1245
2423.4641476257157,1241
2425.303979871491,1224
2427.143403541984,1248
2428.9824189233977,1247
2430.821026302012,1262
2432.6592259641866,1263
2434.497018196361,1225
2436.33440328505,1235
2438.171381516851,1245
2440.00795317844,1254
2441.844118556569,1277
2443.6798779380724,1234
2445.5152316098606,1224
2447.3501798589255,1232
2449.1847229723357,1243
2451.0188612372403,1244
2452.8525949408663,1242
2454.6859243705203,1243
2456.518849813587,1210
2458.3513715575314,1222
2460.183489889895,1254
2462.015205098301,1225
2463.8465174704493,1266
2465.67742729412,1269
2467.5079348571717,1267
2469.338040447542,1244
2471.1677443532476,1208
2472.9970468623833,1199
2474.825948263123,1218
2476.6544488437207,1260
2478.482548892508,1260
2480.310248697896,1282
2482.137548548374,1299
2483.9644487325118,1198
2485.790949538956,1279
2487.617051256433,1261
2489.44275417375,1255
2491.26805857979,1252
2493.0929647635157,1232
2494.917473013971,1306
2496.741583620276,1277
2498.5652968716304,1268
2500.3886130573137,1298
2502.2115324666834,1271
2504.0340553891765,1339
2505.856182114308,1294
2507.6779129316733,1322
2509.499248130945,1322
2511.3201880018764,1328
2513.140732834298,1272
2514.9608829181198,1325
2516.780638543331,1299
2518.6,1314
2520.418967578273,1254
2522.237541568376,1333
2524.0557222606144,1329
2525.8735099453706,1286
2527.6909049131086,1295
2529.507907454368,1362
2531.32451785977,1353
2533.140736420014,1358
2534.9565634258774,1343
2536.771999168218,1381
2538.5870439379714,1356
2540.4016980261526,1353
2542.2159617238544,1389
2544.02983532225,1398
2545.8433191125914,1381
2547.656413386209,1363
2549.4691184345115,1451
2551.2814345489874,1356
2553.093362021204,1433
2554.904901142808,1417
2556.716052205523,1451
2558.526815501153,1434
2560.3371913215824,1472
2562.147179958771,1483
2563.956781704761,1456
2565.7659968516705,1460
2567.5748256916986,1527
2569.3832685171224,1561
2571.1913256202984,1504
2572.9989972936614,1504
2574.806283829725,1509
2576.613185521084,1579
2578.4197026604074,1594
2580.2258355404483,1506
2582.031584454035,1583
2583.836949694077,1544
2585.6419315535613,1516
2587.4465303255533,1546
2589.2507463032002,1572
2591.0545797797245,1551
2592.8580310484303,1510
2594.6611004026995,1484
2596.463788135992,1564
2598.266094541849,1573
2600.0680199138874,1540
2601.869564545807,1557
2603.670728731383,1578
2605.4715127644704,1554
2607.2719169390048,1547
2609.071941548998,1571
2610.8715868885433,1554
2612.670853251811,1554
2614.469740933052,1532
2616.268250226594,1561
2618.0663814268455,1532
2619.864134828292,1519
2621.6615107255006,1514
2623.458509413115,1519
2625.2551311858597,1557
2627.0513763385347,1553
2628.8472451660223,1529
2630.6427379632833,1487
2632.4378550253564,1509
2634.232596647359,1482
2636.026963124488,1476
2637.8209547520187,1456
2639.6145718253065,1513
2641.407814639785,1428
2643.200683490966,1522
2644.9931786744414,1413
2646.7853004858807,1438
2648.577049221034,1394
2650.3684251757277,1377
2652.1594286458712,1415
2653.9500599274484,1378
2655.740319316525,1360
2657.5302071092437,1387
2659.3197236018286,1366
2661.10886909058,1388
2662.8976438718782,1348
2664.686048242183,1301
2666.4740824980327,1353
2668.2617469360443,1403
2670.0490418529134,1335
2671.8359675454153,1323
2673.622524310403,1310
2675.408712444811,1330
2677.1945322456495,1299
2678.979984010009,1323
2680.76506803506,1270
2682.5497846180497,1257
2684.334134056306,1284
2686.1181166472343,1221
2687.9017326883213,1225
2689.6849824771293,1241
2691.4678663113013,1301
2693.2503844885596,1318
2695.032537306705,1200
2696.8143250636167,1281
2698.5957480572542,1237
2700.3768065856534,1232
2702.1575009469316,1246
2703.937831439283,1185
2705.717798360982,1244
2707.4974020103837,1202
2709.276642685917,1250
2711.055520686095,1218
2712.834036309506,1227
2714.612189854819,1230
2716.389981620782,1219
2718.1674119062204,1206
2719.944481010041,1190
2721.721189231226,1193
2723.4975368688415,1239
2725.273524222027,1195
2727.0491515900053,1219
2728.824419272075,1187
2730.5993275676146,1170
2732.3738767760838,1237
2734.148067197016,1220
2735.921899130031,1161
2737.6953728748194,1243
2739.468488731156,1189
2741.2412469988926,1167
2743.0136479779617,1165
2744.785691968372,1132
2746.5573792702116,1157
2748.3287101836504,1150
2750.099685008934,1143
2751.870304046388,1179
2753.640567596418,1176
2755.4104759595057,1121
2757.1800294362156,1165
2758.949228327187,1148
2760.7180729331412,1167
2762.486563554877,1183
2764.254700493272,1212
2766.022484049284,1117
2767.789914523947,1147
2769.5569922183786,1166
2771.3237174337705,1172
2773.090090471394,1147
2774.8561116326036,1173
2776.6217812188274,1193
2778.3870995315756,1103
2780.1520668724356,1182
2781.9166835430747,1165
2783.6809498452394,1199
2785.444866080754,1198
2787.2084325515225,1240
2788.971649559527,1126
2790.73451740683,1216
2792.4970363955713,1112
2794.2592068279705,1141
2796.0210290063264,1195
2797.7825032330147,1140
2799.543629810493,1138
2801.304409041296,1188
2803.0648412280366,1180
2804.8249266734088,1158
2806.5846656801846,1145
2808.344058551212,1154
2810.1031055894246,1143
2811.8618070978273,1189
2813.6201633795085,1196
2815.378174737636,1135
2817.1358414754536,1147
2818.893163896285,1112
2820.6501423035334,1113
2822.4067770006814,1193
2824.1630682912883,1157
2825.9190164789957,1150
2827.6746218675207,1154
2829.429884760661,1169
2831.184805462294,1177
2832.9393842763743,1158
2834.693621506936,1176
2836.4475174580916,1193
2838.201072434034,1180
2839.954286739034,1164
2841.707160677441,1178
2843.459694553685,1158
2845.2118886722724,1187
2846.96374333779,1091
2848.7152588549034,1100
2850.4664355283567,1160
2852.217273662973,1151
2853.9677735636546,1128
2855.7179355353833,1147
2857.4677598832186,1162
2859.217246912299,1148
2860.9663969278427,1179
2862.715210235146,1145
2864.4636871395846,1132
2866.211827946614,1160
2867.9596329617652,1148
2869.7071024906536,1167
2871.4542368389684,1164
2873.20103631248,1174
2874.947501217038,1165
2876.6936318585695,1144
2878.4394285430812,1130
2880.1848915766604,1160
2881.9300212654707,1141
2883.6748179157553,1206
2885.4192818338374,1167
2887.1634133261173,1162
2888.907212699077,1177
2890.6506802592744,1155
2892.393816313348,1147
2894.1366211680142,1177
2895.8790951300693,1223
2897.621238506388,1160
2899.363051603925,1155
2901.1045347297118,1124
2902.8456881908596,1187
2904.58651229456,1125
2906.327007348081,1161
2908.067173658772,1204
2909.8070115340597,1196
2911.5465212814497,1112
2913.285703208527,1155
2915.0245576229563,1173
2916.7630848324807,1118
2918.5012851449196,1135
2920.2391588681758,1149
2921.976706310227,1169
2923.7139277791334,1179
2925.4508235830313,1170
2927.187394030137,1133
2928.923639428745,1193
2930.6595600872306,1154
2932.395156314046,1146
2934.1304284177218,1144
2935.8653767068713,1185
2937.6000014901815,1155
2939.3343030764227,1125
2941.068281774442,1175
2942.8019378931644,1127
2944.5352717415976,1169
2946.2682836288236,1137
2948.0009738640065,1214
2949.7333427563885,1179
2951.465390615289,1186
2953.1971177501086,1133
2954.9285244703265,1120
2956.6596110855,1174
2958.3903779052657,1172
2960.1208252393385,1205
2961.8509533975125,1185
2963.5807626896617,1152
2965.3102534257378,1169
2967.0394259157715,1197
2968.768280469873,1140
2970.496817398232,1143
2972.2250370111146,1119
2973.952939618869,1162
2975.6805255319196,1184
2977.4077950607707,1182
2979.134748516006,1153
2980.861386208289,1160
2982.587708448359,1186
2984.313715547037,1110
2986.039407815222,1204
2987.764785563891,1211
2989.489849104102,1138
2991.2145987469908,1137
2992.9390348037705,1104
2994.6631575857346,1151
2996.3869674042576,1196
2998.1104645707887,1141
2999.83364939686,1126
3001.5565221940783,1162
3003.2790832741334,1116
3005.0013329487924,1117
3006.7232715298996,1138
3008.4448993293804,1126
3010.166216659239,1134
3011.887223831558,1121
3013.607921158498,1140
3015.3283089522993,1102
3017.0483875252826,1111
3018.7681571898443,1127
3020.4876182584626,1161
3022.2067710436927,1147
3023.9256158581707,1094
3025.644153014609,1114
3027.362382825801,1134
3029.0803056046193,1110
3030.797921664012,1152
3032.5152313170106,1127
3034.2322348767225,1118
3035.9489326563353,1074
3037.665324969115,1159
3039.3814121284063,1118
3041.097194447633,1092
3042.812672240299,1085
3044.5278458199855,1156
3046.2427155003525,1141
3047.9572815951406,1088
3049.671544418167,1111
3051.38550428333,1154
3053.0991615046073,1148
3054.812516396051,1157
3056.5255692717974,1129
3058.2383204460575,1110
3059.9507702331257,1169
3061.662918947372,1105
3063.3747669032446,1163
3065.0863144152736,1114
3066.7975617980674,1127
3068.508509366309,1138
3070.219157434767,1171
3071.9295063182844,1163
3073.639556331785,1113
3075.3493077902704,1143
3077.058761008821,1165
3078.7679163025964,1128
3080.476773986837,1185
3082.1853343768594,1171
3083.89359778806,1063
3085.6015645359153,1121
3087.3092349359786,1162
3089.016609303884,1190
3090.7236879553434,1131
3092.4304712061476,1120
3094.136959372166,1143
3095.843152769349,1129
3097.5490517137237,1114
3099.2546565213966,1169
3100.959967508554,1194
3102.66498499146,1148
3104.3697092864577,1141
3106.0741407099695,1167
3107.778279578498,1143
3109.482126208622,1143
3111.1856809170004,1137
3112.8889440203716,1160
3114.5919158355528,1119
3116.294596679439,1116
3117.996986869006,1159
3119.6990867213062,1131
3121.4008965534726,1143
3123.102416682717,1207
3124.803647426329,1148
3126.5045891016784,1166
3128.205242026213,1131
3129.90560651746,1145
3131.605682893025,1154
3133.3054714705922,1186
3135.0049725679282,1120
3136.7041865028714,1134
3138.4031135933465,1153
3140.101754157353,1148
3141.800108512971,1143
3143.498176978357,1112
3145.1959598717494,1140
3146.8934575114636,1131
3148.5906702158954,1134
3150.2875983035183,1126
3151.9842420928853,1146
3153.680601902627,1124
3155.376678051456,1123
3157.07247085816,1126
3158.767980641609,1146
3160.463207720748,1111
3162.158152414606,1147
3163.8528150422862,1131
3165.5471959229726,1128
3167.2412953759303,1162
3168.9351137204976,1135
3170.628651276098,1157
3172.3219083622307,1133
3174.014885298474,1139
3175.707582404485,1130
3177.4000000000005,1123
3179.092138404835,1127
3180.7839979388846,1111
3182.47557892212,1116
3184.166881674594,1138
3185.8579065164386,1143
3187.5486537678626,1157
3189.2391237491547,1100
3190.9293167806827,1138
3192.6192331828934,1190
3194.3088732763117,1061
3195.998237381542,1132
3197.687325819268,1101
3199.376138910251,1091
3201.064676975334,1114
3202.7529403354347,1147
3204.4409293115523,1120
3206.1286442247647,1107
3207.816085396229,1130
3209.5032531471825,1097
3211.190147798936,1073
3212.8767696728846,1099
3214.5631190905015,1115
3216.2491963733373,1135
3217.9350018430214,1099
3219.6205358212637,1133
3221.305798629851,1090
3222.990790590651,1099
3224.6755120256103,1118
3226.359963256751,1088
3228.0441446061795,1083
3229.7280563960758,1172
3231.411698948703,1153
3233.0950725863995,1168
3234.778177631587,1073
3236.461014406761,1086
3238.1435832345005,1141
3239.8258844374595,1170
3241.507918338374,1177
3243.1896852600576,1147
3244.8711855254023,1112
3246.552419457381,1152
3248.233387379042,1101
3249.914089613516,1126
3251.59452648401,1123
3253.274698313813,1100
3254.95460542629,1125
3256.6342481448855,1137
3258.313626793125,1134
3259.9927416946084,1082
3261.6715931730196,1123
3263.3501815521176,1096
3265.0285071557437,1086
3266.706570307815,1065
3268.3843713323286,1182
3270.0619105533615,1082
3271.739188295068,1019
3273.4162048816834,1118
3275.0929606375184,1133
3276.769455886966,1123
3278.445690954498,1086
3280.1216661646613,1079
3281.797381842087,1135
3283.4728383114807,1099
3285.1480358976296,1121
3286.8229749253996,1150
3288.4976557197333,1096
3290.172078605655,1082
3291.846243908266,1110
3293.5201519527463,1100
3295.193803064357,1135
3296.8671975684374,1084
3298.5403357904024,1074
3300.21321805575,1075
3301.8858446900567,1174
3303.558216018975,1128
3305.23033236824,1125
3306.9021940636603,1093
3308.57380143113,1060
3310.2451547966184,1098
3311.916254486174,1075
3313.5871008259246,1128
3315.2576941420766,1102
3316.9280347609147,1113
3318.5981230088046,1114
3320.2679592121895,1108
3321.9375436975924,1090
3323.606876791612,1087
3325.27595882093,1097
3326.944790112305,1130
3328.6133709925753,1105
3330.2817017886573,1098
3331.949782827547,1118
3333.617614436319,1058
3335.2851969421245,1139
3336.952530672199,1086
3338.619615953853,1120
3340.286453114475,1153
3341.9530424815357,1091
3343.619384382583,1083
3345.2854791452437,1105
3346.951327097224,1049
3348.6169285663073,1086
3350.2822838803577,1154
3351.947393367319,1102
3353.61225735521,1126
3355.2768761721345,1129
3356.9412501462693,1142
3358.605379605873,1101
3360.2692648792827,1103
3361.9329062949146,1092
3363.596304181263,1103
