CollectionTime,7/9/2024 12:23:46 PM
ExposureUsed,3
CalibratedSpectrum
-962.7078968117929,512
-959.9714848408522,493
-957.2358232597828,483
-954.5009119013725,499
-951.7667505983302,506
-949.0333391832855,513
-946.3006774887896,522
-943.5687653473143,532
-940.837602591253,501
-938.1071890529199,510
-935.3775245645503,529
-932.6486089583007,490
-929.9204420662485,543
-927.1930237203925,528
-924.4663537526524,514
-921.7404319948689,556
-919.0152582788041,525
-916.2908324361409,518
-913.5671542984834,546
-910.8442236973568,497
-908.1220404642074,509
-905.4006044304027,503
-902.679915427231,526
-899.959973285902,516
-897.2407778375464,502
-894.5223289132158,494
-891.8046263438832,489
-889.0876699604426,492
-886.3714595937089,495
-883.6559950744183,516
-880.9412762332282,490
-878.2273029007168,529
-875.5140749073835,503
-872.8015920836489,505
-870.0898542598545,496
-867.3788612662631,530
-864.6686129330585,514
-861.9591090903457,514
-859.2503495681506,516
-856.5423341964203,503
-853.8350628050229,499
-851.1285352237478,529
-848.4227512823054,507
-845.7177108103272,496
-843.0134136373656,507
-840.3098595928943,529
-837.6070485063082,552
-834.9049802069229,505
-832.2036545239757,501
-829.5030712866244,540
-826.8032303239481,516
-824.1041314649472,540
-821.4057745385428,521
-818.7081593735775,522
-816.0112857988148,512
-813.3151536429393,545
-810.6197627345566,516
-807.9251129021936,525
-805.2312039742981,527
-802.5380357792392,515
-799.8456081453069,549
-797.1539209007124,523
-794.462973873588,504
-791.772766891987,537
-789.083299783884,534
-786.3945723771743,502
-783.7065844996748,564
-781.0193359791231,551
-778.3328266431781,533
-775.6470563194197,544
-772.9620248353489,525
-770.2777320183878,522
-767.5941776958798,559
-764.9113616950891,557
-762.2292838432011,555
-759.5479439673222,554
-756.8673418944801,498
-754.1874774516235,509
-751.5083504656222,545
-748.8299607632671,551
-746.15230817127,537
-743.475392516264,542
-740.7992136248035,535
-738.1237713233636,554
-735.4490654383407,539
-732.7750957960521,519
-730.1018622227365,533
-727.4293645445534,573
-724.7576025875837,564
-722.0865761778291,558
-719.4162851412126,555
-716.7467293035781,544
-714.0779084906909,539
-711.409822528237,556
-708.7424712418238,560
-706.0758544569796,560
-703.4099719991541,580
-700.7448236937178,571
-698.0804093659622,555
-695.4167288411002,557
-692.7537819442656,586
-690.0915685005134,613
-687.4300883348199,589
-684.7693412720819,569
-682.1093271371178,571
-679.4500457546669,575
-676.7914969493897,564
-674.1336805458676,598
-671.4765963686034,586
-668.8202442420206,580
-666.1646239904642,632
-663.5097354382001,588
-660.8555784094151,583
-658.2021527282176,593
-655.5494582186366,622
-652.8974947046223,562
-650.2462620100463,602
-647.5957599587009,598
-644.9459883742998,608
-642.2969470804776,594
-639.6486359007902,661
-637.0010546587141,599
-634.3542031776476,596
-631.7080812809096,609
-629.0626887917401,574
-626.4180255333008,602
-623.7740913286734,608
-621.1308860008619,616
-618.4884093727904,661
-615.8466612673046,633
-613.2056415071715,618
-610.5653499150785,630
-607.9257863136347,610
-605.28695052537,635
-602.6488423727357,626
-600.0114616781036,602
-597.3748082637674,604
-594.7388819519412,603
-592.1036825647604,634
-589.4692099242818,613
-586.8354638524829,617
-584.2024441712624,614
-581.5701507024403,658
-578.9385832677575,609
-576.3077416888759,660
-573.6776257873787,655
-571.0482353847704,634
-568.4195703024757,616
-565.7916303618415,669
-563.164415384135,635
-560.5379251905453,628
-557.9121596021815,638
-555.2871184400748,647
-552.6628015251767,648
-550.0392086783606,663
-547.4163397204204,609
-544.794194472071,633
-542.1727727539491,665
-539.5520743866118,695
-536.9320991905377,652
-534.3128469861261,678
-531.6943175936979,729
-529.0765108334947,696
-526.4594265256793,737
-523.8430644903358,808
-521.2274245474689,957
-518.612506517005,1014
-515.9983102187913,930
-513.3848354725959,951
-510.77208209810846,1004
-508.16004991493924,1104
-505.5487387426199,1221
-502.9381484006032,1247
-500.3282787082628,1261
-497.71912948489364,1196
-495.1107005497117,1105
-492.5029917218539,976
-489.8960028203786,915
-487.28973366426493,866
-484.68418407241325,820
-482.07935386364494,774
-479.47524285670266,780
-476.87185087025,760
-474.2691777228715,745
-471.66722323307334,788
-469.0659872192821,824
-466.4654694998459,817
-463.86566989303384,811
-461.26658821703614,811
-458.66822428996414,769
-456.07057792985,808
-453.4736489546475,797
-450.877437182231,782
-448.28194243039627,796
-445.68716451686,740
-443.09310325926003,757
-440.49975847515555,773
-437.9071299820263,774
-435.31521759727354,789
-432.72402113821954,808
-430.13354042210767,833
-427.5437752661022,833
-424.95472548728867,776
-422.36639090267386,828
-419.7787713291855,812
-417.1918665836721,862
-414.60567648290385,834
-412.0202008435715,841
-409.4354394822874,837
-406.8513922155845,838
-404.26805885991723,863
-401.685439231661,827
-399.103533147112,854
-396.522340422488,857
-393.9418608739278,881
-391.3620943174908,799
-388.7830405691583,822
-386.2046994448317,817
-383.6270707603344,753
-381.05015433141045,776
-378.473949973725,701
-375.8984575028645,658
-373.32367673433623,620
-370.74960748356875,608
-368.1762495659117,544
-365.60360279663576,532
-363.03166699093265,543
-360.4604419639154,497
-357.8899275306178,465
-355.32012350599507,470
-352.7510297049233,424
-350.1826459421999,455
-347.61497203254316,405
-345.04800779059235,437
-342.4817530309082,450
-339.91620756797226,439
-337.35137121618743,416
-334.7872437898774,402
-332.22382510328725,409
-329.66111497058273,420
-327.09911320585127,444
-324.53781962310075,470
-321.9772340362607,467
-319.4173562591816,423
-316.8581861056348,430
-314.2997233893127,413
-311.7419679238294,424
-309.1849195227194,416
-306.62857799943856,434
-304.0729431673641,466
-301.51801483979375,475
-298.963792829947,461
-296.41027695096386,482
-293.85746701590574,469
-291.3053628377552,460
-288.7539642294155,459
-286.2032710037115,465
-283.65328297338897,439
-281.1039999511146,481
-278.5554217494762,465
-276.007548180983,488
-273.4603790580651,478
-270.9139141930734,504
-268.3681533982807,494
-265.8230964858798,505
-263.27874326798565,509
-260.7350935566336,469
-258.1921471637804,509
-255.6499039013039,488
-253.10836358100266,500
-250.56752601459698,512
-248.02739101372765,485
-245.48795838995704,511
-242.94922795476816,526
-240.41119951956557,517
-237.8738728956746,514
-235.33724789434166,558
-232.80132432673452,519
-230.2661020039418,520
-227.73158073697357,528
-225.19776033676033,578
-222.66464061415422,617
-220.1322213799284,595
-217.60050244477725,574
-215.06948361931552,562
-212.53916471408013,545
-210.00954553952818,580
-207.48062590603843,530
-204.9524056239104,549
-202.4248845033651,605
-199.8980623545441,581
-197.37193898751036,572
-194.84651421224817,620
-192.32178783866232,665
-189.79775967657952,617
-187.27442953574644,599
-184.7517972258321,596
-182.2298625564256,628
-179.7086253370378,594
-177.18808537710026,580
-174.66824248596583,557
-172.14909647290835,616
-169.6306471471229,644
-167.11289431772548,652
-164.59583779375328,660
-162.07947738416453,686
-159.5638128978386,695
-157.04884414357605,699
-154.53457093009854,701
-152.02099306604828,685
-149.50811035998936,672
-146.99592262040665,637
-144.48442965570587,641
-141.97363127421409,703
-139.46352728417958,771
-136.95411749377126,831
-134.44540171107985,836
-131.93737974411636,763
-129.43005140081357,674
-126.92341648902493,769
-124.41747481652521,919
-121.91222619101006,1099
-119.40767042009657,1333
-116.90380731132257,1541
-114.40063667214702,1572
-111.8981583099503,1628
-109.3963720320337,1544
-106.89527764561933,1447
-104.39487495785067,1246
-101.89516377579241,1441
-99.39614390642998,1988
-96.89781515667039,2664
-94.40017733334128,3067
-91.90323024319173,2990
-89.40697369289148,2793
-86.91140748903172,2713
-84.41653143812482,2840
-81.92234534660395,2549
-79.42884902082358,2133
-76.93604226705907,1947
-74.4439248915071,2546
-71.95249670028534,3617
-69.46175749943245,4616
-66.97170709490854,5022
-64.48234529259423,5819
-61.99367189829195,6063
-59.50568671772464,5761
-57.01838955653636,5302
-54.53178022029283,6361
-52.045858514480074,8198
-49.560624244506016,9884
-47.07607721569923,11532
-44.59221723330904,11540
-42.10904410250669,11022
-39.62655762838392,9231
-37.14475761595372,6916
-34.66364387015028,5727
-32.18321619582866,4780
-29.70347439776515,4790
-27.224418280657005,5664
-24.74604764912317,6165
-22.26836230770266,8517
-19.7913620608565,14121
-17.315046712966478,23010
-14.83941606833514,32190
-12.36446993118659,44206
-9.89020810566592,65041
-7.416630395839093,65041
-4.94373660569363,65041
-2.471526539137585,65041
-6.821210263296962E-13,65041
2.47084320796705,65041
4.941003281093458,65041
7.410480415786196,65041
9.879274808531363,65041
12.347386655893956,65041
14.814816154518212,65041
17.28156350112681,65041
19.74762889252179,65041
22.21301252558385,65041
24.67771459727237,19909
27.141735304626195,3157
29.605074844762612,1757
32.06773341487792,1452
34.52971121224755,1209
36.99100843422559,1353
39.45162527824516,1252
41.91156194181792,1179
44.370818622535126,1167
46.82939551806646,1128
49.287292826160524,1095
51.74451074464503,1048
54.201049471426245,978
56.65690920448981,956
59.112090141899785,909
61.56659248179983,882
64.02041642241159,830
66.4735621620365,812
68.92602989905402,816
71.37781983192338,841
73.82893215918205,800
76.27936707944684,921
78.72912479141326,953
81.17820549385567,938
83.62660938562783,929
86.07433666566146,878
88.5213875329681,746
90.96776218663751,735
93.41346082583925,775
95.85848364982041,760
98.30283085790859,776
100.7465026495089,843
103.18949922410604,803
105.63182078126385,826
108.07346752062438,837
110.51443964190923,802
112.95473734491827,757
115.39436082953114,718
117.83331029570547,702
120.27158594347827,775
122.7091879729652,741
125.1461165843615,704
127.58237197794062,718
130.01795435405518,715
132.4528639131364,780
134.88710085569494,759
137.32066538231982,733
139.75355769367923,693
142.1857779905207,678
144.61732647366978,670
147.04820334403132,673
149.47840880258934,710
151.90794305040674,746
154.33680628862487,831
156.76499871846443,982
159.19252054122433,1134
161.61937195828352,1209
164.04555317109896,1331
166.47106438120693,1475
168.89590579022217,1582
171.320077599839,1662
173.7435800118302,1730
176.16641322804742,1792
178.58857745042144,1829
181.01007288096173,1933
183.43089972175687,1949
185.85105817497413,1908
188.27054844285988,1924
190.6893707277394,1921
193.10752523201643,1979
195.5250121581745,2050
197.9418317087751,2184
200.3579840864594,2144
202.7734694939469,2124
205.18828813403627,2205
207.6024402096051,2169
210.01592592360964,2189
212.42874547908548,2217
214.84089907914665,2239
217.2523869269868,2278
219.66320922587727,2306
222.0733661791695,2308
224.48285799029293,2272
226.8916848627572,2289
229.29984700014882,2324
231.7073446061355,2389
234.11417788446204,2381
236.520347038953,2348
238.92585227351185,2405
241.33069379212054,2577
243.73487179884035,2489
246.1383864978112,2528
248.541238093252,2546
250.9434267894609,2595
253.34495279081432,2646
255.74581630176783,2640
258.1460175268563,2619
260.54555667069314,2629
262.9444339379703,2756
265.3426495334594,2627
267.7402036620107,2545
270.1370965285529,2439
272.53332833809407,2384
274.9288992957214,2329
277.32380960660055,2305
279.718059475976,2189
282.1116491091717,2318
284.5045787115897,2262
286.89684848871195,2176
289.2884586460981,2221
291.67940938938807,2212
294.0697009242996,2231
296.4593334566299,2252
298.84830719225477,2235
301.23662233712923,2336
303.6242790972866,2189
306.01127767884,2126
308.39761828798066,2085
310.78330113097934,2090
313.16832641418534,2054
315.5526943440269,2056
317.9364051270112,2031
320.3194589697242,1966
322.70185607883093,2052
325.0835966610754,2051
327.4646809232805,1986
329.8451090723478,1921
332.2248813152577,1965
334.6039978590701,1987
336.9824589109231,1898
339.36026467803447,1907
341.7374153677,1895
344.113911187295,1867
346.48975234427337,1874
348.8649390461686,1911
351.2394715005918,1898
353.61334991523415,1843
355.9865744978655,1866
358.35914545633375,1864
360.73106299856715,1853
363.10232733257146,1887
365.47293866643247,1768
367.84289720831396,1861
370.2122031664593,1802
372.5808567491905,1759
374.9488581649083,1782
377.31620762209275,1777
379.6829053293021,1860
382.0489514951745,1787
384.4143463284262,1762
386.7790900378528,1797
389.14318283232853,1774
391.50662492080653,1781
393.86941651231916,1801
396.23155781597745,1722
398.5930490409713,1776
400.9538903965696,1842
403.3140820921202,1723
405.6736243370498,1785
408.03251734086336,1822
410.3907613131465,1762
412.74835646356166,1733
415.10530300185144,1726
417.4616011378372,1785
419.81725108141893,1713
422.1722530425758,1711
424.5266072313656,1729
426.880313857925,1701
429.2333731324701,1768
431.58578526529516,1778
433.9375504667738,1737
436.2886689473588,1678
438.63914091758113,1749
440.9889665880513,1690
443.33814616945835,1723
445.68667987257015,1751
448.03456790823395,1756
450.3818104873759,1665
452.72840782100013,1784
455.07436012019105,1656
457.41966759611057,1633
459.7643304600007,1715
462.10834892318155,1621
464.4517231970525,1651
466.79445349309174,1706
469.1365400228566,1673
471.4779829979826,1692
473.81878263018564,1679
476.15893913125876,1724
478.4984527130747,1718
480.8373235875855,1787
483.17555196682144,1793
485.5131380628919,1799
487.8500820879857,1819
490.1863842543697,1966
492.52204477439034,2039
494.8570638604725,2065
497.1914417251204,2322
499.52517858091653,2475
501.85827464052306,2778
504.19073011668036,2852
506.5225452222086,2999
508.85372017000566,3018
511.18425517304956,2897
513.514150444396,3013
515.8434061971808,3521
518.1720226446176,4365
520.4999999999999,4719
522.8273384766991,4433
525.1540382881666,3970
527.480099647932,3447
529.8055227696037,2789
532.1303078668694,2256
534.454455153496,1995
536.777964843328,1853
539.1008371502907,1803
541.4230722883866,1815
543.744670471698,1717
546.0656319143858,1700
548.3859568306899,1730
550.7056454349294,1686
553.0246979415016,1672
555.3431145648834,1680
557.6608955196306,1654
559.978041020377,1670
562.2945512818363,1651
564.6104265188006,1659
566.9256669461412,1734
569.2402727788082,1679
571.5542442318302,1727
573.8675815203156,1735
576.1802848594508,1664
578.4923544645015,1701
580.8037905508126,1722
583.114593333807,1732
585.4247630289875,1706
587.7342998519354,1593
590.0432040183106,1766
592.3514757438526,1718
594.6591152443794,1726
596.9661227357875,1667
599.2724984340531,1755
601.578242555231,1727
603.8833553154542,1724
606.1878369309362,1645
608.4916876179676,1681
610.7949075929192,1645
613.0974970722403,1771
615.3994562724587,1753
617.7007854101818,1745
620.0014847020951,1803
622.3015543649641,1728
624.6009946156324,1713
626.8998056710224,1782
629.1979877481361,1776
631.4955410640538,1800
633.7924658359349,1798
636.0887622810175,1740
638.3844306166192,1758
640.6794710601358,1744
642.9738838290426,1782
645.2676691408932,1767
647.5608272133207,1709
649.853358264037,1764
652.1452625108324,1753
654.4365401715764,1759
656.7271914642178,1824
659.0172166067838,1782
661.3066158173809,1783
663.5953893141935,1817
665.8835373154867,1802
668.1710600396028,1835
670.4579577049639,1825
672.7442305300709,1852
675.0298787335033,1750
677.3149025339197,1804
679.599302150058,1773
681.8830778007342,1801
684.1662297048437,1833
686.4487580813608,1751
688.7306631493387,1769
691.0119451279091,1772
693.2926042362834,1752
695.5726406937516,1820
697.8520547196814,1822
700.1308465335215,1749
702.4090163547982,1837
704.6865644031171,1809
706.9634908981619,1836
709.2397960596965,1768
711.5154801075631,1798
713.7905432616823,1714
716.0649857420548,1775
718.3388077687592,1759
720.612009561953,1753
722.8845913418733,1745
725.1565533288352,1721
727.427895743234,1800
729.6986188055427,1723
731.9687227363137,1752
734.238207756178,1760
736.5070740858458,1758
738.7753219461066,1719
741.0429515578281,1784
743.3099631419569,1754
745.5763569195191,1748
747.8421331116193,1812
750.1072919394409,1774
752.3718336242467,1839
754.6357583873777,1790
756.8990664502545,1798
759.1617580343765,1779
761.423833361321,1752
763.6852926527457,1778
765.9461361303862,1832
768.206364016058,1763
770.4659765316536,1826
772.7249738991469,1812
774.9833563405886,1819
777.2411240781092,1728
779.4982773339183,1828
781.7548163303044,1757
784.010741289634,1804
786.2660524343538,1844
788.5207499869881,1805
790.7748341701416,1810
793.0283052064964,1847
795.2811633188143,1894
797.5334087299362,1819
799.7850416627813,1776
802.0360623403484,1865
804.2864709857143,1858
806.5362678220353,1922
808.7854530725468,1863
811.0340269605625,1834
813.2819897094754,1805
815.5293415427581,1842
817.77608268396,1883
820.0222133567116,1792
822.2677337847211,1852
824.5126441917765,1893
826.7569448017433,1962
829.0006358385675,1924
831.2437175262731,1831
833.4861900889629,1840
835.7280537508192,1807
837.9693087361026,1885
840.2099552691533,1855
842.4499935743896,1837
844.689423876309,1813
846.9282463994886,1790
849.1664613685833,1824
851.4040690083276,1789
853.6410695435349,1768
855.877463199097,1779
858.1132501999847,1769
860.3484307712487,1846
862.5830051380175,1826
864.8169735254988,1775
867.0503361589791,1824
869.2830932638243,1803
871.5152450654786,1891
873.7467917894654,1853
875.9777336613873,1913
878.2080709069252,1872
880.4378037518389,1856
882.666932421968,1819
884.8954571432301,1961
887.1233781416219,1865
889.3506956432192,1885
891.5774098741766,1860
893.803521060728,1912
896.0290294291852,1874
898.2539352059397,1807
900.4782386174619,1884
902.7019398903011,1929
904.925039251085,1863
907.147536926521,1878
909.3694331433943,1810
911.59072812857,1875
913.8114221089921,1815
916.0315153116827,1833
918.2510079637437,1813
920.4699002923547,1827
922.6881925247761,1786
924.905884888345,1780
927.1229776104793,1818
929.3394709186747,1775
931.555365040506,1811
933.7706602036275,1819
935.9853566357709,1849
938.1994545647489,1863
940.4129542184515,1876
942.6258558248488,1815
944.8381596119883,1820
947.0498658079974,1817
949.2609746410825,1838
951.4714863395287,1813
953.6814011316998,1784
955.8907192460387,1731
958.0994409110671,1823
960.3075663553858,1837
962.5150958076741,1825
964.7220294966913,1829
966.928367651274,1785
969.1341105003388,1822
971.3392582728806,1777
973.5438111979742,1822
975.747769504772,1796
977.9511334225061,1750
980.153903180487,1764
982.3560790081052,1691
984.5576611348289,1800
986.7586497902058,1698
988.9590452038618,1689
991.158847605503,1699
993.3580572249133,1652
995.5566742919558,1688
997.7546990365728,1631
999.952131688785,1608
1002.1489724786926,1608
1004.3452216364743,1637
1006.5408793923874,1599
1008.7359459767691,1618
1010.9304216200343,1581
1013.1243065526781,1579
1015.3176010052733,1587
1017.510305208472,1518
1019.7024193930064,1527
1021.8939437896848,1539
1024.0848786293977,1557
1026.2752241431122,1545
1028.4649805618747,1565
1030.6541481168115,1536
1032.842727039127,1547
1035.0307175601051,1532
1037.2181199111074,1541
1039.4049343235752,1490
1041.591161029029,1495
1043.7768002590683,1442
1045.9618522453698,1515
1048.1463172196918,1473
1050.3301954138697,1463
1052.513487059818,1450
1054.69619238953,1462
1056.8783116350783,1483
1059.0598450286152,1536
1061.2407928023704,1502
1063.4211551886528,1502
1065.6009324198508,1483
1067.780124728432,1450
1069.9587323469414,1458
1072.1367555080046,1494
1074.314194444325,1455
1076.4910493886855,1446
1078.667320573947,1470
1080.843008233051,1405
1083.0181125990161,1445
1085.1926339049414,1402
1087.3665723840027,1434
1089.5399282694575,1395
1091.7127017946405,1410
1093.8848931929647,1424
1096.0565026979243,1364
1098.2275305430899,1417
1100.3979769621128,1403
1102.567842188722,1403
1104.737126456726,1431
1106.9058300000124,1441
1109.0739530525475,1370
1111.2414958483764,1386
1113.4084586216231,1375
1115.5748416064907,1379
1117.7406450372605,1378
1119.9058691482942,1383
1122.0705141740304,1392
1124.2345803489884,1405
1126.3980679077658,1347
1128.5609770850388,1418
1130.7233081155623,1378
1132.8850612341707,1409
1135.0462366757774,1391
1137.2068346753745,1343
1139.3668554680326,1313
1141.526299288901,1379
1143.68516637321,1381
1145.8434569562655,1339
1148.001171273455,1379
1150.158309560244,1409
1152.3148720521767,1339
1154.470858984876,1392
1156.626270594044,1361
1158.7811071154629,1308
1160.9353687849912,1371
1163.089055838569,1410
1165.242168512213,1385
1167.3947070420209,1365
1169.5466716641677,1353
1171.6980626149075,1379
1173.8488801305748,1340
1175.9991244475814,1369
1178.1487958024186,1357
1180.2978944316555,1356
1182.4464205719428,1344
1184.5943744600072,1308
1186.7417563326567,1331
1188.8885664267755,1326
1191.0348049793297,1378
1193.1804722273619,1351
1195.325568407995,1367
1197.4700937584303,1381
1199.614048515948,1352
1201.7574329179074,1389
1203.900247201746,1324
1206.042491604982,1397
1208.1841663652099,1344
1210.3252717201053,1371
1212.465807907422,1365
1214.6057751649923,1370
1216.7451737307279,1363
1218.8840038426192,1403
1221.0222657387353,1359
1223.1599596572241,1380
1225.2970858363137,1420
1227.4336445143094,1336
1229.5696359295966,1400
1231.705060320639,1414
1233.8399179259786,1372
1235.9742089842384,1398
1238.107933734118,1426
1240.2410924143974,1381
1242.373685263935,1414
1244.5057125216676,1415
1246.6371744266116,1401
1248.7680712178621,1355
1250.898403134593,1430
1253.028170416058,1361
1255.1573733015875,1369
1257.2860120305932,1409
1259.4140868425648,1461
1261.54159797707,1449
1263.6685456737569,1455
1265.7949301723515,1417
1267.9207517126597,1437
1270.046010534565,1501
1272.1707068780306,1401
1274.2948409830983,1484
1276.4184130898889,1462
1278.541423438603,1469
1280.6638722695184,1464
1282.785759822993,1399
1284.9070863394636,1484
1287.0278520594447,1437
1289.1480572235314,1554
1291.2677020723963,1513
1293.3867868467923,1514
1295.5053117875495,1486
1297.623277135579,1568
1299.740683131868,1548
1301.8575300174857,1506
1303.973818033578,1541
1306.0895474213703,1604
1308.2047184221678,1572
1310.3193312773528,1572
1312.4333862283888,1577
1314.5468835168163,1569
1316.659823384255,1567
1318.7722060724045,1549
1320.8840318230418,1588
1322.9953008780249,1600
1325.1060134792888,1627
1327.2161698688478,1560
1329.3257702887959,1579
1331.4348149813054,1548
1333.5433041886276,1585
1335.6512381530933,1592
1337.7586171171101,1611
1339.8654413231675,1566
1341.9717110138317,1568
1344.0774264317488,1576
1346.1825878196432,1612
1348.2871954203192,1539
1350.3912494766587,1562
1352.4947502316231,1579
1354.5976979282532,1530
1356.7000928096686,1564
1358.8019351190665,1552
1360.9032250997243,1562
1363.0039629949988,1555
1365.1041490483235,1507
1367.2037835032133,1514
1369.3028666032606,1532
1371.401398592137,1591
1373.4993797135926,1540
1375.5968102114575,1548
1377.6936903296396,1563
1379.7900203121262,1560
1381.8858004029835,1578
1383.9810308463561,1541
1386.075711886469,1543
1388.1698437676241,1553
1390.2634267342032,1554
1392.356461030667,1525
1394.4489469015557,1556
1396.5408845914872,1528
1398.6322743451592,1552
1400.7231164073469,1549
1402.813411022907,1565
1404.903158436773,1609
1406.9923588939578,1602
1409.0810126395531,1639
1411.1691199187303,1561
1413.2566809767386,1553
1415.343696058907,1634
1417.4301654106425,1615
1419.5160892774315,1652
1421.6014679048399,1646
1423.6863015385125,1679
1425.7705904241707,1644
1427.8543348076178,1675
1429.9375349347342,1658
1432.0201910514802,1719
1434.102303403894,1670
1436.1838722380944,1708
1438.2648978002767,1719
1440.3453803367174,1713
1442.4253200937692,1728
1444.5047173178677,1718
1446.5835722555234,1762
1448.6618851533285,1850
1450.739656257952,1845
1452.8168858161434,1855
1454.8935740747306,1925
1456.96972128062,1884
1459.045327680797,1894
1461.120393522327,1964
1463.1949190523528,2014
1465.2689045180973,1993
1467.3423501668608,2051
1469.415256246024,2032
1471.4876230030463,2056
1473.559450685465,2052
1475.6307395408976,2151
1477.7014898170391,2110
1479.771701761665,2142
1481.8413756226287,2234
1483.9105116478618,2158
1485.9791100853772,2246
1488.0471711832643,2222
1490.1146951896926,2312
1492.1816823529098,2398
1494.2481329212433,2336
1496.3140471430984,2366
1498.3794252669609,2345
1500.4442675413939,2393
1502.5085742150404,2385
1504.572345536622,2449
1506.6355817549388,2439
1508.6982831188702,2384
1510.7604498773744,2483
1512.8220822794883,2506
1514.8831805743293,2412
1516.9437450110909,2567
1519.003775839048,2447
1521.0632733075522,2490
1523.1222376660367,2506
1525.1806691640113,2607
1527.2385680510652,2469
1529.2959345768668,2618
1531.3527689911643,2571
1533.4090715437833,2645
1535.4648424846291,2622
1537.5200820636855,2644
1539.5747905310159,2745
1541.6289681367616,2699
1543.6826151311434,2790
1545.7357317644614,2727
1547.7883182870937,2783
1549.8403749494987,2779
1551.8919020022113,2800
1553.9428996958477,2856
1555.9933682811015,3004
1558.0433080087469,2960
1560.0927191296346,3112
1562.1416018946961,3105
1564.1899565549415,3065
1566.2377833614592,3084
1568.2850825654164,3122
1570.3318544180606,2937
1572.3780991707158,2973
1574.423817074788,3007
1576.4690083817595,2924
1578.5136733431923,2779
1580.5578122107272,2629
1582.601425236085,2568
1584.6445126710646,2557
1586.6870747675434,2426
1588.7291117774776,2268
1590.7706239529034,2186
1592.8116115459347,2180
1594.8520748087658,2160
1596.8920139936686,2100
1598.9314293529933,2084
1600.9703211391711,1979
1603.008689604711,1908
1605.0465350022005,1910
1607.0838575843068,1833
1609.1206576037753,1820
1611.1569353134305,1752
1613.1926909661765,1706
1615.2279248149953,1764
1617.2626371129481,1683
1619.2968281131757,1632
1621.3304980688963,1670
1623.3636472334088,1617
1625.39627586009,1676
1627.428384202396,1546
1629.459972513861,1605
1631.4910410480993,1556
1633.5215900588028,1555
1635.551619799744,1509
1637.5811305247717,1532
1639.6101224878166,1466
1641.6385959428862,1504
1643.6665511440683,1472
1645.693988345528,1510
1647.7209078015112,1481
1649.7473097663405,1469
1651.7731944944203,1420
1653.7985622402307,1465
1655.823413258333,1522
1657.847747803366,1517
1659.8715661300494,1442
1661.8948684931793,1442
1663.9176551476316,1478
1665.9399263483624,1400
1667.9616823504057,1502
1669.982923408873,1461
1672.0036497789574,1431
1674.0238617159293,1473
1676.043559475138,1418
1678.0627433120121,1464
1680.081413482059,1480
1682.0995702408654,1459
1684.117213844096,1474
1686.134344547495,1414
1688.1509626068864,1437
1690.1670682781705,1397
1692.182661817329,1408
1694.1977434804217,1407
1696.2123135235875,1409
1698.226372203043,1382
1700.2399197750851,1456
1702.2529564960905,1433
1704.2654826225112,1431
1706.277498410882,1454
1708.2890041178139,1409
1710.2999999999988,1417
1712.3104863142066,1432
1714.3204633172854,1428
1716.329931266163,1433
1718.3388904178469,1374
1720.3473410294214,1333
1722.3552833580516,1395
1724.3627176609807,1386
1726.3696441955308,1405
1728.3760632191033,1406
1730.3819749891782,1384
1732.3873797633146,1475
1734.3922777991502,1426
1736.3966693544012,1325
1738.4005546868639,1288
1740.4039340544127,1361
1742.406807715001,1368
1744.4091759266616,1391
1746.4110389475054,1384
1748.4123970357223,1381
1750.413250449582,1342
1752.4135994474318,1358
1754.4134442876993,1333
1756.4127852288902,1342
1758.4116225295893,1332
1760.4099564484595,1355
1762.407787244244,1355
1764.405115175764,1346
1766.4019405019203,1395
1768.3982634816916,1308
1770.3940843741357,1329
1772.3894034383907,1345
1774.3842209336717,1351
1776.378537119274,1334
1778.372352254571,1315
1780.3656665990156,1343
1782.3584804121397,1300
1784.3507939535534,1404
1786.3426074829463,1357
1788.3339212600863,1308
1790.3247355448211,1323
1792.3150505970766,1324
1794.3048666768573,1324
1796.2941840442477,1286
1798.2830029594106,1305
1800.2713236825884,1328
1802.2591464741004,1296
1804.2464715943465,1339
1806.2332993038058,1349
1808.2196298630352,1346
1810.2054635326708,1293
1812.190800573428,1307
1814.175641246101,1348
1816.1599858115628,1340
1818.1438345307652,1361
1820.127187664738,1334
1822.1100454745924,1343
1824.092408221516,1266
1826.0742761667766,1346
1828.055649571721,1327
1830.0365286977735,1304
1832.0169138064398,1262
1833.9968051593014,1282
1835.9762030180214,1268
1837.9551076443408,1260
1839.9335193000788,1338
1841.9114382471344,1312
1843.888864747485,1375
1845.8657990631878,1287
1847.842241456378,1282
1849.8181921892697,1289
1851.7936515241558,1314
1853.7686197234098,1321
1855.7430970494815,1350
1857.7170837649014,1330
1859.6905801322787,1339
1861.6635864143004,1284
1863.6361028737338,1293
1865.608129773424,1334
1867.5796673762961,1365
1869.5507159453537,1302
1871.521275743678,1335
1873.4913470344313,1331
1875.4609300808534,1296
1877.4300251462632,1300
1879.3986324940588,1312
1881.366752387717,1308
1883.3343850907936,1355
1885.3015308669228,1344
1887.268189979819,1358
1889.2343626932739,1353
1891.2000492711595,1359
1893.1652499774254,1306
1895.1299650761011,1341
1897.0941948312952,1395
1899.0579395071945,1392
1901.0211993680641,1404
1902.98397467825,1327
1904.9462657021745,1345
1906.9080727043415,1334
1908.869395949332,1366
1910.8302357018065,1387
1912.790592226504,1399
1914.7504657882428,1343
1916.7098566519212,1342
1918.6687650825133,1347
1920.6271913450764,1354
1922.5851357047422,1375
1924.5425984267245,1325
1926.499579776314,1314
1928.4560800188833,1353
1930.4120994198802,1351
1932.367638244833,1303
1934.32269675935,1338
1936.2772752291175,1355
1938.231373919899,1327
1940.1849930975404,1395
1942.1381330279637,1334
1944.0907939771696,1361
1946.0429762112412,1331
1947.9946799963363,1365
1949.9459055986945,1315
1951.896653284633,1298
1953.8469233205478,1315
1955.7967159729142,1298
1957.7460315082863,1366
1959.6948701932974,1336
1961.6432322946594,1301
1963.5911180791632,1329
1965.5385278136787,1284
1967.4854617651545,1324
1969.4319202006182,1350
1971.377903387176,1295
1973.3234115920136,1340
1975.268445082395,1283
1977.2130041256642,1336
1979.1570889892423,1323
1981.1006999406304,1292
1983.04383724741,1303
1984.986501177238,1331
1986.928691997853,1320
1988.8704099770712,1277
1990.811655382789,1298
1992.7524284829801,1270
1994.692729545698,1302
1996.6325588390755,1249
1998.5719166313224,1271
2000.5108031907307,1299
2002.4492187856677,1266
2004.387163684583,1272
2006.3246381560011,1269
2008.2616424685298,1267
2010.1981768908527,1225
2012.1342416917332,1286
2014.069837140014,1272
2016.0049635046162,1239
2017.9396210545406,1244
2019.8738100588666,1322
2021.8075307867502,1228
2023.740783507431,1289
2025.6735684902228,1250
2027.6058860045214,1260
2029.5377363198004,1253
2031.4691197056118,1240
2033.4000364315875,1237
2035.3304867674374,1234
2037.260470982952,1232
2039.189989347998,1322
2041.1190421325232,1254
2043.047629606554,1234
2044.9757520401945,1293
2046.9034097036288,1230
2048.8306028671195,1267
2050.7573318010086,1266
2052.683596775716,1254
2054.609398061742,1269
2056.5347359296647,1257
2058.4596106501403,1203
2060.384022493906,1267
2062.3079717317764,1314
2064.231458634646,1225
2066.1544834734873,1237
2068.077046519352,1255
2069.99914804337,1246
2071.9207883167524,1266
2073.8419676107865,1258
2075.7626861968406,1265
2077.6829443463607,1243
2079.6027423308715,1271
2081.522080421977,1241
2083.440958891362,1240
2085.359378010786,1234
2087.2773380520907,1254
2089.194839287196,1223
2091.111881988101,1236
2093.0284664268825,1213
2094.9445928756973,1213
2096.86026160678,1247
2098.775472892446,1230
2100.690227005088,1246
2102.604524217178,1277
2104.5183648012676,1269
2106.431749029985,1281
2108.34467717604,1283
2110.2571495122206,1229
2112.169166311393,1224
2114.080727846503,1252
2115.9918343905747,1239
2117.902486216711,1252
2119.8126835980956,1280
2121.722426807987,1237
2123.6317161197285,1228
2125.5405518067364,1260
2127.448934142509,1251
2129.356863400624,1215
2131.264339854737,1277
2133.1713637785815,1274
2135.077935445972,1273
2136.9840551308002,1210
2138.889723107037,1282
2140.7949396487334,1257
2142.699705030018,1249
2144.6040195250994,1264
2146.507883408264,1259
2148.4112969538774,1241
2150.3142604363848,1242
2152.2167741303097,1240
2154.1188383102535,1286
2156.0204532508997,1273
2157.9216192270064,1233
2159.822336513414,1245
2161.7226053850413,1297
2163.622426116884,1304
2165.5217989840185,1276
2167.4207242616,1279
2169.319202224862,1278
2171.2172331491165,1286
2173.1148173097563,1261
2175.0119549822507,1300
2176.90864644215,1299
2178.8048919650823,1302
2180.7006918267534,1329
2182.596046302952,1205
2184.4909556695407,1279
2186.3854202024645,1326
2188.279440177746,1303
2190.173015871487,1301
2192.066147559868,1262
2193.958835519149,1268
2195.851080025667,1316
2197.7428813558417,1280
2199.6342397861667,1307
2201.5251555932186,1330
2203.415629053651,1332
2205.3056604441986,1234
2207.19525004167,1294
2209.084398122958,1308
2210.9731049650327,1313
2212.861370844941,1353
2214.749196039812,1348
2216.636580826851,1339
2218.523525483344,1382
2220.410030286655,1308
2222.296095514226,1338
2224.1817214435805,1315
2226.066908352319,1312
2227.951656518121,1340
2229.835966218746,1340
2231.71983773203,1370
2233.6032713358913,1356
2235.486267308324,1341
2237.3688259274036,1293
2239.2509474712824,1355
2241.132632218193,1393
2243.013880446447,1291
2244.8946924344323,1293
2246.7750684606203,1270
2248.6550088035574,1289
2250.534513741871,1298
2252.413583554265,1315
2254.292218519526,1313
2256.170418916517,1334
2258.0481850241786,1326
2259.925517121534,1287
2261.8024154876825,1300
2263.678880401803,1314
2265.5549121431536,1318
2267.430510991071,1378
2269.305677224971,1312
2271.180411124348,1269
2273.0547129687766,1300
2274.9285830379076,1276
2276.8020216114737,1336
2278.6750289692845,1334
2280.5476053912294,1299
2282.4197511572766,1328
2284.2914665474727,1339
2286.162751841943,1365
2288.0336073208937,1300
2289.904033264608,1362
2291.774029953448,1354
2293.6435976678554,1267
2295.5127366883517,1287
2297.381447295534,1301
2299.2497297700825,1296
2301.1175843927526,1250
2302.9850114443825,1241
2304.852011205885,1257
2306.7185839582553,1222
2308.5847299825664,1189
2310.4504495599676,1159
2312.3157429716925,1183
2314.1806104990483,1196
2316.0450524234247,1251
2317.9090690262888,1181
2319.772660589186,1188
2321.635827393742,1167
2323.498569721661,1193
2325.3608878547248,1213
2327.2227820747967,1202
2329.0842526638157,1239
2330.945299903803,1172
2332.805924076857,1146
2334.6661254651535,1200
2336.525904350951,1169
2338.3852610165827,1219
2340.244195744464,1154
2342.102708817088,1168
2343.9608005170253,1174
2345.8184711269287,1225
2347.675720929526,1261
2349.532550207628,1173
2351.38895924412,1137
2353.24494832197,1175
2355.100517724223,1178
2356.955667734004,1214
2358.810398634514,1172
2360.664710709037,1184
2362.5186042409337,1191
2364.3720795136437,1200
2366.225136810686,1205
2368.0777764156583,1202
2369.929998612237,1188
2371.7818036841777,1191
2373.633191915315,1191
2375.484163589562,1147
2377.3347189909114,1213
2379.184858403434,1226
2381.03458211128,1246
2382.8838903986775,1170
2384.732783549936,1241
2386.5812618494406,1243
2388.4293255816588,1221
2390.2769750311327,1247
2392.1242104824883,1241
2393.971032220427,1146
2395.8174405297295,1235
2397.6634356952563,1175
2399.509018001947,1209
2401.3541877348193,1246
2403.1989451789705,1250
2405.043290619576,1198
2406.8872243418905,1238
2408.730746631247,1212
2410.5738577730594,1203
2412.4165580528183,1218
2414.258847756095,1245
2416.100727168537,1207
2417.9421965758734,1278
2419.783256263912,1212
2421.623906518538,1181
2423.4641476257157,1214
2425.303979871491,1202
2427.143403541984,1319
2428.9824189233977,1236
2430.821026302012,1214
2432.6592259641866,1245
2434.497018196361,1284
2436.33440328505,1227
2438.171381516851,1252
2440.00795317844,1209
2441.844118556569,1290
2443.6798779380724,1266
2445.5152316098606,1242
2447.3501798589255,1197
2449.1847229723357,1244
2451.0188612372403,1255
2452.8525949408663,1248
2454.6859243705203,1206
2456.518849813587,1233
2458.3513715575314,1254
2460.183489889895,1274
2462.015205098301,1283
2463.8465174704493,1264
2465.67742729412,1230
2467.5079348571717,1251
2469.338040447542,1236
2471.1677443532476,1267
2472.9970468623833,1229
2474.825948263123,1261
2476.6544488437207,1274
2478.482548892508,1297
2480.310248697896,1296
2482.137548548374,1285
2483.9644487325118,1221
2485.790949538956,1270
2487.617051256433,1256
2489.44275417375,1263
2491.26805857979,1257
2493.0929647635157,1223
2494.917473013971,1296
2496.741583620276,1257
2498.5652968716304,1245
2500.3886130573137,1281
2502.2115324666834,1268
2504.0340553891765,1252
2505.856182114308,1287
2507.6779129316733,1287
2509.499248130945,1298
2511.3201880018764,1275
2513.140732834298,1255
2514.9608829181198,1315
2516.780638543331,1345
2518.6,1295
2520.418967578273,1301
2522.237541568376,1306
2524.0557222606144,1287
2525.8735099453706,1332
2527.6909049131086,1356
2529.507907454368,1321
2531.32451785977,1349
2533.140736420014,1363
2534.9565634258774,1308
2536.771999168218,1367
2538.5870439379714,1364
2540.4016980261526,1358
2542.2159617238544,1330
2544.02983532225,1389
2545.8433191125914,1435
2547.656413386209,1361
2549.4691184345115,1370
2551.2814345489874,1436
2553.093362021204,1458
2554.904901142808,1408
2556.716052205523,1459
2558.526815501153,1490
2560.3371913215824,1437
2562.147179958771,1443
2563.956781704761,1419
2565.7659968516705,1458
2567.5748256916986,1555
2569.3832685171224,1528
2571.1913256202984,1484
2572.9989972936614,1499
2574.806283829725,1522
2576.613185521084,1499
2578.4197026604074,1517
2580.2258355404483,1572
2582.031584454035,1527
2583.836949694077,1541
2585.6419315535613,1514
2587.4465303255533,1591
2589.2507463032002,1568
2591.0545797797245,1532
2592.8580310484303,1557
2594.6611004026995,1515
2596.463788135992,1494
2598.266094541849,1524
2600.0680199138874,1539
2601.869564545807,1565
2603.670728731383,1532
2605.4715127644704,1535
2607.2719169390048,1525
2609.071941548998,1580
2610.8715868885433,1522
2612.670853251811,1546
2614.469740933052,1577
2616.268250226594,1555
2618.0663814268455,1536
2619.864134828292,1496
2621.6615107255006,1456
2623.458509413115,1495
2625.2551311858597,1417
2627.0513763385347,1476
2628.8472451660223,1442
2630.6427379632833,1446
2632.4378550253564,1506
2634.232596647359,1443
2636.026963124488,1487
2637.8209547520187,1449
2639.6145718253065,1445
2641.407814639785,1360
2643.200683490966,1395
2644.9931786744414,1413
2646.7853004858807,1384
2648.577049221034,1410
2650.3684251757277,1367
2652.1594286458712,1343
2653.9500599274484,1377
2655.740319316525,1330
2657.5302071092437,1364
2659.3197236018286,1333
2661.10886909058,1327
2662.8976438718782,1314
2664.686048242183,1372
2666.4740824980327,1321
2668.2617469360443,1313
2670.0490418529134,1278
2671.8359675454153,1364
2673.622524310403,1299
2675.408712444811,1335
2677.1945322456495,1275
2678.979984010009,1237
2680.76506803506,1270
2682.5497846180497,1166
2684.334134056306,1246
2686.1181166472343,1224
2687.9017326883213,1270
2689.6849824771293,1216
2691.4678663113013,1245
2693.2503844885596,1229
2695.032537306705,1306
2696.8143250636167,1300
2698.5957480572542,1239
2700.3768065856534,1198
2702.1575009469316,1189
2703.937831439283,1241
2705.717798360982,1275
2707.4974020103837,1256
2709.276642685917,1196
2711.055520686095,1214
2712.834036309506,1274
2714.612189854819,1276
2716.389981620782,1200
2718.1674119062204,1211
2719.944481010041,1194
2721.721189231226,1174
2723.4975368688415,1185
2725.273524222027,1199
2727.0491515900053,1209
2728.824419272075,1213
2730.5993275676146,1186
2732.3738767760838,1229
2734.148067197016,1175
2735.921899130031,1166
2737.6953728748194,1202
2739.468488731156,1185
2741.2412469988926,1146
2743.0136479779617,1155
2744.785691968372,1181
2746.5573792702116,1172
2748.3287101836504,1185
2750.099685008934,1137
2751.870304046388,1151
2753.640567596418,1220
2755.4104759595057,1145
2757.1800294362156,1180
2758.949228327187,1164
2760.7180729331412,1170
2762.486563554877,1193
2764.254700493272,1195
2766.022484049284,1211
2767.789914523947,1159
2769.5569922183786,1168
2771.3237174337705,1192
2773.090090471394,1190
2774.8561116326036,1187
2776.6217812188274,1148
2778.3870995315756,1198
2780.1520668724356,1195
2781.9166835430747,1209
2783.6809498452394,1164
2785.444866080754,1181
2787.2084325515225,1163
2788.971649559527,1202
2790.73451740683,1174
2792.4970363955713,1188
2794.2592068279705,1180
2796.0210290063264,1150
2797.7825032330147,1178
2799.543629810493,1134
2801.304409041296,1155
2803.0648412280366,1205
2804.8249266734088,1224
2806.5846656801846,1187
2808.344058551212,1168
2810.1031055894246,1164
2811.8618070978273,1166
2813.6201633795085,1151
2815.378174737636,1165
2817.1358414754536,1131
2818.893163896285,1172
2820.6501423035334,1199
2822.4067770006814,1148
2824.1630682912883,1135
2825.9190164789957,1181
2827.6746218675207,1152
2829.429884760661,1149
2831.184805462294,1170
2832.9393842763743,1147
2834.693621506936,1181
2836.4475174580916,1205
2838.201072434034,1192
2839.954286739034,1171
2841.707160677441,1186
2843.459694553685,1165
2845.2118886722724,1120
2846.96374333779,1143
2848.7152588549034,1193
2850.4664355283567,1201
2852.217273662973,1149
2853.9677735636546,1132
2855.7179355353833,1141
2857.4677598832186,1162
2859.217246912299,1171
2860.9663969278427,1183
2862.715210235146,1177
2864.4636871395846,1157
2866.211827946614,1209
2867.9596329617652,1199
2869.7071024906536,1140
2871.4542368389684,1154
2873.20103631248,1194
2874.947501217038,1160
2876.6936318585695,1193
2878.4394285430812,1165
2880.1848915766604,1202
2881.9300212654707,1148
2883.6748179157553,1158
2885.4192818338374,1170
2887.1634133261173,1189
2888.907212699077,1173
2890.6506802592744,1164
2892.393816313348,1159
2894.1366211680142,1183
2895.8790951300693,1172
2897.621238506388,1139
2899.363051603925,1172
2901.1045347297118,1165
2902.8456881908596,1180
2904.58651229456,1157
2906.327007348081,1153
2908.067173658772,1157
2909.8070115340597,1102
2911.5465212814497,1174
2913.285703208527,1150
2915.0245576229563,1141
2916.7630848324807,1144
2918.5012851449196,1144
2920.2391588681758,1149
2921.976706310227,1123
2923.7139277791334,1172
2925.4508235830313,1125
2927.187394030137,1156
2928.923639428745,1174
2930.6595600872306,1147
2932.395156314046,1140
2934.1304284177218,1153
2935.8653767068713,1198
2937.6000014901815,1155
2939.3343030764227,1209
2941.068281774442,1222
2942.8019378931644,1155
2944.5352717415976,1186
2946.2682836288236,1149
2948.0009738640065,1186
2949.7333427563885,1190
2951.465390615289,1161
2953.1971177501086,1164
2954.9285244703265,1173
2956.6596110855,1206
2958.3903779052657,1136
2960.1208252393385,1154
2961.8509533975125,1161
2963.5807626896617,1141
2965.3102534257378,1152
2967.0394259157715,1155
2968.768280469873,1124
2970.496817398232,1151
2972.2250370111146,1122
2973.952939618869,1192
2975.6805255319196,1158
2977.4077950607707,1155
2979.134748516006,1193
2980.861386208289,1152
2982.587708448359,1192
2984.313715547037,1188
2986.039407815222,1229
2987.764785563891,1178
2989.489849104102,1126
2991.2145987469908,1176
2992.9390348037705,1163
2994.6631575857346,1165
2996.3869674042576,1143
2998.1104645707887,1163
2999.83364939686,1136
3001.5565221940783,1141
3003.2790832741334,1134
3005.0013329487924,1176
3006.7232715298996,1099
3008.4448993293804,1127
3010.166216659239,1083
3011.887223831558,1116
3013.607921158498,1128
3015.3283089522993,1068
3017.0483875252826,1162
3018.7681571898443,1156
3020.4876182584626,1151
3022.2067710436927,1137
3023.9256158581707,1121
3025.644153014609,1190
3027.362382825801,1120
3029.0803056046193,1176
3030.797921664012,1163
3032.5152313170106,1096
3034.2322348767225,1195
3035.9489326563353,1141
3037.665324969115,1167
3039.3814121284063,1183
3041.097194447633,1126
3042.812672240299,1145
3044.5278458199855,1196
3046.2427155003525,1175
3047.9572815951406,1106
3049.671544418167,1124
3051.38550428333,1129
3053.0991615046073,1104
3054.812516396051,1088
3056.5255692717974,1159
3058.2383204460575,1135
3059.9507702331257,1146
3061.662918947372,1121
3063.3747669032446,1200
3065.0863144152736,1127
3066.7975617980674,1156
3068.508509366309,1141
3070.219157434767,1124
3071.9295063182844,1181
3073.639556331785,1126
3075.3493077902704,1087
3077.058761008821,1135
3078.7679163025964,1136
3080.476773986837,1145
3082.1853343768594,1186
3083.89359778806,1130
3085.6015645359153,1136
3087.3092349359786,1129
3089.016609303884,1132
3090.7236879553434,1117
3092.4304712061476,1130
3094.136959372166,1160
3095.843152769349,1203
3097.5490517137237,1123
3099.2546565213966,1164
3100.959967508554,1173
3102.66498499146,1142
3104.3697092864577,1097
3106.0741407099695,1120
3107.778279578498,1112
3109.482126208622,1175
3111.1856809170004,1173
3112.8889440203716,1110
3114.5919158355528,1121
3116.294596679439,1168
3117.996986869006,1090
3119.6990867213062,1105
3121.4008965534726,1134
3123.102416682717,1178
3124.803647426329,1152
3126.5045891016784,1179
3128.205242026213,1177
3129.90560651746,1140
3131.605682893025,1156
3133.3054714705922,1147
3135.0049725679282,1180
3136.7041865028714,1125
3138.4031135933465,1118
3140.101754157353,1176
3141.800108512971,1175
3143.498176978357,1152
3145.1959598717494,1145
3146.8934575114636,1140
3148.5906702158954,1125
3150.2875983035183,1118
3151.9842420928853,1145
3153.680601902627,1140
3155.376678051456,1136
3157.07247085816,1129
3158.767980641609,1145
3160.463207720748,1127
3162.158152414606,1142
3163.8528150422862,1127
3165.5471959229726,1156
3167.2412953759303,1130
3168.9351137204976,1120
3170.628651276098,1134
3172.3219083622307,1094
3174.014885298474,1149
3175.707582404485,1120
3177.4000000000005,1135
3179.092138404835,1160
3180.7839979388846,1145
3182.47557892212,1163
3184.166881674594,1101
3185.8579065164386,1116
3187.5486537678626,1196
3189.2391237491547,1173
3190.9293167806827,1135
3192.6192331828934,1113
3194.3088732763117,1163
3195.998237381542,1175
3197.687325819268,1115
3199.376138910251,1116
3201.064676975334,1105
3202.7529403354347,1170
3204.4409293115523,1163
3206.1286442247647,1143
3207.816085396229,1110
3209.5032531471825,1099
3211.190147798936,1098
3212.8767696728846,1141
3214.5631190905015,1116
3216.2491963733373,1098
3217.9350018430214,1072
3219.6205358212637,1093
3221.305798629851,1135
3222.990790590651,1106
3224.6755120256103,1122
3226.359963256751,1103
3228.0441446061795,1079
3229.7280563960758,1162
3231.411698948703,1154
3233.0950725863995,1127
3234.778177631587,1070
3236.461014406761,1099
3238.1435832345005,1158
3239.8258844374595,1139
3241.507918338374,1184
3243.1896852600576,1114
3244.8711855254023,1125
3246.552419457381,1143
3248.233387379042,1145
3249.914089613516,1140
3251.59452648401,1128
3253.274698313813,1107
3254.95460542629,1118
3256.6342481448855,1150
3258.313626793125,1127
3259.9927416946084,1170
3261.6715931730196,1112
3263.3501815521176,1101
3265.0285071557437,1092
3266.706570307815,1075
3268.3843713323286,1118
3270.0619105533615,1121
3271.739188295068,1107
3273.4162048816834,1110
3275.0929606375184,1115
3276.769455886966,1134
3278.445690954498,1142
3280.1216661646613,1106
3281.797381842087,1126
3283.4728383114807,1127
3285.1480358976296,1101
3286.8229749253996,1145
3288.4976557197333,1134
3290.172078605655,1120
3291.846243908266,1130
3293.5201519527463,1119
3295.193803064357,1121
3296.8671975684374,1095
3298.5403357904024,1112
3300.21321805575,1090
3301.8858446900567,1142
3303.558216018975,1098
3305.23033236824,1124
3306.9021940636603,1084
3308.57380143113,1099
3310.2451547966184,1120
3311.916254486174,1097
3313.5871008259246,1166
3315.2576941420766,1124
3316.9280347609147,1141
3318.5981230088046,1118
3320.2679592121895,1114
3321.9375436975924,1151
3323.606876791612,1102
3325.27595882093,1153
3326.944790112305,1124
3328.6133709925753,1112
3330.2817017886573,1090
3331.949782827547,1134
3333.617614436319,1127
3335.2851969421245,1107
3336.952530672199,1091
3338.619615953853,1104
3340.286453114475,1113
3341.9530424815357,1072
3343.619384382583,1150
3345.2854791452437,1111
3346.951327097224,1112
3348.6169285663073,1103
3350.2822838803577,1149
3351.947393367319,1131
3353.61225735521,1159
3355.2768761721345,1110
3356.9412501462693,1128
3358.605379605873,1069
3360.2692648792827,1123
3361.9329062949146,1121
3363.596304181263,1100
