CollectionTime,7/9/2024 12:21:54 PM
ExposureUsed,3
CalibratedSpectrum
-962.7078968117929,463
-959.9714848408522,454
-957.2358232597828,472
-954.5009119013725,463
-951.7667505983302,491
-949.0333391832855,486
-946.3006774887896,494
-943.5687653473143,476
-940.837602591253,479
-938.1071890529199,479
-935.3775245645503,473
-932.6486089583007,484
-929.9204420662485,492
-927.1930237203925,498
-924.4663537526524,491
-921.7404319948689,485
-919.0152582788041,495
-916.2908324361409,527
-913.5671542984834,501
-910.8442236973568,495
-908.1220404642074,488
-905.4006044304027,516
-902.679915427231,482
-899.959973285902,496
-897.2407778375464,511
-894.5223289132158,489
-891.8046263438832,491
-889.0876699604426,473
-886.3714595937089,462
-883.6559950744183,457
-880.9412762332282,481
-878.2273029007168,449
-875.5140749073835,510
-872.8015920836489,461
-870.0898542598545,491
-867.3788612662631,467
-864.6686129330585,479
-861.9591090903457,488
-859.2503495681506,481
-856.5423341964203,467
-853.8350628050229,457
-851.1285352237478,498
-848.4227512823054,508
-845.7177108103272,474
-843.0134136373656,459
-840.3098595928943,493
-837.6070485063082,525
-834.9049802069229,515
-832.2036545239757,491
-829.5030712866244,495
-826.8032303239481,507
-824.1041314649472,487
-821.4057745385428,499
-818.7081593735775,495
-816.0112857988148,499
-813.3151536429393,478
-810.6197627345566,507
-807.9251129021936,536
-805.2312039742981,508
-802.5380357792392,491
-799.8456081453069,495
-797.1539209007124,521
-794.462973873588,520
-791.772766891987,551
-789.083299783884,527
-786.3945723771743,501
-783.7065844996748,487
-781.0193359791231,479
-778.3328266431781,528
-775.6470563194197,507
-772.9620248353489,477
-770.2777320183878,505
-767.5941776958798,507
-764.9113616950891,510
-762.2292838432011,504
-759.5479439673222,507
-756.8673418944801,497
-754.1874774516235,537
-751.5083504656222,500
-748.8299607632671,511
-746.15230817127,511
-743.475392516264,509
-740.7992136248035,518
-738.1237713233636,510
-735.4490654383407,514
-732.7750957960521,546
-730.1018622227365,524
-727.4293645445534,537
-724.7576025875837,526
-722.0865761778291,520
-719.4162851412126,530
-716.7467293035781,520
-714.0779084906909,535
-711.409822528237,528
-708.7424712418238,553
-706.0758544569796,542
-703.4099719991541,530
-700.7448236937178,530
-698.0804093659622,505
-695.4167288411002,546
-692.7537819442656,526
-690.0915685005134,529
-687.4300883348199,564
-684.7693412720819,530
-682.1093271371178,518
-679.4500457546669,515
-676.7914969493897,512
-674.1336805458676,560
-671.4765963686034,541
-668.8202442420206,554
-666.1646239904642,578
-663.5097354382001,567
-660.8555784094151,549
-658.2021527282176,531
-655.5494582186366,538
-652.8974947046223,567
-650.2462620100463,554
-647.5957599587009,555
-644.9459883742998,527
-642.2969470804776,590
-639.6486359007902,578
-637.0010546587141,578
-634.3542031776476,543
-631.7080812809096,567
-629.0626887917401,560
-626.4180255333008,559
-623.7740913286734,568
-621.1308860008619,565
-618.4884093727904,585
-615.8466612673046,607
-613.2056415071715,600
-610.5653499150785,587
-607.9257863136347,611
-605.28695052537,614
-602.6488423727357,623
-600.0114616781036,591
-597.3748082637674,596
-594.7388819519412,614
-592.1036825647604,614
-589.4692099242818,613
-586.8354638524829,608
-584.2024441712624,619
-581.5701507024403,600
-578.9385832677575,601
-576.3077416888759,602
-573.6776257873787,624
-571.0482353847704,631
-568.4195703024757,646
-565.7916303618415,594
-563.164415384135,599
-560.5379251905453,609
-557.9121596021815,601
-555.2871184400748,619
-552.6628015251767,622
-550.0392086783606,643
-547.4163397204204,644
-544.794194472071,624
-542.1727727539491,651
-539.5520743866118,654
-536.9320991905377,699
-534.3128469861261,709
-531.6943175936979,708
-529.0765108334947,718
-526.4594265256793,771
-523.8430644903358,872
-521.2274245474689,998
-518.612506517005,1056
-515.9983102187913,1043
-513.3848354725959,1207
-510.77208209810846,1254
-508.16004991493924,1508
-505.5487387426199,1697
-502.9381484006032,1677
-500.3282787082628,1666
-497.71912948489364,1438
-495.1107005497117,1317
-492.5029917218539,1155
-489.8960028203786,998
-487.28973366426493,866
-484.68418407241325,906
-482.07935386364494,779
-479.47524285670266,774
-476.87185087025,793
-474.2691777228715,815
-471.66722323307334,838
-469.0659872192821,748
-466.4654694998459,788
-463.86566989303384,802
-461.26658821703614,814
-458.66822428996414,726
-456.07057792985,781
-453.4736489546475,788
-450.877437182231,718
-448.28194243039627,748
-445.68716451686,719
-443.09310325926003,794
-440.49975847515555,770
-437.9071299820263,808
-435.31521759727354,781
-432.72402113821954,815
-430.13354042210767,832
-427.5437752661022,827
-424.95472548728867,810
-422.36639090267386,778
-419.7787713291855,861
-417.1918665836721,845
-414.60567648290385,882
-412.0202008435715,829
-409.4354394822874,825
-406.8513922155845,880
-404.26805885991723,880
-401.685439231661,855
-399.103533147112,869
-396.522340422488,848
-393.9418608739278,864
-391.3620943174908,843
-388.7830405691583,812
-386.2046994448317,782
-383.6270707603344,790
-381.05015433141045,782
-378.473949973725,757
-375.8984575028645,681
-373.32367673433623,646
-370.74960748356875,648
-368.1762495659117,617
-365.60360279663576,574
-363.03166699093265,551
-360.4604419639154,520
-357.8899275306178,496
-355.32012350599507,501
-352.7510297049233,482
-350.1826459421999,493
-347.61497203254316,484
-345.04800779059235,495
-342.4817530309082,470
-339.91620756797226,488
-337.35137121618743,545
-334.7872437898774,498
-332.22382510328725,530
-329.66111497058273,503
-327.09911320585127,507
-324.53781962310075,542
-321.9772340362607,532
-319.4173562591816,484
-316.8581861056348,508
-314.2997233893127,470
-311.7419679238294,468
-309.1849195227194,507
-306.62857799943856,506
-304.0729431673641,516
-301.51801483979375,523
-298.963792829947,498
-296.41027695096386,565
-293.85746701590574,547
-291.3053628377552,568
-288.7539642294155,597
-286.2032710037115,548
-283.65328297338897,539
-281.1039999511146,559
-278.5554217494762,578
-276.007548180983,554
-273.4603790580651,542
-270.9139141930734,542
-268.3681533982807,514
-265.8230964858798,537
-263.27874326798565,582
-260.7350935566336,570
-258.1921471637804,603
-255.6499039013039,595
-253.10836358100266,639
-250.56752601459698,609
-248.02739101372765,627
-245.48795838995704,663
-242.94922795476816,642
-240.41119951956557,614
-237.8738728956746,681
-235.33724789434166,759
-232.80132432673452,674
-230.2661020039418,646
-227.73158073697357,665
-225.19776033676033,738
-222.66464061415422,773
-220.1322213799284,739
-217.60050244477725,658
-215.06948361931552,661
-212.53916471408013,711
-210.00954553952818,764
-207.48062590603843,768
-204.9524056239104,696
-202.4248845033651,783
-199.8980623545441,773
-197.37193898751036,750
-194.84651421224817,769
-192.32178783866232,801
-189.79775967657952,854
-187.27442953574644,894
-184.7517972258321,858
-182.2298625564256,842
-179.7086253370378,787
-177.18808537710026,720
-174.66824248596583,730
-172.14909647290835,822
-169.6306471471229,942
-167.11289431772548,928
-164.59583779375328,944
-162.07947738416453,861
-159.5638128978386,956
-157.04884414357605,1082
-154.53457093009854,1201
-152.02099306604828,1251
-149.50811035998936,878
-146.99592262040665,807
-144.48442965570587,952
-141.97363127421409,998
-139.46352728417958,1232
-136.95411749377126,1373
-134.44540171107985,1254
-131.93737974411636,964
-129.43005140081357,911
-126.92341648902493,1332
-124.41747481652521,1738
-121.91222619101006,2314
-119.40767042009657,2895
-116.90380731132257,3190
-114.40063667214702,3342
-111.8981583099503,2838
-109.3963720320337,2146
-106.89527764561933,1718
-104.39487495785067,1795
-101.89516377579241,2637
-99.39614390642998,3922
-96.89781515667039,4711
-94.40017733334128,4534
-91.90323024319173,4441
-89.40697369289148,4866
-86.91140748903172,5874
-84.41653143812482,6333
-81.92234534660395,5177
-79.42884902082358,3869
-76.93604226705907,4755
-74.4439248915071,7666
-71.95249670028534,12611
-69.46175749943245,14740
-66.97170709490854,15076
-64.48234529259423,13637
-61.99367189829195,12120
-59.50568671772464,9280
-57.01838955653636,7404
-54.53178022029283,7377
-52.045858514480074,7375
-49.560624244506016,7791
-47.07607721569923,9661
-44.59221723330904,9753
-42.10904410250669,10035
-39.62655762838392,9271
-37.14475761595372,8166
-34.66364387015028,7362
-32.18321619582866,6114
-29.70347439776515,6082
-27.224418280657005,7421
-24.74604764912317,9102
-22.26836230770266,15672
-19.7913620608565,29081
-17.315046712966478,52463
-14.83941606833514,65038
-12.36446993118659,65038
-9.89020810566592,65038
-7.416630395839093,65038
-4.94373660569363,65038
-2.471526539137585,65038
-6.821210263296962E-13,65038
2.47084320796705,65038
4.941003281093458,65038
7.410480415786196,65038
9.879274808531363,65038
12.347386655893956,65038
14.814816154518212,65038
17.28156350112681,65038
19.74762889252179,65038
22.21301252558385,65038
24.67771459727237,20723
27.141735304626195,4302
29.605074844762612,2776
32.06773341487792,2038
34.52971121224755,1988
36.99100843422559,2173
39.45162527824516,2065
41.91156194181792,2043
44.370818622535126,1926
46.82939551806646,1469
49.287292826160524,1537
51.74451074464503,1728
54.201049471426245,1561
56.65690920448981,1430
59.112090141899785,1360
61.56659248179983,1226
64.02041642241159,1145
66.4735621620365,1058
68.92602989905402,1023
71.37781983192338,1055
73.82893215918205,1191
76.27936707944684,1292
78.72912479141326,1346
81.17820549385567,1363
83.62660938562783,1316
86.07433666566146,1256
88.5213875329681,1012
90.96776218663751,948
93.41346082583925,937
95.85848364982041,1060
98.30283085790859,1127
100.7465026495089,1298
103.18949922410604,1250
105.63182078126385,1116
108.07346752062438,1169
110.51443964190923,1058
112.95473734491827,1034
115.39436082953114,1057
117.83331029570547,1128
120.27158594347827,1065
122.7091879729652,1107
125.1461165843615,1094
127.58237197794062,1039
130.01795435405518,1037
132.4528639131364,969
134.88710085569494,947
137.32066538231982,874
139.75355769367923,793
142.1857779905207,827
144.61732647366978,913
147.04820334403132,935
149.47840880258934,945
151.90794305040674,958
154.33680628862487,1038
156.76499871846443,1134
159.19252054122433,1307
161.61937195828352,1413
164.04555317109896,1460
166.47106438120693,1649
168.89590579022217,1804
171.320077599839,1813
173.7435800118302,1814
176.16641322804742,1780
178.58857745042144,1837
181.01007288096173,2102
183.43089972175687,2015
185.85105817497413,2077
188.27054844285988,1960
190.6893707277394,2054
193.10752523201643,2088
195.5250121581745,2158
197.9418317087751,2138
200.3579840864594,2165
202.7734694939469,2171
205.18828813403627,2257
207.6024402096051,2289
210.01592592360964,2314
212.42874547908548,2311
214.84089907914665,2293
217.2523869269868,2322
219.66320922587727,2325
222.0733661791695,2278
224.48285799029293,2274
226.8916848627572,2255
229.29984700014882,2300
231.7073446061355,2328
234.11417788446204,2305
236.520347038953,2240
238.92585227351185,2397
241.33069379212054,2221
243.73487179884035,2264
246.1383864978112,2376
248.541238093252,2369
250.9434267894609,2292
253.34495279081432,2286
255.74581630176783,2261
258.1460175268563,2233
260.54555667069314,2276
262.9444339379703,2243
265.3426495334594,2340
267.7402036620107,2311
270.1370965285529,2327
272.53332833809407,2314
274.9288992957214,2332
277.32380960660055,2337
279.718059475976,2296
282.1116491091717,2365
284.5045787115897,2235
286.89684848871195,2269
289.2884586460981,2325
291.67940938938807,2280
294.0697009242996,2354
296.4593334566299,2424
298.84830719225477,2313
301.23662233712923,2295
303.6242790972866,2219
306.01127767884,2232
308.39761828798066,2283
310.78330113097934,2264
313.16832641418534,2227
315.5526943440269,2196
317.9364051270112,2139
320.3194589697242,2155
322.70185607883093,2162
325.0835966610754,2068
327.4646809232805,2041
329.8451090723478,2093
332.2248813152577,2070
334.6039978590701,2070
336.9824589109231,2019
339.36026467803447,2010
341.7374153677,2058
344.113911187295,2039
346.48975234427337,1970
348.8649390461686,2020
351.2394715005918,2007
353.61334991523415,2035
355.9865744978655,1947
358.35914545633375,1980
360.73106299856715,1993
363.10232733257146,1960
365.47293866643247,2002
367.84289720831396,1916
370.2122031664593,1846
372.5808567491905,1957
374.9488581649083,1946
377.31620762209275,1931
379.6829053293021,1903
382.0489514951745,1870
384.4143463284262,1896
386.7790900378528,1859
389.14318283232853,1919
391.50662492080653,1889
393.86941651231916,1818
396.23155781597745,1865
398.5930490409713,1948
400.9538903965696,1913
403.3140820921202,1818
405.6736243370498,1846
408.03251734086336,1863
410.3907613131465,1889
412.74835646356166,1823
415.10530300185144,1866
417.4616011378372,1834
419.81725108141893,1802
422.1722530425758,1812
424.5266072313656,1850
426.880313857925,1841
429.2333731324701,1782
431.58578526529516,1827
433.9375504667738,1841
436.2886689473588,1820
438.63914091758113,1798
440.9889665880513,1786
443.33814616945835,1754
445.68667987257015,1785
448.03456790823395,1819
450.3818104873759,1797
452.72840782100013,1755
455.07436012019105,1833
457.41966759611057,1786
459.7643304600007,1718
462.10834892318155,1731
464.4517231970525,1757
466.79445349309174,1761
469.1365400228566,1760
471.4779829979826,1763
473.81878263018564,1760
476.15893913125876,1837
478.4984527130747,1810
480.8373235875855,1909
483.17555196682144,1904
485.5131380628919,1982
487.8500820879857,2032
490.1863842543697,2164
492.52204477439034,2272
494.8570638604725,2454
497.1914417251204,2709
499.52517858091653,3021
501.85827464052306,3559
504.19073011668036,3885
506.5225452222086,4187
508.85372017000566,4165
511.18425517304956,4177
513.514150444396,4122
515.8434061971808,4497
518.1720226446176,5412
520.4999999999999,5562
522.8273384766991,5132
525.1540382881666,4528
527.480099647932,3960
529.8055227696037,3285
532.1303078668694,2605
534.454455153496,2232
536.777964843328,2060
539.1008371502907,2074
541.4230722883866,2001
543.744670471698,1909
546.0656319143858,1936
548.3859568306899,1968
550.7056454349294,1943
553.0246979415016,1834
555.3431145648834,1868
557.6608955196306,1819
559.978041020377,1833
562.2945512818363,1803
564.6104265188006,1926
566.9256669461412,1815
569.2402727788082,1849
571.5542442318302,1883
573.8675815203156,1912
576.1802848594508,1947
578.4923544645015,1900
580.8037905508126,1977
583.114593333807,1887
585.4247630289875,1883
587.7342998519354,1887
590.0432040183106,1815
592.3514757438526,1894
594.6591152443794,1881
596.9661227357875,1913
599.2724984340531,1929
601.578242555231,1932
603.8833553154542,2001
606.1878369309362,1906
608.4916876179676,1929
610.7949075929192,1904
613.0974970722403,1881
615.3994562724587,1863
617.7007854101818,1851
620.0014847020951,1866
622.3015543649641,1815
624.6009946156324,1919
626.8998056710224,1930
629.1979877481361,1885
631.4955410640538,1876
633.7924658359349,1889
636.0887622810175,1945
638.3844306166192,1856
640.6794710601358,1837
642.9738838290426,1814
645.2676691408932,1922
647.5608272133207,1852
649.853358264037,1860
652.1452625108324,1912
654.4365401715764,1895
656.7271914642178,1867
659.0172166067838,1901
661.3066158173809,1850
663.5953893141935,1887
665.8835373154867,1885
668.1710600396028,1852
670.4579577049639,1863
672.7442305300709,1881
675.0298787335033,1844
677.3149025339197,1920
679.599302150058,1897
681.8830778007342,1882
684.1662297048437,1830
686.4487580813608,1797
688.7306631493387,1903
691.0119451279091,1853
693.2926042362834,1827
695.5726406937516,1863
697.8520547196814,1890
700.1308465335215,1883
702.4090163547982,1863
704.6865644031171,1804
706.9634908981619,1794
709.2397960596965,1785
711.5154801075631,1942
713.7905432616823,1913
716.0649857420548,1830
718.3388077687592,1864
720.612009561953,1904
722.8845913418733,1836
725.1565533288352,1799
727.427895743234,1883
729.6986188055427,1810
731.9687227363137,1879
734.238207756178,1889
736.5070740858458,1898
738.7753219461066,1862
741.0429515578281,1865
743.3099631419569,1875
745.5763569195191,1971
747.8421331116193,1947
750.1072919394409,1970
752.3718336242467,1914
754.6357583873777,1895
756.8990664502545,1898
759.1617580343765,1901
761.423833361321,1868
763.6852926527457,1872
765.9461361303862,1959
768.206364016058,1939
770.4659765316536,1908
772.7249738991469,1881
774.9833563405886,1898
777.2411240781092,1884
779.4982773339183,1973
781.7548163303044,1948
784.010741289634,1984
786.2660524343538,2032
788.5207499869881,1947
790.7748341701416,1930
793.0283052064964,1978
795.2811633188143,1946
797.5334087299362,1942
799.7850416627813,1902
802.0360623403484,1944
804.2864709857143,1964
806.5362678220353,1957
808.7854530725468,2021
811.0340269605625,1901
813.2819897094754,1962
815.5293415427581,1836
817.77608268396,1985
820.0222133567116,1922
822.2677337847211,1866
824.5126441917765,1897
826.7569448017433,1933
829.0006358385675,1847
831.2437175262731,1923
833.4861900889629,1995
835.7280537508192,1930
837.9693087361026,1893
840.2099552691533,1916
842.4499935743896,1898
844.689423876309,1913
846.9282463994886,1808
849.1664613685833,1869
851.4040690083276,1923
853.6410695435349,1913
855.877463199097,1884
858.1132501999847,1957
860.3484307712487,1931
862.5830051380175,1945
864.8169735254988,1935
867.0503361589791,1940
869.2830932638243,1935
871.5152450654786,1992
873.7467917894654,2013
875.9777336613873,1930
878.2080709069252,1906
880.4378037518389,1878
882.666932421968,1899
884.8954571432301,1940
887.1233781416219,1973
889.3506956432192,2011
891.5774098741766,1891
893.803521060728,1979
896.0290294291852,1965
898.2539352059397,1938
900.4782386174619,1906
902.7019398903011,2020
904.925039251085,1965
907.147536926521,1976
909.3694331433943,2045
911.59072812857,2020
913.8114221089921,1941
916.0315153116827,1970
918.2510079637437,1949
920.4699002923547,1873
922.6881925247761,1980
924.905884888345,1960
927.1229776104793,1950
929.3394709186747,1934
931.555365040506,1991
933.7706602036275,1897
935.9853566357709,1942
938.1994545647489,1954
940.4129542184515,1979
942.6258558248488,1945
944.8381596119883,1938
947.0498658079974,1889
949.2609746410825,1964
951.4714863395287,1862
953.6814011316998,1945
955.8907192460387,1935
958.0994409110671,1935
960.3075663553858,1910
962.5150958076741,1920
964.7220294966913,1890
966.928367651274,1953
969.1341105003388,1858
971.3392582728806,1847
973.5438111979742,1849
975.747769504772,1809
977.9511334225061,1841
980.153903180487,1785
982.3560790081052,1776
984.5576611348289,1804
986.7586497902058,1750
988.9590452038618,1716
991.158847605503,1750
993.3580572249133,1718
995.5566742919558,1690
997.7546990365728,1703
999.952131688785,1642
1002.1489724786926,1613
1004.3452216364743,1635
1006.5408793923874,1569
1008.7359459767691,1612
1010.9304216200343,1541
1013.1243065526781,1520
1015.3176010052733,1587
1017.510305208472,1575
1019.7024193930064,1599
1021.8939437896848,1578
1024.0848786293977,1608
1026.2752241431122,1558
1028.4649805618747,1522
1030.6541481168115,1576
1032.842727039127,1510
1035.0307175601051,1533
1037.2181199111074,1530
1039.4049343235752,1529
1041.591161029029,1459
1043.7768002590683,1402
1045.9618522453698,1452
1048.1463172196918,1425
1050.3301954138697,1479
1052.513487059818,1556
1054.69619238953,1462
1056.8783116350783,1517
1059.0598450286152,1490
1061.2407928023704,1484
1063.4211551886528,1450
1065.6009324198508,1433
1067.780124728432,1487
1069.9587323469414,1502
1072.1367555080046,1511
1074.314194444325,1484
1076.4910493886855,1444
1078.667320573947,1429
1080.843008233051,1445
1083.0181125990161,1420
1085.1926339049414,1450
1087.3665723840027,1432
1089.5399282694575,1418
1091.7127017946405,1443
1093.8848931929647,1408
1096.0565026979243,1426
1098.2275305430899,1393
1100.3979769621128,1405
1102.567842188722,1418
1104.737126456726,1380
1106.9058300000124,1418
1109.0739530525475,1400
1111.2414958483764,1437
1113.4084586216231,1370
1115.5748416064907,1466
1117.7406450372605,1377
1119.9058691482942,1360
1122.0705141740304,1351
1124.2345803489884,1357
1126.3980679077658,1410
1128.5609770850388,1385
1130.7233081155623,1388
1132.8850612341707,1388
1135.0462366757774,1394
1137.2068346753745,1380
1139.3668554680326,1370
1141.526299288901,1399
1143.68516637321,1325
1145.8434569562655,1428
1148.001171273455,1350
1150.158309560244,1386
1152.3148720521767,1348
1154.470858984876,1331
1156.626270594044,1398
1158.7811071154629,1366
1160.9353687849912,1332
1163.089055838569,1369
1165.242168512213,1376
1167.3947070420209,1342
1169.5466716641677,1326
1171.6980626149075,1336
1173.8488801305748,1330
1175.9991244475814,1360
1178.1487958024186,1354
1180.2978944316555,1311
1182.4464205719428,1355
1184.5943744600072,1320
1186.7417563326567,1360
1188.8885664267755,1334
1191.0348049793297,1384
1193.1804722273619,1344
1195.325568407995,1342
1197.4700937584303,1308
1199.614048515948,1395
1201.7574329179074,1310
1203.900247201746,1330
1206.042491604982,1325
1208.1841663652099,1334
1210.3252717201053,1354
1212.465807907422,1330
1214.6057751649923,1314
1216.7451737307279,1335
1218.8840038426192,1329
1221.0222657387353,1333
1223.1599596572241,1354
1225.2970858363137,1388
1227.4336445143094,1311
1229.5696359295966,1353
1231.705060320639,1436
1233.8399179259786,1384
1235.9742089842384,1347
1238.107933734118,1401
1240.2410924143974,1396
1242.373685263935,1391
1244.5057125216676,1386
1246.6371744266116,1358
1248.7680712178621,1380
1250.898403134593,1384
1253.028170416058,1394
1255.1573733015875,1366
1257.2860120305932,1365
1259.4140868425648,1350
1261.54159797707,1368
1263.6685456737569,1358
1265.7949301723515,1385
1267.9207517126597,1377
1270.046010534565,1407
1272.1707068780306,1375
1274.2948409830983,1414
1276.4184130898889,1398
1278.541423438603,1404
1280.6638722695184,1445
1282.785759822993,1426
1284.9070863394636,1367
1287.0278520594447,1430
1289.1480572235314,1444
1291.2677020723963,1449
1293.3867868467923,1418
1295.5053117875495,1382
1297.623277135579,1445
1299.740683131868,1437
1301.8575300174857,1491
1303.973818033578,1433
1306.0895474213703,1459
1308.2047184221678,1461
1310.3193312773528,1437
1312.4333862283888,1433
1314.5468835168163,1480
1316.659823384255,1392
1318.7722060724045,1402
1320.8840318230418,1466
1322.9953008780249,1458
1325.1060134792888,1460
1327.2161698688478,1412
1329.3257702887959,1426
1331.4348149813054,1434
1333.5433041886276,1455
1335.6512381530933,1443
1337.7586171171101,1461
1339.8654413231675,1453
1341.9717110138317,1398
1344.0774264317488,1410
1346.1825878196432,1403
1348.2871954203192,1462
1350.3912494766587,1414
1352.4947502316231,1470
1354.5976979282532,1492
1356.7000928096686,1453
1358.8019351190665,1457
1360.9032250997243,1425
1363.0039629949988,1436
1365.1041490483235,1441
1367.2037835032133,1393
1369.3028666032606,1445
1371.401398592137,1433
1373.4993797135926,1439
1375.5968102114575,1422
1377.6936903296396,1489
1379.7900203121262,1400
1381.8858004029835,1456
1383.9810308463561,1410
1386.075711886469,1402
1388.1698437676241,1427
1390.2634267342032,1492
1392.356461030667,1449
1394.4489469015557,1436
1396.5408845914872,1440
1398.6322743451592,1426
1400.7231164073469,1428
1402.813411022907,1461
1404.903158436773,1431
1406.9923588939578,1420
1409.0810126395531,1452
1411.1691199187303,1492
1413.2566809767386,1458
1415.343696058907,1466
1417.4301654106425,1472
1419.5160892774315,1466
1421.6014679048399,1463
1423.6863015385125,1443
1425.7705904241707,1462
1427.8543348076178,1469
1429.9375349347342,1481
1432.0201910514802,1405
1434.102303403894,1466
1436.1838722380944,1425
1438.2648978002767,1467
1440.3453803367174,1476
1442.4253200937692,1451
1444.5047173178677,1458
1446.5835722555234,1499
1448.6618851533285,1535
1450.739656257952,1545
1452.8168858161434,1456
1454.8935740747306,1520
1456.96972128062,1538
1459.045327680797,1477
1461.120393522327,1514
1463.1949190523528,1559
1465.2689045180973,1536
1467.3423501668608,1539
1469.415256246024,1528
1471.4876230030463,1556
1473.559450685465,1529
1475.6307395408976,1565
1477.7014898170391,1522
1479.771701761665,1492
1481.8413756226287,1554
1483.9105116478618,1545
1485.9791100853772,1604
1488.0471711832643,1602
1490.1146951896926,1554
1492.1816823529098,1544
1494.2481329212433,1476
1496.3140471430984,1589
1498.3794252669609,1574
1500.4442675413939,1579
1502.5085742150404,1610
1504.572345536622,1590
1506.6355817549388,1587
1508.6982831188702,1595
1510.7604498773744,1564
1512.8220822794883,1570
1514.8831805743293,1605
1516.9437450110909,1584
1519.003775839048,1606
1521.0632733075522,1618
1523.1222376660367,1563
1525.1806691640113,1593
1527.2385680510652,1595
1529.2959345768668,1593
1531.3527689911643,1652
1533.4090715437833,1654
1535.4648424846291,1580
1537.5200820636855,1575
1539.5747905310159,1619
1541.6289681367616,1628
1543.6826151311434,1621
1545.7357317644614,1640
1547.7883182870937,1632
1549.8403749494987,1645
1551.8919020022113,1693
1553.9428996958477,1635
1555.9933682811015,1644
1558.0433080087469,1750
1560.0927191296346,1704
1562.1416018946961,1706
1564.1899565549415,1782
1566.2377833614592,1742
1568.2850825654164,1763
1570.3318544180606,1726
1572.3780991707158,1783
1574.423817074788,1825
1576.4690083817595,1835
1578.5136733431923,1812
1580.5578122107272,1768
1582.601425236085,1722
1584.6445126710646,1764
1586.6870747675434,1714
1588.7291117774776,1701
1590.7706239529034,1666
1592.8116115459347,1652
1594.8520748087658,1611
1596.8920139936686,1551
1598.9314293529933,1478
1600.9703211391711,1517
1603.008689604711,1514
1605.0465350022005,1483
1607.0838575843068,1473
1609.1206576037753,1474
1611.1569353134305,1513
1613.1926909661765,1473
1615.2279248149953,1511
1617.2626371129481,1540
1619.2968281131757,1426
1621.3304980688963,1454
1623.3636472334088,1488
1625.39627586009,1414
1627.428384202396,1445
1629.459972513861,1436
1631.4910410480993,1415
1633.5215900588028,1430
1635.551619799744,1483
1637.5811305247717,1436
1639.6101224878166,1450
1641.6385959428862,1476
1643.6665511440683,1384
1645.693988345528,1477
1647.7209078015112,1399
1649.7473097663405,1399
1651.7731944944203,1433
1653.7985622402307,1433
1655.823413258333,1363
1657.847747803366,1363
1659.8715661300494,1411
1661.8948684931793,1370
1663.9176551476316,1372
1665.9399263483624,1387
1667.9616823504057,1384
1669.982923408873,1417
1672.0036497789574,1446
1674.0238617159293,1394
1676.043559475138,1370
1678.0627433120121,1371
1680.081413482059,1412
1682.0995702408654,1415
1684.117213844096,1457
1686.134344547495,1402
1688.1509626068864,1344
1690.1670682781705,1410
1692.182661817329,1413
1694.1977434804217,1407
1696.2123135235875,1398
1698.226372203043,1345
1700.2399197750851,1415
1702.2529564960905,1443
1704.2654826225112,1371
1706.277498410882,1358
1708.2890041178139,1364
1710.2999999999988,1339
1712.3104863142066,1385
1714.3204633172854,1377
1716.329931266163,1327
1718.3388904178469,1358
1720.3473410294214,1371
1722.3552833580516,1315
1724.3627176609807,1444
1726.3696441955308,1398
1728.3760632191033,1385
1730.3819749891782,1416
1732.3873797633146,1397
1734.3922777991502,1359
1736.3966693544012,1404
1738.4005546868639,1408
1740.4039340544127,1397
1742.406807715001,1353
1744.4091759266616,1386
1746.4110389475054,1385
1748.4123970357223,1368
1750.413250449582,1383
1752.4135994474318,1445
1754.4134442876993,1291
1756.4127852288902,1366
1758.4116225295893,1376
1760.4099564484595,1413
1762.407787244244,1421
1764.405115175764,1413
1766.4019405019203,1378
1768.3982634816916,1343
1770.3940843741357,1367
1772.3894034383907,1392
1774.3842209336717,1369
1776.378537119274,1394
1778.372352254571,1379
1780.3656665990156,1368
1782.3584804121397,1400
1784.3507939535534,1366
1786.3426074829463,1369
1788.3339212600863,1385
1790.3247355448211,1390
1792.3150505970766,1367
1794.3048666768573,1447
1796.2941840442477,1363
1798.2830029594106,1356
1800.2713236825884,1408
1802.2591464741004,1420
1804.2464715943465,1428
1806.2332993038058,1375
1808.2196298630352,1381
1810.2054635326708,1333
1812.190800573428,1384
1814.175641246101,1467
1816.1599858115628,1405
1818.1438345307652,1387
1820.127187664738,1425
1822.1100454745924,1432
1824.092408221516,1439
1826.0742761667766,1391
1828.055649571721,1416
1830.0365286977735,1425
1832.0169138064398,1408
1833.9968051593014,1366
1835.9762030180214,1408
1837.9551076443408,1434
1839.9335193000788,1419
1841.9114382471344,1442
1843.888864747485,1382
1845.8657990631878,1362
1847.842241456378,1402
1849.8181921892697,1344
1851.7936515241558,1372
1853.7686197234098,1371
1855.7430970494815,1425
1857.7170837649014,1343
1859.6905801322787,1372
1861.6635864143004,1406
1863.6361028737338,1391
1865.608129773424,1439
1867.5796673762961,1420
1869.5507159453537,1410
1871.521275743678,1396
1873.4913470344313,1418
1875.4609300808534,1393
1877.4300251462632,1412
1879.3986324940588,1450
1881.366752387717,1459
1883.3343850907936,1420
1885.3015308669228,1447
1887.268189979819,1381
1889.2343626932739,1372
1891.2000492711595,1385
1893.1652499774254,1398
1895.1299650761011,1460
1897.0941948312952,1472
1899.0579395071945,1380
1901.0211993680641,1404
1902.98397467825,1425
1904.9462657021745,1459
1906.9080727043415,1456
1908.869395949332,1424
1910.8302357018065,1435
1912.790592226504,1396
1914.7504657882428,1460
1916.7098566519212,1399
1918.6687650825133,1382
1920.6271913450764,1391
1922.5851357047422,1382
1924.5425984267245,1364
1926.499579776314,1361
1928.4560800188833,1435
1930.4120994198802,1405
1932.367638244833,1490
1934.32269675935,1423
1936.2772752291175,1437
1938.231373919899,1379
1940.1849930975404,1400
1942.1381330279637,1367
1944.0907939771696,1413
1946.0429762112412,1368
1947.9946799963363,1391
1949.9459055986945,1441
1951.896653284633,1357
1953.8469233205478,1400
1955.7967159729142,1384
1957.7460315082863,1346
1959.6948701932974,1381
1961.6432322946594,1397
1963.5911180791632,1401
1965.5385278136787,1434
1967.4854617651545,1420
1969.4319202006182,1446
1971.377903387176,1380
1973.3234115920136,1354
1975.268445082395,1404
1977.2130041256642,1426
1979.1570889892423,1411
1981.1006999406304,1390
1983.04383724741,1352
1984.986501177238,1390
1986.928691997853,1392
1988.8704099770712,1415
1990.811655382789,1399
1992.7524284829801,1405
1994.692729545698,1432
1996.6325588390755,1400
1998.5719166313224,1377
2000.5108031907307,1374
2002.4492187856677,1373
2004.387163684583,1427
2006.3246381560011,1398
2008.2616424685298,1404
2010.1981768908527,1365
2012.1342416917332,1343
2014.069837140014,1426
2016.0049635046162,1401
2017.9396210545406,1420
2019.8738100588666,1407
2021.8075307867502,1392
2023.740783507431,1415
2025.6735684902228,1402
2027.6058860045214,1380
2029.5377363198004,1396
2031.4691197056118,1334
2033.4000364315875,1377
2035.3304867674374,1403
2037.260470982952,1318
2039.189989347998,1434
2041.1190421325232,1317
2043.047629606554,1343
2044.9757520401945,1351
2046.9034097036288,1379
2048.8306028671195,1367
2050.7573318010086,1358
2052.683596775716,1403
2054.609398061742,1380
2056.5347359296647,1404
2058.4596106501403,1362
2060.384022493906,1354
2062.3079717317764,1396
2064.231458634646,1408
2066.1544834734873,1363
2068.077046519352,1405
2069.99914804337,1379
2071.9207883167524,1379
2073.8419676107865,1379
2075.7626861968406,1392
2077.6829443463607,1394
2079.6027423308715,1402
2081.522080421977,1411
2083.440958891362,1325
2085.359378010786,1389
2087.2773380520907,1393
2089.194839287196,1384
2091.111881988101,1375
2093.0284664268825,1377
2094.9445928756973,1353
2096.86026160678,1356
2098.775472892446,1390
2100.690227005088,1378
2102.604524217178,1349
2104.5183648012676,1398
2106.431749029985,1391
2108.34467717604,1428
2110.2571495122206,1354
2112.169166311393,1343
2114.080727846503,1394
2115.9918343905747,1387
2117.902486216711,1394
2119.8126835980956,1356
2121.722426807987,1341
2123.6317161197285,1417
2125.5405518067364,1370
2127.448934142509,1394
2129.356863400624,1417
2131.264339854737,1455
2133.1713637785815,1443
2135.077935445972,1439
2136.9840551308002,1439
2138.889723107037,1417
2140.7949396487334,1467
2142.699705030018,1381
2144.6040195250994,1339
2146.507883408264,1408
2148.4112969538774,1386
2150.3142604363848,1451
2152.2167741303097,1422
2154.1188383102535,1474
2156.0204532508997,1419
2157.9216192270064,1390
2159.822336513414,1462
2161.7226053850413,1449
2163.622426116884,1466
2165.5217989840185,1448
2167.4207242616,1434
2169.319202224862,1460
2171.2172331491165,1475
2173.1148173097563,1453
2175.0119549822507,1427
2176.90864644215,1426
2178.8048919650823,1420
2180.7006918267534,1537
2182.596046302952,1504
2184.4909556695407,1458
2186.3854202024645,1496
2188.279440177746,1464
2190.173015871487,1457
2192.066147559868,1414
2193.958835519149,1487
2195.851080025667,1474
2197.7428813558417,1439
2199.6342397861667,1485
2201.5251555932186,1547
2203.415629053651,1520
2205.3056604441986,1479
2207.19525004167,1543
2209.084398122958,1503
2210.9731049650327,1534
2212.861370844941,1548
2214.749196039812,1505
2216.636580826851,1484
2218.523525483344,1485
2220.410030286655,1560
2222.296095514226,1564
2224.1817214435805,1520
2226.066908352319,1546
2227.951656518121,1615
2229.835966218746,1538
2231.71983773203,1544
2233.6032713358913,1508
2235.486267308324,1475
2237.3688259274036,1523
2239.2509474712824,1510
2241.132632218193,1546
2243.013880446447,1531
2244.8946924344323,1499
2246.7750684606203,1526
2248.6550088035574,1494
2250.534513741871,1595
2252.413583554265,1538
2254.292218519526,1516
2256.170418916517,1541
2258.0481850241786,1472
2259.925517121534,1479
2261.8024154876825,1537
2263.678880401803,1536
2265.5549121431536,1532
2267.430510991071,1503
2269.305677224971,1532
2271.180411124348,1522
2273.0547129687766,1454
2274.9285830379076,1478
2276.8020216114737,1425
2278.6750289692845,1524
2280.5476053912294,1527
2282.4197511572766,1490
2284.2914665474727,1538
2286.162751841943,1538
2288.0336073208937,1555
2289.904033264608,1509
2291.774029953448,1537
2293.6435976678554,1437
2295.5127366883517,1548
2297.381447295534,1386
2299.2497297700825,1432
2301.1175843927526,1387
2302.9850114443825,1368
2304.852011205885,1358
2306.7185839582553,1343
2308.5847299825664,1297
2310.4504495599676,1263
2312.3157429716925,1206
2314.1806104990483,1262
2316.0450524234247,1279
2317.9090690262888,1237
2319.772660589186,1230
2321.635827393742,1268
2323.498569721661,1262
2325.3608878547248,1218
2327.2227820747967,1237
2329.0842526638157,1229
2330.945299903803,1194
2332.805924076857,1227
2334.6661254651535,1222
2336.525904350951,1258
2338.3852610165827,1190
2340.244195744464,1207
2342.102708817088,1218
2343.9608005170253,1158
2345.8184711269287,1222
2347.675720929526,1265
2349.532550207628,1238
2351.38895924412,1234
2353.24494832197,1210
2355.100517724223,1266
2356.955667734004,1260
2358.810398634514,1234
2360.664710709037,1240
2362.5186042409337,1210
2364.3720795136437,1214
2366.225136810686,1192
2368.0777764156583,1226
2369.929998612237,1231
2371.7818036841777,1236
2373.633191915315,1228
2375.484163589562,1284
2377.3347189909114,1258
2379.184858403434,1274
2381.03458211128,1226
2382.8838903986775,1271
2384.732783549936,1215
2386.5812618494406,1250
2388.4293255816588,1252
2390.2769750311327,1252
2392.1242104824883,1279
2393.971032220427,1240
2395.8174405297295,1277
2397.6634356952563,1240
2399.509018001947,1235
2401.3541877348193,1269
2403.1989451789705,1240
2405.043290619576,1244
2406.8872243418905,1243
2408.730746631247,1240
2410.5738577730594,1262
2412.4165580528183,1277
2414.258847756095,1286
2416.100727168537,1296
2417.9421965758734,1280
2419.783256263912,1266
2421.623906518538,1224
2423.4641476257157,1263
2425.303979871491,1240
2427.143403541984,1278
2428.9824189233977,1231
2430.821026302012,1231
2432.6592259641866,1278
2434.497018196361,1250
2436.33440328505,1259
2438.171381516851,1286
2440.00795317844,1263
2441.844118556569,1330
2443.6798779380724,1275
2445.5152316098606,1275
2447.3501798589255,1239
2449.1847229723357,1238
2451.0188612372403,1280
2452.8525949408663,1254
2454.6859243705203,1263
2456.518849813587,1233
2458.3513715575314,1259
2460.183489889895,1258
2462.015205098301,1270
2463.8465174704493,1228
2465.67742729412,1294
2467.5079348571717,1343
2469.338040447542,1306
2471.1677443532476,1228
2472.9970468623833,1254
2474.825948263123,1226
2476.6544488437207,1234
2478.482548892508,1187
2480.310248697896,1274
2482.137548548374,1177
2483.9644487325118,1252
2485.790949538956,1219
2487.617051256433,1239
2489.44275417375,1255
2491.26805857979,1242
2493.0929647635157,1227
2494.917473013971,1325
2496.741583620276,1242
2498.5652968716304,1221
2500.3886130573137,1312
2502.2115324666834,1215
2504.0340553891765,1226
2505.856182114308,1274
2507.6779129316733,1328
2509.499248130945,1238
2511.3201880018764,1290
2513.140732834298,1291
2514.9608829181198,1260
2516.780638543331,1245
2518.6,1279
2520.418967578273,1256
2522.237541568376,1283
2524.0557222606144,1238
2525.8735099453706,1211
2527.6909049131086,1243
2529.507907454368,1263
2531.32451785977,1259
2533.140736420014,1282
2534.9565634258774,1237
2536.771999168218,1305
2538.5870439379714,1262
2540.4016980261526,1286
2542.2159617238544,1274
2544.02983532225,1266
2545.8433191125914,1336
2547.656413386209,1309
2549.4691184345115,1289
2551.2814345489874,1304
2553.093362021204,1285
2554.904901142808,1313
2556.716052205523,1322
2558.526815501153,1292
2560.3371913215824,1300
2562.147179958771,1329
2563.956781704761,1319
2565.7659968516705,1342
2567.5748256916986,1309
2569.3832685171224,1348
2571.1913256202984,1343
2572.9989972936614,1338
2574.806283829725,1388
2576.613185521084,1318
2578.4197026604074,1321
2580.2258355404483,1315
2582.031584454035,1350
2583.836949694077,1371
2585.6419315535613,1346
2587.4465303255533,1335
2589.2507463032002,1329
2591.0545797797245,1325
2592.8580310484303,1340
2594.6611004026995,1356
2596.463788135992,1376
2598.266094541849,1288
2600.0680199138874,1322
2601.869564545807,1341
2603.670728731383,1384
2605.4715127644704,1407
2607.2719169390048,1316
2609.071941548998,1310
2610.8715868885433,1369
2612.670853251811,1359
2614.469740933052,1316
2616.268250226594,1370
2618.0663814268455,1311
2619.864134828292,1313
2621.6615107255006,1330
2623.458509413115,1338
2625.2551311858597,1332
2627.0513763385347,1333
2628.8472451660223,1253
2630.6427379632833,1310
2632.4378550253564,1290
2634.232596647359,1316
2636.026963124488,1352
2637.8209547520187,1318
2639.6145718253065,1347
2641.407814639785,1327
2643.200683490966,1324
2644.9931786744414,1320
2646.7853004858807,1324
2648.577049221034,1360
2650.3684251757277,1337
2652.1594286458712,1244
2653.9500599274484,1322
2655.740319316525,1268
2657.5302071092437,1304
2659.3197236018286,1268
2661.10886909058,1232
2662.8976438718782,1331
2664.686048242183,1302
2666.4740824980327,1246
2668.2617469360443,1222
2670.0490418529134,1259
2671.8359675454153,1299
2673.622524310403,1256
2675.408712444811,1231
2677.1945322456495,1250
2678.979984010009,1298
2680.76506803506,1245
2682.5497846180497,1215
2684.334134056306,1250
2686.1181166472343,1269
2687.9017326883213,1266
2689.6849824771293,1263
2691.4678663113013,1252
2693.2503844885596,1247
2695.032537306705,1250
2696.8143250636167,1282
2698.5957480572542,1313
2700.3768065856534,1306
2702.1575009469316,1213
2703.937831439283,1277
2705.717798360982,1227
2707.4974020103837,1289
2709.276642685917,1241
2711.055520686095,1276
2712.834036309506,1220
2714.612189854819,1263
2716.389981620782,1236
2718.1674119062204,1262
2719.944481010041,1247
2721.721189231226,1191
2723.4975368688415,1276
2725.273524222027,1221
2727.0491515900053,1211
2728.824419272075,1234
2730.5993275676146,1260
2732.3738767760838,1283
2734.148067197016,1209
2735.921899130031,1188
2737.6953728748194,1287
2739.468488731156,1261
2741.2412469988926,1231
2743.0136479779617,1259
2744.785691968372,1264
2746.5573792702116,1265
2748.3287101836504,1207
2750.099685008934,1180
2751.870304046388,1229
2753.640567596418,1213
2755.4104759595057,1202
2757.1800294362156,1271
2758.949228327187,1247
2760.7180729331412,1206
2762.486563554877,1213
2764.254700493272,1241
2766.022484049284,1288
2767.789914523947,1247
2769.5569922183786,1264
2771.3237174337705,1275
2773.090090471394,1209
2774.8561116326036,1216
2776.6217812188274,1233
2778.3870995315756,1257
2780.1520668724356,1226
2781.9166835430747,1199
2783.6809498452394,1274
2785.444866080754,1314
2787.2084325515225,1261
2788.971649559527,1227
2790.73451740683,1244
2792.4970363955713,1263
2794.2592068279705,1261
2796.0210290063264,1244
2797.7825032330147,1233
2799.543629810493,1216
2801.304409041296,1237
2803.0648412280366,1231
2804.8249266734088,1223
2806.5846656801846,1275
2808.344058551212,1203
2810.1031055894246,1280
2811.8618070978273,1215
2813.6201633795085,1294
2815.378174737636,1218
2817.1358414754536,1282
2818.893163896285,1229
2820.6501423035334,1275
2822.4067770006814,1252
2824.1630682912883,1282
2825.9190164789957,1279
2827.6746218675207,1197
2829.429884760661,1249
2831.184805462294,1283
2832.9393842763743,1249
2834.693621506936,1252
2836.4475174580916,1226
2838.201072434034,1255
2839.954286739034,1259
2841.707160677441,1210
2843.459694553685,1216
2845.2118886722724,1276
2846.96374333779,1200
2848.7152588549034,1243
2850.4664355283567,1219
2852.217273662973,1262
2853.9677735636546,1251
2855.7179355353833,1268
2857.4677598832186,1290
2859.217246912299,1267
2860.9663969278427,1249
2862.715210235146,1235
2864.4636871395846,1239
2866.211827946614,1245
2867.9596329617652,1266
2869.7071024906536,1251
2871.4542368389684,1217
2873.20103631248,1202
2874.947501217038,1197
2876.6936318585695,1261
2878.4394285430812,1230
2880.1848915766604,1241
2881.9300212654707,1248
2883.6748179157553,1230
2885.4192818338374,1216
2887.1634133261173,1240
2888.907212699077,1283
2890.6506802592744,1261
2892.393816313348,1291
2894.1366211680142,1222
2895.8790951300693,1226
2897.621238506388,1227
2899.363051603925,1229
2901.1045347297118,1233
2902.8456881908596,1272
2904.58651229456,1245
2906.327007348081,1241
2908.067173658772,1197
2909.8070115340597,1234
2911.5465212814497,1183
2913.285703208527,1298
2915.0245576229563,1220
2916.7630848324807,1218
2918.5012851449196,1260
2920.2391588681758,1208
2921.976706310227,1278
2923.7139277791334,1256
2925.4508235830313,1253
2927.187394030137,1229
2928.923639428745,1248
2930.6595600872306,1296
2932.395156314046,1227
2934.1304284177218,1247
2935.8653767068713,1242
2937.6000014901815,1228
2939.3343030764227,1288
2941.068281774442,1235
2942.8019378931644,1274
2944.5352717415976,1249
2946.2682836288236,1271
2948.0009738640065,1231
2949.7333427563885,1234
2951.465390615289,1242
2953.1971177501086,1291
2954.9285244703265,1274
2956.6596110855,1227
2958.3903779052657,1250
2960.1208252393385,1197
2961.8509533975125,1286
2963.5807626896617,1240
2965.3102534257378,1207
2967.0394259157715,1195
2968.768280469873,1274
2970.496817398232,1265
2972.2250370111146,1220
2973.952939618869,1217
2975.6805255319196,1281
2977.4077950607707,1258
2979.134748516006,1294
2980.861386208289,1254
2982.587708448359,1243
2984.313715547037,1253
2986.039407815222,1267
2987.764785563891,1290
2989.489849104102,1249
2991.2145987469908,1243
2992.9390348037705,1232
2994.6631575857346,1256
2996.3869674042576,1272
2998.1104645707887,1293
2999.83364939686,1240
3001.5565221940783,1250
3003.2790832741334,1229
3005.0013329487924,1207
3006.7232715298996,1256
3008.4448993293804,1217
3010.166216659239,1248
3011.887223831558,1295
3013.607921158498,1228
3015.3283089522993,1257
3017.0483875252826,1189
3018.7681571898443,1200
3020.4876182584626,1225
3022.2067710436927,1237
3023.9256158581707,1237
3025.644153014609,1243
3027.362382825801,1270
3029.0803056046193,1192
3030.797921664012,1251
3032.5152313170106,1275
3034.2322348767225,1221
3035.9489326563353,1189
3037.665324969115,1229
3039.3814121284063,1227
3041.097194447633,1233
3042.812672240299,1201
3044.5278458199855,1237
3046.2427155003525,1268
3047.9572815951406,1230
3049.671544418167,1229
3051.38550428333,1204
3053.0991615046073,1207
3054.812516396051,1238
3056.5255692717974,1242
3058.2383204460575,1223
3059.9507702331257,1274
3061.662918947372,1222
3063.3747669032446,1251
3065.0863144152736,1221
3066.7975617980674,1236
3068.508509366309,1220
3070.219157434767,1231
3071.9295063182844,1253
3073.639556331785,1218
3075.3493077902704,1219
3077.058761008821,1188
3078.7679163025964,1214
3080.476773986837,1202
3082.1853343768594,1185
3083.89359778806,1268
3085.6015645359153,1227
3087.3092349359786,1230
3089.016609303884,1258
3090.7236879553434,1211
3092.4304712061476,1227
3094.136959372166,1277
3095.843152769349,1247
3097.5490517137237,1230
3099.2546565213966,1273
3100.959967508554,1207
3102.66498499146,1241
3104.3697092864577,1258
3106.0741407099695,1215
3107.778279578498,1194
3109.482126208622,1218
3111.1856809170004,1264
3112.8889440203716,1211
3114.5919158355528,1182
3116.294596679439,1244
3117.996986869006,1244
3119.6990867213062,1260
3121.4008965534726,1259
3123.102416682717,1209
3124.803647426329,1202
3126.5045891016784,1201
3128.205242026213,1226
3129.90560651746,1266
3131.605682893025,1207
3133.3054714705922,1248
3135.0049725679282,1243
3136.7041865028714,1202
3138.4031135933465,1275
3140.101754157353,1223
3141.800108512971,1231
3143.498176978357,1241
3145.1959598717494,1271
3146.8934575114636,1209
3148.5906702158954,1271
3150.2875983035183,1211
3151.9842420928853,1208
3153.680601902627,1247
3155.376678051456,1239
3157.07247085816,1213
3158.767980641609,1233
3160.463207720748,1203
3162.158152414606,1244
3163.8528150422862,1234
3165.5471959229726,1213
3167.2412953759303,1228
3168.9351137204976,1227
3170.628651276098,1266
3172.3219083622307,1215
3174.014885298474,1249
3175.707582404485,1226
3177.4000000000005,1225
3179.092138404835,1242
3180.7839979388846,1209
3182.47557892212,1194
3184.166881674594,1266
3185.8579065164386,1241
3187.5486537678626,1233
3189.2391237491547,1231
3190.9293167806827,1201
3192.6192331828934,1230
3194.3088732763117,1217
3195.998237381542,1207
3197.687325819268,1268
3199.376138910251,1221
3201.064676975334,1226
3202.7529403354347,1239
3204.4409293115523,1237
3206.1286442247647,1234
3207.816085396229,1251
3209.5032531471825,1196
3211.190147798936,1227
3212.8767696728846,1237
3214.5631190905015,1206
3216.2491963733373,1199
3217.9350018430214,1206
3219.6205358212637,1179
3221.305798629851,1225
3222.990790590651,1196
3224.6755120256103,1205
3226.359963256751,1180
3228.0441446061795,1230
3229.7280563960758,1182
3231.411698948703,1173
3233.0950725863995,1165
3234.778177631587,1199
3236.461014406761,1206
3238.1435832345005,1199
3239.8258844374595,1258
3241.507918338374,1240
3243.1896852600576,1259
3244.8711855254023,1174
3246.552419457381,1223
3248.233387379042,1210
3249.914089613516,1173
3251.59452648401,1242
3253.274698313813,1241
3254.95460542629,1229
3256.6342481448855,1245
3258.313626793125,1222
3259.9927416946084,1220
3261.6715931730196,1209
3263.3501815521176,1238
3265.0285071557437,1218
3266.706570307815,1160
3268.3843713323286,1236
3270.0619105533615,1195
3271.739188295068,1184
3273.4162048816834,1226
3275.0929606375184,1177
3276.769455886966,1170
3278.445690954498,1195
3280.1216661646613,1217
3281.797381842087,1206
3283.4728383114807,1227
3285.1480358976296,1276
3286.8229749253996,1212
3288.4976557197333,1224
3290.172078605655,1214
3291.846243908266,1204
3293.5201519527463,1191
3295.193803064357,1196
3296.8671975684374,1256
3298.5403357904024,1160
3300.21321805575,1211
3301.8858446900567,1240
3303.558216018975,1188
3305.23033236824,1231
3306.9021940636603,1185
3308.57380143113,1224
3310.2451547966184,1197
3311.916254486174,1194
3313.5871008259246,1192
3315.2576941420766,1213
3316.9280347609147,1240
3318.5981230088046,1184
3320.2679592121895,1232
3321.9375436975924,1178
3323.606876791612,1244
3325.27595882093,1147
3326.944790112305,1201
3328.6133709925753,1224
3330.2817017886573,1189
3331.949782827547,1190
3333.617614436319,1263
3335.2851969421245,1266
3336.952530672199,1244
3338.619615953853,1267
3340.286453114475,1201
3341.9530424815357,1235
3343.619384382583,1228
3345.2854791452437,1228
3346.951327097224,1237
3348.6169285663073,1216
3350.2822838803577,1189
3351.947393367319,1239
3353.61225735521,1210
3355.2768761721345,1214
3356.9412501462693,1230
3358.605379605873,1205
3360.2692648792827,1212
3361.9329062949146,1254
3363.596304181263,1211
