CollectionTime,7/9/2024 12:23:56 PM
ExposureUsed,3
CalibratedSpectrum
-962.7078968117929,488
-959.9714848408522,499
-957.2358232597828,501
-954.5009119013725,504
-951.7667505983302,491
-949.0333391832855,506
-946.3006774887896,515
-943.5687653473143,538
-940.837602591253,497
-938.1071890529199,498
-935.3775245645503,522
-932.6486089583007,504
-929.9204420662485,522
-927.1930237203925,532
-924.4663537526524,522
-921.7404319948689,520
-919.0152582788041,525
-916.2908324361409,529
-913.5671542984834,547
-910.8442236973568,495
-908.1220404642074,515
-905.4006044304027,500
-902.679915427231,542
-899.959973285902,499
-897.2407778375464,513
-894.5223289132158,509
-891.8046263438832,495
-889.0876699604426,508
-886.3714595937089,514
-883.6559950744183,498
-880.9412762332282,489
-878.2273029007168,508
-875.5140749073835,503
-872.8015920836489,500
-870.0898542598545,536
-867.3788612662631,513
-864.6686129330585,508
-861.9591090903457,526
-859.2503495681506,513
-856.5423341964203,524
-853.8350628050229,503
-851.1285352237478,524
-848.4227512823054,536
-845.7177108103272,512
-843.0134136373656,528
-840.3098595928943,519
-837.6070485063082,564
-834.9049802069229,531
-832.2036545239757,528
-829.5030712866244,497
-826.8032303239481,537
-824.1041314649472,530
-821.4057745385428,510
-818.7081593735775,540
-816.0112857988148,520
-813.3151536429393,539
-810.6197627345566,521
-807.9251129021936,498
-805.2312039742981,526
-802.5380357792392,521
-799.8456081453069,518
-797.1539209007124,529
-794.462973873588,524
-791.772766891987,529
-789.083299783884,558
-786.3945723771743,521
-783.7065844996748,526
-781.0193359791231,524
-778.3328266431781,527
-775.6470563194197,563
-772.9620248353489,538
-770.2777320183878,523
-767.5941776958798,529
-764.9113616950891,529
-762.2292838432011,523
-759.5479439673222,549
-756.8673418944801,547
-754.1874774516235,553
-751.5083504656222,558
-748.8299607632671,542
-746.15230817127,540
-743.475392516264,529
-740.7992136248035,543
-738.1237713233636,596
-735.4490654383407,529
-732.7750957960521,570
-730.1018622227365,536
-727.4293645445534,532
-724.7576025875837,551
-722.0865761778291,562
-719.4162851412126,583
-716.7467293035781,558
-714.0779084906909,564
-711.409822528237,551
-708.7424712418238,561
-706.0758544569796,564
-703.4099719991541,596
-700.7448236937178,574
-698.0804093659622,568
-695.4167288411002,599
-692.7537819442656,590
-690.0915685005134,595
-687.4300883348199,564
-684.7693412720819,586
-682.1093271371178,600
-679.4500457546669,599
-676.7914969493897,560
-674.1336805458676,601
-671.4765963686034,589
-668.8202442420206,618
-666.1646239904642,610
-663.5097354382001,623
-660.8555784094151,617
-658.2021527282176,587
-655.5494582186366,579
-652.8974947046223,585
-650.2462620100463,594
-647.5957599587009,597
-644.9459883742998,619
-642.2969470804776,621
-639.6486359007902,585
-637.0010546587141,597
-634.3542031776476,607
-631.7080812809096,630
-629.0626887917401,577
-626.4180255333008,624
-623.7740913286734,619
-621.1308860008619,653
-618.4884093727904,613
-615.8466612673046,639
-613.2056415071715,649
-610.5653499150785,624
-607.9257863136347,599
-605.28695052537,610
-602.6488423727357,603
-600.0114616781036,613
-597.3748082637674,600
-594.7388819519412,582
-592.1036825647604,608
-589.4692099242818,632
-586.8354638524829,632
-584.2024441712624,616
-581.5701507024403,596
-578.9385832677575,633
-576.3077416888759,617
-573.6776257873787,633
-571.0482353847704,626
-568.4195703024757,658
-565.7916303618415,634
-563.164415384135,630
-560.5379251905453,635
-557.9121596021815,645
-555.2871184400748,615
-552.6628015251767,679
-550.0392086783606,656
-547.4163397204204,671
-544.794194472071,675
-542.1727727539491,656
-539.5520743866118,628
-536.9320991905377,679
-534.3128469861261,704
-531.6943175936979,708
-529.0765108334947,711
-526.4594265256793,760
-523.8430644903358,878
-521.2274245474689,931
-518.612506517005,1007
-515.9983102187913,964
-513.3848354725959,944
-510.77208209810846,1013
-508.16004991493924,1126
-505.5487387426199,1226
-502.9381484006032,1285
-500.3282787082628,1282
-497.71912948489364,1228
-495.1107005497117,1138
-492.5029917218539,1039
-489.8960028203786,953
-487.28973366426493,875
-484.68418407241325,823
-482.07935386364494,798
-479.47524285670266,798
-476.87185087025,783
-474.2691777228715,808
-471.66722323307334,794
-469.0659872192821,790
-466.4654694998459,819
-463.86566989303384,814
-461.26658821703614,797
-458.66822428996414,806
-456.07057792985,791
-453.4736489546475,788
-450.877437182231,771
-448.28194243039627,803
-445.68716451686,784
-443.09310325926003,767
-440.49975847515555,757
-437.9071299820263,815
-435.31521759727354,795
-432.72402113821954,776
-430.13354042210767,808
-427.5437752661022,869
-424.95472548728867,787
-422.36639090267386,827
-419.7787713291855,832
-417.1918665836721,826
-414.60567648290385,887
-412.0202008435715,849
-409.4354394822874,820
-406.8513922155845,895
-404.26805885991723,877
-401.685439231661,907
-399.103533147112,863
-396.522340422488,853
-393.9418608739278,830
-391.3620943174908,827
-388.7830405691583,831
-386.2046994448317,770
-383.6270707603344,780
-381.05015433141045,775
-378.473949973725,727
-375.8984575028645,655
-373.32367673433623,643
-370.74960748356875,574
-368.1762495659117,571
-365.60360279663576,528
-363.03166699093265,524
-360.4604419639154,507
-357.8899275306178,475
-355.32012350599507,434
-352.7510297049233,457
-350.1826459421999,420
-347.61497203254316,428
-345.04800779059235,422
-342.4817530309082,412
-339.91620756797226,427
-337.35137121618743,438
-334.7872437898774,410
-332.22382510328725,424
-329.66111497058273,423
-327.09911320585127,448
-324.53781962310075,462
-321.9772340362607,458
-319.4173562591816,463
-316.8581861056348,429
-314.2997233893127,428
-311.7419679238294,427
-309.1849195227194,432
-306.62857799943856,446
-304.0729431673641,484
-301.51801483979375,485
-298.963792829947,463
-296.41027695096386,475
-293.85746701590574,472
-291.3053628377552,468
-288.7539642294155,483
-286.2032710037115,465
-283.65328297338897,441
-281.1039999511146,470
-278.5554217494762,476
-276.007548180983,488
-273.4603790580651,466
-270.9139141930734,472
-268.3681533982807,499
-265.8230964858798,525
-263.27874326798565,490
-260.7350935566336,493
-258.1921471637804,475
-255.6499039013039,473
-253.10836358100266,547
-250.56752601459698,520
-248.02739101372765,517
-245.48795838995704,532
-242.94922795476816,528
-240.41119951956557,539
-237.8738728956746,519
-235.33724789434166,604
-232.80132432673452,563
-230.2661020039418,542
-227.73158073697357,537
-225.19776033676033,553
-222.66464061415422,600
-220.1322213799284,607
-217.60050244477725,588
-215.06948361931552,588
-212.53916471408013,582
-210.00954553952818,561
-207.48062590603843,571
-204.9524056239104,603
-202.4248845033651,624
-199.8980623545441,613
-197.37193898751036,586
-194.84651421224817,639
-192.32178783866232,646
-189.79775967657952,625
-187.27442953574644,687
-184.7517972258321,599
-182.2298625564256,623
-179.7086253370378,622
-177.18808537710026,569
-174.66824248596583,576
-172.14909647290835,621
-169.6306471471229,651
-167.11289431772548,655
-164.59583779375328,657
-162.07947738416453,619
-159.5638128978386,631
-157.04884414357605,757
-154.53457093009854,724
-152.02099306604828,731
-149.50811035998936,645
-146.99592262040665,641
-144.48442965570587,667
-141.97363127421409,767
-139.46352728417958,819
-136.95411749377126,905
-134.44540171107985,854
-131.93737974411636,766
-129.43005140081357,661
-126.92341648902493,753
-124.41747481652521,951
-121.91222619101006,1237
-119.40767042009657,1368
-116.90380731132257,1513
-114.40063667214702,1605
-111.8981583099503,1571
-109.3963720320337,1444
-106.89527764561933,1346
-104.39487495785067,1210
-101.89516377579241,1432
-99.39614390642998,1979
-96.89781515667039,2654
-94.40017733334128,3083
-91.90323024319173,2998
-89.40697369289148,2801
-86.91140748903172,2524
-84.41653143812482,2710
-81.92234534660395,2736
-79.42884902082358,2245
-76.93604226705907,2207
-74.4439248915071,2402
-71.95249670028534,3502
-69.46175749943245,4453
-66.97170709490854,5283
-64.48234529259423,6165
-61.99367189829195,6162
-59.50568671772464,5492
-57.01838955653636,5029
-54.53178022029283,5476
-52.045858514480074,6387
-49.560624244506016,7395
-47.07607721569923,8623
-44.59221723330904,9032
-42.10904410250669,8813
-39.62655762838392,7508
-37.14475761595372,6095
-34.66364387015028,5036
-32.18321619582866,4224
-29.70347439776515,4238
-27.224418280657005,5210
-24.74604764912317,5851
-22.26836230770266,8825
-19.7913620608565,15451
-17.315046712966478,25623
-14.83941606833514,34100
-12.36446993118659,44789
-9.89020810566592,65040
-7.416630395839093,65040
-4.94373660569363,65040
-2.471526539137585,65040
-6.821210263296962E-13,65040
2.47084320796705,65040
4.941003281093458,65040
7.410480415786196,65040
9.879274808531363,65040
12.347386655893956,65040
14.814816154518212,65040
17.28156350112681,65040
19.74762889252179,65040
22.21301252558385,65040
24.67771459727237,19029
27.141735304626195,3219
29.605074844762612,1766
32.06773341487792,1431
34.52971121224755,1358
36.99100843422559,1356
39.45162527824516,1232
41.91156194181792,1289
44.370818622535126,1238
46.82939551806646,1110
49.287292826160524,1100
51.74451074464503,1103
54.201049471426245,941
56.65690920448981,927
59.112090141899785,900
61.56659248179983,895
64.02041642241159,834
66.4735621620365,845
68.92602989905402,785
71.37781983192338,846
73.82893215918205,843
76.27936707944684,924
78.72912479141326,1000
81.17820549385567,965
83.62660938562783,918
86.07433666566146,917
88.5213875329681,767
90.96776218663751,693
93.41346082583925,734
95.85848364982041,742
98.30283085790859,802
100.7465026495089,808
103.18949922410604,862
105.63182078126385,770
108.07346752062438,851
110.51443964190923,778
112.95473734491827,776
115.39436082953114,742
117.83331029570547,783
120.27158594347827,820
122.7091879729652,771
125.1461165843615,736
127.58237197794062,778
130.01795435405518,803
132.4528639131364,722
134.88710085569494,664
137.32066538231982,721
139.75355769367923,646
142.1857779905207,678
144.61732647366978,637
147.04820334403132,704
149.47840880258934,732
151.90794305040674,735
154.33680628862487,800
156.76499871846443,946
159.19252054122433,1100
161.61937195828352,1215
164.04555317109896,1340
166.47106438120693,1437
168.89590579022217,1597
171.320077599839,1620
173.7435800118302,1747
176.16641322804742,1802
178.58857745042144,1776
181.01007288096173,1863
183.43089972175687,1902
185.85105817497413,1870
188.27054844285988,1992
190.6893707277394,2024
193.10752523201643,2009
195.5250121581745,2005
197.9418317087751,2138
200.3579840864594,2199
202.7734694939469,2122
205.18828813403627,2198
207.6024402096051,2186
210.01592592360964,2295
212.42874547908548,2242
214.84089907914665,2219
217.2523869269868,2272
219.66320922587727,2265
222.0733661791695,2228
224.48285799029293,2262
226.8916848627572,2238
229.29984700014882,2380
231.7073446061355,2423
234.11417788446204,2320
236.520347038953,2337
238.92585227351185,2382
241.33069379212054,2541
243.73487179884035,2544
246.1383864978112,2567
248.541238093252,2502
250.9434267894609,2589
253.34495279081432,2566
255.74581630176783,2648
258.1460175268563,2660
260.54555667069314,2701
262.9444339379703,2667
265.3426495334594,2663
267.7402036620107,2528
270.1370965285529,2457
272.53332833809407,2381
274.9288992957214,2326
277.32380960660055,2246
279.718059475976,2167
282.1116491091717,2147
284.5045787115897,2297
286.89684848871195,2225
289.2884586460981,2251
291.67940938938807,2241
294.0697009242996,2228
296.4593334566299,2267
298.84830719225477,2228
301.23662233712923,2246
303.6242790972866,2187
306.01127767884,2203
308.39761828798066,2116
310.78330113097934,2097
313.16832641418534,2063
315.5526943440269,2025
317.9364051270112,2090
320.3194589697242,2045
322.70185607883093,2063
325.0835966610754,2017
327.4646809232805,1976
329.8451090723478,1975
332.2248813152577,1938
334.6039978590701,1898
336.9824589109231,1927
339.36026467803447,1895
341.7374153677,1895
344.113911187295,1898
346.48975234427337,1899
348.8649390461686,1867
351.2394715005918,1969
353.61334991523415,1917
355.9865744978655,1850
358.35914545633375,1877
360.73106299856715,1912
363.10232733257146,1884
365.47293866643247,1881
367.84289720831396,1813
370.2122031664593,1755
372.5808567491905,1815
374.9488581649083,1813
377.31620762209275,1893
379.6829053293021,1850
382.0489514951745,1813
384.4143463284262,1818
386.7790900378528,1783
389.14318283232853,1807
391.50662492080653,1760
393.86941651231916,1725
396.23155781597745,1767
398.5930490409713,1840
400.9538903965696,1769
403.3140820921202,1795
405.6736243370498,1729
408.03251734086336,1706
410.3907613131465,1811
412.74835646356166,1756
415.10530300185144,1748
417.4616011378372,1821
419.81725108141893,1752
422.1722530425758,1768
424.5266072313656,1726
426.880313857925,1700
429.2333731324701,1739
431.58578526529516,1733
433.9375504667738,1774
436.2886689473588,1724
438.63914091758113,1716
440.9889665880513,1707
443.33814616945835,1690
445.68667987257015,1724
448.03456790823395,1615
450.3818104873759,1729
452.72840782100013,1673
455.07436012019105,1666
457.41966759611057,1643
459.7643304600007,1697
462.10834892318155,1649
464.4517231970525,1705
466.79445349309174,1718
469.1365400228566,1689
471.4779829979826,1677
473.81878263018564,1698
476.15893913125876,1707
478.4984527130747,1700
480.8373235875855,1805
483.17555196682144,1825
485.5131380628919,1820
487.8500820879857,1932
490.1863842543697,1880
492.52204477439034,1955
494.8570638604725,2145
497.1914417251204,2331
499.52517858091653,2492
501.85827464052306,2773
504.19073011668036,2940
506.5225452222086,3008
508.85372017000566,3003
511.18425517304956,3018
513.514150444396,3084
515.8434061971808,3546
518.1720226446176,4450
520.4999999999999,4730
522.8273384766991,4436
525.1540382881666,3917
527.480099647932,3456
529.8055227696037,2849
532.1303078668694,2309
534.454455153496,1931
536.777964843328,1875
539.1008371502907,1841
541.4230722883866,1764
543.744670471698,1817
546.0656319143858,1739
548.3859568306899,1808
550.7056454349294,1702
553.0246979415016,1645
555.3431145648834,1731
557.6608955196306,1671
559.978041020377,1682
562.2945512818363,1667
564.6104265188006,1693
566.9256669461412,1734
569.2402727788082,1723
571.5542442318302,1719
573.8675815203156,1750
576.1802848594508,1738
578.4923544645015,1692
580.8037905508126,1691
583.114593333807,1812
585.4247630289875,1786
587.7342998519354,1767
590.0432040183106,1789
592.3514757438526,1647
594.6591152443794,1638
596.9661227357875,1851
599.2724984340531,1760
601.578242555231,1775
603.8833553154542,1785
606.1878369309362,1704
608.4916876179676,1789
610.7949075929192,1788
613.0974970722403,1712
615.3994562724587,1734
617.7007854101818,1757
620.0014847020951,1751
622.3015543649641,1723
624.6009946156324,1726
626.8998056710224,1797
629.1979877481361,1835
631.4955410640538,1796
633.7924658359349,1746
636.0887622810175,1715
638.3844306166192,1704
640.6794710601358,1743
642.9738838290426,1797
645.2676691408932,1794
647.5608272133207,1853
649.853358264037,1777
652.1452625108324,1797
654.4365401715764,1914
656.7271914642178,1804
659.0172166067838,1899
661.3066158173809,1831
663.5953893141935,1752
665.8835373154867,1790
668.1710600396028,1809
670.4579577049639,1809
672.7442305300709,1832
675.0298787335033,1834
677.3149025339197,1848
679.599302150058,1780
681.8830778007342,1755
684.1662297048437,1716
686.4487580813608,1824
688.7306631493387,1843
691.0119451279091,1845
693.2926042362834,1842
695.5726406937516,1790
697.8520547196814,1818
700.1308465335215,1778
702.4090163547982,1754
704.6865644031171,1797
706.9634908981619,1801
709.2397960596965,1723
711.5154801075631,1802
713.7905432616823,1782
716.0649857420548,1776
718.3388077687592,1739
720.612009561953,1770
722.8845913418733,1802
725.1565533288352,1769
727.427895743234,1780
729.6986188055427,1753
731.9687227363137,1765
734.238207756178,1811
736.5070740858458,1825
738.7753219461066,1748
741.0429515578281,1689
743.3099631419569,1842
745.5763569195191,1750
747.8421331116193,1774
750.1072919394409,1780
752.3718336242467,1819
754.6357583873777,1898
756.8990664502545,1861
759.1617580343765,1816
761.423833361321,1811
763.6852926527457,1833
765.9461361303862,1782
768.206364016058,1793
770.4659765316536,1770
772.7249738991469,1732
774.9833563405886,1773
777.2411240781092,1755
779.4982773339183,1684
781.7548163303044,1762
784.010741289634,1740
786.2660524343538,1903
788.5207499869881,1790
790.7748341701416,1829
793.0283052064964,1848
795.2811633188143,1810
797.5334087299362,1795
799.7850416627813,1835
802.0360623403484,1867
804.2864709857143,1859
806.5362678220353,1784
808.7854530725468,1829
811.0340269605625,1803
813.2819897094754,1814
815.5293415427581,1797
817.77608268396,1852
820.0222133567116,1808
822.2677337847211,1842
824.5126441917765,1851
826.7569448017433,1883
829.0006358385675,1795
831.2437175262731,1868
833.4861900889629,1809
835.7280537508192,1805
837.9693087361026,1837
840.2099552691533,1872
842.4499935743896,1874
844.689423876309,1804
846.9282463994886,1838
849.1664613685833,1876
851.4040690083276,1796
853.6410695435349,1856
855.877463199097,1865
858.1132501999847,1790
860.3484307712487,1798
862.5830051380175,1812
864.8169735254988,1833
867.0503361589791,1840
869.2830932638243,1868
871.5152450654786,1860
873.7467917894654,1867
875.9777336613873,1866
878.2080709069252,1891
880.4378037518389,1876
882.666932421968,1886
884.8954571432301,1794
887.1233781416219,1872
889.3506956432192,1845
891.5774098741766,1860
893.803521060728,1900
896.0290294291852,1879
898.2539352059397,1861
900.4782386174619,1870
902.7019398903011,1858
904.925039251085,1882
907.147536926521,1825
909.3694331433943,1913
911.59072812857,1899
913.8114221089921,1855
916.0315153116827,1867
918.2510079637437,1792
920.4699002923547,1797
922.6881925247761,1719
924.905884888345,1743
927.1229776104793,1782
929.3394709186747,1830
931.555365040506,1803
933.7706602036275,1837
935.9853566357709,1867
938.1994545647489,1860
940.4129542184515,1912
942.6258558248488,1801
944.8381596119883,1823
947.0498658079974,1793
949.2609746410825,1867
951.4714863395287,1851
953.6814011316998,1863
955.8907192460387,1834
958.0994409110671,1768
960.3075663553858,1755
962.5150958076741,1799
964.7220294966913,1802
966.928367651274,1807
969.1341105003388,1748
971.3392582728806,1806
973.5438111979742,1780
975.747769504772,1704
977.9511334225061,1762
980.153903180487,1761
982.3560790081052,1722
984.5576611348289,1748
986.7586497902058,1777
988.9590452038618,1686
991.158847605503,1682
993.3580572249133,1665
995.5566742919558,1654
997.7546990365728,1661
999.952131688785,1571
1002.1489724786926,1587
1004.3452216364743,1593
1006.5408793923874,1608
1008.7359459767691,1556
1010.9304216200343,1566
1013.1243065526781,1544
1015.3176010052733,1589
1017.510305208472,1495
1019.7024193930064,1515
1021.8939437896848,1509
1024.0848786293977,1526
1026.2752241431122,1547
1028.4649805618747,1519
1030.6541481168115,1548
1032.842727039127,1507
1035.0307175601051,1551
1037.2181199111074,1509
1039.4049343235752,1512
1041.591161029029,1517
1043.7768002590683,1504
1045.9618522453698,1513
1048.1463172196918,1505
1050.3301954138697,1454
1052.513487059818,1522
1054.69619238953,1470
1056.8783116350783,1487
1059.0598450286152,1533
1061.2407928023704,1481
1063.4211551886528,1432
1065.6009324198508,1473
1067.780124728432,1473
1069.9587323469414,1406
1072.1367555080046,1453
1074.314194444325,1534
1076.4910493886855,1496
1078.667320573947,1449
1080.843008233051,1433
1083.0181125990161,1453
1085.1926339049414,1443
1087.3665723840027,1390
1089.5399282694575,1411
1091.7127017946405,1436
1093.8848931929647,1381
1096.0565026979243,1420
1098.2275305430899,1397
1100.3979769621128,1450
1102.567842188722,1372
1104.737126456726,1446
1106.9058300000124,1411
1109.0739530525475,1380
1111.2414958483764,1416
1113.4084586216231,1451
1115.5748416064907,1391
1117.7406450372605,1417
1119.9058691482942,1398
1122.0705141740304,1418
1124.2345803489884,1414
1126.3980679077658,1404
1128.5609770850388,1381
1130.7233081155623,1393
1132.8850612341707,1348
1135.0462366757774,1389
1137.2068346753745,1391
1139.3668554680326,1335
1141.526299288901,1385
1143.68516637321,1444
1145.8434569562655,1395
1148.001171273455,1394
1150.158309560244,1367
1152.3148720521767,1359
1154.470858984876,1316
1156.626270594044,1337
1158.7811071154629,1348
1160.9353687849912,1451
1163.089055838569,1325
1165.242168512213,1330
1167.3947070420209,1410
1169.5466716641677,1383
1171.6980626149075,1310
1173.8488801305748,1358
1175.9991244475814,1332
1178.1487958024186,1341
1180.2978944316555,1329
1182.4464205719428,1325
1184.5943744600072,1383
1186.7417563326567,1325
1188.8885664267755,1340
1191.0348049793297,1299
1193.1804722273619,1370
1195.325568407995,1309
1197.4700937584303,1342
1199.614048515948,1395
1201.7574329179074,1380
1203.900247201746,1315
1206.042491604982,1405
1208.1841663652099,1368
1210.3252717201053,1372
1212.465807907422,1364
1214.6057751649923,1328
1216.7451737307279,1390
1218.8840038426192,1418
1221.0222657387353,1388
1223.1599596572241,1365
1225.2970858363137,1323
1227.4336445143094,1368
1229.5696359295966,1351
1231.705060320639,1440
1233.8399179259786,1398
1235.9742089842384,1395
1238.107933734118,1347
1240.2410924143974,1393
1242.373685263935,1396
1244.5057125216676,1370
1246.6371744266116,1432
1248.7680712178621,1414
1250.898403134593,1369
1253.028170416058,1431
1255.1573733015875,1382
1257.2860120305932,1428
1259.4140868425648,1444
1261.54159797707,1434
1263.6685456737569,1390
1265.7949301723515,1458
1267.9207517126597,1411
1270.046010534565,1441
1272.1707068780306,1397
1274.2948409830983,1481
1276.4184130898889,1474
1278.541423438603,1453
1280.6638722695184,1434
1282.785759822993,1464
1284.9070863394636,1596
1287.0278520594447,1479
1289.1480572235314,1432
1291.2677020723963,1454
1293.3867868467923,1491
1295.5053117875495,1550
1297.623277135579,1540
1299.740683131868,1525
1301.8575300174857,1568
1303.973818033578,1539
1306.0895474213703,1549
1308.2047184221678,1544
1310.3193312773528,1582
1312.4333862283888,1612
1314.5468835168163,1614
1316.659823384255,1614
1318.7722060724045,1582
1320.8840318230418,1598
1322.9953008780249,1567
1325.1060134792888,1611
1327.2161698688478,1618
1329.3257702887959,1630
1331.4348149813054,1583
1333.5433041886276,1615
1335.6512381530933,1561
1337.7586171171101,1601
1339.8654413231675,1624
1341.9717110138317,1597
1344.0774264317488,1555
1346.1825878196432,1546
1348.2871954203192,1613
1350.3912494766587,1588
1352.4947502316231,1620
1354.5976979282532,1619
1356.7000928096686,1522
1358.8019351190665,1518
1360.9032250997243,1566
1363.0039629949988,1604
1365.1041490483235,1552
1367.2037835032133,1589
1369.3028666032606,1545
1371.401398592137,1560
1373.4993797135926,1559
1375.5968102114575,1565
1377.6936903296396,1574
1379.7900203121262,1548
1381.8858004029835,1533
1383.9810308463561,1500
1386.075711886469,1551
1388.1698437676241,1523
1390.2634267342032,1625
1392.356461030667,1610
1394.4489469015557,1563
1396.5408845914872,1633
1398.6322743451592,1650
1400.7231164073469,1593
1402.813411022907,1613
1404.903158436773,1573
1406.9923588939578,1621
1409.0810126395531,1642
1411.1691199187303,1620
1413.2566809767386,1686
1415.343696058907,1680
1417.4301654106425,1620
1419.5160892774315,1625
1421.6014679048399,1660
1423.6863015385125,1679
1425.7705904241707,1659
1427.8543348076178,1673
1429.9375349347342,1736
1432.0201910514802,1677
1434.102303403894,1702
1436.1838722380944,1714
1438.2648978002767,1743
1440.3453803367174,1722
1442.4253200937692,1704
1444.5047173178677,1810
1446.5835722555234,1811
1448.6618851533285,1794
1450.739656257952,1756
1452.8168858161434,1868
1454.8935740747306,1855
1456.96972128062,1927
1459.045327680797,1909
1461.120393522327,1974
1463.1949190523528,1968
1465.2689045180973,1930
1467.3423501668608,2027
1469.415256246024,2088
1471.4876230030463,2110
1473.559450685465,2069
1475.6307395408976,2150
1477.7014898170391,2126
1479.771701761665,2201
1481.8413756226287,2230
1483.9105116478618,2211
1485.9791100853772,2295
1488.0471711832643,2308
1490.1146951896926,2336
1492.1816823529098,2231
1494.2481329212433,2283
1496.3140471430984,2436
1498.3794252669609,2366
1500.4442675413939,2403
1502.5085742150404,2389
1504.572345536622,2403
1506.6355817549388,2436
1508.6982831188702,2429
1510.7604498773744,2442
1512.8220822794883,2504
1514.8831805743293,2444
1516.9437450110909,2527
1519.003775839048,2509
1521.0632733075522,2532
1523.1222376660367,2559
1525.1806691640113,2615
1527.2385680510652,2519
1529.2959345768668,2581
1531.3527689911643,2548
1533.4090715437833,2601
1535.4648424846291,2620
1537.5200820636855,2655
1539.5747905310159,2713
1541.6289681367616,2747
1543.6826151311434,2763
1545.7357317644614,2800
1547.7883182870937,2794
1549.8403749494987,2902
1551.8919020022113,2844
1553.9428996958477,2943
1555.9933682811015,2964
1558.0433080087469,3027
1560.0927191296346,3027
1562.1416018946961,3185
1564.1899565549415,3134
1566.2377833614592,3191
1568.2850825654164,3156
1570.3318544180606,3018
1572.3780991707158,3091
1574.423817074788,2953
1576.4690083817595,2805
1578.5136733431923,2735
1580.5578122107272,2711
1582.601425236085,2581
1584.6445126710646,2499
1586.6870747675434,2409
1588.7291117774776,2344
1590.7706239529034,2245
1592.8116115459347,2192
1594.8520748087658,2195
1596.8920139936686,2114
1598.9314293529933,2098
1600.9703211391711,1996
1603.008689604711,1940
1605.0465350022005,1939
1607.0838575843068,1816
1609.1206576037753,1814
1611.1569353134305,1807
1613.1926909661765,1710
1615.2279248149953,1669
1617.2626371129481,1661
1619.2968281131757,1689
1621.3304980688963,1653
1623.3636472334088,1664
1625.39627586009,1623
1627.428384202396,1619
1629.459972513861,1601
1631.4910410480993,1582
1633.5215900588028,1612
1635.551619799744,1573
1637.5811305247717,1548
1639.6101224878166,1545
1641.6385959428862,1581
1643.6665511440683,1512
1645.693988345528,1489
1647.7209078015112,1422
1649.7473097663405,1508
1651.7731944944203,1437
1653.7985622402307,1435
1655.823413258333,1403
1657.847747803366,1432
1659.8715661300494,1528
1661.8948684931793,1464
1663.9176551476316,1460
1665.9399263483624,1447
1667.9616823504057,1423
1669.982923408873,1400
1672.0036497789574,1466
1674.0238617159293,1453
1676.043559475138,1439
1678.0627433120121,1418
1680.081413482059,1443
1682.0995702408654,1483
1684.117213844096,1387
1686.134344547495,1458
1688.1509626068864,1402
1690.1670682781705,1447
1692.182661817329,1399
1694.1977434804217,1466
1696.2123135235875,1417
1698.226372203043,1378
1700.2399197750851,1428
1702.2529564960905,1419
1704.2654826225112,1377
1706.277498410882,1426
1708.2890041178139,1409
1710.2999999999988,1416
1712.3104863142066,1401
1714.3204633172854,1417
1716.329931266163,1391
1718.3388904178469,1335
1720.3473410294214,1370
1722.3552833580516,1385
1724.3627176609807,1407
1726.3696441955308,1394
1728.3760632191033,1377
1730.3819749891782,1372
1732.3873797633146,1361
1734.3922777991502,1387
1736.3966693544012,1341
1738.4005546868639,1341
1740.4039340544127,1364
1742.406807715001,1381
1744.4091759266616,1359
1746.4110389475054,1360
1748.4123970357223,1407
1750.413250449582,1352
1752.4135994474318,1356
1754.4134442876993,1362
1756.4127852288902,1356
1758.4116225295893,1312
1760.4099564484595,1370
1762.407787244244,1328
1764.405115175764,1345
1766.4019405019203,1318
1768.3982634816916,1293
1770.3940843741357,1351
1772.3894034383907,1323
1774.3842209336717,1407
1776.378537119274,1369
1778.372352254571,1340
1780.3656665990156,1312
1782.3584804121397,1266
1784.3507939535534,1350
1786.3426074829463,1306
1788.3339212600863,1314
1790.3247355448211,1307
1792.3150505970766,1318
1794.3048666768573,1299
1796.2941840442477,1300
1798.2830029594106,1356
1800.2713236825884,1269
1802.2591464741004,1288
1804.2464715943465,1300
1806.2332993038058,1275
1808.2196298630352,1224
1810.2054635326708,1322
1812.190800573428,1283
1814.175641246101,1348
1816.1599858115628,1298
1818.1438345307652,1294
1820.127187664738,1292
1822.1100454745924,1280
1824.092408221516,1308
1826.0742761667766,1313
1828.055649571721,1320
1830.0365286977735,1254
1832.0169138064398,1286
1833.9968051593014,1318
1835.9762030180214,1260
1837.9551076443408,1340
1839.9335193000788,1334
1841.9114382471344,1334
1843.888864747485,1273
1845.8657990631878,1243
1847.842241456378,1300
1849.8181921892697,1299
1851.7936515241558,1275
1853.7686197234098,1329
1855.7430970494815,1258
1857.7170837649014,1279
1859.6905801322787,1299
1861.6635864143004,1266
1863.6361028737338,1304
1865.608129773424,1290
1867.5796673762961,1311
1869.5507159453537,1314
1871.521275743678,1304
1873.4913470344313,1250
1875.4609300808534,1252
1877.4300251462632,1321
1879.3986324940588,1306
1881.366752387717,1352
1883.3343850907936,1321
1885.3015308669228,1255
1887.268189979819,1352
1889.2343626932739,1314
1891.2000492711595,1331
1893.1652499774254,1349
1895.1299650761011,1304
1897.0941948312952,1337
1899.0579395071945,1336
1901.0211993680641,1344
1902.98397467825,1349
1904.9462657021745,1381
1906.9080727043415,1315
1908.869395949332,1369
1910.8302357018065,1358
1912.790592226504,1317
1914.7504657882428,1348
1916.7098566519212,1317
1918.6687650825133,1285
1920.6271913450764,1297
1922.5851357047422,1291
1924.5425984267245,1328
1926.499579776314,1285
1928.4560800188833,1315
1930.4120994198802,1284
1932.367638244833,1361
1934.32269675935,1331
1936.2772752291175,1353
1938.231373919899,1288
1940.1849930975404,1336
1942.1381330279637,1302
1944.0907939771696,1329
1946.0429762112412,1323
1947.9946799963363,1355
1949.9459055986945,1281
1951.896653284633,1334
1953.8469233205478,1283
1955.7967159729142,1307
1957.7460315082863,1356
1959.6948701932974,1337
1961.6432322946594,1294
1963.5911180791632,1321
1965.5385278136787,1348
1967.4854617651545,1317
1969.4319202006182,1326
1971.377903387176,1319
1973.3234115920136,1338
1975.268445082395,1313
1977.2130041256642,1298
1979.1570889892423,1254
1981.1006999406304,1351
1983.04383724741,1343
1984.986501177238,1318
1986.928691997853,1304
1988.8704099770712,1343
1990.811655382789,1229
1992.7524284829801,1244
1994.692729545698,1283
1996.6325588390755,1261
1998.5719166313224,1298
2000.5108031907307,1315
2002.4492187856677,1259
2004.387163684583,1302
2006.3246381560011,1333
2008.2616424685298,1236
2010.1981768908527,1299
2012.1342416917332,1297
2014.069837140014,1276
2016.0049635046162,1345
2017.9396210545406,1257
2019.8738100588666,1289
2021.8075307867502,1248
2023.740783507431,1236
2025.6735684902228,1312
2027.6058860045214,1256
2029.5377363198004,1323
2031.4691197056118,1272
2033.4000364315875,1281
2035.3304867674374,1273
2037.260470982952,1229
2039.189989347998,1263
2041.1190421325232,1247
2043.047629606554,1268
2044.9757520401945,1281
2046.9034097036288,1225
2048.8306028671195,1279
2050.7573318010086,1263
2052.683596775716,1226
2054.609398061742,1243
2056.5347359296647,1220
2058.4596106501403,1246
2060.384022493906,1219
2062.3079717317764,1196
2064.231458634646,1281
2066.1544834734873,1276
2068.077046519352,1308
2069.99914804337,1241
2071.9207883167524,1259
2073.8419676107865,1220
2075.7626861968406,1277
2077.6829443463607,1231
2079.6027423308715,1300
2081.522080421977,1246
2083.440958891362,1250
2085.359378010786,1294
2087.2773380520907,1283
2089.194839287196,1257
2091.111881988101,1272
2093.0284664268825,1273
2094.9445928756973,1237
2096.86026160678,1295
2098.775472892446,1253
2100.690227005088,1248
2102.604524217178,1198
2104.5183648012676,1237
2106.431749029985,1325
2108.34467717604,1257
2110.2571495122206,1203
2112.169166311393,1267
2114.080727846503,1276
2115.9918343905747,1220
2117.902486216711,1260
2119.8126835980956,1308
2121.722426807987,1272
2123.6317161197285,1266
2125.5405518067364,1271
2127.448934142509,1245
2129.356863400624,1209
2131.264339854737,1307
2133.1713637785815,1225
2135.077935445972,1285
2136.9840551308002,1300
2138.889723107037,1278
2140.7949396487334,1259
2142.699705030018,1298
2144.6040195250994,1285
2146.507883408264,1293
2148.4112969538774,1280
2150.3142604363848,1264
2152.2167741303097,1217
2154.1188383102535,1288
2156.0204532508997,1252
2157.9216192270064,1256
2159.822336513414,1299
2161.7226053850413,1260
2163.622426116884,1289
2165.5217989840185,1312
2167.4207242616,1277
2169.319202224862,1242
2171.2172331491165,1337
2173.1148173097563,1197
2175.0119549822507,1273
2176.90864644215,1293
2178.8048919650823,1284
2180.7006918267534,1274
2182.596046302952,1289
2184.4909556695407,1313
2186.3854202024645,1280
2188.279440177746,1339
2190.173015871487,1324
2192.066147559868,1275
2193.958835519149,1273
2195.851080025667,1318
2197.7428813558417,1293
2199.6342397861667,1300
2201.5251555932186,1357
2203.415629053651,1329
2205.3056604441986,1330
2207.19525004167,1301
2209.084398122958,1375
2210.9731049650327,1345
2212.861370844941,1272
2214.749196039812,1339
2216.636580826851,1334
2218.523525483344,1371
2220.410030286655,1313
2222.296095514226,1382
2224.1817214435805,1324
2226.066908352319,1336
2227.951656518121,1365
2229.835966218746,1299
2231.71983773203,1297
2233.6032713358913,1309
2235.486267308324,1332
2237.3688259274036,1357
2239.2509474712824,1280
2241.132632218193,1399
2243.013880446447,1352
2244.8946924344323,1325
2246.7750684606203,1274
2248.6550088035574,1231
2250.534513741871,1349
2252.413583554265,1294
2254.292218519526,1346
2256.170418916517,1300
2258.0481850241786,1292
2259.925517121534,1345
2261.8024154876825,1315
2263.678880401803,1377
2265.5549121431536,1290
2267.430510991071,1320
2269.305677224971,1292
2271.180411124348,1292
2273.0547129687766,1276
2274.9285830379076,1327
2276.8020216114737,1291
2278.6750289692845,1277
2280.5476053912294,1319
2282.4197511572766,1298
2284.2914665474727,1316
2286.162751841943,1290
2288.0336073208937,1338
2289.904033264608,1288
2291.774029953448,1297
2293.6435976678554,1272
2295.5127366883517,1285
2297.381447295534,1308
2299.2497297700825,1297
2301.1175843927526,1305
2302.9850114443825,1229
2304.852011205885,1198
2306.7185839582553,1188
2308.5847299825664,1144
2310.4504495599676,1201
2312.3157429716925,1211
2314.1806104990483,1205
2316.0450524234247,1144
2317.9090690262888,1217
2319.772660589186,1133
2321.635827393742,1230
2323.498569721661,1190
2325.3608878547248,1182
2327.2227820747967,1176
2329.0842526638157,1205
2330.945299903803,1172
2332.805924076857,1178
2334.6661254651535,1147
2336.525904350951,1206
2338.3852610165827,1197
2340.244195744464,1152
2342.102708817088,1177
2343.9608005170253,1192
2345.8184711269287,1163
2347.675720929526,1172
2349.532550207628,1183
2351.38895924412,1231
2353.24494832197,1241
2355.100517724223,1200
2356.955667734004,1168
2358.810398634514,1207
2360.664710709037,1211
2362.5186042409337,1169
2364.3720795136437,1171
2366.225136810686,1123
2368.0777764156583,1199
2369.929998612237,1212
2371.7818036841777,1235
2373.633191915315,1220
2375.484163589562,1247
2377.3347189909114,1199
2379.184858403434,1192
2381.03458211128,1212
2382.8838903986775,1307
2384.732783549936,1227
2386.5812618494406,1239
2388.4293255816588,1211
2390.2769750311327,1192
2392.1242104824883,1236
2393.971032220427,1253
2395.8174405297295,1260
2397.6634356952563,1190
2399.509018001947,1206
2401.3541877348193,1255
2403.1989451789705,1250
2405.043290619576,1243
2406.8872243418905,1264
2408.730746631247,1244
2410.5738577730594,1246
2412.4165580528183,1260
2414.258847756095,1249
2416.100727168537,1269
2417.9421965758734,1228
2419.783256263912,1265
2421.623906518538,1289
2423.4641476257157,1248
2425.303979871491,1212
2427.143403541984,1250
2428.9824189233977,1287
2430.821026302012,1254
2432.6592259641866,1270
2434.497018196361,1248
2436.33440328505,1256
2438.171381516851,1251
2440.00795317844,1206
2441.844118556569,1239
2443.6798779380724,1270
2445.5152316098606,1258
2447.3501798589255,1272
2449.1847229723357,1231
2451.0188612372403,1223
2452.8525949408663,1282
2454.6859243705203,1278
2456.518849813587,1233
2458.3513715575314,1224
2460.183489889895,1160
2462.015205098301,1262
2463.8465174704493,1265
2465.67742729412,1276
2467.5079348571717,1236
2469.338040447542,1215
2471.1677443532476,1241
2472.9970468623833,1237
2474.825948263123,1207
2476.6544488437207,1280
2478.482548892508,1278
2480.310248697896,1316
2482.137548548374,1211
2483.9644487325118,1239
2485.790949538956,1284
2487.617051256433,1268
2489.44275417375,1248
2491.26805857979,1302
2493.0929647635157,1309
2494.917473013971,1288
2496.741583620276,1307
2498.5652968716304,1275
2500.3886130573137,1301
2502.2115324666834,1277
2504.0340553891765,1272
2505.856182114308,1301
2507.6779129316733,1311
2509.499248130945,1341
2511.3201880018764,1308
2513.140732834298,1284
2514.9608829181198,1294
2516.780638543331,1234
2518.6,1303
2520.418967578273,1296
2522.237541568376,1274
2524.0557222606144,1337
2525.8735099453706,1351
2527.6909049131086,1322
2529.507907454368,1336
2531.32451785977,1316
2533.140736420014,1308
2534.9565634258774,1389
2536.771999168218,1345
2538.5870439379714,1361
2540.4016980261526,1373
2542.2159617238544,1414
2544.02983532225,1414
2545.8433191125914,1420
2547.656413386209,1379
2549.4691184345115,1391
2551.2814345489874,1385
2553.093362021204,1425
2554.904901142808,1496
2556.716052205523,1440
2558.526815501153,1453
2560.3371913215824,1446
2562.147179958771,1425
2563.956781704761,1496
2565.7659968516705,1474
2567.5748256916986,1525
2569.3832685171224,1470
2571.1913256202984,1458
2572.9989972936614,1479
2574.806283829725,1519
2576.613185521084,1490
2578.4197026604074,1565
2580.2258355404483,1527
2582.031584454035,1495
2583.836949694077,1559
2585.6419315535613,1556
2587.4465303255533,1540
2589.2507463032002,1537
2591.0545797797245,1539
2592.8580310484303,1534
2594.6611004026995,1535
2596.463788135992,1535
2598.266094541849,1520
2600.0680199138874,1552
2601.869564545807,1511
2603.670728731383,1544
2605.4715127644704,1524
2607.2719169390048,1523
2609.071941548998,1485
2610.8715868885433,1539
2612.670853251811,1583
2614.469740933052,1481
2616.268250226594,1520
2618.0663814268455,1548
2619.864134828292,1465
2621.6615107255006,1498
2623.458509413115,1493
2625.2551311858597,1454
2627.0513763385347,1494
2628.8472451660223,1437
2630.6427379632833,1494
2632.4378550253564,1405
2634.232596647359,1494
2636.026963124488,1413
2637.8209547520187,1417
2639.6145718253065,1420
2641.407814639785,1403
2643.200683490966,1443
2644.9931786744414,1410
2646.7853004858807,1354
2648.577049221034,1381
2650.3684251757277,1454
2652.1594286458712,1378
2653.9500599274484,1309
2655.740319316525,1387
2657.5302071092437,1347
2659.3197236018286,1372
2661.10886909058,1302
2662.8976438718782,1284
2664.686048242183,1309
2666.4740824980327,1300
2668.2617469360443,1270
2670.0490418529134,1303
2671.8359675454153,1363
2673.622524310403,1366
2675.408712444811,1265
2677.1945322456495,1307
2678.979984010009,1289
2680.76506803506,1321
2682.5497846180497,1276
2684.334134056306,1236
2686.1181166472343,1279
2687.9017326883213,1304
2689.6849824771293,1258
2691.4678663113013,1280
2693.2503844885596,1251
2695.032537306705,1284
2696.8143250636167,1245
2698.5957480572542,1225
2700.3768065856534,1233
2702.1575009469316,1283
2703.937831439283,1253
2705.717798360982,1260
2707.4974020103837,1235
2709.276642685917,1196
2711.055520686095,1179
2712.834036309506,1234
2714.612189854819,1242
2716.389981620782,1212
2718.1674119062204,1213
2719.944481010041,1205
2721.721189231226,1207
2723.4975368688415,1258
2725.273524222027,1154
2727.0491515900053,1186
2728.824419272075,1191
2730.5993275676146,1179
2732.3738767760838,1198
2734.148067197016,1224
2735.921899130031,1146
2737.6953728748194,1192
2739.468488731156,1231
2741.2412469988926,1138
2743.0136479779617,1165
2744.785691968372,1183
2746.5573792702116,1209
2748.3287101836504,1215
2750.099685008934,1193
2751.870304046388,1099
2753.640567596418,1161
2755.4104759595057,1167
2757.1800294362156,1198
2758.949228327187,1148
2760.7180729331412,1153
2762.486563554877,1236
2764.254700493272,1122
2766.022484049284,1167
2767.789914523947,1174
2769.5569922183786,1122
2771.3237174337705,1159
2773.090090471394,1145
2774.8561116326036,1207
2776.6217812188274,1176
2778.3870995315756,1176
2780.1520668724356,1150
2781.9166835430747,1108
2783.6809498452394,1181
2785.444866080754,1197
2787.2084325515225,1171
2788.971649559527,1141
2790.73451740683,1151
2792.4970363955713,1174
2794.2592068279705,1131
2796.0210290063264,1179
2797.7825032330147,1205
2799.543629810493,1173
2801.304409041296,1187
2803.0648412280366,1222
2804.8249266734088,1125
2806.5846656801846,1081
2808.344058551212,1157
2810.1031055894246,1171
2811.8618070978273,1195
2813.6201633795085,1171
2815.378174737636,1148
2817.1358414754536,1167
2818.893163896285,1140
2820.6501423035334,1165
2822.4067770006814,1179
2824.1630682912883,1140
2825.9190164789957,1147
2827.6746218675207,1201
2829.429884760661,1122
2831.184805462294,1196
2832.9393842763743,1153
2834.693621506936,1178
2836.4475174580916,1196
2838.201072434034,1156
2839.954286739034,1168
2841.707160677441,1141
2843.459694553685,1150
2845.2118886722724,1149
2846.96374333779,1185
2848.7152588549034,1181
2850.4664355283567,1107
2852.217273662973,1183
2853.9677735636546,1138
2855.7179355353833,1194
2857.4677598832186,1181
2859.217246912299,1158
2860.9663969278427,1199
2862.715210235146,1152
2864.4636871395846,1167
2866.211827946614,1160
2867.9596329617652,1170
2869.7071024906536,1127
2871.4542368389684,1135
2873.20103631248,1206
2874.947501217038,1184
2876.6936318585695,1110
2878.4394285430812,1171
2880.1848915766604,1197
2881.9300212654707,1127
2883.6748179157553,1176
2885.4192818338374,1126
2887.1634133261173,1144
2888.907212699077,1157
2890.6506802592744,1177
2892.393816313348,1165
2894.1366211680142,1142
2895.8790951300693,1130
2897.621238506388,1221
2899.363051603925,1209
2901.1045347297118,1148
2902.8456881908596,1161
2904.58651229456,1206
2906.327007348081,1117
2908.067173658772,1152
2909.8070115340597,1172
2911.5465212814497,1183
2913.285703208527,1186
2915.0245576229563,1183
2916.7630848324807,1176
2918.5012851449196,1139
2920.2391588681758,1195
2921.976706310227,1195
2923.7139277791334,1126
2925.4508235830313,1160
2927.187394030137,1154
2928.923639428745,1146
2930.6595600872306,1175
2932.395156314046,1162
2934.1304284177218,1127
2935.8653767068713,1179
2937.6000014901815,1173
2939.3343030764227,1185
2941.068281774442,1185
2942.8019378931644,1175
2944.5352717415976,1163
2946.2682836288236,1200
2948.0009738640065,1164
2949.7333427563885,1177
2951.465390615289,1195
2953.1971177501086,1150
2954.9285244703265,1166
2956.6596110855,1144
2958.3903779052657,1223
2960.1208252393385,1176
2961.8509533975125,1197
2963.5807626896617,1164
2965.3102534257378,1132
2967.0394259157715,1057
2968.768280469873,1120
2970.496817398232,1129
2972.2250370111146,1190
2973.952939618869,1129
2975.6805255319196,1191
2977.4077950607707,1117
2979.134748516006,1131
2980.861386208289,1145
2982.587708448359,1176
2984.313715547037,1186
2986.039407815222,1166
2987.764785563891,1175
2989.489849104102,1151
2991.2145987469908,1152
2992.9390348037705,1119
2994.6631575857346,1144
2996.3869674042576,1176
2998.1104645707887,1130
2999.83364939686,1164
3001.5565221940783,1177
3003.2790832741334,1167
3005.0013329487924,1135
3006.7232715298996,1149
3008.4448993293804,1166
3010.166216659239,1140
3011.887223831558,1138
3013.607921158498,1161
3015.3283089522993,1102
3017.0483875252826,1093
3018.7681571898443,1100
3020.4876182584626,1097
3022.2067710436927,1108
3023.9256158581707,1182
3025.644153014609,1189
3027.362382825801,1134
3029.0803056046193,1158
3030.797921664012,1143
3032.5152313170106,1124
3034.2322348767225,1158
3035.9489326563353,1119
3037.665324969115,1119
3039.3814121284063,1152
3041.097194447633,1161
3042.812672240299,1142
3044.5278458199855,1117
3046.2427155003525,1099
3047.9572815951406,1172
3049.671544418167,1134
3051.38550428333,1123
3053.0991615046073,1202
3054.812516396051,1177
3056.5255692717974,1135
3058.2383204460575,1087
3059.9507702331257,1148
3061.662918947372,1133
3063.3747669032446,1157
3065.0863144152736,1162
3066.7975617980674,1126
3068.508509366309,1082
3070.219157434767,1154
3071.9295063182844,1183
3073.639556331785,1159
3075.3493077902704,1190
3077.058761008821,1163
3078.7679163025964,1174
3080.476773986837,1129
3082.1853343768594,1162
3083.89359778806,1156
3085.6015645359153,1137
3087.3092349359786,1096
3089.016609303884,1156
3090.7236879553434,1132
3092.4304712061476,1165
3094.136959372166,1135
3095.843152769349,1119
3097.5490517137237,1151
3099.2546565213966,1120
3100.959967508554,1099
3102.66498499146,1139
3104.3697092864577,1135
3106.0741407099695,1127
3107.778279578498,1127
3109.482126208622,1122
3111.1856809170004,1131
3112.8889440203716,1126
3114.5919158355528,1158
3116.294596679439,1157
3117.996986869006,1159
3119.6990867213062,1148
3121.4008965534726,1143
3123.102416682717,1190
3124.803647426329,1145
3126.5045891016784,1086
3128.205242026213,1145
3129.90560651746,1212
3131.605682893025,1144
3133.3054714705922,1137
3135.0049725679282,1144
3136.7041865028714,1159
3138.4031135933465,1176
3140.101754157353,1162
3141.800108512971,1136
3143.498176978357,1172
3145.1959598717494,1164
3146.8934575114636,1191
3148.5906702158954,1137
3150.2875983035183,1119
3151.9842420928853,1167
3153.680601902627,1142
3155.376678051456,1087
3157.07247085816,1129
3158.767980641609,1135
3160.463207720748,1170
3162.158152414606,1122
3163.8528150422862,1139
3165.5471959229726,1142
3167.2412953759303,1108
3168.9351137204976,1178
3170.628651276098,1174
3172.3219083622307,1194
3174.014885298474,1166
3175.707582404485,1135
3177.4000000000005,1140
3179.092138404835,1173
3180.7839979388846,1147
3182.47557892212,1154
3184.166881674594,1181
3185.8579065164386,1202
3187.5486537678626,1193
3189.2391237491547,1144
3190.9293167806827,1142
3192.6192331828934,1163
3194.3088732763117,1161
3195.998237381542,1116
3197.687325819268,1159
3199.376138910251,1137
3201.064676975334,1091
3202.7529403354347,1089
3204.4409293115523,1156
3206.1286442247647,1087
3207.816085396229,1100
3209.5032531471825,1132
3211.190147798936,1133
3212.8767696728846,1149
3214.5631190905015,1205
3216.2491963733373,1163
3217.9350018430214,1140
3219.6205358212637,1140
3221.305798629851,1153
3222.990790590651,1076
3224.6755120256103,1107
3226.359963256751,1148
3228.0441446061795,1071
3229.7280563960758,1121
3231.411698948703,1178
3233.0950725863995,1180
3234.778177631587,1079
3236.461014406761,1152
3238.1435832345005,1106
3239.8258844374595,1132
3241.507918338374,1115
3243.1896852600576,1130
3244.8711855254023,1116
3246.552419457381,1114
3248.233387379042,1110
3249.914089613516,1117
3251.59452648401,1156
3253.274698313813,1123
3254.95460542629,1154
3256.6342481448855,1146
3258.313626793125,1094
3259.9927416946084,1109
3261.6715931730196,1108
3263.3501815521176,1121
3265.0285071557437,1118
3266.706570307815,1051
3268.3843713323286,1083
3270.0619105533615,1105
3271.739188295068,1095
3273.4162048816834,1155
3275.0929606375184,1138
3276.769455886966,1078
3278.445690954498,1137
3280.1216661646613,1152
3281.797381842087,1137
3283.4728383114807,1115
3285.1480358976296,1092
3286.8229749253996,1136
3288.4976557197333,1111
3290.172078605655,1067
3291.846243908266,1121
3293.5201519527463,1121
3295.193803064357,1098
3296.8671975684374,1083
3298.5403357904024,1079
3300.21321805575,1107
3301.8858446900567,1129
3303.558216018975,1133
3305.23033236824,1104
3306.9021940636603,1198
3308.57380143113,1161
3310.2451547966184,1172
3311.916254486174,1158
3313.5871008259246,1183
3315.2576941420766,1094
3316.9280347609147,1139
3318.5981230088046,1085
3320.2679592121895,1119
3321.9375436975924,1073
3323.606876791612,1127
3325.27595882093,1087
3326.944790112305,1106
3328.6133709925753,1078
3330.2817017886573,1143
3331.949782827547,1086
3333.617614436319,1101
3335.2851969421245,1107
3336.952530672199,1127
3338.619615953853,1150
3340.286453114475,1143
3341.9530424815357,1109
3343.619384382583,1104
3345.2854791452437,1143
3346.951327097224,1132
3348.6169285663073,1119
3350.2822838803577,1185
3351.947393367319,1073
3353.61225735521,1096
3355.2768761721345,1116
3356.9412501462693,1094
3358.605379605873,1100
3360.2692648792827,1132
3361.9329062949146,1129
3363.596304181263,1103
