CollectionTime,7/3/2024 3:00:13 PM
ExposureUsed,3
CalibratedSpectrum
-962.7078968117929,413
-959.9714848408522,415
-957.2358232597828,434
-954.5009119013725,437
-951.7667505983302,456
-949.0333391832855,442
-946.3006774887896,439
-943.5687653473143,430
-940.837602591253,430
-938.1071890529199,422
-935.3775245645503,436
-932.6486089583007,419
-929.9204420662485,436
-927.1930237203925,418
-924.4663537526524,442
-921.7404319948689,436
-919.0152582788041,438
-916.2908324361409,461
-913.5671542984834,430
-910.8442236973568,418
-908.1220404642074,430
-905.4006044304027,453
-902.679915427231,435
-899.959973285902,430
-897.2407778375464,418
-894.5223289132158,449
-891.8046263438832,424
-889.0876699604426,425
-886.3714595937089,412
-883.6559950744183,428
-880.9412762332282,425
-878.2273029007168,442
-875.5140749073835,429
-872.8015920836489,405
-870.0898542598545,444
-867.3788612662631,441
-864.6686129330585,449
-861.9591090903457,454
-859.2503495681506,435
-856.5423341964203,436
-853.8350628050229,437
-851.1285352237478,443
-848.4227512823054,444
-845.7177108103272,435
-843.0134136373656,444
-840.3098595928943,441
-837.6070485063082,477
-834.9049802069229,433
-832.2036545239757,472
-829.5030712866244,446
-826.8032303239481,456
-824.1041314649472,451
-821.4057745385428,454
-818.7081593735775,432
-816.0112857988148,437
-813.3151536429393,448
-810.6197627345566,468
-807.9251129021936,448
-805.2312039742981,440
-802.5380357792392,446
-799.8456081453069,459
-797.1539209007124,457
-794.462973873588,467
-791.772766891987,468
-789.083299783884,445
-786.3945723771743,446
-783.7065844996748,472
-781.0193359791231,448
-778.3328266431781,428
-775.6470563194197,444
-772.9620248353489,461
-770.2777320183878,452
-767.5941776958798,452
-764.9113616950891,475
-762.2292838432011,430
-759.5479439673222,435
-756.8673418944801,442
-754.1874774516235,448
-751.5083504656222,474
-748.8299607632671,474
-746.15230817127,436
-743.475392516264,459
-740.7992136248035,449
-738.1237713233636,461
-735.4490654383407,471
-732.7750957960521,486
-730.1018622227365,458
-727.4293645445534,445
-724.7576025875837,469
-722.0865761778291,471
-719.4162851412126,483
-716.7467293035781,480
-714.0779084906909,476
-711.409822528237,458
-708.7424712418238,471
-706.0758544569796,475
-703.4099719991541,499
-700.7448236937178,476
-698.0804093659622,489
-695.4167288411002,481
-692.7537819442656,495
-690.0915685005134,478
-687.4300883348199,478
-684.7693412720819,470
-682.1093271371178,478
-679.4500457546669,486
-676.7914969493897,476
-674.1336805458676,486
-671.4765963686034,459
-668.8202442420206,499
-666.1646239904642,481
-663.5097354382001,491
-660.8555784094151,475
-658.2021527282176,475
-655.5494582186366,490
-652.8974947046223,510
-650.2462620100463,511
-647.5957599587009,483
-644.9459883742998,499
-642.2969470804776,509
-639.6486359007902,487
-637.0010546587141,517
-634.3542031776476,480
-631.7080812809096,499
-629.0626887917401,495
-626.4180255333008,521
-623.7740913286734,500
-621.1308860008619,506
-618.4884093727904,526
-615.8466612673046,501
-613.2056415071715,533
-610.5653499150785,513
-607.9257863136347,511
-605.28695052537,517
-602.6488423727357,509
-600.0114616781036,506
-597.3748082637674,522
-594.7388819519412,520
-592.1036825647604,533
-589.4692099242818,513
-586.8354638524829,553
-584.2024441712624,551
-581.5701507024403,504
-578.9385832677575,503
-576.3077416888759,512
-573.6776257873787,507
-571.0482353847704,506
-568.4195703024757,496
-565.7916303618415,531
-563.164415384135,500
-560.5379251905453,526
-557.9121596021815,511
-555.2871184400748,530
-552.6628015251767,530
-550.0392086783606,512
-547.4163397204204,565
-544.794194472071,540
-542.1727727539491,532
-539.5520743866118,544
-536.9320991905377,533
-534.3128469861261,583
-531.6943175936979,555
-529.0765108334947,582
-526.4594265256793,612
-523.8430644903358,703
-521.2274245474689,805
-518.612506517005,837
-515.9983102187913,815
-513.3848354725959,821
-510.77208209810846,905
-508.16004991493924,955
-505.5487387426199,974
-502.9381484006032,941
-500.3282787082628,884
-497.71912948489364,785
-495.1107005497117,747
-492.5029917218539,662
-489.8960028203786,633
-487.28973366426493,646
-484.68418407241325,620
-482.07935386364494,587
-479.47524285670266,594
-476.87185087025,623
-474.2691777228715,660
-471.66722323307334,619
-469.0659872192821,618
-466.4654694998459,625
-463.86566989303384,635
-461.26658821703614,613
-458.66822428996414,633
-456.07057792985,612
-453.4736489546475,612
-450.877437182231,631
-448.28194243039627,644
-445.68716451686,636
-443.09310325926003,614
-440.49975847515555,644
-437.9071299820263,631
-435.31521759727354,624
-432.72402113821954,652
-430.13354042210767,605
-427.5437752661022,638
-424.95472548728867,649
-422.36639090267386,633
-419.7787713291855,669
-417.1918665836721,687
-414.60567648290385,683
-412.0202008435715,685
-409.4354394822874,698
-406.8513922155845,671
-404.26805885991723,717
-401.685439231661,720
-399.103533147112,692
-396.522340422488,707
-393.9418608739278,690
-391.3620943174908,685
-388.7830405691583,681
-386.2046994448317,642
-383.6270707603344,624
-381.05015433141045,603
-378.473949973725,614
-375.8984575028645,552
-373.32367673433623,549
-370.74960748356875,543
-368.1762495659117,506
-365.60360279663576,489
-363.03166699093265,470
-360.4604419639154,455
-357.8899275306178,462
-355.32012350599507,437
-352.7510297049233,441
-350.1826459421999,409
-347.61497203254316,430
-345.04800779059235,433
-342.4817530309082,438
-339.91620756797226,433
-337.35137121618743,431
-334.7872437898774,407
-332.22382510328725,426
-329.66111497058273,413
-327.09911320585127,413
-324.53781962310075,420
-321.9772340362607,434
-319.4173562591816,422
-316.8581861056348,448
-314.2997233893127,417
-311.7419679238294,428
-309.1849195227194,447
-306.62857799943856,447
-304.0729431673641,441
-301.51801483979375,428
-298.963792829947,465
-296.41027695096386,492
-293.85746701590574,511
-291.3053628377552,459
-288.7539642294155,488
-286.2032710037115,451
-283.65328297338897,456
-281.1039999511146,499
-278.5554217494762,542
-276.007548180983,508
-273.4603790580651,435
-270.9139141930734,464
-268.3681533982807,461
-265.8230964858798,471
-263.27874326798565,486
-260.7350935566336,483
-258.1921471637804,492
-255.6499039013039,514
-253.10836358100266,524
-250.56752601459698,522
-248.02739101372765,485
-245.48795838995704,517
-242.94922795476816,495
-240.41119951956557,524
-237.8738728956746,557
-235.33724789434166,577
-232.80132432673452,532
-230.2661020039418,561
-227.73158073697357,563
-225.19776033676033,606
-222.66464061415422,584
-220.1322213799284,581
-217.60050244477725,515
-215.06948361931552,511
-212.53916471408013,524
-210.00954553952818,636
-207.48062590603843,548
-204.9524056239104,552
-202.4248845033651,626
-199.8980623545441,631
-197.37193898751036,591
-194.84651421224817,566
-192.32178783866232,584
-189.79775967657952,623
-187.27442953574644,638
-184.7517972258321,672
-182.2298625564256,638
-179.7086253370378,595
-177.18808537710026,617
-174.66824248596583,684
-172.14909647290835,753
-169.6306471471229,713
-167.11289431772548,694
-164.59583779375328,637
-162.07947738416453,652
-159.5638128978386,681
-157.04884414357605,752
-154.53457093009854,852
-152.02099306604828,791
-149.50811035998936,702
-146.99592262040665,707
-144.48442965570587,704
-141.97363127421409,768
-139.46352728417958,774
-136.95411749377126,847
-134.44540171107985,869
-131.93737974411636,812
-129.43005140081357,960
-126.92341648902493,1415
-124.41747481652521,1615
-121.91222619101006,1720
-119.40767042009657,2020
-116.90380731132257,2388
-114.40063667214702,2410
-111.8981583099503,1988
-109.3963720320337,1622
-106.89527764561933,1918
-104.39487495785067,2569
-101.89516377579241,3383
-99.39614390642998,4903
-96.89781515667039,5802
-94.40017733334128,5233
-91.90323024319173,4147
-89.40697369289148,3328
-86.91140748903172,3639
-84.41653143812482,4285
-81.92234534660395,4264
-79.42884902082358,3383
-76.93604226705907,3664
-74.4439248915071,5556
-71.95249670028534,7659
-69.46175749943245,7781
-66.97170709490854,7221
-64.48234529259423,6233
-61.99367189829195,6095
-59.50568671772464,5898
-57.01838955653636,4905
-54.53178022029283,5005
-52.045858514480074,5422
-49.560624244506016,5605
-47.07607721569923,6080
-44.59221723330904,6670
-42.10904410250669,6910
-39.62655762838392,6834
-37.14475761595372,6469
-34.66364387015028,6840
-32.18321619582866,7285
-29.70347439776515,6801
-27.224418280657005,7157
-24.74604764912317,8108
-22.26836230770266,12621
-19.7913620608565,24378
-17.315046712966478,47303
-14.83941606833514,65041
-12.36446993118659,65041
-9.89020810566592,65041
-7.416630395839093,65041
-4.94373660569363,65041
-2.471526539137585,65041
-6.821210263296962E-13,65041
2.47084320796705,65041
4.941003281093458,65041
7.410480415786196,65041
9.879274808531363,65041
12.347386655893956,65041
14.814816154518212,65041
17.28156350112681,65041
19.74762889252179,65041
22.21301252558385,19933
24.67771459727237,3084
27.141735304626195,2161
29.605074844762612,2015
32.06773341487792,1400
34.52971121224755,1271
36.99100843422559,1509
39.45162527824516,1504
41.91156194181792,1447
44.370818622535126,1276
46.82939551806646,968
49.287292826160524,1013
51.74451074464503,1161
54.201049471426245,1114
56.65690920448981,1052
59.112090141899785,945
61.56659248179983,926
64.02041642241159,883
66.4735621620365,921
68.92602989905402,827
71.37781983192338,763
73.82893215918205,836
76.27936707944684,919
78.72912479141326,905
81.17820549385567,951
83.62660938562783,941
86.07433666566146,902
88.5213875329681,731
90.96776218663751,718
93.41346082583925,761
95.85848364982041,843
98.30283085790859,872
100.7465026495089,906
103.18949922410604,844
105.63182078126385,765
108.07346752062438,871
110.51443964190923,782
112.95473734491827,709
115.39436082953114,699
117.83331029570547,709
120.27158594347827,814
122.7091879729652,1007
125.1461165843615,926
127.58237197794062,672
130.01795435405518,669
132.4528639131364,753
134.88710085569494,773
137.32066538231982,766
139.75355769367923,744
142.1857779905207,629
144.61732647366978,662
147.04820334403132,658
149.47840880258934,681
151.90794305040674,726
154.33680628862487,784
156.76499871846443,900
159.19252054122433,879
161.61937195828352,952
164.04555317109896,1028
166.47106438120693,1107
168.89590579022217,1256
171.320077599839,1325
173.7435800118302,1375
176.16641322804742,1350
178.58857745042144,1399
181.01007288096173,1355
183.43089972175687,1413
185.85105817497413,1445
188.27054844285988,1512
190.6893707277394,1524
193.10752523201643,1540
195.5250121581745,1545
197.9418317087751,1575
200.3579840864594,1613
202.7734694939469,1539
205.18828813403627,1557
207.6024402096051,1664
210.01592592360964,1671
212.42874547908548,1680
214.84089907914665,1674
217.2523869269868,1660
219.66320922587727,1637
222.0733661791695,1603
224.48285799029293,1645
226.8916848627572,1745
229.29984700014882,1669
231.7073446061355,1707
234.11417788446204,1670
236.520347038953,1702
238.92585227351185,1747
241.33069379212054,1727
243.73487179884035,1740
246.1383864978112,1716
248.541238093252,1781
250.9434267894609,1730
253.34495279081432,1742
255.74581630176783,1778
258.1460175268563,1769
260.54555667069314,1722
262.9444339379703,1729
265.3426495334594,1717
267.7402036620107,1818
270.1370965285529,1758
272.53332833809407,1628
274.9288992957214,1626
277.32380960660055,1660
279.718059475976,1655
282.1116491091717,1668
284.5045787115897,1696
286.89684848871195,1730
289.2884586460981,1662
291.67940938938807,1656
294.0697009242996,1690
296.4593334566299,1606
298.84830719225477,1646
301.23662233712923,1681
303.6242790972866,1737
306.01127767884,1681
308.39761828798066,1636
310.78330113097934,1631
313.16832641418534,1580
315.5526943440269,1620
317.9364051270112,1522
320.3194589697242,1579
322.70185607883093,1572
325.0835966610754,1505
327.4646809232805,1487
329.8451090723478,1528
332.2248813152577,1547
334.6039978590701,1574
336.9824589109231,1490
339.36026467803447,1540
341.7374153677,1548
344.113911187295,1512
346.48975234427337,1524
348.8649390461686,1486
351.2394715005918,1546
353.61334991523415,1481
355.9865744978655,1500
358.35914545633375,1502
360.73106299856715,1488
363.10232733257146,1477
365.47293866643247,1472
367.84289720831396,1467
370.2122031664593,1383
372.5808567491905,1448
374.9488581649083,1457
377.31620762209275,1420
379.6829053293021,1388
382.0489514951745,1451
384.4143463284262,1462
386.7790900378528,1429
389.14318283232853,1401
391.50662492080653,1407
393.86941651231916,1363
396.23155781597745,1434
398.5930490409713,1401
400.9538903965696,1412
403.3140820921202,1401
405.6736243370498,1374
408.03251734086336,1366
410.3907613131465,1425
412.74835646356166,1368
415.10530300185144,1433
417.4616011378372,1369
419.81725108141893,1380
422.1722530425758,1401
424.5266072313656,1407
426.880313857925,1375
429.2333731324701,1369
431.58578526529516,1334
433.9375504667738,1343
436.2886689473588,1325
438.63914091758113,1385
440.9889665880513,1359
443.33814616945835,1320
445.68667987257015,1347
448.03456790823395,1301
450.3818104873759,1308
452.72840782100013,1297
455.07436012019105,1366
457.41966759611057,1299
459.7643304600007,1317
462.10834892318155,1324
464.4517231970525,1302
466.79445349309174,1331
469.1365400228566,1352
471.4779829979826,1354
473.81878263018564,1296
476.15893913125876,1277
478.4984527130747,1340
480.8373235875855,1368
483.17555196682144,1401
485.5131380628919,1421
487.8500820879857,1474
490.1863842543697,1455
492.52204477439034,1483
494.8570638604725,1531
497.1914417251204,1652
499.52517858091653,1798
501.85827464052306,1957
504.19073011668036,2114
506.5225452222086,2208
508.85372017000566,2289
511.18425517304956,2334
513.514150444396,2569
515.8434061971808,3153
518.1720226446176,3910
520.4999999999999,4162
522.8273384766991,3935
525.1540382881666,3406
527.480099647932,2872
529.8055227696037,2520
532.1303078668694,1892
534.454455153496,1655
536.777964843328,1511
539.1008371502907,1448
541.4230722883866,1400
543.744670471698,1430
546.0656319143858,1365
548.3859568306899,1350
550.7056454349294,1384
553.0246979415016,1427
555.3431145648834,1315
557.6608955196306,1409
559.978041020377,1322
562.2945512818363,1344
564.6104265188006,1364
566.9256669461412,1385
569.2402727788082,1405
571.5542442318302,1356
573.8675815203156,1268
576.1802848594508,1363
578.4923544645015,1390
580.8037905508126,1374
583.114593333807,1408
585.4247630289875,1332
587.7342998519354,1389
590.0432040183106,1352
592.3514757438526,1363
594.6591152443794,1365
596.9661227357875,1335
599.2724984340531,1426
601.578242555231,1381
603.8833553154542,1377
606.1878369309362,1386
608.4916876179676,1351
610.7949075929192,1398
613.0974970722403,1350
615.3994562724587,1366
617.7007854101818,1330
620.0014847020951,1369
622.3015543649641,1302
624.6009946156324,1373
626.8998056710224,1337
629.1979877481361,1324
631.4955410640538,1342
633.7924658359349,1420
636.0887622810175,1386
638.3844306166192,1354
640.6794710601358,1349
642.9738838290426,1372
645.2676691408932,1357
647.5608272133207,1408
649.853358264037,1373
652.1452625108324,1410
654.4365401715764,1448
656.7271914642178,1421
659.0172166067838,1449
661.3066158173809,1393
663.5953893141935,1434
665.8835373154867,1383
668.1710600396028,1359
670.4579577049639,1413
672.7442305300709,1388
675.0298787335033,1460
677.3149025339197,1344
679.599302150058,1406
681.8830778007342,1395
684.1662297048437,1398
686.4487580813608,1417
688.7306631493387,1394
691.0119451279091,1364
693.2926042362834,1360
695.5726406937516,1423
697.8520547196814,1427
700.1308465335215,1411
702.4090163547982,1418
704.6865644031171,1389
706.9634908981619,1388
709.2397960596965,1374
711.5154801075631,1365
713.7905432616823,1365
716.0649857420548,1371
718.3388077687592,1340
720.612009561953,1376
722.8845913418733,1414
725.1565533288352,1470
727.427895743234,1470
729.6986188055427,1365
731.9687227363137,1391
734.238207756178,1425
736.5070740858458,1416
738.7753219461066,1413
741.0429515578281,1372
743.3099631419569,1389
745.5763569195191,1433
747.8421331116193,1430
750.1072919394409,1410
752.3718336242467,1387
754.6357583873777,1381
756.8990664502545,1416
759.1617580343765,1358
761.423833361321,1361
763.6852926527457,1382
765.9461361303862,1363
768.206364016058,1375
770.4659765316536,1469
772.7249738991469,1391
774.9833563405886,1414
777.2411240781092,1393
779.4982773339183,1386
781.7548163303044,1398
784.010741289634,1438
786.2660524343538,1484
788.5207499869881,1445
790.7748341701416,1476
793.0283052064964,1450
795.2811633188143,1503
797.5334087299362,1501
799.7850416627813,1479
802.0360623403484,1431
804.2864709857143,1497
806.5362678220353,1526
808.7854530725468,1515
811.0340269605625,1460
813.2819897094754,1425
815.5293415427581,1462
817.77608268396,1430
820.0222133567116,1459
822.2677337847211,1433
824.5126441917765,1475
826.7569448017433,1419
829.0006358385675,1430
831.2437175262731,1448
833.4861900889629,1421
835.7280537508192,1409
837.9693087361026,1412
840.2099552691533,1389
842.4499935743896,1485
844.689423876309,1417
846.9282463994886,1421
849.1664613685833,1466
851.4040690083276,1466
853.6410695435349,1454
855.877463199097,1421
858.1132501999847,1434
860.3484307712487,1421
862.5830051380175,1422
864.8169735254988,1472
867.0503361589791,1439
869.2830932638243,1419
871.5152450654786,1442
873.7467917894654,1460
875.9777336613873,1469
878.2080709069252,1463
880.4378037518389,1485
882.666932421968,1442
884.8954571432301,1460
887.1233781416219,1437
889.3506956432192,1451
891.5774098741766,1404
893.803521060728,1401
896.0290294291852,1460
898.2539352059397,1371
900.4782386174619,1430
902.7019398903011,1418
904.925039251085,1402
907.147536926521,1409
909.3694331433943,1360
911.59072812857,1414
913.8114221089921,1391
916.0315153116827,1326
918.2510079637437,1372
920.4699002923547,1413
922.6881925247761,1326
924.905884888345,1361
927.1229776104793,1347
929.3394709186747,1407
931.555365040506,1374
933.7706602036275,1341
935.9853566357709,1373
938.1994545647489,1445
940.4129542184515,1436
942.6258558248488,1409
944.8381596119883,1390
947.0498658079974,1337
949.2609746410825,1427
951.4714863395287,1359
953.6814011316998,1408
955.8907192460387,1380
958.0994409110671,1374
960.3075663553858,1373
962.5150958076741,1358
964.7220294966913,1335
966.928367651274,1393
969.1341105003388,1356
971.3392582728806,1350
973.5438111979742,1472
975.747769504772,1415
977.9511334225061,1339
980.153903180487,1366
982.3560790081052,1362
984.5576611348289,1362
986.7586497902058,1344
988.9590452038618,1350
991.158847605503,1333
993.3580572249133,1360
995.5566742919558,1275
997.7546990365728,1252
999.952131688785,1250
1002.1489724786926,1299
1004.3452216364743,1289
1006.5408793923874,1226
1008.7359459767691,1181
1010.9304216200343,1181
1013.1243065526781,1186
1015.3176010052733,1201
1017.510305208472,1193
1019.7024193930064,1165
1021.8939437896848,1187
1024.0848786293977,1224
1026.2752241431122,1160
1028.4649805618747,1198
1030.6541481168115,1149
1032.842727039127,1254
1035.0307175601051,1188
1037.2181199111074,1143
1039.4049343235752,1166
1041.591161029029,1128
1043.7768002590683,1198
1045.9618522453698,1123
1048.1463172196918,1156
1050.3301954138697,1074
1052.513487059818,1170
1054.69619238953,1159
1056.8783116350783,1130
1059.0598450286152,1129
1061.2407928023704,1114
1063.4211551886528,1103
1065.6009324198508,1144
1067.780124728432,1137
1069.9587323469414,1153
1072.1367555080046,1160
1074.314194444325,1117
1076.4910493886855,1152
1078.667320573947,1125
1080.843008233051,1110
1083.0181125990161,1102
1085.1926339049414,1122
1087.3665723840027,1097
1089.5399282694575,1093
1091.7127017946405,1063
1093.8848931929647,1176
1096.0565026979243,1097
1098.2275305430899,1132
1100.3979769621128,1118
1102.567842188722,1103
1104.737126456726,1056
1106.9058300000124,1055
1109.0739530525475,1108
1111.2414958483764,1091
1113.4084586216231,1093
1115.5748416064907,1093
1117.7406450372605,1107
1119.9058691482942,1104
1122.0705141740304,1074
1124.2345803489884,1109
1126.3980679077658,1142
1128.5609770850388,1116
1130.7233081155623,1075
1132.8850612341707,1088
1135.0462366757774,1025
1137.2068346753745,1113
1139.3668554680326,1092
1141.526299288901,1079
1143.68516637321,1096
1145.8434569562655,1077
1148.001171273455,1129
1150.158309560244,1094
1152.3148720521767,1054
1154.470858984876,1112
1156.626270594044,1056
1158.7811071154629,1048
1160.9353687849912,1035
1163.089055838569,1058
1165.242168512213,1062
1167.3947070420209,1040
1169.5466716641677,1010
1171.6980626149075,1089
1173.8488801305748,1052
1175.9991244475814,1089
1178.1487958024186,1091
1180.2978944316555,1068
1182.4464205719428,1041
1184.5943744600072,1125
1186.7417563326567,1037
1188.8885664267755,1075
1191.0348049793297,1064
1193.1804722273619,1066
1195.325568407995,1077
1197.4700937584303,1080
1199.614048515948,1049
1201.7574329179074,1060
1203.900247201746,1096
1206.042491604982,1070
1208.1841663652099,1093
1210.3252717201053,1072
1212.465807907422,1095
1214.6057751649923,1183
1216.7451737307279,1103
1218.8840038426192,1085
1221.0222657387353,1094
1223.1599596572241,1095
1225.2970858363137,1092
1227.4336445143094,1086
1229.5696359295966,1125
1231.705060320639,1108
1233.8399179259786,1081
1235.9742089842384,1098
1238.107933734118,1134
1240.2410924143974,1119
1242.373685263935,1126
1244.5057125216676,1042
1246.6371744266116,1104
1248.7680712178621,1094
1250.898403134593,1138
1253.028170416058,1111
1255.1573733015875,1126
1257.2860120305932,1151
1259.4140868425648,1160
1261.54159797707,1125
1263.6685456737569,1124
1265.7949301723515,1127
1267.9207517126597,1094
1270.046010534565,1129
1272.1707068780306,1159
1274.2948409830983,1168
1276.4184130898889,1176
1278.541423438603,1160
1280.6638722695184,1119
1282.785759822993,1116
1284.9070863394636,1118
1287.0278520594447,1092
1289.1480572235314,1191
1291.2677020723963,1193
1293.3867868467923,1180
1295.5053117875495,1183
1297.623277135579,1212
1299.740683131868,1218
1301.8575300174857,1235
1303.973818033578,1254
1306.0895474213703,1259
1308.2047184221678,1211
1310.3193312773528,1284
1312.4333862283888,1253
1314.5468835168163,1260
1316.659823384255,1270
1318.7722060724045,1260
1320.8840318230418,1301
1322.9953008780249,1237
1325.1060134792888,1259
1327.2161698688478,1276
1329.3257702887959,1257
1331.4348149813054,1236
1333.5433041886276,1211
1335.6512381530933,1235
1337.7586171171101,1258
1339.8654413231675,1268
1341.9717110138317,1289
1344.0774264317488,1240
1346.1825878196432,1269
1348.2871954203192,1281
1350.3912494766587,1298
1352.4947502316231,1230
1354.5976979282532,1183
1356.7000928096686,1189
1358.8019351190665,1234
1360.9032250997243,1214
1363.0039629949988,1237
1365.1041490483235,1180
1367.2037835032133,1236
1369.3028666032606,1194
1371.401398592137,1204
1373.4993797135926,1201
1375.5968102114575,1186
1377.6936903296396,1207
1379.7900203121262,1230
1381.8858004029835,1198
1383.9810308463561,1189
1386.075711886469,1154
1388.1698437676241,1196
1390.2634267342032,1228
1392.356461030667,1192
1394.4489469015557,1175
1396.5408845914872,1157
1398.6322743451592,1168
1400.7231164073469,1201
1402.813411022907,1187
1404.903158436773,1157
1406.9923588939578,1147
1409.0810126395531,1189
1411.1691199187303,1202
1413.2566809767386,1185
1415.343696058907,1205
1417.4301654106425,1190
1419.5160892774315,1200
1421.6014679048399,1215
1423.6863015385125,1165
1425.7705904241707,1159
1427.8543348076178,1163
1429.9375349347342,1216
1432.0201910514802,1212
1434.102303403894,1182
1436.1838722380944,1207
1438.2648978002767,1272
1440.3453803367174,1212
1442.4253200937692,1171
1444.5047173178677,1185
1446.5835722555234,1207
1448.6618851533285,1190
1450.739656257952,1194
1452.8168858161434,1237
1454.8935740747306,1256
1456.96972128062,1205
1459.045327680797,1247
1461.120393522327,1273
1463.1949190523528,1231
1465.2689045180973,1241
1467.3423501668608,1254
1469.415256246024,1255
1471.4876230030463,1233
1473.559450685465,1244
1475.6307395408976,1244
1477.7014898170391,1270
1479.771701761665,1306
1481.8413756226287,1286
1483.9105116478618,1285
1485.9791100853772,1246
1488.0471711832643,1301
1490.1146951896926,1306
1492.1816823529098,1284
1494.2481329212433,1259
1496.3140471430984,1255
1498.3794252669609,1302
1500.4442675413939,1280
1502.5085742150404,1315
1504.572345536622,1329
1506.6355817549388,1305
1508.6982831188702,1271
1510.7604498773744,1329
1512.8220822794883,1322
1514.8831805743293,1348
1516.9437450110909,1393
1519.003775839048,1344
1521.0632733075522,1336
1523.1222376660367,1414
1525.1806691640113,1363
1527.2385680510652,1392
1529.2959345768668,1367
1531.3527689911643,1345
1533.4090715437833,1452
1535.4648424846291,1458
1537.5200820636855,1348
1539.5747905310159,1480
1541.6289681367616,1493
1543.6826151311434,1445
1545.7357317644614,1476
1547.7883182870937,1468
1549.8403749494987,1500
1551.8919020022113,1461
1553.9428996958477,1530
1555.9933682811015,1588
1558.0433080087469,1557
1560.0927191296346,1589
1562.1416018946961,1615
1564.1899565549415,1565
1566.2377833614592,1589
1568.2850825654164,1613
1570.3318544180606,1584
1572.3780991707158,1543
1574.423817074788,1542
1576.4690083817595,1466
1578.5136733431923,1557
1580.5578122107272,1550
1582.601425236085,1498
1584.6445126710646,1456
1586.6870747675434,1445
1588.7291117774776,1392
1590.7706239529034,1430
1592.8116115459347,1398
1594.8520748087658,1354
1596.8920139936686,1383
1598.9314293529933,1336
1600.9703211391711,1350
1603.008689604711,1315
1605.0465350022005,1333
1607.0838575843068,1286
1609.1206576037753,1289
1611.1569353134305,1284
1613.1926909661765,1228
1615.2279248149953,1266
1617.2626371129481,1265
1619.2968281131757,1180
1621.3304980688963,1196
1623.3636472334088,1178
1625.39627586009,1191
1627.428384202396,1209
1629.459972513861,1209
1631.4910410480993,1148
1633.5215900588028,1170
1635.551619799744,1138
1637.5811305247717,1105
1639.6101224878166,1150
1641.6385959428862,1157
1643.6665511440683,1129
1645.693988345528,1109
1647.7209078015112,1067
1649.7473097663405,1100
1651.7731944944203,1086
1653.7985622402307,1137
1655.823413258333,1150
1657.847747803366,1125
1659.8715661300494,1126
1661.8948684931793,1132
1663.9176551476316,1044
1665.9399263483624,1047
1667.9616823504057,1112
1669.982923408873,1114
1672.0036497789574,1080
1674.0238617159293,1077
1676.043559475138,1098
1678.0627433120121,1120
1680.081413482059,1134
1682.0995702408654,1109
1684.117213844096,1065
1686.134344547495,1076
1688.1509626068864,1010
1690.1670682781705,1056
1692.182661817329,1097
1694.1977434804217,1067
1696.2123135235875,1098
1698.226372203043,1082
1700.2399197750851,1082
1702.2529564960905,1106
1704.2654826225112,1085
1706.277498410882,1089
1708.2890041178139,1038
1710.2999999999988,1065
1712.3104863142066,1080
1714.3204633172854,1089
1716.329931266163,1079
1718.3388904178469,1116
1720.3473410294214,1130
1722.3552833580516,1115
1724.3627176609807,1058
1726.3696441955308,1062
1728.3760632191033,1058
1730.3819749891782,1015
1732.3873797633146,1074
1734.3922777991502,1089
1736.3966693544012,1048
1738.4005546868639,1051
1740.4039340544127,1070
1742.406807715001,1061
1744.4091759266616,1050
1746.4110389475054,1076
1748.4123970357223,1108
1750.413250449582,1079
1752.4135994474318,1027
1754.4134442876993,1065
1756.4127852288902,1064
1758.4116225295893,1070
1760.4099564484595,1075
1762.407787244244,1075
1764.405115175764,1054
1766.4019405019203,1090
1768.3982634816916,1029
1770.3940843741357,1069
1772.3894034383907,1001
1774.3842209336717,1066
1776.378537119274,1071
1778.372352254571,1067
1780.3656665990156,1052
1782.3584804121397,1045
1784.3507939535534,1109
1786.3426074829463,1087
1788.3339212600863,1086
1790.3247355448211,1093
1792.3150505970766,1060
1794.3048666768573,1073
1796.2941840442477,1074
1798.2830029594106,1043
1800.2713236825884,1045
1802.2591464741004,1079
1804.2464715943465,1102
1806.2332993038058,1018
1808.2196298630352,1093
1810.2054635326708,1076
1812.190800573428,1038
1814.175641246101,1057
1816.1599858115628,1054
1818.1438345307652,1093
1820.127187664738,1081
1822.1100454745924,1064
1824.092408221516,1076
1826.0742761667766,1048
1828.055649571721,1082
1830.0365286977735,1052
1832.0169138064398,1055
1833.9968051593014,1034
1835.9762030180214,1061
1837.9551076443408,1070
1839.9335193000788,1040
1841.9114382471344,1036
1843.888864747485,1066
1845.8657990631878,1082
1847.842241456378,1076
1849.8181921892697,1093
1851.7936515241558,1081
1853.7686197234098,1043
1855.7430970494815,1026
1857.7170837649014,1048
1859.6905801322787,1060
1861.6635864143004,1058
1863.6361028737338,1031
1865.608129773424,1108
1867.5796673762961,1082
1869.5507159453537,1086
1871.521275743678,1087
1873.4913470344313,1090
1875.4609300808534,1073
1877.4300251462632,1056
1879.3986324940588,1081
1881.366752387717,1045
1883.3343850907936,1111
1885.3015308669228,1075
1887.268189979819,1095
1889.2343626932739,1126
1891.2000492711595,1065
1893.1652499774254,1092
1895.1299650761011,1043
1897.0941948312952,1102
1899.0579395071945,1055
1901.0211993680641,1020
1902.98397467825,1066
1904.9462657021745,1079
1906.9080727043415,1116
1908.869395949332,1088
1910.8302357018065,1077
1912.790592226504,1062
1914.7504657882428,1037
1916.7098566519212,1085
1918.6687650825133,1047
1920.6271913450764,1075
1922.5851357047422,1040
1924.5425984267245,1099
1926.499579776314,1029
1928.4560800188833,1034
1930.4120994198802,1111
1932.367638244833,1084
1934.32269675935,1100
1936.2772752291175,1075
1938.231373919899,1067
1940.1849930975404,1101
1942.1381330279637,1031
1944.0907939771696,1067
1946.0429762112412,1083
1947.9946799963363,1062
1949.9459055986945,1086
1951.896653284633,1014
1953.8469233205478,1064
1955.7967159729142,1060
1957.7460315082863,1041
1959.6948701932974,1029
1961.6432322946594,1048
1963.5911180791632,1035
1965.5385278136787,1046
1967.4854617651545,1050
1969.4319202006182,1086
1971.377903387176,1105
1973.3234115920136,1080
1975.268445082395,1051
1977.2130041256642,1080
1979.1570889892423,1108
1981.1006999406304,1030
1983.04383724741,1050
1984.986501177238,1054
1986.928691997853,1112
1988.8704099770712,1071
1990.811655382789,1090
1992.7524284829801,1091
1994.692729545698,1091
1996.6325588390755,1105
1998.5719166313224,1086
2000.5108031907307,1023
2002.4492187856677,1083
2004.387163684583,1068
2006.3246381560011,1004
2008.2616424685298,1071
2010.1981768908527,1069
2012.1342416917332,1067
2014.069837140014,1077
2016.0049635046162,1058
2017.9396210545406,1027
2019.8738100588666,1040
2021.8075307867502,1097
2023.740783507431,1045
2025.6735684902228,1042
2027.6058860045214,1057
2029.5377363198004,1062
2031.4691197056118,1113
2033.4000364315875,1037
2035.3304867674374,1057
2037.260470982952,1013
2039.189989347998,1009
2041.1190421325232,1062
2043.047629606554,1028
2044.9757520401945,1098
2046.9034097036288,1050
2048.8306028671195,1082
2050.7573318010086,1073
2052.683596775716,1045
2054.609398061742,1016
2056.5347359296647,1044
2058.4596106501403,1076
2060.384022493906,1068
2062.3079717317764,1023
2064.231458634646,1050
2066.1544834734873,1102
2068.077046519352,1059
2069.99914804337,1069
2071.9207883167524,1025
2073.8419676107865,1034
2075.7626861968406,1046
2077.6829443463607,1055
2079.6027423308715,1062
2081.522080421977,1042
2083.440958891362,1080
2085.359378010786,1058
2087.2773380520907,1069
2089.194839287196,1070
2091.111881988101,1057
2093.0284664268825,1026
2094.9445928756973,1074
2096.86026160678,1068
2098.775472892446,1010
2100.690227005088,1032
2102.604524217178,1053
2104.5183648012676,1075
2106.431749029985,1084
2108.34467717604,1059
2110.2571495122206,1070
2112.169166311393,1012
2114.080727846503,1065
2115.9918343905747,1084
2117.902486216711,1056
2119.8126835980956,1107
2121.722426807987,1043
2123.6317161197285,1060
2125.5405518067364,1057
2127.448934142509,1061
2129.356863400624,1081
2131.264339854737,1053
2133.1713637785815,1075
2135.077935445972,1067
2136.9840551308002,1036
2138.889723107037,1055
2140.7949396487334,1088
2142.699705030018,1071
2144.6040195250994,1093
2146.507883408264,1062
2148.4112969538774,1035
2150.3142604363848,1026
2152.2167741303097,1065
2154.1188383102535,1037
2156.0204532508997,1061
2157.9216192270064,1072
2159.822336513414,1142
2161.7226053850413,1101
2163.622426116884,1081
2165.5217989840185,1114
2167.4207242616,1065
2169.319202224862,1111
2171.2172331491165,1135
2173.1148173097563,1070
2175.0119549822507,1107
2176.90864644215,1068
2178.8048919650823,1098
2180.7006918267534,1041
2182.596046302952,1063
2184.4909556695407,1050
2186.3854202024645,1074
2188.279440177746,1093
2190.173015871487,1098
2192.066147559868,1052
2193.958835519149,1045
2195.851080025667,1098
2197.7428813558417,1102
2199.6342397861667,1053
2201.5251555932186,1051
2203.415629053651,1077
2205.3056604441986,1081
2207.19525004167,1123
2209.084398122958,1095
2210.9731049650327,1060
2212.861370844941,1133
2214.749196039812,1154
2216.636580826851,1123
2218.523525483344,1100
2220.410030286655,1121
2222.296095514226,1094
2224.1817214435805,1068
2226.066908352319,1128
2227.951656518121,1129
2229.835966218746,1084
2231.71983773203,1117
2233.6032713358913,1062
2235.486267308324,1050
2237.3688259274036,1096
2239.2509474712824,1116
2241.132632218193,1134
2243.013880446447,1114
2244.8946924344323,1101
2246.7750684606203,1131
2248.6550088035574,1146
2250.534513741871,1106
2252.413583554265,1133
2254.292218519526,1146
2256.170418916517,1119
2258.0481850241786,1112
2259.925517121534,1123
2261.8024154876825,1101
2263.678880401803,1092
2265.5549121431536,1147
2267.430510991071,1134
2269.305677224971,1086
2271.180411124348,1099
2273.0547129687766,1096
2274.9285830379076,1106
2276.8020216114737,1089
2278.6750289692845,1112
2280.5476053912294,1108
2282.4197511572766,1177
2284.2914665474727,1148
2286.162751841943,1118
2288.0336073208937,1117
2289.904033264608,1129
2291.774029953448,1170
2293.6435976678554,1121
2295.5127366883517,1126
2297.381447295534,1081
2299.2497297700825,1045
2301.1175843927526,1050
2302.9850114443825,1068
2304.852011205885,1034
2306.7185839582553,997
2308.5847299825664,1001
2310.4504495599676,977
2312.3157429716925,987
2314.1806104990483,982
2316.0450524234247,986
2317.9090690262888,975
2319.772660589186,985
2321.635827393742,991
2323.498569721661,996
2325.3608878547248,987
2327.2227820747967,965
2329.0842526638157,990
2330.945299903803,1015
2332.805924076857,1007
2334.6661254651535,980
2336.525904350951,972
2338.3852610165827,1011
2340.244195744464,1041
2342.102708817088,967
2343.9608005170253,973
2345.8184711269287,967
2347.675720929526,1000
2349.532550207628,995
2351.38895924412,975
2353.24494832197,944
2355.100517724223,1034
2356.955667734004,978
2358.810398634514,972
2360.664710709037,939
2362.5186042409337,1002
2364.3720795136437,998
2366.225136810686,1006
2368.0777764156583,977
2369.929998612237,974
2371.7818036841777,982
2373.633191915315,994
2375.484163589562,1006
2377.3347189909114,1009
2379.184858403434,1039
2381.03458211128,1051
2382.8838903986775,1022
2384.732783549936,1045
2386.5812618494406,1024
2388.4293255816588,985
2390.2769750311327,996
2392.1242104824883,1015
2393.971032220427,1048
2395.8174405297295,1057
2397.6634356952563,1033
2399.509018001947,994
2401.3541877348193,978
2403.1989451789705,980
2405.043290619576,982
2406.8872243418905,1038
2408.730746631247,1001
2410.5738577730594,1006
2412.4165580528183,1005
2414.258847756095,1061
2416.100727168537,1061
2417.9421965758734,1051
2419.783256263912,1037
2421.623906518538,1045
2423.4641476257157,967
2425.303979871491,1083
2427.143403541984,1048
2428.9824189233977,1010
2430.821026302012,1046
2432.6592259641866,1069
2434.497018196361,1010
2436.33440328505,1056
2438.171381516851,1037
2440.00795317844,1056
2441.844118556569,1056
2443.6798779380724,1076
2445.5152316098606,1106
2447.3501798589255,1085
2449.1847229723357,1009
2451.0188612372403,1009
2452.8525949408663,1046
2454.6859243705203,1087
2456.518849813587,1020
2458.3513715575314,982
2460.183489889895,1035
2462.015205098301,981
2463.8465174704493,1036
2465.67742729412,1054
2467.5079348571717,1024
2469.338040447542,1013
2471.1677443532476,1005
2472.9970468623833,1030
2474.825948263123,1080
2476.6544488437207,1044
2478.482548892508,1033
2480.310248697896,1023
2482.137548548374,1004
2483.9644487325118,1017
2485.790949538956,1026
2487.617051256433,1006
2489.44275417375,1015
2491.26805857979,984
2493.0929647635157,1057
2494.917473013971,1029
2496.741583620276,1056
2498.5652968716304,1066
2500.3886130573137,1032
2502.2115324666834,1035
2504.0340553891765,1034
2505.856182114308,1033
2507.6779129316733,1009
2509.499248130945,1033
2511.3201880018764,1047
2513.140732834298,1056
2514.9608829181198,1050
2516.780638543331,1006
2518.6,1021
2520.418967578273,1028
2522.237541568376,1001
2524.0557222606144,1032
2525.8735099453706,1019
2527.6909049131086,1023
2529.507907454368,1019
2531.32451785977,1042
2533.140736420014,1067
2534.9565634258774,1039
2536.771999168218,1087
2538.5870439379714,996
2540.4016980261526,1067
2542.2159617238544,1087
2544.02983532225,1030
2545.8433191125914,1034
2547.656413386209,1067
2549.4691184345115,1046
2551.2814345489874,1066
2553.093362021204,1114
2554.904901142808,1047
2556.716052205523,1027
2558.526815501153,1073
2560.3371913215824,1077
2562.147179958771,1125
2563.956781704761,1063
2565.7659968516705,1065
2567.5748256916986,1099
2569.3832685171224,1085
2571.1913256202984,1102
2572.9989972936614,1082
2574.806283829725,1080
2576.613185521084,1073
2578.4197026604074,1041
2580.2258355404483,1078
2582.031584454035,1094
2583.836949694077,1058
2585.6419315535613,1101
2587.4465303255533,1069
2589.2507463032002,1103
2591.0545797797245,1121
2592.8580310484303,1079
2594.6611004026995,1092
2596.463788135992,1116
2598.266094541849,1064
2600.0680199138874,1122
2601.869564545807,1079
2603.670728731383,1087
2605.4715127644704,1064
2607.2719169390048,1108
2609.071941548998,1101
2610.8715868885433,1063
2612.670853251811,1122
2614.469740933052,1143
2616.268250226594,1063
2618.0663814268455,1110
2619.864134828292,1068
2621.6615107255006,1094
2623.458509413115,1103
2625.2551311858597,1062
2627.0513763385347,1112
2628.8472451660223,1066
2630.6427379632833,1069
2632.4378550253564,1067
2634.232596647359,1122
2636.026963124488,1121
2637.8209547520187,1104
2639.6145718253065,1090
2641.407814639785,1078
2643.200683490966,1073
2644.9931786744414,1064
2646.7853004858807,1073
2648.577049221034,1076
2650.3684251757277,1073
2652.1594286458712,1095
2653.9500599274484,1042
2655.740319316525,1052
2657.5302071092437,1085
2659.3197236018286,1039
2661.10886909058,1077
2662.8976438718782,1119
2664.686048242183,1060
2666.4740824980327,1015
2668.2617469360443,1044
2670.0490418529134,1067
2671.8359675454153,1059
2673.622524310403,1049
2675.408712444811,1076
2677.1945322456495,1051
2678.979984010009,1032
2680.76506803506,1061
2682.5497846180497,1031
2684.334134056306,1044
2686.1181166472343,1065
2687.9017326883213,1024
2689.6849824771293,1035
2691.4678663113013,1095
2693.2503844885596,1046
2695.032537306705,1048
2696.8143250636167,1015
2698.5957480572542,1000
2700.3768065856534,1067
2702.1575009469316,1014
2703.937831439283,1032
2705.717798360982,1044
2707.4974020103837,1033
2709.276642685917,971
2711.055520686095,1001
2712.834036309506,1023
2714.612189854819,976
2716.389981620782,1010
2718.1674119062204,1032
2719.944481010041,1048
2721.721189231226,994
2723.4975368688415,987
2725.273524222027,1013
2727.0491515900053,977
2728.824419272075,1061
2730.5993275676146,979
2732.3738767760838,1011
2734.148067197016,1069
2735.921899130031,1051
2737.6953728748194,981
2739.468488731156,974
2741.2412469988926,1013
2743.0136479779617,991
2744.785691968372,991
2746.5573792702116,1006
2748.3287101836504,1035
2750.099685008934,986
2751.870304046388,1061
2753.640567596418,1006
2755.4104759595057,1023
2757.1800294362156,1008
2758.949228327187,994
2760.7180729331412,982
2762.486563554877,985
2764.254700493272,980
2766.022484049284,983
2767.789914523947,986
2769.5569922183786,1011
2771.3237174337705,1016
2773.090090471394,977
2774.8561116326036,1002
2776.6217812188274,1009
2778.3870995315756,981
2780.1520668724356,1021
2781.9166835430747,1017
2783.6809498452394,968
2785.444866080754,1015
2787.2084325515225,972
2788.971649559527,1006
2790.73451740683,953
2792.4970363955713,1008
2794.2592068279705,963
2796.0210290063264,996
2797.7825032330147,983
2799.543629810493,1020
2801.304409041296,989
2803.0648412280366,985
2804.8249266734088,963
2806.5846656801846,968
2808.344058551212,1004
2810.1031055894246,974
2811.8618070978273,984
2813.6201633795085,1000
2815.378174737636,986
2817.1358414754536,1043
2818.893163896285,1009
2820.6501423035334,994
2822.4067770006814,1062
2824.1630682912883,1054
2825.9190164789957,989
2827.6746218675207,990
2829.429884760661,1002
2831.184805462294,1043
2832.9393842763743,1028
2834.693621506936,989
2836.4475174580916,1001
2838.201072434034,1057
2839.954286739034,984
2841.707160677441,978
2843.459694553685,1034
2845.2118886722724,1030
2846.96374333779,1029
2848.7152588549034,990
2850.4664355283567,950
2852.217273662973,1034
2853.9677735636546,1059
2855.7179355353833,997
2857.4677598832186,1011
2859.217246912299,1006
2860.9663969278427,975
2862.715210235146,1042
2864.4636871395846,1030
2866.211827946614,983
2867.9596329617652,970
2869.7071024906536,1024
2871.4542368389684,952
2873.20103631248,1009
2874.947501217038,977
2876.6936318585695,988
2878.4394285430812,1026
2880.1848915766604,999
2881.9300212654707,973
2883.6748179157553,985
2885.4192818338374,957
2887.1634133261173,977
2888.907212699077,1029
2890.6506802592744,983
2892.393816313348,1006
2894.1366211680142,1021
2895.8790951300693,968
2897.621238506388,1064
2899.363051603925,1003
2901.1045347297118,986
2902.8456881908596,1042
2904.58651229456,980
2906.327007348081,976
2908.067173658772,995
2909.8070115340597,957
2911.5465212814497,1021
2913.285703208527,1001
2915.0245576229563,1033
2916.7630848324807,1017
2918.5012851449196,965
2920.2391588681758,977
2921.976706310227,977
2923.7139277791334,1017
2925.4508235830313,978
2927.187394030137,999
2928.923639428745,1013
2930.6595600872306,1010
2932.395156314046,968
2934.1304284177218,1017
2935.8653767068713,981
2937.6000014901815,1024
2939.3343030764227,1012
2941.068281774442,1061
2942.8019378931644,1047
2944.5352717415976,1049
2946.2682836288236,1017
2948.0009738640065,987
2949.7333427563885,1023
2951.465390615289,1058
2953.1971177501086,1012
2954.9285244703265,984
2956.6596110855,978
2958.3903779052657,965
2960.1208252393385,1012
2961.8509533975125,1047
2963.5807626896617,990
2965.3102534257378,973
2967.0394259157715,1033
2968.768280469873,994
2970.496817398232,1028
2972.2250370111146,1044
2973.952939618869,976
2975.6805255319196,964
2977.4077950607707,1009
2979.134748516006,950
2980.861386208289,1013
2982.587708448359,1018
2984.313715547037,1004
2986.039407815222,1017
2987.764785563891,1031
2989.489849104102,1013
2991.2145987469908,995
2992.9390348037705,946
2994.6631575857346,991
2996.3869674042576,1001
2998.1104645707887,989
2999.83364939686,989
3001.5565221940783,981
3003.2790832741334,1016
3005.0013329487924,1021
3006.7232715298996,976
3008.4448993293804,970
3010.166216659239,942
3011.887223831558,1008
3013.607921158498,1001
3015.3283089522993,1004
3017.0483875252826,978
3018.7681571898443,1004
3020.4876182584626,1019
3022.2067710436927,970
3023.9256158581707,1022
3025.644153014609,997
3027.362382825801,989
3029.0803056046193,1012
3030.797921664012,1004
3032.5152313170106,987
3034.2322348767225,1026
3035.9489326563353,1025
3037.665324969115,949
3039.3814121284063,984
3041.097194447633,985
3042.812672240299,959
3044.5278458199855,969
3046.2427155003525,1039
3047.9572815951406,1010
3049.671544418167,964
3051.38550428333,1015
3053.0991615046073,980
3054.812516396051,990
3056.5255692717974,960
3058.2383204460575,987
3059.9507702331257,972
3061.662918947372,980
3063.3747669032446,992
3065.0863144152736,1014
3066.7975617980674,1034
3068.508509366309,1057
3070.219157434767,999
3071.9295063182844,1002
3073.639556331785,990
3075.3493077902704,997
3077.058761008821,998
3078.7679163025964,1016
3080.476773986837,984
3082.1853343768594,1010
3083.89359778806,1037
3085.6015645359153,985
3087.3092349359786,985
3089.016609303884,917
3090.7236879553434,997
3092.4304712061476,995
3094.136959372166,999
3095.843152769349,1028
3097.5490517137237,1004
3099.2546565213966,966
3100.959967508554,977
3102.66498499146,1006
3104.3697092864577,961
3106.0741407099695,953
3107.778279578498,987
3109.482126208622,1004
3111.1856809170004,953
3112.8889440203716,952
3114.5919158355528,949
3116.294596679439,976
3117.996986869006,998
3119.6990867213062,958
3121.4008965534726,960
3123.102416682717,981
3124.803647426329,947
3126.5045891016784,973
3128.205242026213,962
3129.90560651746,971
3131.605682893025,975
3133.3054714705922,1036
3135.0049725679282,1009
3136.7041865028714,973
3138.4031135933465,981
3140.101754157353,955
3141.800108512971,996
3143.498176978357,1011
3145.1959598717494,991
3146.8934575114636,1019
3148.5906702158954,1008
3150.2875983035183,988
3151.9842420928853,1021
3153.680601902627,1035
3155.376678051456,988
3157.07247085816,1002
3158.767980641609,986
3160.463207720748,931
3162.158152414606,980
3163.8528150422862,1014
3165.5471959229726,1015
3167.2412953759303,991
3168.9351137204976,999
3170.628651276098,937
3172.3219083622307,983
3174.014885298474,990
3175.707582404485,1012
3177.4000000000005,975
3179.092138404835,944
3180.7839979388846,1034
3182.47557892212,972
3184.166881674594,978
3185.8579065164386,987
3187.5486537678626,1007
3189.2391237491547,942
3190.9293167806827,1031
3192.6192331828934,988
3194.3088732763117,975
3195.998237381542,985
3197.687325819268,951
3199.376138910251,975
3201.064676975334,980
3202.7529403354347,1021
3204.4409293115523,944
3206.1286442247647,1001
3207.816085396229,1005
3209.5032531471825,981
3211.190147798936,966
3212.8767696728846,948
3214.5631190905015,953
3216.2491963733373,977
3217.9350018430214,936
3219.6205358212637,964
3221.305798629851,957
3222.990790590651,968
3224.6755120256103,977
3226.359963256751,981
3228.0441446061795,972
3229.7280563960758,959
3231.411698948703,983
3233.0950725863995,1005
3234.778177631587,963
3236.461014406761,960
3238.1435832345005,997
3239.8258844374595,1014
3241.507918338374,939
3243.1896852600576,1004
3244.8711855254023,961
3246.552419457381,938
3248.233387379042,966
3249.914089613516,975
3251.59452648401,980
3253.274698313813,977
3254.95460542629,995
3256.6342481448855,964
3258.313626793125,971
3259.9927416946084,992
3261.6715931730196,955
3263.3501815521176,964
3265.0285071557437,971
3266.706570307815,927
3268.3843713323286,941
3270.0619105533615,981
3271.739188295068,1003
3273.4162048816834,933
3275.0929606375184,972
3276.769455886966,974
3278.445690954498,974
3280.1216661646613,970
3281.797381842087,1012
3283.4728383114807,954
3285.1480358976296,969
3286.8229749253996,978
3288.4976557197333,987
3290.172078605655,963
3291.846243908266,947
3293.5201519527463,954
3295.193803064357,952
3296.8671975684374,951
3298.5403357904024,949
3300.21321805575,965
3301.8858446900567,986
3303.558216018975,963
3305.23033236824,982
3306.9021940636603,959
3308.57380143113,976
3310.2451547966184,975
3311.916254486174,1013
3313.5871008259246,981
3315.2576941420766,964
3316.9280347609147,1019
3318.5981230088046,985
3320.2679592121895,995
3321.9375436975924,955
3323.606876791612,968
3325.27595882093,985
3326.944790112305,990
3328.6133709925753,981
3330.2817017886573,1035
3331.949782827547,957
3333.617614436319,967
3335.2851969421245,970
3336.952530672199,975
3338.619615953853,990
3340.286453114475,994
3341.9530424815357,959
3343.619384382583,989
3345.2854791452437,944
3346.951327097224,984
3348.6169285663073,971
3350.2822838803577,1003
3351.947393367319,968
3353.61225735521,940
3355.2768761721345,1007
3356.9412501462693,994
3358.605379605873,964
3360.2692648792827,971
3361.9329062949146,973
3363.596304181263,961
