CollectionTime,7/3/2024 2:56:16 PM
ExposureUsed,3
CalibratedSpectrum
-962.7078968117929,460
-959.9714848408522,477
-957.2358232597828,466
-954.5009119013725,469
-951.7667505983302,458
-949.0333391832855,480
-946.3006774887896,460
-943.5687653473143,482
-940.837602591253,466
-938.1071890529199,468
-935.3775245645503,470
-932.6486089583007,504
-929.9204420662485,520
-927.1930237203925,494
-924.4663537526524,489
-921.7404319948689,515
-919.0152582788041,493
-916.2908324361409,545
-913.5671542984834,462
-910.8442236973568,469
-908.1220404642074,459
-905.4006044304027,528
-902.679915427231,507
-899.959973285902,484
-897.2407778375464,476
-894.5223289132158,468
-891.8046263438832,486
-889.0876699604426,471
-886.3714595937089,501
-883.6559950744183,484
-880.9412762332282,475
-878.2273029007168,443
-875.5140749073835,461
-872.8015920836489,490
-870.0898542598545,507
-867.3788612662631,463
-864.6686129330585,467
-861.9591090903457,498
-859.2503495681506,458
-856.5423341964203,484
-853.8350628050229,480
-851.1285352237478,485
-848.4227512823054,456
-845.7177108103272,479
-843.0134136373656,466
-840.3098595928943,500
-837.6070485063082,485
-834.9049802069229,477
-832.2036545239757,455
-829.5030712866244,474
-826.8032303239481,475
-824.1041314649472,488
-821.4057745385428,489
-818.7081593735775,478
-816.0112857988148,484
-813.3151536429393,501
-810.6197627345566,488
-807.9251129021936,467
-805.2312039742981,463
-802.5380357792392,488
-799.8456081453069,486
-797.1539209007124,487
-794.462973873588,486
-791.772766891987,511
-789.083299783884,487
-786.3945723771743,496
-783.7065844996748,490
-781.0193359791231,445
-778.3328266431781,462
-775.6470563194197,461
-772.9620248353489,466
-770.2777320183878,486
-767.5941776958798,507
-764.9113616950891,521
-762.2292838432011,491
-759.5479439673222,476
-756.8673418944801,504
-754.1874774516235,519
-751.5083504656222,510
-748.8299607632671,507
-746.15230817127,527
-743.475392516264,525
-740.7992136248035,495
-738.1237713233636,491
-735.4490654383407,519
-732.7750957960521,499
-730.1018622227365,533
-727.4293645445534,522
-724.7576025875837,498
-722.0865761778291,487
-719.4162851412126,525
-716.7467293035781,509
-714.0779084906909,527
-711.409822528237,519
-708.7424712418238,518
-706.0758544569796,530
-703.4099719991541,536
-700.7448236937178,538
-698.0804093659622,506
-695.4167288411002,538
-692.7537819442656,519
-690.0915685005134,507
-687.4300883348199,511
-684.7693412720819,510
-682.1093271371178,508
-679.4500457546669,531
-676.7914969493897,517
-674.1336805458676,530
-671.4765963686034,521
-668.8202442420206,576
-666.1646239904642,543
-663.5097354382001,544
-660.8555784094151,546
-658.2021527282176,564
-655.5494582186366,543
-652.8974947046223,541
-650.2462620100463,566
-647.5957599587009,570
-644.9459883742998,563
-642.2969470804776,512
-639.6486359007902,588
-637.0010546587141,629
-634.3542031776476,553
-631.7080812809096,549
-629.0626887917401,567
-626.4180255333008,549
-623.7740913286734,563
-621.1308860008619,613
-618.4884093727904,551
-615.8466612673046,537
-613.2056415071715,559
-610.5653499150785,566
-607.9257863136347,612
-605.28695052537,578
-602.6488423727357,599
-600.0114616781036,551
-597.3748082637674,595
-594.7388819519412,625
-592.1036825647604,670
-589.4692099242818,706
-586.8354638524829,626
-584.2024441712624,601
-581.5701507024403,613
-578.9385832677575,566
-576.3077416888759,584
-573.6776257873787,626
-571.0482353847704,588
-568.4195703024757,576
-565.7916303618415,576
-563.164415384135,601
-560.5379251905453,597
-557.9121596021815,613
-555.2871184400748,578
-552.6628015251767,608
-550.0392086783606,620
-547.4163397204204,599
-544.794194472071,592
-542.1727727539491,633
-539.5520743866118,680
-536.9320991905377,696
-534.3128469861261,696
-531.6943175936979,670
-529.0765108334947,689
-526.4594265256793,751
-523.8430644903358,897
-521.2274245474689,1015
-518.612506517005,1134
-515.9983102187913,1101
-513.3848354725959,1216
-510.77208209810846,1362
-508.16004991493924,1616
-505.5487387426199,1734
-502.9381484006032,1640
-500.3282787082628,1489
-497.71912948489364,1295
-495.1107005497117,1101
-492.5029917218539,939
-489.8960028203786,831
-487.28973366426493,741
-484.68418407241325,752
-482.07935386364494,745
-479.47524285670266,729
-476.87185087025,759
-474.2691777228715,762
-471.66722323307334,713
-469.0659872192821,712
-466.4654694998459,702
-463.86566989303384,778
-461.26658821703614,714
-458.66822428996414,716
-456.07057792985,736
-453.4736489546475,716
-450.877437182231,728
-448.28194243039627,718
-445.68716451686,712
-443.09310325926003,719
-440.49975847515555,725
-437.9071299820263,726
-435.31521759727354,734
-432.72402113821954,768
-430.13354042210767,760
-427.5437752661022,725
-424.95472548728867,748
-422.36639090267386,777
-419.7787713291855,795
-417.1918665836721,840
-414.60567648290385,842
-412.0202008435715,793
-409.4354394822874,789
-406.8513922155845,859
-404.26805885991723,880
-401.685439231661,848
-399.103533147112,804
-396.522340422488,860
-393.9418608739278,804
-391.3620943174908,771
-388.7830405691583,777
-386.2046994448317,749
-383.6270707603344,769
-381.05015433141045,701
-378.473949973725,736
-375.8984575028645,685
-373.32367673433623,661
-370.74960748356875,656
-368.1762495659117,627
-365.60360279663576,564
-363.03166699093265,548
-360.4604419639154,532
-357.8899275306178,546
-355.32012350599507,544
-352.7510297049233,490
-350.1826459421999,448
-347.61497203254316,463
-345.04800779059235,472
-342.4817530309082,483
-339.91620756797226,517
-337.35137121618743,558
-334.7872437898774,578
-332.22382510328725,549
-329.66111497058273,528
-327.09911320585127,509
-324.53781962310075,497
-321.9772340362607,508
-319.4173562591816,504
-316.8581861056348,535
-314.2997233893127,485
-311.7419679238294,476
-309.1849195227194,534
-306.62857799943856,517
-304.0729431673641,546
-301.51801483979375,542
-298.963792829947,521
-296.41027695096386,542
-293.85746701590574,608
-291.3053628377552,589
-288.7539642294155,612
-286.2032710037115,583
-283.65328297338897,578
-281.1039999511146,636
-278.5554217494762,663
-276.007548180983,609
-273.4603790580651,562
-270.9139141930734,540
-268.3681533982807,563
-265.8230964858798,632
-263.27874326798565,592
-260.7350935566336,602
-258.1921471637804,625
-255.6499039013039,596
-253.10836358100266,630
-250.56752601459698,671
-248.02739101372765,670
-245.48795838995704,709
-242.94922795476816,659
-240.41119951956557,620
-237.8738728956746,669
-235.33724789434166,722
-232.80132432673452,744
-230.2661020039418,682
-227.73158073697357,720
-225.19776033676033,780
-222.66464061415422,779
-220.1322213799284,652
-217.60050244477725,645
-215.06948361931552,626
-212.53916471408013,702
-210.00954553952818,803
-207.48062590603843,796
-204.9524056239104,774
-202.4248845033651,850
-199.8980623545441,865
-197.37193898751036,885
-194.84651421224817,862
-192.32178783866232,812
-189.79775967657952,964
-187.27442953574644,1001
-184.7517972258321,989
-182.2298625564256,940
-179.7086253370378,930
-177.18808537710026,829
-174.66824248596583,891
-172.14909647290835,1019
-169.6306471471229,964
-167.11289431772548,937
-164.59583779375328,962
-162.07947738416453,930
-159.5638128978386,928
-157.04884414357605,1223
-154.53457093009854,1433
-152.02099306604828,1188
-149.50811035998936,873
-146.99592262040665,876
-144.48442965570587,1062
-141.97363127421409,1210
-139.46352728417958,1411
-136.95411749377126,1439
-134.44540171107985,1210
-131.93737974411636,1018
-129.43005140081357,1366
-126.92341648902493,1776
-124.41747481652521,2151
-121.91222619101006,2781
-119.40767042009657,3900
-116.90380731132257,4282
-114.40063667214702,3958
-111.8981583099503,2735
-109.3963720320337,1735
-106.89527764561933,1452
-104.39487495785067,2117
-101.89516377579241,3271
-99.39614390642998,4948
-96.89781515667039,4500
-94.40017733334128,4287
-91.90323024319173,5351
-89.40697369289148,10056
-86.91140748903172,14904
-84.41653143812482,11274
-81.92234534660395,6452
-79.42884902082358,5526
-76.93604226705907,14453
-74.4439248915071,29498
-71.95249670028534,40164
-69.46175749943245,38671
-66.97170709490854,29899
-64.48234529259423,21253
-61.99367189829195,17258
-59.50568671772464,14841
-57.01838955653636,11196
-54.53178022029283,9013
-52.045858514480074,9130
-49.560624244506016,9754
-47.07607721569923,11481
-44.59221723330904,11363
-42.10904410250669,10406
-39.62655762838392,9953
-37.14475761595372,10709
-34.66364387015028,10455
-32.18321619582866,9735
-29.70347439776515,9999
-27.224418280657005,11680
-24.74604764912317,14075
-22.26836230770266,21394
-19.7913620608565,43884
-17.315046712966478,65038
-14.83941606833514,65038
-12.36446993118659,65038
-9.89020810566592,65038
-7.416630395839093,65038
-4.94373660569363,65038
-2.471526539137585,65038
-6.821210263296962E-13,65038
2.47084320796705,65038
4.941003281093458,65038
7.410480415786196,65038
9.879274808531363,65038
12.347386655893956,65038
14.814816154518212,65038
17.28156350112681,65038
19.74762889252179,65038
22.21301252558385,65038
24.67771459727237,20731
27.141735304626195,4534
29.605074844762612,3244
32.06773341487792,2818
34.52971121224755,2648
36.99100843422559,2560
39.45162527824516,2326
41.91156194181792,1973
44.370818622535126,1960
46.82939551806646,1693
49.287292826160524,1746
51.74451074464503,2359
54.201049471426245,2486
56.65690920448981,1969
59.112090141899785,1498
61.56659248179983,1301
64.02041642241159,1207
66.4735621620365,1267
68.92602989905402,1169
71.37781983192338,1415
73.82893215918205,1663
76.27936707944684,1724
78.72912479141326,1530
81.17820549385567,1647
83.62660938562783,1747
86.07433666566146,1528
88.5213875329681,1085
90.96776218663751,1060
93.41346082583925,1135
95.85848364982041,1255
98.30283085790859,1463
100.7465026495089,1415
103.18949922410604,1215
105.63182078126385,1189
108.07346752062438,1166
110.51443964190923,936
112.95473734491827,853
115.39436082953114,951
117.83331029570547,999
120.27158594347827,1113
122.7091879729652,1411
125.1461165843615,1211
127.58237197794062,972
130.01795435405518,839
132.4528639131364,967
134.88710085569494,1020
137.32066538231982,1024
139.75355769367923,1005
142.1857779905207,986
144.61732647366978,887
147.04820334403132,900
149.47840880258934,880
151.90794305040674,954
154.33680628862487,1022
156.76499871846443,1204
159.19252054122433,1227
161.61937195828352,1232
164.04555317109896,1334
166.47106438120693,1391
168.89590579022217,1513
171.320077599839,1651
173.7435800118302,1687
176.16641322804742,1770
178.58857745042144,1816
181.01007288096173,1944
183.43089972175687,1877
185.85105817497413,1917
188.27054844285988,1986
190.6893707277394,1895
193.10752523201643,1886
195.5250121581745,1964
197.9418317087751,1978
200.3579840864594,1988
202.7734694939469,2007
205.18828813403627,1996
207.6024402096051,2171
210.01592592360964,2303
212.42874547908548,2236
214.84089907914665,2214
217.2523869269868,2123
219.66320922587727,2105
222.0733661791695,2147
224.48285799029293,2097
226.8916848627572,2153
229.29984700014882,2145
231.7073446061355,2154
234.11417788446204,2046
236.520347038953,2151
238.92585227351185,2124
241.33069379212054,2107
243.73487179884035,2070
246.1383864978112,2190
248.541238093252,2132
250.9434267894609,2148
253.34495279081432,2150
255.74581630176783,2082
258.1460175268563,2074
260.54555667069314,2020
262.9444339379703,2016
265.3426495334594,2039
267.7402036620107,2225
270.1370965285529,2262
272.53332833809407,2190
274.9288992957214,2046
277.32380960660055,2039
279.718059475976,2066
282.1116491091717,2133
284.5045787115897,2128
286.89684848871195,2024
289.2884586460981,2107
291.67940938938807,2158
294.0697009242996,2161
296.4593334566299,2157
298.84830719225477,2202
301.23662233712923,2185
303.6242790972866,2147
306.01127767884,2161
308.39761828798066,2069
310.78330113097934,2061
313.16832641418534,2063
315.5526943440269,1972
317.9364051270112,2013
320.3194589697242,2033
322.70185607883093,2039
325.0835966610754,2033
327.4646809232805,1957
329.8451090723478,1958
332.2248813152577,1910
334.6039978590701,1882
336.9824589109231,1931
339.36026467803447,1801
341.7374153677,1883
344.113911187295,1860
346.48975234427337,1804
348.8649390461686,1845
351.2394715005918,1926
353.61334991523415,1850
355.9865744978655,1848
358.35914545633375,1882
360.73106299856715,1910
363.10232733257146,1817
365.47293866643247,1797
367.84289720831396,1774
370.2122031664593,1730
372.5808567491905,1846
374.9488581649083,1778
377.31620762209275,1745
379.6829053293021,1710
382.0489514951745,1739
384.4143463284262,1711
386.7790900378528,1685
389.14318283232853,1757
391.50662492080653,1731
393.86941651231916,1844
396.23155781597745,1736
398.5930490409713,1761
400.9538903965696,1778
403.3140820921202,1717
405.6736243370498,1798
408.03251734086336,1742
410.3907613131465,1701
412.74835646356166,1636
415.10530300185144,1662
417.4616011378372,1718
419.81725108141893,1677
422.1722530425758,1709
424.5266072313656,1664
426.880313857925,1702
429.2333731324701,1702
431.58578526529516,1701
433.9375504667738,1712
436.2886689473588,1712
438.63914091758113,1612
440.9889665880513,1643
443.33814616945835,1638
445.68667987257015,1680
448.03456790823395,1662
450.3818104873759,1643
452.72840782100013,1686
455.07436012019105,1649
457.41966759611057,1646
459.7643304600007,1653
462.10834892318155,1565
464.4517231970525,1546
466.79445349309174,1585
469.1365400228566,1599
471.4779829979826,1709
473.81878263018564,1706
476.15893913125876,1702
478.4984527130747,1710
480.8373235875855,1688
483.17555196682144,1810
485.5131380628919,1798
487.8500820879857,1835
490.1863842543697,1887
492.52204477439034,2021
494.8570638604725,2113
497.1914417251204,2289
499.52517858091653,2654
501.85827464052306,3189
504.19073011668036,3720
506.5225452222086,4082
508.85372017000566,4264
511.18425517304956,4246
513.514150444396,4319
515.8434061971808,4840
518.1720226446176,5507
520.4999999999999,5685
522.8273384766991,5042
525.1540382881666,4579
527.480099647932,3777
529.8055227696037,3116
532.1303078668694,2580
534.454455153496,2112
536.777964843328,1985
539.1008371502907,1844
541.4230722883866,1784
543.744670471698,1726
546.0656319143858,1716
548.3859568306899,1760
550.7056454349294,1796
553.0246979415016,1692
555.3431145648834,1719
557.6608955196306,1736
559.978041020377,1722
562.2945512818363,1650
564.6104265188006,1654
566.9256669461412,1646
569.2402727788082,1751
571.5542442318302,1641
573.8675815203156,1704
576.1802848594508,1657
578.4923544645015,1671
580.8037905508126,1717
583.114593333807,1714
585.4247630289875,1803
587.7342998519354,1636
590.0432040183106,1695
592.3514757438526,1618
594.6591152443794,1708
596.9661227357875,1666
599.2724984340531,1702
601.578242555231,1692
603.8833553154542,1736
606.1878369309362,1726
608.4916876179676,1705
610.7949075929192,1759
613.0974970722403,1719
615.3994562724587,1706
617.7007854101818,1671
620.0014847020951,1709
622.3015543649641,1745
624.6009946156324,1701
626.8998056710224,1706
629.1979877481361,1714
631.4955410640538,1735
633.7924658359349,1739
636.0887622810175,1737
638.3844306166192,1669
640.6794710601358,1710
642.9738838290426,1802
645.2676691408932,1697
647.5608272133207,1737
649.853358264037,1745
652.1452625108324,1818
654.4365401715764,1834
656.7271914642178,1803
659.0172166067838,1706
661.3066158173809,1730
663.5953893141935,1762
665.8835373154867,1723
668.1710600396028,1765
670.4579577049639,1762
672.7442305300709,1725
675.0298787335033,1780
677.3149025339197,1783
679.599302150058,1730
681.8830778007342,1804
684.1662297048437,1706
686.4487580813608,1790
688.7306631493387,1830
691.0119451279091,1807
693.2926042362834,1777
695.5726406937516,1764
697.8520547196814,1744
700.1308465335215,1736
702.4090163547982,1781
704.6865644031171,1697
706.9634908981619,1695
709.2397960596965,1713
711.5154801075631,1738
713.7905432616823,1775
716.0649857420548,1718
718.3388077687592,1808
720.612009561953,1790
722.8845913418733,1771
725.1565533288352,1800
727.427895743234,1796
729.6986188055427,1796
731.9687227363137,1755
734.238207756178,1766
736.5070740858458,1836
738.7753219461066,1759
741.0429515578281,1736
743.3099631419569,1756
745.5763569195191,1772
747.8421331116193,1743
750.1072919394409,1768
752.3718336242467,1738
754.6357583873777,1708
756.8990664502545,1804
759.1617580343765,1784
761.423833361321,1777
763.6852926527457,1785
765.9461361303862,1763
768.206364016058,1807
770.4659765316536,1818
772.7249738991469,1855
774.9833563405886,1788
777.2411240781092,1759
779.4982773339183,1774
781.7548163303044,1758
784.010741289634,1743
786.2660524343538,1869
788.5207499869881,1847
790.7748341701416,1753
793.0283052064964,1804
795.2811633188143,1787
797.5334087299362,1878
799.7850416627813,1781
802.0360623403484,1784
804.2864709857143,1871
806.5362678220353,1874
808.7854530725468,1908
811.0340269605625,1834
813.2819897094754,1795
815.5293415427581,1730
817.77608268396,1757
820.0222133567116,1804
822.2677337847211,1839
824.5126441917765,1734
826.7569448017433,1776
829.0006358385675,1779
831.2437175262731,1760
833.4861900889629,1768
835.7280537508192,1815
837.9693087361026,1815
840.2099552691533,1741
842.4499935743896,1777
844.689423876309,1817
846.9282463994886,1827
849.1664613685833,1798
851.4040690083276,1785
853.6410695435349,1855
855.877463199097,1814
858.1132501999847,1825
860.3484307712487,1808
862.5830051380175,1780
864.8169735254988,1798
867.0503361589791,1783
869.2830932638243,1782
871.5152450654786,1845
873.7467917894654,1842
875.9777336613873,1775
878.2080709069252,1858
880.4378037518389,1846
882.666932421968,1854
884.8954571432301,1755
887.1233781416219,1795
889.3506956432192,1772
891.5774098741766,1779
893.803521060728,1838
896.0290294291852,1855
898.2539352059397,1845
900.4782386174619,1807
902.7019398903011,1811
904.925039251085,1788
907.147536926521,1799
909.3694331433943,1805
911.59072812857,1821
913.8114221089921,1786
916.0315153116827,1806
918.2510079637437,1764
920.4699002923547,1833
922.6881925247761,1818
924.905884888345,1811
927.1229776104793,1815
929.3394709186747,1845
931.555365040506,1811
933.7706602036275,1848
935.9853566357709,1768
938.1994545647489,1774
940.4129542184515,1803
942.6258558248488,1813
944.8381596119883,1809
947.0498658079974,1825
949.2609746410825,1825
951.4714863395287,1759
953.6814011316998,1779
955.8907192460387,1765
958.0994409110671,1798
960.3075663553858,1802
962.5150958076741,1784
964.7220294966913,1874
966.928367651274,1814
969.1341105003388,1741
971.3392582728806,1737
973.5438111979742,1733
975.747769504772,1712
977.9511334225061,1727
980.153903180487,1659
982.3560790081052,1720
984.5576611348289,1658
986.7586497902058,1648
988.9590452038618,1668
991.158847605503,1626
993.3580572249133,1629
995.5566742919558,1623
997.7546990365728,1568
999.952131688785,1578
1002.1489724786926,1578
1004.3452216364743,1554
1006.5408793923874,1506
1008.7359459767691,1464
1010.9304216200343,1472
1013.1243065526781,1533
1015.3176010052733,1478
1017.510305208472,1487
1019.7024193930064,1458
1021.8939437896848,1443
1024.0848786293977,1449
1026.2752241431122,1441
1028.4649805618747,1434
1030.6541481168115,1422
1032.842727039127,1413
1035.0307175601051,1395
1037.2181199111074,1383
1039.4049343235752,1369
1041.591161029029,1417
1043.7768002590683,1328
1045.9618522453698,1375
1048.1463172196918,1345
1050.3301954138697,1339
1052.513487059818,1337
1054.69619238953,1395
1056.8783116350783,1376
1059.0598450286152,1332
1061.2407928023704,1350
1063.4211551886528,1362
1065.6009324198508,1323
1067.780124728432,1320
1069.9587323469414,1281
1072.1367555080046,1374
1074.314194444325,1388
1076.4910493886855,1419
1078.667320573947,1327
1080.843008233051,1327
1083.0181125990161,1343
1085.1926339049414,1265
1087.3665723840027,1315
1089.5399282694575,1261
1091.7127017946405,1300
1093.8848931929647,1284
1096.0565026979243,1253
1098.2275305430899,1303
1100.3979769621128,1293
1102.567842188722,1229
1104.737126456726,1262
1106.9058300000124,1267
1109.0739530525475,1303
1111.2414958483764,1287
1113.4084586216231,1287
1115.5748416064907,1302
1117.7406450372605,1254
1119.9058691482942,1295
1122.0705141740304,1269
1124.2345803489884,1286
1126.3980679077658,1317
1128.5609770850388,1250
1130.7233081155623,1233
1132.8850612341707,1204
1135.0462366757774,1265
1137.2068346753745,1249
1139.3668554680326,1229
1141.526299288901,1255
1143.68516637321,1284
1145.8434569562655,1270
1148.001171273455,1244
1150.158309560244,1248
1152.3148720521767,1248
1154.470858984876,1211
1156.626270594044,1198
1158.7811071154629,1232
1160.9353687849912,1242
1163.089055838569,1227
1165.242168512213,1290
1167.3947070420209,1202
1169.5466716641677,1299
1171.6980626149075,1254
1173.8488801305748,1175
1175.9991244475814,1250
1178.1487958024186,1260
1180.2978944316555,1284
1182.4464205719428,1308
1184.5943744600072,1236
1186.7417563326567,1220
1188.8885664267755,1248
1191.0348049793297,1204
1193.1804722273619,1238
1195.325568407995,1192
1197.4700937584303,1264
1199.614048515948,1234
1201.7574329179074,1267
1203.900247201746,1213
1206.042491604982,1234
1208.1841663652099,1238
1210.3252717201053,1233
1212.465807907422,1218
1214.6057751649923,1194
1216.7451737307279,1231
1218.8840038426192,1241
1221.0222657387353,1196
1223.1599596572241,1243
1225.2970858363137,1256
1227.4336445143094,1316
1229.5696359295966,1278
1231.705060320639,1248
1233.8399179259786,1232
1235.9742089842384,1228
1238.107933734118,1143
1240.2410924143974,1212
1242.373685263935,1197
1244.5057125216676,1211
1246.6371744266116,1247
1248.7680712178621,1292
1250.898403134593,1252
1253.028170416058,1157
1255.1573733015875,1292
1257.2860120305932,1167
1259.4140868425648,1177
1261.54159797707,1232
1263.6685456737569,1187
1265.7949301723515,1241
1267.9207517126597,1243
1270.046010534565,1257
1272.1707068780306,1261
1274.2948409830983,1257
1276.4184130898889,1287
1278.541423438603,1213
1280.6638722695184,1211
1282.785759822993,1222
1284.9070863394636,1242
1287.0278520594447,1235
1289.1480572235314,1295
1291.2677020723963,1219
1293.3867868467923,1242
1295.5053117875495,1334
1297.623277135579,1281
1299.740683131868,1264
1301.8575300174857,1292
1303.973818033578,1176
1306.0895474213703,1291
1308.2047184221678,1280
1310.3193312773528,1266
1312.4333862283888,1238
1314.5468835168163,1247
1316.659823384255,1240
1318.7722060724045,1258
1320.8840318230418,1238
1322.9953008780249,1273
1325.1060134792888,1203
1327.2161698688478,1269
1329.3257702887959,1273
1331.4348149813054,1219
1333.5433041886276,1289
1335.6512381530933,1284
1337.7586171171101,1279
1339.8654413231675,1224
1341.9717110138317,1233
1344.0774264317488,1277
1346.1825878196432,1297
1348.2871954203192,1286
1350.3912494766587,1305
1352.4947502316231,1249
1354.5976979282532,1279
1356.7000928096686,1219
1358.8019351190665,1202
1360.9032250997243,1261
1363.0039629949988,1235
1365.1041490483235,1259
1367.2037835032133,1284
1369.3028666032606,1284
1371.401398592137,1276
1373.4993797135926,1281
1375.5968102114575,1287
1377.6936903296396,1265
1379.7900203121262,1242
1381.8858004029835,1293
1383.9810308463561,1256
1386.075711886469,1243
1388.1698437676241,1258
1390.2634267342032,1238
1392.356461030667,1332
1394.4489469015557,1309
1396.5408845914872,1318
1398.6322743451592,1254
1400.7231164073469,1274
1402.813411022907,1269
1404.903158436773,1293
1406.9923588939578,1318
1409.0810126395531,1318
1411.1691199187303,1269
1413.2566809767386,1247
1415.343696058907,1337
1417.4301654106425,1272
1419.5160892774315,1304
1421.6014679048399,1329
1423.6863015385125,1302
1425.7705904241707,1356
1427.8543348076178,1345
1429.9375349347342,1367
1432.0201910514802,1278
1434.102303403894,1300
1436.1838722380944,1255
1438.2648978002767,1336
1440.3453803367174,1293
1442.4253200937692,1358
1444.5047173178677,1281
1446.5835722555234,1286
1448.6618851533285,1371
1450.739656257952,1267
1452.8168858161434,1254
1454.8935740747306,1277
1456.96972128062,1323
1459.045327680797,1306
1461.120393522327,1223
1463.1949190523528,1346
1465.2689045180973,1299
1467.3423501668608,1351
1469.415256246024,1308
1471.4876230030463,1344
1473.559450685465,1319
1475.6307395408976,1353
1477.7014898170391,1310
1479.771701761665,1288
1481.8413756226287,1337
1483.9105116478618,1311
1485.9791100853772,1300
1488.0471711832643,1334
1490.1146951896926,1353
1492.1816823529098,1326
1494.2481329212433,1323
1496.3140471430984,1294
1498.3794252669609,1348
1500.4442675413939,1288
1502.5085742150404,1324
1504.572345536622,1303
1506.6355817549388,1319
1508.6982831188702,1312
1510.7604498773744,1314
1512.8220822794883,1343
1514.8831805743293,1362
1516.9437450110909,1258
1519.003775839048,1317
1521.0632733075522,1367
1523.1222376660367,1275
1525.1806691640113,1294
1527.2385680510652,1356
1529.2959345768668,1370
1531.3527689911643,1262
1533.4090715437833,1306
1535.4648424846291,1327
1537.5200820636855,1299
1539.5747905310159,1356
1541.6289681367616,1368
1543.6826151311434,1330
1545.7357317644614,1334
1547.7883182870937,1375
1549.8403749494987,1279
1551.8919020022113,1365
1553.9428996958477,1357
1555.9933682811015,1330
1558.0433080087469,1343
1560.0927191296346,1351
1562.1416018946961,1342
1564.1899565549415,1330
1566.2377833614592,1360
1568.2850825654164,1324
1570.3318544180606,1327
1572.3780991707158,1347
1574.423817074788,1360
1576.4690083817595,1340
1578.5136733431923,1380
1580.5578122107272,1295
1582.601425236085,1294
1584.6445126710646,1284
1586.6870747675434,1339
1588.7291117774776,1351
1590.7706239529034,1330
1592.8116115459347,1344
1594.8520748087658,1368
1596.8920139936686,1353
1598.9314293529933,1313
1600.9703211391711,1319
1603.008689604711,1312
1605.0465350022005,1365
1607.0838575843068,1323
1609.1206576037753,1329
1611.1569353134305,1344
1613.1926909661765,1325
1615.2279248149953,1301
1617.2626371129481,1353
1619.2968281131757,1321
1621.3304980688963,1328
1623.3636472334088,1324
1625.39627586009,1306
1627.428384202396,1313
1629.459972513861,1292
1631.4910410480993,1325
1633.5215900588028,1305
1635.551619799744,1286
1637.5811305247717,1341
1639.6101224878166,1315
1641.6385959428862,1325
1643.6665511440683,1335
1645.693988345528,1286
1647.7209078015112,1310
1649.7473097663405,1323
1651.7731944944203,1247
1653.7985622402307,1307
1655.823413258333,1259
1657.847747803366,1299
1659.8715661300494,1280
1661.8948684931793,1314
1663.9176551476316,1316
1665.9399263483624,1278
1667.9616823504057,1295
1669.982923408873,1311
1672.0036497789574,1324
1674.0238617159293,1245
1676.043559475138,1357
1678.0627433120121,1271
1680.081413482059,1332
1682.0995702408654,1338
1684.117213844096,1328
1686.134344547495,1340
1688.1509626068864,1278
1690.1670682781705,1279
1692.182661817329,1304
1694.1977434804217,1278
1696.2123135235875,1335
1698.226372203043,1318
1700.2399197750851,1325
1702.2529564960905,1263
1704.2654826225112,1261
1706.277498410882,1301
1708.2890041178139,1322
1710.2999999999988,1266
1712.3104863142066,1289
1714.3204633172854,1290
1716.329931266163,1312
1718.3388904178469,1285
1720.3473410294214,1308
1722.3552833580516,1269
1724.3627176609807,1267
1726.3696441955308,1326
1728.3760632191033,1301
1730.3819749891782,1288
1732.3873797633146,1346
1734.3922777991502,1307
1736.3966693544012,1321
1738.4005546868639,1272
1740.4039340544127,1327
1742.406807715001,1315
1744.4091759266616,1323
1746.4110389475054,1328
1748.4123970357223,1273
1750.413250449582,1268
1752.4135994474318,1371
1754.4134442876993,1284
1756.4127852288902,1288
1758.4116225295893,1279
1760.4099564484595,1312
1762.407787244244,1273
1764.405115175764,1319
1766.4019405019203,1305
1768.3982634816916,1340
1770.3940843741357,1334
1772.3894034383907,1334
1774.3842209336717,1316
1776.378537119274,1268
1778.372352254571,1322
1780.3656665990156,1325
1782.3584804121397,1291
1784.3507939535534,1263
1786.3426074829463,1260
1788.3339212600863,1274
1790.3247355448211,1292
1792.3150505970766,1325
1794.3048666768573,1294
1796.2941840442477,1297
1798.2830029594106,1334
1800.2713236825884,1228
1802.2591464741004,1280
1804.2464715943465,1265
1806.2332993038058,1300
1808.2196298630352,1242
1810.2054635326708,1285
1812.190800573428,1285
1814.175641246101,1292
1816.1599858115628,1306
1818.1438345307652,1323
1820.127187664738,1284
1822.1100454745924,1274
1824.092408221516,1286
1826.0742761667766,1290
1828.055649571721,1300
1830.0365286977735,1279
1832.0169138064398,1304
1833.9968051593014,1304
1835.9762030180214,1287
1837.9551076443408,1322
1839.9335193000788,1266
1841.9114382471344,1249
1843.888864747485,1283
1845.8657990631878,1226
1847.842241456378,1253
1849.8181921892697,1254
1851.7936515241558,1238
1853.7686197234098,1274
1855.7430970494815,1239
1857.7170837649014,1290
1859.6905801322787,1247
1861.6635864143004,1238
1863.6361028737338,1257
1865.608129773424,1225
1867.5796673762961,1360
1869.5507159453537,1371
1871.521275743678,1327
1873.4913470344313,1307
1875.4609300808534,1326
1877.4300251462632,1317
1879.3986324940588,1303
1881.366752387717,1314
1883.3343850907936,1305
1885.3015308669228,1305
1887.268189979819,1246
1889.2343626932739,1214
1891.2000492711595,1290
1893.1652499774254,1261
1895.1299650761011,1214
1897.0941948312952,1230
1899.0579395071945,1280
1901.0211993680641,1283
1902.98397467825,1284
1904.9462657021745,1330
1906.9080727043415,1260
1908.869395949332,1285
1910.8302357018065,1231
1912.790592226504,1256
1914.7504657882428,1244
1916.7098566519212,1253
1918.6687650825133,1260
1920.6271913450764,1278
1922.5851357047422,1265
1924.5425984267245,1286
1926.499579776314,1238
1928.4560800188833,1261
1930.4120994198802,1302
1932.367638244833,1287
1934.32269675935,1275
1936.2772752291175,1318
1938.231373919899,1288
1940.1849930975404,1322
1942.1381330279637,1270
1944.0907939771696,1297
1946.0429762112412,1276
1947.9946799963363,1259
1949.9459055986945,1260
1951.896653284633,1247
1953.8469233205478,1271
1955.7967159729142,1224
1957.7460315082863,1229
1959.6948701932974,1255
1961.6432322946594,1254
1963.5911180791632,1299
1965.5385278136787,1305
1967.4854617651545,1274
1969.4319202006182,1278
1971.377903387176,1245
1973.3234115920136,1310
1975.268445082395,1244
1977.2130041256642,1292
1979.1570889892423,1248
1981.1006999406304,1300
1983.04383724741,1260
1984.986501177238,1308
1986.928691997853,1335
1988.8704099770712,1268
1990.811655382789,1261
1992.7524284829801,1278
1994.692729545698,1323
1996.6325588390755,1222
1998.5719166313224,1335
2000.5108031907307,1241
2002.4492187856677,1271
2004.387163684583,1256
2006.3246381560011,1265
2008.2616424685298,1242
2010.1981768908527,1257
2012.1342416917332,1278
2014.069837140014,1320
2016.0049635046162,1248
2017.9396210545406,1265
2019.8738100588666,1240
2021.8075307867502,1308
2023.740783507431,1263
2025.6735684902228,1276
2027.6058860045214,1241
2029.5377363198004,1326
2031.4691197056118,1276
2033.4000364315875,1278
2035.3304867674374,1227
2037.260470982952,1322
2039.189989347998,1301
2041.1190421325232,1292
2043.047629606554,1258
2044.9757520401945,1239
2046.9034097036288,1276
2048.8306028671195,1243
2050.7573318010086,1222
2052.683596775716,1238
2054.609398061742,1223
2056.5347359296647,1255
2058.4596106501403,1243
2060.384022493906,1257
2062.3079717317764,1260
2064.231458634646,1344
2066.1544834734873,1270
2068.077046519352,1286
2069.99914804337,1246
2071.9207883167524,1269
2073.8419676107865,1261
2075.7626861968406,1251
2077.6829443463607,1278
2079.6027423308715,1261
2081.522080421977,1227
2083.440958891362,1255
2085.359378010786,1244
2087.2773380520907,1233
2089.194839287196,1329
2091.111881988101,1183
2093.0284664268825,1289
2094.9445928756973,1209
2096.86026160678,1239
2098.775472892446,1284
2100.690227005088,1269
2102.604524217178,1250
2104.5183648012676,1230
2106.431749029985,1294
2108.34467717604,1223
2110.2571495122206,1240
2112.169166311393,1318
2114.080727846503,1258
2115.9918343905747,1245
2117.902486216711,1268
2119.8126835980956,1283
2121.722426807987,1315
2123.6317161197285,1280
2125.5405518067364,1221
2127.448934142509,1254
2129.356863400624,1260
2131.264339854737,1262
2133.1713637785815,1286
2135.077935445972,1248
2136.9840551308002,1293
2138.889723107037,1301
2140.7949396487334,1241
2142.699705030018,1279
2144.6040195250994,1290
2146.507883408264,1276
2148.4112969538774,1286
2150.3142604363848,1294
2152.2167741303097,1266
2154.1188383102535,1195
2156.0204532508997,1224
2157.9216192270064,1306
2159.822336513414,1313
2161.7226053850413,1254
2163.622426116884,1258
2165.5217989840185,1308
2167.4207242616,1264
2169.319202224862,1287
2171.2172331491165,1257
2173.1148173097563,1241
2175.0119549822507,1304
2176.90864644215,1281
2178.8048919650823,1277
2180.7006918267534,1257
2182.596046302952,1325
2184.4909556695407,1287
2186.3854202024645,1410
2188.279440177746,1267
2190.173015871487,1202
2192.066147559868,1271
2193.958835519149,1286
2195.851080025667,1237
2197.7428813558417,1285
2199.6342397861667,1271
2201.5251555932186,1285
2203.415629053651,1212
2205.3056604441986,1223
2207.19525004167,1279
2209.084398122958,1282
2210.9731049650327,1241
2212.861370844941,1311
2214.749196039812,1299
2216.636580826851,1289
2218.523525483344,1269
2220.410030286655,1325
2222.296095514226,1336
2224.1817214435805,1361
2226.066908352319,1326
2227.951656518121,1356
2229.835966218746,1269
2231.71983773203,1286
2233.6032713358913,1323
2235.486267308324,1337
2237.3688259274036,1251
2239.2509474712824,1328
2241.132632218193,1231
2243.013880446447,1361
2244.8946924344323,1319
2246.7750684606203,1250
2248.6550088035574,1257
2250.534513741871,1291
2252.413583554265,1296
2254.292218519526,1282
2256.170418916517,1348
2258.0481850241786,1283
2259.925517121534,1292
2261.8024154876825,1280
2263.678880401803,1300
2265.5549121431536,1297
2267.430510991071,1288
2269.305677224971,1329
2271.180411124348,1268
2273.0547129687766,1296
2274.9285830379076,1262
2276.8020216114737,1271
2278.6750289692845,1249
2280.5476053912294,1303
2282.4197511572766,1294
2284.2914665474727,1309
2286.162751841943,1346
2288.0336073208937,1330
2289.904033264608,1300
2291.774029953448,1296
2293.6435976678554,1386
2295.5127366883517,1314
2297.381447295534,1295
2299.2497297700825,1266
2301.1175843927526,1306
2302.9850114443825,1233
2304.852011205885,1238
2306.7185839582553,1207
2308.5847299825664,1156
2310.4504495599676,1201
2312.3157429716925,1156
2314.1806104990483,1150
2316.0450524234247,1153
2317.9090690262888,1138
2319.772660589186,1148
2321.635827393742,1139
2323.498569721661,1133
2325.3608878547248,1129
2327.2227820747967,1138
2329.0842526638157,1127
2330.945299903803,1159
2332.805924076857,1174
2334.6661254651535,1121
2336.525904350951,1134
2338.3852610165827,1147
2340.244195744464,1104
2342.102708817088,1181
2343.9608005170253,1121
2345.8184711269287,1123
2347.675720929526,1142
2349.532550207628,1112
2351.38895924412,1124
2353.24494832197,1141
2355.100517724223,1096
2356.955667734004,1117
2358.810398634514,1128
2360.664710709037,1126
2362.5186042409337,1144
2364.3720795136437,1150
2366.225136810686,1131
2368.0777764156583,1133
2369.929998612237,1115
2371.7818036841777,1113
2373.633191915315,1068
2375.484163589562,1134
2377.3347189909114,1165
2379.184858403434,1124
2381.03458211128,1113
2382.8838903986775,1162
2384.732783549936,1139
2386.5812618494406,1125
2388.4293255816588,1120
2390.2769750311327,1085
2392.1242104824883,1132
2393.971032220427,1146
2395.8174405297295,1105
2397.6634356952563,1105
2399.509018001947,1111
2401.3541877348193,1124
2403.1989451789705,1150
2405.043290619576,1162
2406.8872243418905,1144
2408.730746631247,1215
2410.5738577730594,1117
2412.4165580528183,1182
2414.258847756095,1162
2416.100727168537,1129
2417.9421965758734,1147
2419.783256263912,1122
2421.623906518538,1134
2423.4641476257157,1187
2425.303979871491,1122
2427.143403541984,1110
2428.9824189233977,1134
2430.821026302012,1174
2432.6592259641866,1163
2434.497018196361,1125
2436.33440328505,1139
2438.171381516851,1170
2440.00795317844,1157
2441.844118556569,1158
2443.6798779380724,1192
2445.5152316098606,1114
2447.3501798589255,1150
2449.1847229723357,1138
2451.0188612372403,1141
2452.8525949408663,1137
2454.6859243705203,1137
2456.518849813587,1162
2458.3513715575314,1173
2460.183489889895,1109
2462.015205098301,1138
2463.8465174704493,1120
2465.67742729412,1199
2467.5079348571717,1190
2469.338040447542,1121
2471.1677443532476,1099
2472.9970468623833,1083
2474.825948263123,1103
2476.6544488437207,1146
2478.482548892508,1174
2480.310248697896,1118
2482.137548548374,1151
2483.9644487325118,1123
2485.790949538956,1146
2487.617051256433,1164
2489.44275417375,1123
2491.26805857979,1094
2493.0929647635157,1166
2494.917473013971,1151
2496.741583620276,1157
2498.5652968716304,1134
2500.3886130573137,1138
2502.2115324666834,1171
2504.0340553891765,1105
2505.856182114308,1125
2507.6779129316733,1115
2509.499248130945,1089
2511.3201880018764,1189
2513.140732834298,1096
2514.9608829181198,1178
2516.780638543331,1129
2518.6,1124
2520.418967578273,1230
2522.237541568376,1119
2524.0557222606144,1164
2525.8735099453706,1117
2527.6909049131086,1111
2529.507907454368,1086
2531.32451785977,1111
2533.140736420014,1142
2534.9565634258774,1138
2536.771999168218,1155
2538.5870439379714,1124
2540.4016980261526,1146
2542.2159617238544,1106
2544.02983532225,1138
2545.8433191125914,1123
2547.656413386209,1143
2549.4691184345115,1135
2551.2814345489874,1144
2553.093362021204,1134
2554.904901142808,1100
2556.716052205523,1115
2558.526815501153,1121
2560.3371913215824,1163
2562.147179958771,1108
2563.956781704761,1107
2565.7659968516705,1137
2567.5748256916986,1127
2569.3832685171224,1135
2571.1913256202984,1151
2572.9989972936614,1066
2574.806283829725,1088
2576.613185521084,1076
2578.4197026604074,1124
2580.2258355404483,1101
2582.031584454035,1155
2583.836949694077,1133
2585.6419315535613,1151
2587.4465303255533,1175
2589.2507463032002,1130
2591.0545797797245,1161
2592.8580310484303,1091
2594.6611004026995,1143
2596.463788135992,1126
2598.266094541849,1136
2600.0680199138874,1135
2601.869564545807,1094
2603.670728731383,1086
2605.4715127644704,1127
2607.2719169390048,1144
2609.071941548998,1119
2610.8715868885433,1123
2612.670853251811,1131
2614.469740933052,1138
2616.268250226594,1135
2618.0663814268455,1171
2619.864134828292,1163
2621.6615107255006,1149
2623.458509413115,1130
2625.2551311858597,1111
2627.0513763385347,1161
2628.8472451660223,1089
2630.6427379632833,1137
2632.4378550253564,1122
2634.232596647359,1094
2636.026963124488,1133
2637.8209547520187,1146
2639.6145718253065,1114
2641.407814639785,1129
2643.200683490966,1154
2644.9931786744414,1154
2646.7853004858807,1167
2648.577049221034,1165
2650.3684251757277,1169
2652.1594286458712,1131
2653.9500599274484,1134
2655.740319316525,1106
2657.5302071092437,1107
2659.3197236018286,1128
2661.10886909058,1158
2662.8976438718782,1121
2664.686048242183,1147
2666.4740824980327,1135
2668.2617469360443,1166
2670.0490418529134,1121
2671.8359675454153,1070
2673.622524310403,1081
2675.408712444811,1178
2677.1945322456495,1146
2678.979984010009,1143
2680.76506803506,1150
2682.5497846180497,1146
2684.334134056306,1148
2686.1181166472343,1132
2687.9017326883213,1081
2689.6849824771293,1138
2691.4678663113013,1116
2693.2503844885596,1166
2695.032537306705,1116
2696.8143250636167,1078
2698.5957480572542,1140
2700.3768065856534,1119
2702.1575009469316,1156
2703.937831439283,1095
2705.717798360982,1160
2707.4974020103837,1179
2709.276642685917,1143
2711.055520686095,1128
2712.834036309506,1131
2714.612189854819,1069
2716.389981620782,1098
2718.1674119062204,1140
2719.944481010041,1200
2721.721189231226,1110
2723.4975368688415,1117
2725.273524222027,1093
2727.0491515900053,1115
2728.824419272075,1096
2730.5993275676146,1081
2732.3738767760838,1130
2734.148067197016,1107
2735.921899130031,1159
2737.6953728748194,1140
2739.468488731156,1079
2741.2412469988926,1131
2743.0136479779617,1172
2744.785691968372,1134
2746.5573792702116,1114
2748.3287101836504,1103
2750.099685008934,1091
2751.870304046388,1132
2753.640567596418,1119
2755.4104759595057,1136
2757.1800294362156,1147
2758.949228327187,1155
2760.7180729331412,1175
2762.486563554877,1186
2764.254700493272,1157
2766.022484049284,1142
2767.789914523947,1140
2769.5569922183786,1158
2771.3237174337705,1112
2773.090090471394,1116
2774.8561116326036,1097
2776.6217812188274,1107
2778.3870995315756,1111
2780.1520668724356,1138
2781.9166835430747,1132
2783.6809498452394,1111
2785.444866080754,1154
2787.2084325515225,1133
2788.971649559527,1172
2790.73451740683,1125
2792.4970363955713,1112
2794.2592068279705,1133
2796.0210290063264,1121
2797.7825032330147,1099
2799.543629810493,1115
2801.304409041296,1118
2803.0648412280366,1113
2804.8249266734088,1181
2806.5846656801846,1178
2808.344058551212,1142
2810.1031055894246,1089
2811.8618070978273,1130
2813.6201633795085,1123
2815.378174737636,1137
2817.1358414754536,1134
2818.893163896285,1149
2820.6501423035334,1170
2822.4067770006814,1180
2824.1630682912883,1150
2825.9190164789957,1126
2827.6746218675207,1158
2829.429884760661,1148
2831.184805462294,1112
2832.9393842763743,1207
2834.693621506936,1108
2836.4475174580916,1125
2838.201072434034,1148
2839.954286739034,1129
2841.707160677441,1165
2843.459694553685,1138
2845.2118886722724,1097
2846.96374333779,1047
2848.7152588549034,1116
2850.4664355283567,1110
2852.217273662973,1141
2853.9677735636546,1098
2855.7179355353833,1143
2857.4677598832186,1133
2859.217246912299,1162
2860.9663969278427,1100
2862.715210235146,1138
2864.4636871395846,1127
2866.211827946614,1133
2867.9596329617652,1106
2869.7071024906536,1117
2871.4542368389684,1081
2873.20103631248,1179
2874.947501217038,1152
2876.6936318585695,1088
2878.4394285430812,1107
2880.1848915766604,1167
2881.9300212654707,1190
2883.6748179157553,1159
2885.4192818338374,1088
2887.1634133261173,1149
2888.907212699077,1196
2890.6506802592744,1164
2892.393816313348,1140
2894.1366211680142,1176
2895.8790951300693,1124
2897.621238506388,1154
2899.363051603925,1178
2901.1045347297118,1109
2902.8456881908596,1139
2904.58651229456,1179
2906.327007348081,1153
2908.067173658772,1143
2909.8070115340597,1117
2911.5465212814497,1101
2913.285703208527,1098
2915.0245576229563,1116
2916.7630848324807,1151
2918.5012851449196,1115
2920.2391588681758,1103
2921.976706310227,1122
2923.7139277791334,1101
2925.4508235830313,1133
2927.187394030137,1122
2928.923639428745,1134
2930.6595600872306,1165
2932.395156314046,1180
2934.1304284177218,1226
2935.8653767068713,1172
2937.6000014901815,1191
2939.3343030764227,1159
2941.068281774442,1185
2942.8019378931644,1188
2944.5352717415976,1165
2946.2682836288236,1159
2948.0009738640065,1173
2949.7333427563885,1125
2951.465390615289,1189
2953.1971177501086,1161
2954.9285244703265,1163
2956.6596110855,1130
2958.3903779052657,1184
2960.1208252393385,1181
2961.8509533975125,1139
2963.5807626896617,1172
2965.3102534257378,1174
2967.0394259157715,1168
2968.768280469873,1112
2970.496817398232,1096
2972.2250370111146,1148
2973.952939618869,1119
2975.6805255319196,1152
2977.4077950607707,1118
2979.134748516006,1116
2980.861386208289,1151
2982.587708448359,1155
2984.313715547037,1165
2986.039407815222,1133
2987.764785563891,1132
2989.489849104102,1154
2991.2145987469908,1114
2992.9390348037705,1178
2994.6631575857346,1141
2996.3869674042576,1183
2998.1104645707887,1167
2999.83364939686,1210
3001.5565221940783,1155
3003.2790832741334,1134
3005.0013329487924,1106
3006.7232715298996,1116
3008.4448993293804,1114
3010.166216659239,1124
3011.887223831558,1097
3013.607921158498,1145
3015.3283089522993,1109
3017.0483875252826,1179
3018.7681571898443,1150
3020.4876182584626,1158
3022.2067710436927,1112
3023.9256158581707,1126
3025.644153014609,1109
3027.362382825801,1169
3029.0803056046193,1134
3030.797921664012,1146
3032.5152313170106,1064
3034.2322348767225,1158
3035.9489326563353,1137
3037.665324969115,1122
3039.3814121284063,1153
3041.097194447633,1114
3042.812672240299,1121
3044.5278458199855,1168
3046.2427155003525,1210
3047.9572815951406,1139
3049.671544418167,1138
3051.38550428333,1145
3053.0991615046073,1124
3054.812516396051,1129
3056.5255692717974,1117
3058.2383204460575,1116
3059.9507702331257,1134
3061.662918947372,1109
3063.3747669032446,1184
3065.0863144152736,1154
3066.7975617980674,1135
3068.508509366309,1154
3070.219157434767,1136
3071.9295063182844,1121
3073.639556331785,1139
3075.3493077902704,1130
3077.058761008821,1111
3078.7679163025964,1118
3080.476773986837,1098
3082.1853343768594,1149
3083.89359778806,1099
3085.6015645359153,1130
3087.3092349359786,1119
3089.016609303884,1112
3090.7236879553434,1152
3092.4304712061476,1186
3094.136959372166,1127
3095.843152769349,1146
3097.5490517137237,1120
3099.2546565213966,1142
3100.959967508554,1117
3102.66498499146,1134
3104.3697092864577,1143
3106.0741407099695,1052
3107.778279578498,1092
3109.482126208622,1093
3111.1856809170004,1135
3112.8889440203716,1090
3114.5919158355528,1093
3116.294596679439,1063
3117.996986869006,1086
3119.6990867213062,1086
3121.4008965534726,1147
3123.102416682717,1138
3124.803647426329,1154
3126.5045891016784,1106
3128.205242026213,1181
3129.90560651746,1156
3131.605682893025,1170
3133.3054714705922,1105
3135.0049725679282,1155
3136.7041865028714,1055
3138.4031135933465,1156
3140.101754157353,1135
3141.800108512971,1102
3143.498176978357,1093
3145.1959598717494,1125
3146.8934575114636,1160
3148.5906702158954,1130
3150.2875983035183,1094
3151.9842420928853,1097
3153.680601902627,1139
3155.376678051456,1089
3157.07247085816,1198
3158.767980641609,1131
3160.463207720748,1181
3162.158152414606,1129
3163.8528150422862,1136
3165.5471959229726,1120
3167.2412953759303,1116
3168.9351137204976,1116
3170.628651276098,1166
3172.3219083622307,1135
3174.014885298474,1103
3175.707582404485,1112
3177.4000000000005,1126
3179.092138404835,1138
3180.7839979388846,1201
3182.47557892212,1128
3184.166881674594,1105
3185.8579065164386,1145
3187.5486537678626,1096
3189.2391237491547,1160
3190.9293167806827,1073
3192.6192331828934,1105
3194.3088732763117,1163
3195.998237381542,1143
3197.687325819268,1144
3199.376138910251,1124
3201.064676975334,1119
3202.7529403354347,1120
3204.4409293115523,1078
3206.1286442247647,1126
3207.816085396229,1091
3209.5032531471825,1104
3211.190147798936,1083
3212.8767696728846,1121
3214.5631190905015,1138
3216.2491963733373,1083
3217.9350018430214,1122
3219.6205358212637,1120
3221.305798629851,1114
3222.990790590651,1107
3224.6755120256103,1135
3226.359963256751,1154
3228.0441446061795,1100
3229.7280563960758,1100
3231.411698948703,1180
3233.0950725863995,1196
3234.778177631587,1169
3236.461014406761,1075
3238.1435832345005,1105
3239.8258844374595,1080
3241.507918338374,1123
3243.1896852600576,1072
3244.8711855254023,1107
3246.552419457381,1128
3248.233387379042,1094
3249.914089613516,1113
3251.59452648401,1081
3253.274698313813,1083
3254.95460542629,1155
3256.6342481448855,1088
3258.313626793125,1088
3259.9927416946084,1124
3261.6715931730196,1100
3263.3501815521176,1121
3265.0285071557437,1080
3266.706570307815,1078
3268.3843713323286,1028
3270.0619105533615,1154
3271.739188295068,1102
3273.4162048816834,1087
3275.0929606375184,1111
3276.769455886966,1068
3278.445690954498,1103
3280.1216661646613,1169
3281.797381842087,1100
3283.4728383114807,1136
3285.1480358976296,1107
3286.8229749253996,1138
3288.4976557197333,1127
3290.172078605655,1083
3291.846243908266,1123
3293.5201519527463,1117
3295.193803064357,1146
3296.8671975684374,1086
3298.5403357904024,1147
3300.21321805575,1076
3301.8858446900567,1067
3303.558216018975,1101
3305.23033236824,1114
3306.9021940636603,1118
3308.57380143113,1136
3310.2451547966184,1187
3311.916254486174,1067
3313.5871008259246,1129
3315.2576941420766,1105
3316.9280347609147,1085
3318.5981230088046,1095
3320.2679592121895,1118
3321.9375436975924,1094
3323.606876791612,1115
3325.27595882093,1126
3326.944790112305,1107
3328.6133709925753,1137
3330.2817017886573,1121
3331.949782827547,1136
3333.617614436319,1131
3335.2851969421245,1094
3336.952530672199,1142
3338.619615953853,1129
3340.286453114475,1105
3341.9530424815357,1123
3343.619384382583,1147
3345.2854791452437,1137
3346.951327097224,1155
3348.6169285663073,1097
3350.2822838803577,1096
3351.947393367319,1130
3353.61225735521,1119
3355.2768761721345,1150
3356.9412501462693,1094
3358.605379605873,1136
3360.2692648792827,1160
3361.9329062949146,1073
3363.596304181263,1074
