CollectionTime,7/3/2024 2:58:18 PM
ExposureUsed,3
CalibratedSpectrum
-962.7078968117929,445
-959.9714848408522,485
-957.2358232597828,462
-954.5009119013725,453
-951.7667505983302,473
-949.0333391832855,444
-946.3006774887896,456
-943.5687653473143,459
-940.837602591253,429
-938.1071890529199,466
-935.3775245645503,468
-932.6486089583007,454
-929.9204420662485,477
-927.1930237203925,482
-924.4663537526524,478
-921.7404319948689,486
-919.0152582788041,478
-916.2908324361409,495
-913.5671542984834,482
-910.8442236973568,442
-908.1220404642074,467
-905.4006044304027,494
-902.679915427231,482
-899.959973285902,460
-897.2407778375464,461
-894.5223289132158,409
-891.8046263438832,451
-889.0876699604426,448
-886.3714595937089,442
-883.6559950744183,444
-880.9412762332282,445
-878.2273029007168,459
-875.5140749073835,444
-872.8015920836489,478
-870.0898542598545,489
-867.3788612662631,473
-864.6686129330585,460
-861.9591090903457,463
-859.2503495681506,468
-856.5423341964203,466
-853.8350628050229,448
-851.1285352237478,464
-848.4227512823054,451
-845.7177108103272,469
-843.0134136373656,496
-840.3098595928943,486
-837.6070485063082,501
-834.9049802069229,486
-832.2036545239757,460
-829.5030712866244,465
-826.8032303239481,471
-824.1041314649472,483
-821.4057745385428,496
-818.7081593735775,460
-816.0112857988148,478
-813.3151536429393,465
-810.6197627345566,458
-807.9251129021936,488
-805.2312039742981,483
-802.5380357792392,486
-799.8456081453069,470
-797.1539209007124,489
-794.462973873588,513
-791.772766891987,522
-789.083299783884,488
-786.3945723771743,488
-783.7065844996748,477
-781.0193359791231,468
-778.3328266431781,481
-775.6470563194197,455
-772.9620248353489,443
-770.2777320183878,457
-767.5941776958798,493
-764.9113616950891,511
-762.2292838432011,485
-759.5479439673222,490
-756.8673418944801,493
-754.1874774516235,485
-751.5083504656222,477
-748.8299607632671,491
-746.15230817127,476
-743.475392516264,512
-740.7992136248035,494
-738.1237713233636,477
-735.4490654383407,525
-732.7750957960521,514
-730.1018622227365,527
-727.4293645445534,471
-724.7576025875837,478
-722.0865761778291,485
-719.4162851412126,522
-716.7467293035781,489
-714.0779084906909,501
-711.409822528237,462
-708.7424712418238,486
-706.0758544569796,482
-703.4099719991541,521
-700.7448236937178,557
-698.0804093659622,522
-695.4167288411002,519
-692.7537819442656,503
-690.0915685005134,502
-687.4300883348199,507
-684.7693412720819,508
-682.1093271371178,507
-679.4500457546669,502
-676.7914969493897,499
-674.1336805458676,510
-671.4765963686034,506
-668.8202442420206,522
-666.1646239904642,514
-663.5097354382001,538
-660.8555784094151,536
-658.2021527282176,504
-655.5494582186366,531
-652.8974947046223,523
-650.2462620100463,517
-647.5957599587009,532
-644.9459883742998,547
-642.2969470804776,528
-639.6486359007902,548
-637.0010546587141,565
-634.3542031776476,520
-631.7080812809096,510
-629.0626887917401,530
-626.4180255333008,509
-623.7740913286734,528
-621.1308860008619,557
-618.4884093727904,545
-615.8466612673046,566
-613.2056415071715,539
-610.5653499150785,547
-607.9257863136347,549
-605.28695052537,544
-602.6488423727357,541
-600.0114616781036,543
-597.3748082637674,535
-594.7388819519412,585
-592.1036825647604,630
-589.4692099242818,629
-586.8354638524829,606
-584.2024441712624,554
-581.5701507024403,579
-578.9385832677575,560
-576.3077416888759,571
-573.6776257873787,576
-571.0482353847704,550
-568.4195703024757,544
-565.7916303618415,550
-563.164415384135,545
-560.5379251905453,551
-557.9121596021815,560
-555.2871184400748,581
-552.6628015251767,592
-550.0392086783606,635
-547.4163397204204,605
-544.794194472071,598
-542.1727727539491,603
-539.5520743866118,628
-536.9320991905377,625
-534.3128469861261,634
-531.6943175936979,651
-529.0765108334947,643
-526.4594265256793,722
-523.8430644903358,828
-521.2274245474689,915
-518.612506517005,938
-515.9983102187913,967
-513.3848354725959,997
-510.77208209810846,1080
-508.16004991493924,1105
-505.5487387426199,1200
-502.9381484006032,1173
-500.3282787082628,1103
-497.71912948489364,1023
-495.1107005497117,886
-492.5029917218539,815
-489.8960028203786,736
-487.28973366426493,684
-484.68418407241325,680
-482.07935386364494,685
-479.47524285670266,658
-476.87185087025,646
-474.2691777228715,658
-471.66722323307334,696
-469.0659872192821,695
-466.4654694998459,676
-463.86566989303384,716
-461.26658821703614,707
-458.66822428996414,649
-456.07057792985,675
-453.4736489546475,683
-450.877437182231,686
-448.28194243039627,692
-445.68716451686,687
-443.09310325926003,680
-440.49975847515555,702
-437.9071299820263,678
-435.31521759727354,692
-432.72402113821954,722
-430.13354042210767,678
-427.5437752661022,693
-424.95472548728867,694
-422.36639090267386,706
-419.7787713291855,785
-417.1918665836721,793
-414.60567648290385,766
-412.0202008435715,741
-409.4354394822874,745
-406.8513922155845,756
-404.26805885991723,767
-401.685439231661,785
-399.103533147112,763
-396.522340422488,746
-393.9418608739278,747
-391.3620943174908,723
-388.7830405691583,712
-386.2046994448317,734
-383.6270707603344,676
-381.05015433141045,656
-378.473949973725,628
-375.8984575028645,642
-373.32367673433623,587
-370.74960748356875,592
-368.1762495659117,600
-365.60360279663576,524
-363.03166699093265,503
-360.4604419639154,487
-357.8899275306178,469
-355.32012350599507,482
-352.7510297049233,493
-350.1826459421999,428
-347.61497203254316,469
-345.04800779059235,456
-342.4817530309082,482
-339.91620756797226,486
-337.35137121618743,529
-334.7872437898774,501
-332.22382510328725,512
-329.66111497058273,474
-327.09911320585127,450
-324.53781962310075,473
-321.9772340362607,480
-319.4173562591816,475
-316.8581861056348,452
-314.2997233893127,447
-311.7419679238294,456
-309.1849195227194,520
-306.62857799943856,516
-304.0729431673641,513
-301.51801483979375,502
-298.963792829947,471
-296.41027695096386,535
-293.85746701590574,592
-291.3053628377552,552
-288.7539642294155,569
-286.2032710037115,537
-283.65328297338897,530
-281.1039999511146,605
-278.5554217494762,692
-276.007548180983,589
-273.4603790580651,517
-270.9139141930734,512
-268.3681533982807,515
-265.8230964858798,558
-263.27874326798565,551
-260.7350935566336,573
-258.1921471637804,582
-255.6499039013039,614
-253.10836358100266,631
-250.56752601459698,600
-248.02739101372765,616
-245.48795838995704,649
-242.94922795476816,625
-240.41119951956557,629
-237.8738728956746,635
-235.33724789434166,665
-232.80132432673452,647
-230.2661020039418,592
-227.73158073697357,634
-225.19776033676033,732
-222.66464061415422,709
-220.1322213799284,668
-217.60050244477725,574
-215.06948361931552,582
-212.53916471408013,671
-210.00954553952818,863
-207.48062590603843,738
-204.9524056239104,648
-202.4248845033651,796
-199.8980623545441,790
-197.37193898751036,727
-194.84651421224817,667
-192.32178783866232,716
-189.79775967657952,822
-187.27442953574644,894
-184.7517972258321,948
-182.2298625564256,896
-179.7086253370378,780
-177.18808537710026,711
-174.66824248596583,825
-172.14909647290835,957
-169.6306471471229,909
-167.11289431772548,802
-164.59583779375328,878
-162.07947738416453,785
-159.5638128978386,924
-157.04884414357605,1179
-154.53457093009854,1345
-152.02099306604828,1162
-149.50811035998936,903
-146.99592262040665,873
-144.48442965570587,923
-141.97363127421409,1085
-139.46352728417958,1272
-136.95411749377126,1249
-134.44540171107985,1137
-131.93737974411636,921
-129.43005140081357,1186
-126.92341648902493,1741
-124.41747481652521,1954
-121.91222619101006,2387
-119.40767042009657,3307
-116.90380731132257,3757
-114.40063667214702,3597
-111.8981583099503,2682
-109.3963720320337,1845
-106.89527764561933,1839
-104.39487495785067,2255
-101.89516377579241,3112
-99.39614390642998,4986
-96.89781515667039,5336
-94.40017733334128,4016
-91.90323024319173,2703
-89.40697369289148,3673
-86.91140748903172,6976
-84.41653143812482,7652
-81.92234534660395,5816
-79.42884902082358,4786
-76.93604226705907,9237
-74.4439248915071,18458
-71.95249670028534,26249
-69.46175749943245,25290
-66.97170709490854,20491
-64.48234529259423,14930
-61.99367189829195,11836
-59.50568671772464,10481
-57.01838955653636,7849
-54.53178022029283,7142
-52.045858514480074,7745
-49.560624244506016,7820
-47.07607721569923,8892
-44.59221723330904,9333
-42.10904410250669,9335
-39.62655762838392,9641
-37.14475761595372,9579
-34.66364387015028,10132
-32.18321619582866,10169
-29.70347439776515,9477
-27.224418280657005,9809
-24.74604764912317,11932
-22.26836230770266,19918
-19.7913620608565,41276
-17.315046712966478,65040
-14.83941606833514,65040
-12.36446993118659,65040
-9.89020810566592,65040
-7.416630395839093,65040
-4.94373660569363,65040
-2.471526539137585,65040
-6.821210263296962E-13,65040
2.47084320796705,65040
4.941003281093458,65040
7.410480415786196,65040
9.879274808531363,65040
12.347386655893956,65040
14.814816154518212,65040
17.28156350112681,65040
19.74762889252179,65040
22.21301252558385,65040
24.67771459727237,19889
27.141735304626195,3971
29.605074844762612,3042
32.06773341487792,1941
34.52971121224755,1810
36.99100843422559,2399
39.45162527824516,2183
41.91156194181792,1839
44.370818622535126,1701
46.82939551806646,1492
49.287292826160524,1499
51.74451074464503,1917
54.201049471426245,1819
56.65690920448981,1494
59.112090141899785,1361
61.56659248179983,1169
64.02041642241159,1050
66.4735621620365,1102
68.92602989905402,1070
71.37781983192338,1017
73.82893215918205,1212
76.27936707944684,1196
78.72912479141326,1248
81.17820549385567,1410
83.62660938562783,1619
86.07433666566146,1335
88.5213875329681,973
90.96776218663751,897
93.41346082583925,963
95.85848364982041,1096
98.30283085790859,1226
100.7465026495089,1330
103.18949922410604,1148
105.63182078126385,994
108.07346752062438,1064
110.51443964190923,924
112.95473734491827,824
115.39436082953114,884
117.83331029570547,934
120.27158594347827,1123
122.7091879729652,1486
125.1461165843615,1180
127.58237197794062,879
130.01795435405518,741
132.4528639131364,948
134.88710085569494,968
137.32066538231982,976
139.75355769367923,877
142.1857779905207,866
144.61732647366978,723
147.04820334403132,747
149.47840880258934,814
151.90794305040674,899
154.33680628862487,969
156.76499871846443,1098
159.19252054122433,1076
161.61937195828352,1132
164.04555317109896,1239
166.47106438120693,1368
168.89590579022217,1459
171.320077599839,1499
173.7435800118302,1635
176.16641322804742,1525
178.58857745042144,1642
181.01007288096173,1653
183.43089972175687,1764
185.85105817497413,1741
188.27054844285988,1735
190.6893707277394,1729
193.10752523201643,1723
195.5250121581745,1784
197.9418317087751,1830
200.3579840864594,1879
202.7734694939469,1861
205.18828813403627,1777
207.6024402096051,1962
210.01592592360964,2091
212.42874547908548,2083
214.84089907914665,1943
217.2523869269868,1961
219.66320922587727,1904
222.0733661791695,1856
224.48285799029293,1874
226.8916848627572,1847
229.29984700014882,1896
231.7073446061355,1996
234.11417788446204,1880
236.520347038953,1919
238.92585227351185,1977
241.33069379212054,1916
243.73487179884035,1893
246.1383864978112,1931
248.541238093252,1925
250.9434267894609,1875
253.34495279081432,2009
255.74581630176783,1988
258.1460175268563,1924
260.54555667069314,1907
262.9444339379703,1945
265.3426495334594,1808
267.7402036620107,1945
270.1370965285529,1981
272.53332833809407,1881
274.9288992957214,1829
277.32380960660055,1842
279.718059475976,1887
282.1116491091717,1941
284.5045787115897,1931
286.89684848871195,1864
289.2884586460981,1873
291.67940938938807,1913
294.0697009242996,1932
296.4593334566299,1924
298.84830719225477,1875
301.23662233712923,1851
303.6242790972866,1877
306.01127767884,1867
308.39761828798066,1945
310.78330113097934,1880
313.16832641418534,1852
315.5526943440269,1777
317.9364051270112,1770
320.3194589697242,1871
322.70185607883093,1792
325.0835966610754,1807
327.4646809232805,1709
329.8451090723478,1680
332.2248813152577,1730
334.6039978590701,1727
336.9824589109231,1707
339.36026467803447,1767
341.7374153677,1711
344.113911187295,1640
346.48975234427337,1718
348.8649390461686,1736
351.2394715005918,1727
353.61334991523415,1569
355.9865744978655,1654
358.35914545633375,1640
360.73106299856715,1700
363.10232733257146,1707
365.47293866643247,1653
367.84289720831396,1638
370.2122031664593,1660
372.5808567491905,1665
374.9488581649083,1599
377.31620762209275,1619
379.6829053293021,1590
382.0489514951745,1586
384.4143463284262,1588
386.7790900378528,1508
389.14318283232853,1568
391.50662492080653,1569
393.86941651231916,1528
396.23155781597745,1582
398.5930490409713,1602
400.9538903965696,1578
403.3140820921202,1591
405.6736243370498,1630
408.03251734086336,1579
410.3907613131465,1511
412.74835646356166,1505
415.10530300185144,1516
417.4616011378372,1518
419.81725108141893,1507
422.1722530425758,1518
424.5266072313656,1532
426.880313857925,1507
429.2333731324701,1528
431.58578526529516,1568
433.9375504667738,1483
436.2886689473588,1486
438.63914091758113,1514
440.9889665880513,1469
443.33814616945835,1498
445.68667987257015,1478
448.03456790823395,1534
450.3818104873759,1465
452.72840782100013,1501
455.07436012019105,1517
457.41966759611057,1452
459.7643304600007,1491
462.10834892318155,1429
464.4517231970525,1464
466.79445349309174,1403
469.1365400228566,1474
471.4779829979826,1546
473.81878263018564,1496
476.15893913125876,1509
478.4984527130747,1507
480.8373235875855,1522
483.17555196682144,1507
485.5131380628919,1564
487.8500820879857,1569
490.1863842543697,1608
492.52204477439034,1671
494.8570638604725,1733
497.1914417251204,1876
499.52517858091653,2094
501.85827464052306,2384
504.19073011668036,2728
506.5225452222086,2988
508.85372017000566,3169
511.18425517304956,3180
513.514150444396,3265
515.8434061971808,3801
518.1720226446176,4580
520.4999999999999,4797
522.8273384766991,4507
525.1540382881666,3981
527.480099647932,3363
529.8055227696037,2764
532.1303078668694,2134
534.454455153496,1882
536.777964843328,1769
539.1008371502907,1641
541.4230722883866,1629
543.744670471698,1572
546.0656319143858,1621
548.3859568306899,1604
550.7056454349294,1592
553.0246979415016,1539
555.3431145648834,1604
557.6608955196306,1570
559.978041020377,1498
562.2945512818363,1437
564.6104265188006,1489
566.9256669461412,1549
569.2402727788082,1537
571.5542442318302,1497
573.8675815203156,1493
576.1802848594508,1501
578.4923544645015,1520
580.8037905508126,1577
583.114593333807,1541
585.4247630289875,1580
587.7342998519354,1485
590.0432040183106,1555
592.3514757438526,1526
594.6591152443794,1429
596.9661227357875,1510
599.2724984340531,1503
601.578242555231,1524
603.8833553154542,1549
606.1878369309362,1566
608.4916876179676,1569
610.7949075929192,1545
613.0974970722403,1558
615.3994562724587,1555
617.7007854101818,1524
620.0014847020951,1497
622.3015543649641,1512
624.6009946156324,1563
626.8998056710224,1589
629.1979877481361,1588
631.4955410640538,1484
633.7924658359349,1478
636.0887622810175,1562
638.3844306166192,1521
640.6794710601358,1554
642.9738838290426,1560
645.2676691408932,1564
647.5608272133207,1608
649.853358264037,1599
652.1452625108324,1604
654.4365401715764,1605
656.7271914642178,1598
659.0172166067838,1611
661.3066158173809,1587
663.5953893141935,1567
665.8835373154867,1494
668.1710600396028,1567
670.4579577049639,1533
672.7442305300709,1565
675.0298787335033,1604
677.3149025339197,1559
679.599302150058,1551
681.8830778007342,1504
684.1662297048437,1592
686.4487580813608,1610
688.7306631493387,1589
691.0119451279091,1640
693.2926042362834,1592
695.5726406937516,1508
697.8520547196814,1608
700.1308465335215,1549
702.4090163547982,1591
704.6865644031171,1576
706.9634908981619,1546
709.2397960596965,1545
711.5154801075631,1536
713.7905432616823,1573
716.0649857420548,1545
718.3388077687592,1615
720.612009561953,1586
722.8845913418733,1558
725.1565533288352,1543
727.427895743234,1578
729.6986188055427,1530
731.9687227363137,1540
734.238207756178,1602
736.5070740858458,1572
738.7753219461066,1590
741.0429515578281,1564
743.3099631419569,1539
745.5763569195191,1613
747.8421331116193,1652
750.1072919394409,1652
752.3718336242467,1505
754.6357583873777,1593
756.8990664502545,1645
759.1617580343765,1610
761.423833361321,1559
763.6852926527457,1569
765.9461361303862,1540
768.206364016058,1596
770.4659765316536,1621
772.7249738991469,1632
774.9833563405886,1641
777.2411240781092,1623
779.4982773339183,1604
781.7548163303044,1621
784.010741289634,1547
786.2660524343538,1670
788.5207499869881,1617
790.7748341701416,1650
793.0283052064964,1642
795.2811633188143,1657
797.5334087299362,1696
799.7850416627813,1660
802.0360623403484,1657
804.2864709857143,1657
806.5362678220353,1648
808.7854530725468,1670
811.0340269605625,1601
813.2819897094754,1610
815.5293415427581,1628
817.77608268396,1568
820.0222133567116,1549
822.2677337847211,1572
824.5126441917765,1609
826.7569448017433,1681
829.0006358385675,1644
831.2437175262731,1631
833.4861900889629,1599
835.7280537508192,1592
837.9693087361026,1655
840.2099552691533,1626
842.4499935743896,1543
844.689423876309,1561
846.9282463994886,1675
849.1664613685833,1656
851.4040690083276,1616
853.6410695435349,1594
855.877463199097,1581
858.1132501999847,1645
860.3484307712487,1545
862.5830051380175,1551
864.8169735254988,1557
867.0503361589791,1607
869.2830932638243,1635
871.5152450654786,1557
873.7467917894654,1618
875.9777336613873,1587
878.2080709069252,1650
880.4378037518389,1610
882.666932421968,1684
884.8954571432301,1594
887.1233781416219,1668
889.3506956432192,1696
891.5774098741766,1651
893.803521060728,1544
896.0290294291852,1627
898.2539352059397,1603
900.4782386174619,1531
902.7019398903011,1582
904.925039251085,1578
907.147536926521,1633
909.3694331433943,1638
911.59072812857,1569
913.8114221089921,1577
916.0315153116827,1579
918.2510079637437,1611
920.4699002923547,1607
922.6881925247761,1584
924.905884888345,1630
927.1229776104793,1572
929.3394709186747,1618
931.555365040506,1511
933.7706602036275,1583
935.9853566357709,1614
938.1994545647489,1513
940.4129542184515,1596
942.6258558248488,1606
944.8381596119883,1512
947.0498658079974,1556
949.2609746410825,1606
951.4714863395287,1596
953.6814011316998,1592
955.8907192460387,1628
958.0994409110671,1511
960.3075663553858,1542
962.5150958076741,1575
964.7220294966913,1538
966.928367651274,1532
969.1341105003388,1581
971.3392582728806,1537
973.5438111979742,1556
975.747769504772,1514
977.9511334225061,1481
980.153903180487,1526
982.3560790081052,1535
984.5576611348289,1532
986.7586497902058,1498
988.9590452038618,1459
991.158847605503,1512
993.3580572249133,1479
995.5566742919558,1435
997.7546990365728,1458
999.952131688785,1420
1002.1489724786926,1423
1004.3452216364743,1437
1006.5408793923874,1377
1008.7359459767691,1376
1010.9304216200343,1337
1013.1243065526781,1369
1015.3176010052733,1373
1017.510305208472,1354
1019.7024193930064,1268
1021.8939437896848,1305
1024.0848786293977,1391
1026.2752241431122,1366
1028.4649805618747,1354
1030.6541481168115,1325
1032.842727039127,1281
1035.0307175601051,1294
1037.2181199111074,1273
1039.4049343235752,1331
1041.591161029029,1265
1043.7768002590683,1233
1045.9618522453698,1267
1048.1463172196918,1247
1050.3301954138697,1263
1052.513487059818,1268
1054.69619238953,1234
1056.8783116350783,1240
1059.0598450286152,1260
1061.2407928023704,1232
1063.4211551886528,1237
1065.6009324198508,1248
1067.780124728432,1254
1069.9587323469414,1226
1072.1367555080046,1271
1074.314194444325,1220
1076.4910493886855,1263
1078.667320573947,1249
1080.843008233051,1212
1083.0181125990161,1181
1085.1926339049414,1215
1087.3665723840027,1203
1089.5399282694575,1230
1091.7127017946405,1197
1093.8848931929647,1219
1096.0565026979243,1191
1098.2275305430899,1196
1100.3979769621128,1210
1102.567842188722,1212
1104.737126456726,1162
1106.9058300000124,1187
1109.0739530525475,1171
1111.2414958483764,1220
1113.4084586216231,1176
1115.5748416064907,1192
1117.7406450372605,1184
1119.9058691482942,1173
1122.0705141740304,1201
1124.2345803489884,1223
1126.3980679077658,1173
1128.5609770850388,1178
1130.7233081155623,1223
1132.8850612341707,1201
1135.0462366757774,1236
1137.2068346753745,1179
1139.3668554680326,1198
1141.526299288901,1201
1143.68516637321,1226
1145.8434569562655,1187
1148.001171273455,1172
1150.158309560244,1177
1152.3148720521767,1191
1154.470858984876,1137
1156.626270594044,1130
1158.7811071154629,1198
1160.9353687849912,1147
1163.089055838569,1184
1165.242168512213,1174
1167.3947070420209,1148
1169.5466716641677,1137
1171.6980626149075,1170
1173.8488801305748,1170
1175.9991244475814,1186
1178.1487958024186,1193
1180.2978944316555,1172
1182.4464205719428,1151
1184.5943744600072,1099
1186.7417563326567,1147
1188.8885664267755,1124
1191.0348049793297,1167
1193.1804722273619,1143
1195.325568407995,1185
1197.4700937584303,1204
1199.614048515948,1202
1201.7574329179074,1182
1203.900247201746,1160
1206.042491604982,1193
1208.1841663652099,1148
1210.3252717201053,1140
1212.465807907422,1135
1214.6057751649923,1197
1216.7451737307279,1195
1218.8840038426192,1171
1221.0222657387353,1155
1223.1599596572241,1152
1225.2970858363137,1240
1227.4336445143094,1187
1229.5696359295966,1177
1231.705060320639,1184
1233.8399179259786,1194
1235.9742089842384,1185
1238.107933734118,1177
1240.2410924143974,1173
1242.373685263935,1177
1244.5057125216676,1219
1246.6371744266116,1223
1248.7680712178621,1194
1250.898403134593,1173
1253.028170416058,1160
1255.1573733015875,1212
1257.2860120305932,1202
1259.4140868425648,1184
1261.54159797707,1260
1263.6685456737569,1197
1265.7949301723515,1157
1267.9207517126597,1169
1270.046010534565,1251
1272.1707068780306,1255
1274.2948409830983,1227
1276.4184130898889,1199
1278.541423438603,1212
1280.6638722695184,1180
1282.785759822993,1217
1284.9070863394636,1226
1287.0278520594447,1183
1289.1480572235314,1248
1291.2677020723963,1207
1293.3867868467923,1257
1295.5053117875495,1293
1297.623277135579,1276
1299.740683131868,1277
1301.8575300174857,1247
1303.973818033578,1304
1306.0895474213703,1319
1308.2047184221678,1303
1310.3193312773528,1319
1312.4333862283888,1294
1314.5468835168163,1317
1316.659823384255,1338
1318.7722060724045,1320
1320.8840318230418,1316
1322.9953008780249,1300
1325.1060134792888,1312
1327.2161698688478,1365
1329.3257702887959,1311
1331.4348149813054,1394
1333.5433041886276,1295
1335.6512381530933,1328
1337.7586171171101,1329
1339.8654413231675,1335
1341.9717110138317,1317
1344.0774264317488,1343
1346.1825878196432,1271
1348.2871954203192,1326
1350.3912494766587,1299
1352.4947502316231,1292
1354.5976979282532,1292
1356.7000928096686,1306
1358.8019351190665,1257
1360.9032250997243,1271
1363.0039629949988,1328
1365.1041490483235,1240
1367.2037835032133,1244
1369.3028666032606,1295
1371.401398592137,1257
1373.4993797135926,1270
1375.5968102114575,1245
1377.6936903296396,1307
1379.7900203121262,1240
1381.8858004029835,1237
1383.9810308463561,1234
1386.075711886469,1234
1388.1698437676241,1246
1390.2634267342032,1291
1392.356461030667,1214
1394.4489469015557,1237
1396.5408845914872,1260
1398.6322743451592,1204
1400.7231164073469,1236
1402.813411022907,1242
1404.903158436773,1211
1406.9923588939578,1250
1409.0810126395531,1289
1411.1691199187303,1263
1413.2566809767386,1291
1415.343696058907,1243
1417.4301654106425,1238
1419.5160892774315,1216
1421.6014679048399,1238
1423.6863015385125,1264
1425.7705904241707,1319
1427.8543348076178,1316
1429.9375349347342,1331
1432.0201910514802,1238
1434.102303403894,1282
1436.1838722380944,1253
1438.2648978002767,1233
1440.3453803367174,1298
1442.4253200937692,1271
1444.5047173178677,1232
1446.5835722555234,1289
1448.6618851533285,1287
1450.739656257952,1287
1452.8168858161434,1255
1454.8935740747306,1269
1456.96972128062,1270
1459.045327680797,1324
1461.120393522327,1251
1463.1949190523528,1291
1465.2689045180973,1287
1467.3423501668608,1324
1469.415256246024,1271
1471.4876230030463,1329
1473.559450685465,1289
1475.6307395408976,1276
1477.7014898170391,1365
1479.771701761665,1395
1481.8413756226287,1344
1483.9105116478618,1315
1485.9791100853772,1324
1488.0471711832643,1301
1490.1146951896926,1340
1492.1816823529098,1328
1494.2481329212433,1401
1496.3140471430984,1325
1498.3794252669609,1333
1500.4442675413939,1411
1502.5085742150404,1369
1504.572345536622,1339
1506.6355817549388,1359
1508.6982831188702,1339
1510.7604498773744,1355
1512.8220822794883,1368
1514.8831805743293,1329
1516.9437450110909,1332
1519.003775839048,1366
1521.0632733075522,1378
1523.1222376660367,1397
1525.1806691640113,1374
1527.2385680510652,1371
1529.2959345768668,1416
1531.3527689911643,1434
1533.4090715437833,1434
1535.4648424846291,1418
1537.5200820636855,1449
1539.5747905310159,1437
1541.6289681367616,1463
1543.6826151311434,1470
1545.7357317644614,1457
1547.7883182870937,1465
1549.8403749494987,1444
1551.8919020022113,1405
1553.9428996958477,1519
1555.9933682811015,1463
1558.0433080087469,1522
1560.0927191296346,1592
1562.1416018946961,1601
1564.1899565549415,1599
1566.2377833614592,1557
1568.2850825654164,1590
1570.3318544180606,1559
1572.3780991707158,1564
1574.423817074788,1527
1576.4690083817595,1624
1578.5136733431923,1573
1580.5578122107272,1501
1582.601425236085,1515
1584.6445126710646,1485
1586.6870747675434,1556
1588.7291117774776,1485
1590.7706239529034,1453
1592.8116115459347,1427
1594.8520748087658,1412
1596.8920139936686,1404
1598.9314293529933,1404
1600.9703211391711,1409
1603.008689604711,1352
1605.0465350022005,1359
1607.0838575843068,1370
1609.1206576037753,1394
1611.1569353134305,1344
1613.1926909661765,1346
1615.2279248149953,1329
1617.2626371129481,1300
1619.2968281131757,1369
1621.3304980688963,1316
1623.3636472334088,1284
1625.39627586009,1290
1627.428384202396,1240
1629.459972513861,1258
1631.4910410480993,1296
1633.5215900588028,1248
1635.551619799744,1276
1637.5811305247717,1246
1639.6101224878166,1195
1641.6385959428862,1226
1643.6665511440683,1244
1645.693988345528,1226
1647.7209078015112,1174
1649.7473097663405,1200
1651.7731944944203,1236
1653.7985622402307,1162
1655.823413258333,1267
1657.847747803366,1178
1659.8715661300494,1161
1661.8948684931793,1226
1663.9176551476316,1134
1665.9399263483624,1275
1667.9616823504057,1177
1669.982923408873,1193
1672.0036497789574,1243
1674.0238617159293,1199
1676.043559475138,1245
1678.0627433120121,1212
1680.081413482059,1205
1682.0995702408654,1190
1684.117213844096,1201
1686.134344547495,1226
1688.1509626068864,1216
1690.1670682781705,1209
1692.182661817329,1235
1694.1977434804217,1193
1696.2123135235875,1156
1698.226372203043,1174
1700.2399197750851,1237
1702.2529564960905,1193
1704.2654826225112,1150
1706.277498410882,1184
1708.2890041178139,1186
1710.2999999999988,1180
1712.3104863142066,1220
1714.3204633172854,1182
1716.329931266163,1157
1718.3388904178469,1168
1720.3473410294214,1176
1722.3552833580516,1161
1724.3627176609807,1166
1726.3696441955308,1220
1728.3760632191033,1228
1730.3819749891782,1185
1732.3873797633146,1172
1734.3922777991502,1204
1736.3966693544012,1192
1738.4005546868639,1188
1740.4039340544127,1185
1742.406807715001,1172
1744.4091759266616,1195
1746.4110389475054,1184
1748.4123970357223,1229
1750.413250449582,1215
1752.4135994474318,1209
1754.4134442876993,1217
1756.4127852288902,1196
1758.4116225295893,1123
1760.4099564484595,1226
1762.407787244244,1234
1764.405115175764,1200
1766.4019405019203,1215
1768.3982634816916,1162
1770.3940843741357,1221
1772.3894034383907,1197
1774.3842209336717,1207
1776.378537119274,1224
1778.372352254571,1161
1780.3656665990156,1177
1782.3584804121397,1182
1784.3507939535534,1213
1786.3426074829463,1226
1788.3339212600863,1163
1790.3247355448211,1210
1792.3150505970766,1179
1794.3048666768573,1197
1796.2941840442477,1185
1798.2830029594106,1168
1800.2713236825884,1184
1802.2591464741004,1174
1804.2464715943465,1158
1806.2332993038058,1226
1808.2196298630352,1184
1810.2054635326708,1244
1812.190800573428,1168
1814.175641246101,1128
1816.1599858115628,1141
1818.1438345307652,1159
1820.127187664738,1217
1822.1100454745924,1201
1824.092408221516,1175
1826.0742761667766,1166
1828.055649571721,1151
1830.0365286977735,1253
1832.0169138064398,1147
1833.9968051593014,1153
1835.9762030180214,1175
1837.9551076443408,1165
1839.9335193000788,1214
1841.9114382471344,1171
1843.888864747485,1187
1845.8657990631878,1127
1847.842241456378,1166
1849.8181921892697,1138
1851.7936515241558,1155
1853.7686197234098,1180
1855.7430970494815,1142
1857.7170837649014,1149
1859.6905801322787,1174
1861.6635864143004,1160
1863.6361028737338,1142
1865.608129773424,1168
1867.5796673762961,1210
1869.5507159453537,1140
1871.521275743678,1145
1873.4913470344313,1187
1875.4609300808534,1147
1877.4300251462632,1156
1879.3986324940588,1143
1881.366752387717,1177
1883.3343850907936,1212
1885.3015308669228,1197
1887.268189979819,1186
1889.2343626932739,1152
1891.2000492711595,1158
1893.1652499774254,1117
1895.1299650761011,1177
1897.0941948312952,1139
1899.0579395071945,1185
1901.0211993680641,1160
1902.98397467825,1126
1904.9462657021745,1156
1906.9080727043415,1162
1908.869395949332,1176
1910.8302357018065,1138
1912.790592226504,1202
1914.7504657882428,1145
1916.7098566519212,1136
1918.6687650825133,1184
1920.6271913450764,1151
1922.5851357047422,1145
1924.5425984267245,1145
1926.499579776314,1147
1928.4560800188833,1123
1930.4120994198802,1145
1932.367638244833,1173
1934.32269675935,1171
1936.2772752291175,1160
1938.231373919899,1177
1940.1849930975404,1185
1942.1381330279637,1154
1944.0907939771696,1151
1946.0429762112412,1184
1947.9946799963363,1150
1949.9459055986945,1170
1951.896653284633,1184
1953.8469233205478,1117
1955.7967159729142,1177
1957.7460315082863,1155
1959.6948701932974,1140
1961.6432322946594,1136
1963.5911180791632,1190
1965.5385278136787,1112
1967.4854617651545,1155
1969.4319202006182,1192
1971.377903387176,1163
1973.3234115920136,1168
1975.268445082395,1145
1977.2130041256642,1184
1979.1570889892423,1175
1981.1006999406304,1163
1983.04383724741,1211
1984.986501177238,1202
1986.928691997853,1180
1988.8704099770712,1186
1990.811655382789,1113
1992.7524284829801,1125
1994.692729545698,1146
1996.6325588390755,1156
1998.5719166313224,1101
2000.5108031907307,1146
2002.4492187856677,1187
2004.387163684583,1172
2006.3246381560011,1179
2008.2616424685298,1182
2010.1981768908527,1134
2012.1342416917332,1200
2014.069837140014,1135
2016.0049635046162,1133
2017.9396210545406,1130
2019.8738100588666,1199
2021.8075307867502,1142
2023.740783507431,1134
2025.6735684902228,1115
2027.6058860045214,1128
2029.5377363198004,1131
2031.4691197056118,1150
2033.4000364315875,1094
2035.3304867674374,1176
2037.260470982952,1108
2039.189989347998,1161
2041.1190421325232,1156
2043.047629606554,1143
2044.9757520401945,1168
2046.9034097036288,1166
2048.8306028671195,1145
2050.7573318010086,1169
2052.683596775716,1150
2054.609398061742,1131
2056.5347359296647,1137
2058.4596106501403,1161
2060.384022493906,1155
2062.3079717317764,1139
2064.231458634646,1104
2066.1544834734873,1149
2068.077046519352,1114
2069.99914804337,1115
2071.9207883167524,1122
2073.8419676107865,1134
2075.7626861968406,1166
2077.6829443463607,1176
2079.6027423308715,1156
2081.522080421977,1087
2083.440958891362,1179
2085.359378010786,1139
2087.2773380520907,1180
2089.194839287196,1166
2091.111881988101,1140
2093.0284664268825,1207
2094.9445928756973,1167
2096.86026160678,1182
2098.775472892446,1141
2100.690227005088,1109
2102.604524217178,1179
2104.5183648012676,1150
2106.431749029985,1137
2108.34467717604,1166
2110.2571495122206,1119
2112.169166311393,1132
2114.080727846503,1114
2115.9918343905747,1159
2117.902486216711,1171
2119.8126835980956,1140
2121.722426807987,1127
2123.6317161197285,1118
2125.5405518067364,1138
2127.448934142509,1137
2129.356863400624,1138
2131.264339854737,1162
2133.1713637785815,1154
2135.077935445972,1165
2136.9840551308002,1190
2138.889723107037,1156
2140.7949396487334,1178
2142.699705030018,1149
2144.6040195250994,1144
2146.507883408264,1146
2148.4112969538774,1171
2150.3142604363848,1162
2152.2167741303097,1153
2154.1188383102535,1134
2156.0204532508997,1172
2157.9216192270064,1140
2159.822336513414,1161
2161.7226053850413,1171
2163.622426116884,1151
2165.5217989840185,1144
2167.4207242616,1198
2169.319202224862,1126
2171.2172331491165,1207
2173.1148173097563,1195
2175.0119549822507,1173
2176.90864644215,1162
2178.8048919650823,1129
2180.7006918267534,1172
2182.596046302952,1223
2184.4909556695407,1220
2186.3854202024645,1161
2188.279440177746,1144
2190.173015871487,1174
2192.066147559868,1166
2193.958835519149,1152
2195.851080025667,1169
2197.7428813558417,1140
2199.6342397861667,1168
2201.5251555932186,1160
2203.415629053651,1172
2205.3056604441986,1207
2207.19525004167,1166
2209.084398122958,1175
2210.9731049650327,1185
2212.861370844941,1218
2214.749196039812,1210
2216.636580826851,1188
2218.523525483344,1161
2220.410030286655,1180
2222.296095514226,1203
2224.1817214435805,1158
2226.066908352319,1233
2227.951656518121,1179
2229.835966218746,1218
2231.71983773203,1210
2233.6032713358913,1197
2235.486267308324,1180
2237.3688259274036,1217
2239.2509474712824,1161
2241.132632218193,1191
2243.013880446447,1177
2244.8946924344323,1204
2246.7750684606203,1217
2248.6550088035574,1189
2250.534513741871,1197
2252.413583554265,1206
2254.292218519526,1205
2256.170418916517,1200
2258.0481850241786,1145
2259.925517121534,1141
2261.8024154876825,1158
2263.678880401803,1161
2265.5549121431536,1190
2267.430510991071,1167
2269.305677224971,1210
2271.180411124348,1155
2273.0547129687766,1177
2274.9285830379076,1204
2276.8020216114737,1171
2278.6750289692845,1193
2280.5476053912294,1273
2282.4197511572766,1198
2284.2914665474727,1228
2286.162751841943,1227
2288.0336073208937,1198
2289.904033264608,1213
2291.774029953448,1229
2293.6435976678554,1188
2295.5127366883517,1214
2297.381447295534,1168
2299.2497297700825,1132
2301.1175843927526,1166
2302.9850114443825,1098
2304.852011205885,1110
2306.7185839582553,1139
2308.5847299825664,1060
2310.4504495599676,1084
2312.3157429716925,1046
2314.1806104990483,1023
2316.0450524234247,1064
2317.9090690262888,1127
2319.772660589186,1064
2321.635827393742,1065
2323.498569721661,1078
2325.3608878547248,1046
2327.2227820747967,1077
2329.0842526638157,1078
2330.945299903803,1037
2332.805924076857,1036
2334.6661254651535,1043
2336.525904350951,1063
2338.3852610165827,1057
2340.244195744464,1055
2342.102708817088,1053
2343.9608005170253,1024
2345.8184711269287,1061
2347.675720929526,1076
2349.532550207628,1054
2351.38895924412,1044
2353.24494832197,1049
2355.100517724223,1028
2356.955667734004,1049
2358.810398634514,1056
2360.664710709037,1069
2362.5186042409337,1068
2364.3720795136437,1082
2366.225136810686,1069
2368.0777764156583,1092
2369.929998612237,1081
2371.7818036841777,1089
2373.633191915315,1064
2375.484163589562,1098
2377.3347189909114,1080
2379.184858403434,1067
2381.03458211128,1088
2382.8838903986775,1043
2384.732783549936,1047
2386.5812618494406,1076
2388.4293255816588,1055
2390.2769750311327,1075
2392.1242104824883,1051
2393.971032220427,1046
2395.8174405297295,1063
2397.6634356952563,1084
2399.509018001947,1038
2401.3541877348193,1096
2403.1989451789705,1043
2405.043290619576,1095
2406.8872243418905,1052
2408.730746631247,1099
2410.5738577730594,1077
2412.4165580528183,1043
2414.258847756095,1069
2416.100727168537,1078
2417.9421965758734,1103
2419.783256263912,1081
2421.623906518538,1117
2423.4641476257157,1104
2425.303979871491,1120
2427.143403541984,1115
2428.9824189233977,1067
2430.821026302012,1080
2432.6592259641866,1088
2434.497018196361,1086
2436.33440328505,1069
2438.171381516851,1078
2440.00795317844,1109
2441.844118556569,1079
2443.6798779380724,1060
2445.5152316098606,1090
2447.3501798589255,1066
2449.1847229723357,1091
2451.0188612372403,1068
2452.8525949408663,1105
2454.6859243705203,1088
2456.518849813587,1111
2458.3513715575314,1104
2460.183489889895,1129
2462.015205098301,1015
2463.8465174704493,1091
2465.67742729412,1082
2467.5079348571717,1059
2469.338040447542,1097
2471.1677443532476,1108
2472.9970468623833,1110
2474.825948263123,1064
2476.6544488437207,1071
2478.482548892508,1093
2480.310248697896,1100
2482.137548548374,1069
2483.9644487325118,1106
2485.790949538956,1061
2487.617051256433,1103
2489.44275417375,1066
2491.26805857979,1056
2493.0929647635157,1077
2494.917473013971,1094
2496.741583620276,1074
2498.5652968716304,1108
2500.3886130573137,1055
2502.2115324666834,1019
2504.0340553891765,1092
2505.856182114308,1083
2507.6779129316733,1089
2509.499248130945,1072
2511.3201880018764,1111
2513.140732834298,1093
2514.9608829181198,1120
2516.780638543331,1066
2518.6,1077
2520.418967578273,1071
2522.237541568376,1063
2524.0557222606144,1080
2525.8735099453706,1030
2527.6909049131086,1043
2529.507907454368,1133
2531.32451785977,1113
2533.140736420014,1097
2534.9565634258774,1104
2536.771999168218,1117
2538.5870439379714,1098
2540.4016980261526,1118
2542.2159617238544,1134
2544.02983532225,1078
2545.8433191125914,1110
2547.656413386209,1133
2549.4691184345115,1066
2551.2814345489874,1134
2553.093362021204,1122
2554.904901142808,1062
2556.716052205523,1095
2558.526815501153,1085
2560.3371913215824,1096
2562.147179958771,1105
2563.956781704761,1104
2565.7659968516705,1110
2567.5748256916986,1095
2569.3832685171224,1136
2571.1913256202984,1123
2572.9989972936614,1105
2574.806283829725,1126
2576.613185521084,1174
2578.4197026604074,1070
2580.2258355404483,1122
2582.031584454035,1149
2583.836949694077,1029
2585.6419315535613,1103
2587.4465303255533,1145
2589.2507463032002,1179
2591.0545797797245,1141
2592.8580310484303,1126
2594.6611004026995,1104
2596.463788135992,1112
2598.266094541849,1109
2600.0680199138874,1126
2601.869564545807,1084
2603.670728731383,1097
2605.4715127644704,1093
2607.2719169390048,1101
2609.071941548998,1145
2610.8715868885433,1091
2612.670853251811,1134
2614.469740933052,1119
2616.268250226594,1108
2618.0663814268455,1160
2619.864134828292,1108
2621.6615107255006,1156
2623.458509413115,1136
2625.2551311858597,1168
2627.0513763385347,1112
2628.8472451660223,1123
2630.6427379632833,1051
2632.4378550253564,1160
2634.232596647359,1129
2636.026963124488,1091
2637.8209547520187,1118
2639.6145718253065,1124
2641.407814639785,1125
2643.200683490966,1073
2644.9931786744414,1097
2646.7853004858807,1091
2648.577049221034,1127
2650.3684251757277,1116
2652.1594286458712,1169
2653.9500599274484,1114
2655.740319316525,1095
2657.5302071092437,1080
2659.3197236018286,1118
2661.10886909058,1072
2662.8976438718782,1080
2664.686048242183,1111
2666.4740824980327,1127
2668.2617469360443,1123
2670.0490418529134,1053
2671.8359675454153,1102
2673.622524310403,1151
2675.408712444811,1129
2677.1945322456495,1084
2678.979984010009,1082
2680.76506803506,1078
2682.5497846180497,1100
2684.334134056306,1076
2686.1181166472343,1114
2687.9017326883213,1115
2689.6849824771293,1105
2691.4678663113013,1067
2693.2503844885596,1078
2695.032537306705,1096
2696.8143250636167,1094
2698.5957480572542,1077
2700.3768065856534,1072
2702.1575009469316,1087
2703.937831439283,1066
2705.717798360982,1045
2707.4974020103837,1066
2709.276642685917,1014
2711.055520686095,1031
2712.834036309506,1003
2714.612189854819,1075
2716.389981620782,1050
2718.1674119062204,1055
2719.944481010041,1078
2721.721189231226,1069
2723.4975368688415,1092
2725.273524222027,1082
2727.0491515900053,1050
2728.824419272075,1097
2730.5993275676146,1088
2732.3738767760838,1118
2734.148067197016,1050
2735.921899130031,1058
2737.6953728748194,1079
2739.468488731156,1021
2741.2412469988926,1118
2743.0136479779617,1081
2744.785691968372,1055
2746.5573792702116,1044
2748.3287101836504,1042
2750.099685008934,1114
2751.870304046388,1089
2753.640567596418,1011
2755.4104759595057,1027
2757.1800294362156,1092
2758.949228327187,1059
2760.7180729331412,1051
2762.486563554877,1089
2764.254700493272,1069
2766.022484049284,1086
2767.789914523947,1083
2769.5569922183786,1062
2771.3237174337705,1055
2773.090090471394,1078
2774.8561116326036,1020
2776.6217812188274,1047
2778.3870995315756,1022
2780.1520668724356,1023
2781.9166835430747,1036
2783.6809498452394,1008
2785.444866080754,1042
2787.2084325515225,1083
2788.971649559527,1085
2790.73451740683,1072
2792.4970363955713,1065
2794.2592068279705,1017
2796.0210290063264,1049
2797.7825032330147,1116
2799.543629810493,1057
2801.304409041296,1066
2803.0648412280366,1047
2804.8249266734088,1081
2806.5846656801846,1072
2808.344058551212,1033
2810.1031055894246,1077
2811.8618070978273,1009
2813.6201633795085,1070
2815.378174737636,1060
2817.1358414754536,1079
2818.893163896285,1064
2820.6501423035334,1112
2822.4067770006814,1060
2824.1630682912883,1095
2825.9190164789957,1113
2827.6746218675207,1062
2829.429884760661,1094
2831.184805462294,1090
2832.9393842763743,1088
2834.693621506936,1105
2836.4475174580916,1105
2838.201072434034,1047
2839.954286739034,1069
2841.707160677441,1076
2843.459694553685,1073
2845.2118886722724,1061
2846.96374333779,1091
2848.7152588549034,1061
2850.4664355283567,1054
2852.217273662973,1040
2853.9677735636546,1082
2855.7179355353833,1092
2857.4677598832186,1104
2859.217246912299,1090
2860.9663969278427,1049
2862.715210235146,1047
2864.4636871395846,1095
2866.211827946614,1053
2867.9596329617652,1075
2869.7071024906536,1076
2871.4542368389684,1046
2873.20103631248,1092
2874.947501217038,1078
2876.6936318585695,1050
2878.4394285430812,1035
2880.1848915766604,1031
2881.9300212654707,1036
2883.6748179157553,1100
2885.4192818338374,1035
2887.1634133261173,1094
2888.907212699077,1058
2890.6506802592744,1049
2892.393816313348,1021
2894.1366211680142,1060
2895.8790951300693,1080
2897.621238506388,1044
2899.363051603925,1122
2901.1045347297118,1047
2902.8456881908596,1096
2904.58651229456,1096
2906.327007348081,1073
2908.067173658772,1087
2909.8070115340597,1042
2911.5465212814497,1068
2913.285703208527,1079
2915.0245576229563,1099
2916.7630848324807,1042
2918.5012851449196,1056
2920.2391588681758,1051
2921.976706310227,1043
2923.7139277791334,1057
2925.4508235830313,1072
2927.187394030137,1061
2928.923639428745,1052
2930.6595600872306,1074
2932.395156314046,1107
2934.1304284177218,1039
2935.8653767068713,1070
2937.6000014901815,1077
2939.3343030764227,1066
2941.068281774442,1050
2942.8019378931644,1065
2944.5352717415976,1050
2946.2682836288236,1044
2948.0009738640065,1055
2949.7333427563885,1067
2951.465390615289,1122
2953.1971177501086,1085
2954.9285244703265,1072
2956.6596110855,1043
2958.3903779052657,1072
2960.1208252393385,1030
2961.8509533975125,1083
2963.5807626896617,1026
2965.3102534257378,1073
2967.0394259157715,1025
2968.768280469873,1115
2970.496817398232,1093
2972.2250370111146,1079
2973.952939618869,1063
2975.6805255319196,1030
2977.4077950607707,1085
2979.134748516006,1054
2980.861386208289,1090
2982.587708448359,1072
2984.313715547037,1064
2986.039407815222,1086
2987.764785563891,1089
2989.489849104102,1102
2991.2145987469908,1037
2992.9390348037705,1071
2994.6631575857346,1111
2996.3869674042576,1009
2998.1104645707887,1039
2999.83364939686,1053
3001.5565221940783,1071
3003.2790832741334,1076
3005.0013329487924,1046
3006.7232715298996,1056
3008.4448993293804,1065
3010.166216659239,1032
3011.887223831558,1015
3013.607921158498,1024
3015.3283089522993,1066
3017.0483875252826,1031
3018.7681571898443,1019
3020.4876182584626,1036
3022.2067710436927,1016
3023.9256158581707,1035
3025.644153014609,1084
3027.362382825801,1096
3029.0803056046193,1028
3030.797921664012,980
3032.5152313170106,1060
3034.2322348767225,1067
3035.9489326563353,995
3037.665324969115,996
3039.3814121284063,999
3041.097194447633,1024
3042.812672240299,1058
3044.5278458199855,1050
3046.2427155003525,1069
3047.9572815951406,1043
3049.671544418167,1037
3051.38550428333,1085
3053.0991615046073,1024
3054.812516396051,1017
3056.5255692717974,1073
3058.2383204460575,1089
3059.9507702331257,1079
3061.662918947372,1025
3063.3747669032446,994
3065.0863144152736,993
3066.7975617980674,1055
3068.508509366309,1083
3070.219157434767,1066
3071.9295063182844,1050
3073.639556331785,1042
3075.3493077902704,1039
3077.058761008821,1032
3078.7679163025964,1032
3080.476773986837,1035
3082.1853343768594,1028
3083.89359778806,1081
3085.6015645359153,995
3087.3092349359786,1042
3089.016609303884,1091
3090.7236879553434,1060
3092.4304712061476,1065
3094.136959372166,1062
3095.843152769349,1133
3097.5490517137237,1020
3099.2546565213966,1060
3100.959967508554,1026
3102.66498499146,1041
3104.3697092864577,1064
3106.0741407099695,1043
3107.778279578498,1016
3109.482126208622,1000
3111.1856809170004,1029
3112.8889440203716,1045
3114.5919158355528,1033
3116.294596679439,1070
3117.996986869006,1027
3119.6990867213062,1062
3121.4008965534726,1056
3123.102416682717,1071
3124.803647426329,1047
3126.5045891016784,1019
3128.205242026213,1080
3129.90560651746,1068
3131.605682893025,1018
3133.3054714705922,1046
3135.0049725679282,1059
3136.7041865028714,1063
3138.4031135933465,1052
3140.101754157353,1027
3141.800108512971,1024
3143.498176978357,1048
3145.1959598717494,1013
3146.8934575114636,1085
3148.5906702158954,1065
3150.2875983035183,1102
3151.9842420928853,1032
3153.680601902627,1026
3155.376678051456,1020
3157.07247085816,1005
3158.767980641609,1009
3160.463207720748,1048
3162.158152414606,1020
3163.8528150422862,1018
3165.5471959229726,1003
3167.2412953759303,1017
3168.9351137204976,1013
3170.628651276098,996
3172.3219083622307,1050
3174.014885298474,1020
3175.707582404485,1046
3177.4000000000005,1086
3179.092138404835,996
3180.7839979388846,1032
3182.47557892212,1062
3184.166881674594,1063
3185.8579065164386,1103
3187.5486537678626,1032
3189.2391237491547,1032
3190.9293167806827,1056
3192.6192331828934,1022
3194.3088732763117,1009
3195.998237381542,1012
3197.687325819268,1034
3199.376138910251,1036
3201.064676975334,1042
3202.7529403354347,1043
3204.4409293115523,1008
3206.1286442247647,1036
3207.816085396229,1040
3209.5032531471825,1060
3211.190147798936,1041
3212.8767696728846,1013
3214.5631190905015,1022
3216.2491963733373,1005
3217.9350018430214,1043
3219.6205358212637,1032
3221.305798629851,1050
3222.990790590651,992
3224.6755120256103,1025
3226.359963256751,1011
3228.0441446061795,1010
3229.7280563960758,1036
3231.411698948703,1001
3233.0950725863995,1043
3234.778177631587,1071
3236.461014406761,1052
3238.1435832345005,1001
3239.8258844374595,1063
3241.507918338374,1051
3243.1896852600576,1026
3244.8711855254023,1045
3246.552419457381,1048
3248.233387379042,1034
3249.914089613516,1000
3251.59452648401,1024
3253.274698313813,1050
3254.95460542629,1024
3256.6342481448855,1038
3258.313626793125,1057
3259.9927416946084,1029
3261.6715931730196,985
3263.3501815521176,1012
3265.0285071557437,1084
3266.706570307815,1050
3268.3843713323286,999
3270.0619105533615,1006
3271.739188295068,1016
3273.4162048816834,996
3275.0929606375184,969
3276.769455886966,1028
3278.445690954498,985
3280.1216661646613,1097
3281.797381842087,1028
3283.4728383114807,1044
3285.1480358976296,996
3286.8229749253996,1074
3288.4976557197333,1049
3290.172078605655,1072
3291.846243908266,1086
3293.5201519527463,1029
3295.193803064357,1056
3296.8671975684374,1031
3298.5403357904024,971
3300.21321805575,1058
3301.8858446900567,1022
3303.558216018975,1043
3305.23033236824,981
3306.9021940636603,1049
3308.57380143113,1057
3310.2451547966184,1108
3311.916254486174,1036
3313.5871008259246,993
3315.2576941420766,1017
3316.9280347609147,1027
3318.5981230088046,1069
3320.2679592121895,1022
3321.9375436975924,1022
3323.606876791612,1034
3325.27595882093,1038
3326.944790112305,1014
3328.6133709925753,1058
3330.2817017886573,1046
3331.949782827547,1034
3333.617614436319,1007
3335.2851969421245,1009
3336.952530672199,1049
3338.619615953853,1015
3340.286453114475,1063
3341.9530424815357,1047
3343.619384382583,1004
3345.2854791452437,1014
3346.951327097224,1086
3348.6169285663073,1051
3350.2822838803577,1005
3351.947393367319,1076
3353.61225735521,1053
3355.2768761721345,1031
3356.9412501462693,1057
3358.605379605873,1008
3360.2692648792827,1041
3361.9329062949146,1028
3363.596304181263,1008
