CollectionTime,7/3/2024 2:58:58 PM
ExposureUsed,3
CalibratedSpectrum
-962.7078968117929,419
-959.9714848408522,441
-957.2358232597828,433
-954.5009119013725,442
-951.7667505983302,471
-949.0333391832855,472
-946.3006774887896,454
-943.5687653473143,457
-940.837602591253,467
-938.1071890529199,450
-935.3775245645503,444
-932.6486089583007,446
-929.9204420662485,471
-927.1930237203925,462
-924.4663537526524,468
-921.7404319948689,463
-919.0152582788041,442
-916.2908324361409,492
-913.5671542984834,446
-910.8442236973568,462
-908.1220404642074,442
-905.4006044304027,461
-902.679915427231,481
-899.959973285902,448
-897.2407778375464,423
-894.5223289132158,429
-891.8046263438832,451
-889.0876699604426,420
-886.3714595937089,426
-883.6559950744183,432
-880.9412762332282,462
-878.2273029007168,434
-875.5140749073835,444
-872.8015920836489,453
-870.0898542598545,462
-867.3788612662631,452
-864.6686129330585,433
-861.9591090903457,446
-859.2503495681506,452
-856.5423341964203,434
-853.8350628050229,458
-851.1285352237478,467
-848.4227512823054,439
-845.7177108103272,436
-843.0134136373656,441
-840.3098595928943,418
-837.6070485063082,448
-834.9049802069229,435
-832.2036545239757,453
-829.5030712866244,456
-826.8032303239481,461
-824.1041314649472,451
-821.4057745385428,465
-818.7081593735775,459
-816.0112857988148,448
-813.3151536429393,463
-810.6197627345566,493
-807.9251129021936,503
-805.2312039742981,466
-802.5380357792392,464
-799.8456081453069,459
-797.1539209007124,462
-794.462973873588,450
-791.772766891987,482
-789.083299783884,437
-786.3945723771743,466
-783.7065844996748,463
-781.0193359791231,454
-778.3328266431781,465
-775.6470563194197,451
-772.9620248353489,466
-770.2777320183878,469
-767.5941776958798,457
-764.9113616950891,464
-762.2292838432011,463
-759.5479439673222,479
-756.8673418944801,458
-754.1874774516235,490
-751.5083504656222,458
-748.8299607632671,466
-746.15230817127,485
-743.475392516264,467
-740.7992136248035,468
-738.1237713233636,482
-735.4490654383407,466
-732.7750957960521,470
-730.1018622227365,476
-727.4293645445534,464
-724.7576025875837,464
-722.0865761778291,489
-719.4162851412126,467
-716.7467293035781,486
-714.0779084906909,467
-711.409822528237,498
-708.7424712418238,490
-706.0758544569796,475
-703.4099719991541,504
-700.7448236937178,492
-698.0804093659622,492
-695.4167288411002,492
-692.7537819442656,500
-690.0915685005134,482
-687.4300883348199,492
-684.7693412720819,491
-682.1093271371178,482
-679.4500457546669,475
-676.7914969493897,490
-674.1336805458676,507
-671.4765963686034,486
-668.8202442420206,512
-666.1646239904642,500
-663.5097354382001,482
-660.8555784094151,514
-658.2021527282176,492
-655.5494582186366,504
-652.8974947046223,481
-650.2462620100463,495
-647.5957599587009,484
-644.9459883742998,551
-642.2969470804776,508
-639.6486359007902,536
-637.0010546587141,545
-634.3542031776476,503
-631.7080812809096,523
-629.0626887917401,485
-626.4180255333008,533
-623.7740913286734,535
-621.1308860008619,506
-618.4884093727904,507
-615.8466612673046,514
-613.2056415071715,507
-610.5653499150785,526
-607.9257863136347,553
-605.28695052537,528
-602.6488423727357,517
-600.0114616781036,528
-597.3748082637674,513
-594.7388819519412,526
-592.1036825647604,577
-589.4692099242818,585
-586.8354638524829,548
-584.2024441712624,538
-581.5701507024403,555
-578.9385832677575,532
-576.3077416888759,525
-573.6776257873787,537
-571.0482353847704,525
-568.4195703024757,536
-565.7916303618415,551
-563.164415384135,542
-560.5379251905453,554
-557.9121596021815,545
-555.2871184400748,550
-552.6628015251767,559
-550.0392086783606,578
-547.4163397204204,571
-544.794194472071,554
-542.1727727539491,566
-539.5520743866118,589
-536.9320991905377,613
-534.3128469861261,627
-531.6943175936979,604
-529.0765108334947,602
-526.4594265256793,690
-523.8430644903358,786
-521.2274245474689,847
-518.612506517005,879
-515.9983102187913,866
-513.3848354725959,915
-510.77208209810846,979
-508.16004991493924,1043
-505.5487387426199,1084
-502.9381484006032,1146
-500.3282787082628,1009
-497.71912948489364,932
-495.1107005497117,784
-492.5029917218539,754
-489.8960028203786,703
-487.28973366426493,641
-484.68418407241325,656
-482.07935386364494,636
-479.47524285670266,635
-476.87185087025,664
-474.2691777228715,654
-471.66722323307334,673
-469.0659872192821,644
-466.4654694998459,639
-463.86566989303384,652
-461.26658821703614,645
-458.66822428996414,627
-456.07057792985,682
-453.4736489546475,659
-450.877437182231,643
-448.28194243039627,670
-445.68716451686,651
-443.09310325926003,647
-440.49975847515555,677
-437.9071299820263,662
-435.31521759727354,700
-432.72402113821954,670
-430.13354042210767,658
-427.5437752661022,704
-424.95472548728867,708
-422.36639090267386,689
-419.7787713291855,753
-417.1918665836721,786
-414.60567648290385,762
-412.0202008435715,713
-409.4354394822874,716
-406.8513922155845,700
-404.26805885991723,722
-401.685439231661,714
-399.103533147112,724
-396.522340422488,710
-393.9418608739278,662
-391.3620943174908,706
-388.7830405691583,696
-386.2046994448317,671
-383.6270707603344,646
-381.05015433141045,602
-378.473949973725,616
-375.8984575028645,613
-373.32367673433623,536
-370.74960748356875,539
-368.1762495659117,547
-365.60360279663576,498
-363.03166699093265,504
-360.4604419639154,482
-357.8899275306178,460
-355.32012350599507,484
-352.7510297049233,445
-350.1826459421999,441
-347.61497203254316,434
-345.04800779059235,456
-342.4817530309082,452
-339.91620756797226,445
-337.35137121618743,446
-334.7872437898774,469
-332.22382510328725,465
-329.66111497058273,495
-327.09911320585127,453
-324.53781962310075,457
-321.9772340362607,465
-319.4173562591816,456
-316.8581861056348,457
-314.2997233893127,416
-311.7419679238294,462
-309.1849195227194,449
-306.62857799943856,452
-304.0729431673641,486
-301.51801483979375,462
-298.963792829947,480
-296.41027695096386,509
-293.85746701590574,526
-291.3053628377552,513
-288.7539642294155,517
-286.2032710037115,522
-283.65328297338897,528
-281.1039999511146,552
-278.5554217494762,544
-276.007548180983,496
-273.4603790580651,491
-270.9139141930734,498
-268.3681533982807,477
-265.8230964858798,499
-263.27874326798565,517
-260.7350935566336,508
-258.1921471637804,538
-255.6499039013039,585
-253.10836358100266,563
-250.56752601459698,519
-248.02739101372765,539
-245.48795838995704,595
-242.94922795476816,579
-240.41119951956557,572
-237.8738728956746,593
-235.33724789434166,599
-232.80132432673452,635
-230.2661020039418,560
-227.73158073697357,614
-225.19776033676033,660
-222.66464061415422,677
-220.1322213799284,626
-217.60050244477725,569
-215.06948361931552,563
-212.53916471408013,610
-210.00954553952818,699
-207.48062590603843,608
-204.9524056239104,592
-202.4248845033651,669
-199.8980623545441,712
-197.37193898751036,717
-194.84651421224817,672
-192.32178783866232,647
-189.79775967657952,672
-187.27442953574644,759
-184.7517972258321,781
-182.2298625564256,717
-179.7086253370378,678
-177.18808537710026,668
-174.66824248596583,792
-172.14909647290835,875
-169.6306471471229,758
-167.11289431772548,717
-164.59583779375328,732
-162.07947738416453,742
-159.5638128978386,809
-157.04884414357605,947
-154.53457093009854,1051
-152.02099306604828,976
-149.50811035998936,789
-146.99592262040665,753
-144.48442965570587,809
-141.97363127421409,874
-139.46352728417958,999
-136.95411749377126,1146
-134.44540171107985,1025
-131.93737974411636,841
-129.43005140081357,1162
-126.92341648902493,1641
-124.41747481652521,1765
-121.91222619101006,2227
-119.40767042009657,2802
-116.90380731132257,3241
-114.40063667214702,3218
-111.8981583099503,2429
-109.3963720320337,1874
-106.89527764561933,1768
-104.39487495785067,2204
-101.89516377579241,2919
-99.39614390642998,4284
-96.89781515667039,4657
-94.40017733334128,4017
-91.90323024319173,3029
-89.40697369289148,3318
-86.91140748903172,5494
-84.41653143812482,6341
-81.92234534660395,4792
-79.42884902082358,3689
-76.93604226705907,5235
-74.4439248915071,10798
-71.95249670028534,15698
-69.46175749943245,15922
-66.97170709490854,13109
-64.48234529259423,9733
-61.99367189829195,8428
-59.50568671772464,7571
-57.01838955653636,6401
-54.53178022029283,5500
-52.045858514480074,6375
-49.560624244506016,7870
-47.07607721569923,9179
-44.59221723330904,9350
-42.10904410250669,9558
-39.62655762838392,9579
-37.14475761595372,10205
-34.66364387015028,11333
-32.18321619582866,11220
-29.70347439776515,10683
-27.224418280657005,12340
-24.74604764912317,13054
-22.26836230770266,18064
-19.7913620608565,34945
-17.315046712966478,65041
-14.83941606833514,65041
-12.36446993118659,65041
-9.89020810566592,65041
-7.416630395839093,65041
-4.94373660569363,65041
-2.471526539137585,65041
-6.821210263296962E-13,65041
2.47084320796705,65041
4.941003281093458,65041
7.410480415786196,65041
9.879274808531363,65041
12.347386655893956,65041
14.814816154518212,65041
17.28156350112681,65041
19.74762889252179,65041
22.21301252558385,65041
24.67771459727237,17817
27.141735304626195,3332
29.605074844762612,2096
32.06773341487792,1650
34.52971121224755,1772
36.99100843422559,1798
39.45162527824516,1472
41.91156194181792,1454
44.370818622535126,1425
46.82939551806646,1192
49.287292826160524,1238
51.74451074464503,1433
54.201049471426245,1305
56.65690920448981,1258
59.112090141899785,1164
61.56659248179983,1008
64.02041642241159,1085
66.4735621620365,1087
68.92602989905402,919
71.37781983192338,912
73.82893215918205,1024
76.27936707944684,1045
78.72912479141326,1025
81.17820549385567,1251
83.62660938562783,1345
86.07433666566146,1097
88.5213875329681,852
90.96776218663751,824
93.41346082583925,840
95.85848364982041,905
98.30283085790859,864
100.7465026495089,959
103.18949922410604,962
105.63182078126385,988
108.07346752062438,1040
110.51443964190923,825
112.95473734491827,731
115.39436082953114,788
117.83331029570547,785
120.27158594347827,803
122.7091879729652,954
125.1461165843615,821
127.58237197794062,688
130.01795435405518,673
132.4528639131364,789
134.88710085569494,862
137.32066538231982,844
139.75355769367923,781
142.1857779905207,703
144.61732647366978,732
147.04820334403132,750
149.47840880258934,726
151.90794305040674,765
154.33680628862487,807
156.76499871846443,904
159.19252054122433,1014
161.61937195828352,1062
164.04555317109896,1189
166.47106438120693,1231
168.89590579022217,1297
171.320077599839,1376
173.7435800118302,1485
176.16641322804742,1540
178.58857745042144,1554
181.01007288096173,1650
183.43089972175687,1677
185.85105817497413,1636
188.27054844285988,1600
190.6893707277394,1615
193.10752523201643,1612
195.5250121581745,1621
197.9418317087751,1670
200.3579840864594,1648
202.7734694939469,1752
205.18828813403627,1724
207.6024402096051,1764
210.01592592360964,1841
212.42874547908548,1880
214.84089907914665,1878
217.2523869269868,1754
219.66320922587727,1723
222.0733661791695,1750
224.48285799029293,1785
226.8916848627572,1787
229.29984700014882,1901
231.7073446061355,1884
234.11417788446204,1862
236.520347038953,1767
238.92585227351185,1854
241.33069379212054,1797
243.73487179884035,1858
246.1383864978112,1853
248.541238093252,1858
250.9434267894609,1789
253.34495279081432,1847
255.74581630176783,1791
258.1460175268563,1780
260.54555667069314,1830
262.9444339379703,1766
265.3426495334594,1839
267.7402036620107,1892
270.1370965285529,1879
272.53332833809407,1771
274.9288992957214,1691
277.32380960660055,1733
279.718059475976,1810
282.1116491091717,1863
284.5045787115897,1784
286.89684848871195,1742
289.2884586460981,1816
291.67940938938807,1836
294.0697009242996,1728
296.4593334566299,1817
298.84830719225477,1764
301.23662233712923,1721
303.6242790972866,1753
306.01127767884,1747
308.39761828798066,1732
310.78330113097934,1736
313.16832641418534,1645
315.5526943440269,1719
317.9364051270112,1691
320.3194589697242,1778
322.70185607883093,1681
325.0835966610754,1611
327.4646809232805,1623
329.8451090723478,1594
332.2248813152577,1659
334.6039978590701,1601
336.9824589109231,1610
339.36026467803447,1558
341.7374153677,1628
344.113911187295,1576
346.48975234427337,1576
348.8649390461686,1519
351.2394715005918,1537
353.61334991523415,1620
355.9865744978655,1590
358.35914545633375,1606
360.73106299856715,1588
363.10232733257146,1575
365.47293866643247,1563
367.84289720831396,1511
370.2122031664593,1489
372.5808567491905,1565
374.9488581649083,1565
377.31620762209275,1525
379.6829053293021,1533
382.0489514951745,1455
384.4143463284262,1508
386.7790900378528,1413
389.14318283232853,1481
391.50662492080653,1481
393.86941651231916,1486
396.23155781597745,1537
398.5930490409713,1513
400.9538903965696,1509
403.3140820921202,1502
405.6736243370498,1553
408.03251734086336,1391
410.3907613131465,1444
412.74835646356166,1499
415.10530300185144,1505
417.4616011378372,1464
419.81725108141893,1434
422.1722530425758,1447
424.5266072313656,1393
426.880313857925,1463
429.2333731324701,1489
431.58578526529516,1451
433.9375504667738,1442
436.2886689473588,1425
438.63914091758113,1419
440.9889665880513,1446
443.33814616945835,1398
445.68667987257015,1420
448.03456790823395,1465
450.3818104873759,1435
452.72840782100013,1413
455.07436012019105,1434
457.41966759611057,1408
459.7643304600007,1443
462.10834892318155,1450
464.4517231970525,1368
466.79445349309174,1367
469.1365400228566,1392
471.4779829979826,1380
473.81878263018564,1343
476.15893913125876,1458
478.4984527130747,1415
480.8373235875855,1430
483.17555196682144,1434
485.5131380628919,1439
487.8500820879857,1562
490.1863842543697,1573
492.52204477439034,1574
494.8570638604725,1584
497.1914417251204,1765
499.52517858091653,1960
501.85827464052306,2221
504.19073011668036,2553
506.5225452222086,2559
508.85372017000566,2723
511.18425517304956,2802
513.514150444396,3021
515.8434061971808,3456
518.1720226446176,4355
520.4999999999999,4478
522.8273384766991,4220
525.1540382881666,3640
527.480099647932,3177
529.8055227696037,2708
532.1303078668694,2093
534.454455153496,1762
536.777964843328,1685
539.1008371502907,1558
541.4230722883866,1505
543.744670471698,1472
546.0656319143858,1503
548.3859568306899,1528
550.7056454349294,1492
553.0246979415016,1432
555.3431145648834,1468
557.6608955196306,1400
559.978041020377,1463
562.2945512818363,1423
564.6104265188006,1451
566.9256669461412,1410
569.2402727788082,1457
571.5542442318302,1425
573.8675815203156,1442
576.1802848594508,1412
578.4923544645015,1422
580.8037905508126,1478
583.114593333807,1470
585.4247630289875,1422
587.7342998519354,1444
590.0432040183106,1426
592.3514757438526,1423
594.6591152443794,1417
596.9661227357875,1364
599.2724984340531,1468
601.578242555231,1451
603.8833553154542,1432
606.1878369309362,1423
608.4916876179676,1440
610.7949075929192,1430
613.0974970722403,1395
615.3994562724587,1445
617.7007854101818,1367
620.0014847020951,1424
622.3015543649641,1429
624.6009946156324,1464
626.8998056710224,1381
629.1979877481361,1400
631.4955410640538,1431
633.7924658359349,1447
636.0887622810175,1443
638.3844306166192,1407
640.6794710601358,1465
642.9738838290426,1454
645.2676691408932,1454
647.5608272133207,1417
649.853358264037,1433
652.1452625108324,1495
654.4365401715764,1463
656.7271914642178,1444
659.0172166067838,1387
661.3066158173809,1458
663.5953893141935,1486
665.8835373154867,1412
668.1710600396028,1480
670.4579577049639,1520
672.7442305300709,1446
675.0298787335033,1508
677.3149025339197,1449
679.599302150058,1407
681.8830778007342,1430
684.1662297048437,1465
686.4487580813608,1439
688.7306631493387,1498
691.0119451279091,1466
693.2926042362834,1465
695.5726406937516,1466
697.8520547196814,1405
700.1308465335215,1475
702.4090163547982,1489
704.6865644031171,1458
706.9634908981619,1446
709.2397960596965,1432
711.5154801075631,1412
713.7905432616823,1476
716.0649857420548,1465
718.3388077687592,1431
720.612009561953,1442
722.8845913418733,1446
725.1565533288352,1458
727.427895743234,1492
729.6986188055427,1500
731.9687227363137,1509
734.238207756178,1453
736.5070740858458,1412
738.7753219461066,1452
741.0429515578281,1501
743.3099631419569,1453
745.5763569195191,1440
747.8421331116193,1453
750.1072919394409,1522
752.3718336242467,1498
754.6357583873777,1498
756.8990664502545,1436
759.1617580343765,1438
761.423833361321,1464
763.6852926527457,1416
765.9461361303862,1467
768.206364016058,1459
770.4659765316536,1356
772.7249738991469,1493
774.9833563405886,1487
777.2411240781092,1514
779.4982773339183,1503
781.7548163303044,1556
784.010741289634,1479
786.2660524343538,1569
788.5207499869881,1509
790.7748341701416,1519
793.0283052064964,1532
795.2811633188143,1504
797.5334087299362,1541
799.7850416627813,1496
802.0360623403484,1525
804.2864709857143,1510
806.5362678220353,1586
808.7854530725468,1563
811.0340269605625,1505
813.2819897094754,1505
815.5293415427581,1501
817.77608268396,1551
820.0222133567116,1510
822.2677337847211,1548
824.5126441917765,1499
826.7569448017433,1456
829.0006358385675,1477
831.2437175262731,1460
833.4861900889629,1485
835.7280537508192,1531
837.9693087361026,1490
840.2099552691533,1493
842.4499935743896,1524
844.689423876309,1535
846.9282463994886,1530
849.1664613685833,1561
851.4040690083276,1581
853.6410695435349,1486
855.877463199097,1539
858.1132501999847,1516
860.3484307712487,1485
862.5830051380175,1524
864.8169735254988,1504
867.0503361589791,1501
869.2830932638243,1551
871.5152450654786,1556
873.7467917894654,1568
875.9777336613873,1505
878.2080709069252,1508
880.4378037518389,1515
882.666932421968,1515
884.8954571432301,1525
887.1233781416219,1502
889.3506956432192,1554
891.5774098741766,1515
893.803521060728,1580
896.0290294291852,1480
898.2539352059397,1586
900.4782386174619,1428
902.7019398903011,1490
904.925039251085,1481
907.147536926521,1528
909.3694331433943,1500
911.59072812857,1518
913.8114221089921,1430
916.0315153116827,1484
918.2510079637437,1490
920.4699002923547,1508
922.6881925247761,1417
924.905884888345,1435
927.1229776104793,1441
929.3394709186747,1525
931.555365040506,1488
933.7706602036275,1387
935.9853566357709,1452
938.1994545647489,1476
940.4129542184515,1526
942.6258558248488,1457
944.8381596119883,1514
947.0498658079974,1517
949.2609746410825,1499
951.4714863395287,1484
953.6814011316998,1479
955.8907192460387,1465
958.0994409110671,1496
960.3075663553858,1483
962.5150958076741,1456
964.7220294966913,1472
966.928367651274,1467
969.1341105003388,1449
971.3392582728806,1438
973.5438111979742,1473
975.747769504772,1458
977.9511334225061,1409
980.153903180487,1406
982.3560790081052,1458
984.5576611348289,1474
986.7586497902058,1403
988.9590452038618,1395
991.158847605503,1389
993.3580572249133,1373
995.5566742919558,1375
997.7546990365728,1377
999.952131688785,1260
1002.1489724786926,1317
1004.3452216364743,1351
1006.5408793923874,1294
1008.7359459767691,1286
1010.9304216200343,1259
1013.1243065526781,1284
1015.3176010052733,1280
1017.510305208472,1249
1019.7024193930064,1252
1021.8939437896848,1253
1024.0848786293977,1276
1026.2752241431122,1222
1028.4649805618747,1223
1030.6541481168115,1213
1032.842727039127,1197
1035.0307175601051,1208
1037.2181199111074,1204
1039.4049343235752,1225
1041.591161029029,1212
1043.7768002590683,1180
1045.9618522453698,1254
1048.1463172196918,1160
1050.3301954138697,1209
1052.513487059818,1175
1054.69619238953,1229
1056.8783116350783,1221
1059.0598450286152,1199
1061.2407928023704,1205
1063.4211551886528,1196
1065.6009324198508,1132
1067.780124728432,1174
1069.9587323469414,1221
1072.1367555080046,1202
1074.314194444325,1190
1076.4910493886855,1151
1078.667320573947,1171
1080.843008233051,1202
1083.0181125990161,1169
1085.1926339049414,1198
1087.3665723840027,1157
1089.5399282694575,1153
1091.7127017946405,1147
1093.8848931929647,1150
1096.0565026979243,1101
1098.2275305430899,1115
1100.3979769621128,1137
1102.567842188722,1182
1104.737126456726,1162
1106.9058300000124,1145
1109.0739530525475,1099
1111.2414958483764,1121
1113.4084586216231,1126
1115.5748416064907,1118
1117.7406450372605,1104
1119.9058691482942,1077
1122.0705141740304,1111
1124.2345803489884,1130
1126.3980679077658,1131
1128.5609770850388,1111
1130.7233081155623,1154
1132.8850612341707,1186
1135.0462366757774,1129
1137.2068346753745,1121
1139.3668554680326,1137
1141.526299288901,1146
1143.68516637321,1151
1145.8434569562655,1136
1148.001171273455,1125
1150.158309560244,1156
1152.3148720521767,1135
1154.470858984876,1104
1156.626270594044,1156
1158.7811071154629,1131
1160.9353687849912,1134
1163.089055838569,1122
1165.242168512213,1115
1167.3947070420209,1116
1169.5466716641677,1093
1171.6980626149075,1104
1173.8488801305748,1102
1175.9991244475814,1082
1178.1487958024186,1121
1180.2978944316555,1110
1182.4464205719428,1119
1184.5943744600072,1100
1186.7417563326567,1044
1188.8885664267755,1084
1191.0348049793297,1101
1193.1804722273619,1057
1195.325568407995,1115
1197.4700937584303,1088
1199.614048515948,1107
1201.7574329179074,1099
1203.900247201746,1107
1206.042491604982,1117
1208.1841663652099,1105
1210.3252717201053,1091
1212.465807907422,1104
1214.6057751649923,1145
1216.7451737307279,1138
1218.8840038426192,1120
1221.0222657387353,1108
1223.1599596572241,1125
1225.2970858363137,1184
1227.4336445143094,1152
1229.5696359295966,1155
1231.705060320639,1115
1233.8399179259786,1150
1235.9742089842384,1164
1238.107933734118,1135
1240.2410924143974,1076
1242.373685263935,1101
1244.5057125216676,1100
1246.6371744266116,1125
1248.7680712178621,1162
1250.898403134593,1113
1253.028170416058,1163
1255.1573733015875,1164
1257.2860120305932,1116
1259.4140868425648,1189
1261.54159797707,1124
1263.6685456737569,1175
1265.7949301723515,1159
1267.9207517126597,1181
1270.046010534565,1164
1272.1707068780306,1149
1274.2948409830983,1180
1276.4184130898889,1169
1278.541423438603,1201
1280.6638722695184,1163
1282.785759822993,1159
1284.9070863394636,1168
1287.0278520594447,1214
1289.1480572235314,1228
1291.2677020723963,1247
1293.3867868467923,1271
1295.5053117875495,1235
1297.623277135579,1242
1299.740683131868,1211
1301.8575300174857,1256
1303.973818033578,1313
1306.0895474213703,1268
1308.2047184221678,1250
1310.3193312773528,1313
1312.4333862283888,1285
1314.5468835168163,1319
1316.659823384255,1259
1318.7722060724045,1293
1320.8840318230418,1285
1322.9953008780249,1291
1325.1060134792888,1286
1327.2161698688478,1330
1329.3257702887959,1266
1331.4348149813054,1305
1333.5433041886276,1330
1335.6512381530933,1280
1337.7586171171101,1235
1339.8654413231675,1274
1341.9717110138317,1235
1344.0774264317488,1217
1346.1825878196432,1266
1348.2871954203192,1244
1350.3912494766587,1225
1352.4947502316231,1248
1354.5976979282532,1228
1356.7000928096686,1223
1358.8019351190665,1243
1360.9032250997243,1302
1363.0039629949988,1250
1365.1041490483235,1223
1367.2037835032133,1242
1369.3028666032606,1187
1371.401398592137,1173
1373.4993797135926,1191
1375.5968102114575,1192
1377.6936903296396,1269
1379.7900203121262,1130
1381.8858004029835,1167
1383.9810308463561,1156
1386.075711886469,1212
1388.1698437676241,1176
1390.2634267342032,1166
1392.356461030667,1191
1394.4489469015557,1203
1396.5408845914872,1209
1398.6322743451592,1148
1400.7231164073469,1202
1402.813411022907,1174
1404.903158436773,1172
1406.9923588939578,1230
1409.0810126395531,1222
1411.1691199187303,1215
1413.2566809767386,1172
1415.343696058907,1204
1417.4301654106425,1207
1419.5160892774315,1204
1421.6014679048399,1201
1423.6863015385125,1194
1425.7705904241707,1181
1427.8543348076178,1235
1429.9375349347342,1220
1432.0201910514802,1221
1434.102303403894,1202
1436.1838722380944,1199
1438.2648978002767,1248
1440.3453803367174,1179
1442.4253200937692,1286
1444.5047173178677,1219
1446.5835722555234,1255
1448.6618851533285,1257
1450.739656257952,1249
1452.8168858161434,1163
1454.8935740747306,1180
1456.96972128062,1213
1459.045327680797,1235
1461.120393522327,1183
1463.1949190523528,1212
1465.2689045180973,1264
1467.3423501668608,1277
1469.415256246024,1289
1471.4876230030463,1260
1473.559450685465,1250
1475.6307395408976,1298
1477.7014898170391,1328
1479.771701761665,1219
1481.8413756226287,1243
1483.9105116478618,1288
1485.9791100853772,1317
1488.0471711832643,1227
1490.1146951896926,1250
1492.1816823529098,1277
1494.2481329212433,1389
1496.3140471430984,1330
1498.3794252669609,1288
1500.4442675413939,1302
1502.5085742150404,1313
1504.572345536622,1334
1506.6355817549388,1334
1508.6982831188702,1348
1510.7604498773744,1274
1512.8220822794883,1338
1514.8831805743293,1319
1516.9437450110909,1335
1519.003775839048,1316
1521.0632733075522,1353
1523.1222376660367,1398
1525.1806691640113,1356
1527.2385680510652,1375
1529.2959345768668,1432
1531.3527689911643,1345
1533.4090715437833,1372
1535.4648424846291,1397
1537.5200820636855,1344
1539.5747905310159,1402
1541.6289681367616,1398
1543.6826151311434,1453
1545.7357317644614,1519
1547.7883182870937,1483
1549.8403749494987,1455
1551.8919020022113,1524
1553.9428996958477,1491
1555.9933682811015,1504
1558.0433080087469,1529
1560.0927191296346,1549
1562.1416018946961,1563
1564.1899565549415,1535
1566.2377833614592,1572
1568.2850825654164,1590
1570.3318544180606,1602
1572.3780991707158,1487
1574.423817074788,1544
1576.4690083817595,1521
1578.5136733431923,1515
1580.5578122107272,1522
1582.601425236085,1496
1584.6445126710646,1456
1586.6870747675434,1441
1588.7291117774776,1440
1590.7706239529034,1453
1592.8116115459347,1414
1594.8520748087658,1350
1596.8920139936686,1379
1598.9314293529933,1313
1600.9703211391711,1383
1603.008689604711,1359
1605.0465350022005,1291
1607.0838575843068,1285
1609.1206576037753,1282
1611.1569353134305,1241
1613.1926909661765,1266
1615.2279248149953,1290
1617.2626371129481,1254
1619.2968281131757,1214
1621.3304980688963,1222
1623.3636472334088,1229
1625.39627586009,1211
1627.428384202396,1194
1629.459972513861,1203
1631.4910410480993,1211
1633.5215900588028,1202
1635.551619799744,1204
1637.5811305247717,1193
1639.6101224878166,1144
1641.6385959428862,1140
1643.6665511440683,1166
1645.693988345528,1167
1647.7209078015112,1105
1649.7473097663405,1167
1651.7731944944203,1128
1653.7985622402307,1155
1655.823413258333,1138
1657.847747803366,1144
1659.8715661300494,1153
1661.8948684931793,1111
1663.9176551476316,1088
1665.9399263483624,1142
1667.9616823504057,1133
1669.982923408873,1104
1672.0036497789574,1122
1674.0238617159293,1069
1676.043559475138,1175
1678.0627433120121,1172
1680.081413482059,1123
1682.0995702408654,1105
1684.117213844096,1149
1686.134344547495,1115
1688.1509626068864,1074
1690.1670682781705,1132
1692.182661817329,1131
1694.1977434804217,1111
1696.2123135235875,1097
1698.226372203043,1086
1700.2399197750851,1117
1702.2529564960905,1174
1704.2654826225112,1122
1706.277498410882,1088
1708.2890041178139,1149
1710.2999999999988,1123
1712.3104863142066,1135
1714.3204633172854,1123
1716.329931266163,1101
1718.3388904178469,1125
1720.3473410294214,1132
1722.3552833580516,1096
1724.3627176609807,1087
1726.3696441955308,1159
1728.3760632191033,1106
1730.3819749891782,1119
1732.3873797633146,1132
1734.3922777991502,1123
1736.3966693544012,1144
1738.4005546868639,1099
1740.4039340544127,1145
1742.406807715001,1097
1744.4091759266616,1153
1746.4110389475054,1120
1748.4123970357223,1142
1750.413250449582,1129
1752.4135994474318,1084
1754.4134442876993,1111
1756.4127852288902,1081
1758.4116225295893,1103
1760.4099564484595,1108
1762.407787244244,1153
1764.405115175764,1107
1766.4019405019203,1079
1768.3982634816916,1127
1770.3940843741357,1111
1772.3894034383907,1069
1774.3842209336717,1117
1776.378537119274,1102
1778.372352254571,1082
1780.3656665990156,1069
1782.3584804121397,1109
1784.3507939535534,1139
1786.3426074829463,1088
1788.3339212600863,1111
1790.3247355448211,1095
1792.3150505970766,1114
1794.3048666768573,1061
1796.2941840442477,1107
1798.2830029594106,1106
1800.2713236825884,1086
1802.2591464741004,1077
1804.2464715943465,1077
1806.2332993038058,1126
1808.2196298630352,1133
1810.2054635326708,1106
1812.190800573428,1110
1814.175641246101,1073
1816.1599858115628,1125
1818.1438345307652,1135
1820.127187664738,1114
1822.1100454745924,1105
1824.092408221516,1054
1826.0742761667766,1053
1828.055649571721,1082
1830.0365286977735,1081
1832.0169138064398,1065
1833.9968051593014,1086
1835.9762030180214,1106
1837.9551076443408,1132
1839.9335193000788,1099
1841.9114382471344,1128
1843.888864747485,1052
1845.8657990631878,1075
1847.842241456378,1116
1849.8181921892697,1084
1851.7936515241558,1113
1853.7686197234098,1105
1855.7430970494815,1079
1857.7170837649014,1085
1859.6905801322787,1136
1861.6635864143004,1095
1863.6361028737338,1093
1865.608129773424,1086
1867.5796673762961,1146
1869.5507159453537,1089
1871.521275743678,1073
1873.4913470344313,1085
1875.4609300808534,1114
1877.4300251462632,1092
1879.3986324940588,1134
1881.366752387717,1114
1883.3343850907936,1099
1885.3015308669228,1094
1887.268189979819,1131
1889.2343626932739,1100
1891.2000492711595,1088
1893.1652499774254,1148
1895.1299650761011,1099
1897.0941948312952,1140
1899.0579395071945,1088
1901.0211993680641,1130
1902.98397467825,1099
1904.9462657021745,1082
1906.9080727043415,1130
1908.869395949332,1114
1910.8302357018065,1093
1912.790592226504,1091
1914.7504657882428,1118
1916.7098566519212,1119
1918.6687650825133,1060
1920.6271913450764,1104
1922.5851357047422,1116
1924.5425984267245,1093
1926.499579776314,1139
1928.4560800188833,1122
1930.4120994198802,1113
1932.367638244833,1117
1934.32269675935,1088
1936.2772752291175,1104
1938.231373919899,1163
1940.1849930975404,1110
1942.1381330279637,1105
1944.0907939771696,1147
1946.0429762112412,1112
1947.9946799963363,1101
1949.9459055986945,1079
1951.896653284633,1073
1953.8469233205478,1068
1955.7967159729142,1131
1957.7460315082863,1115
1959.6948701932974,1066
1961.6432322946594,1063
1963.5911180791632,1145
1965.5385278136787,1101
1967.4854617651545,1128
1969.4319202006182,1130
1971.377903387176,1124
1973.3234115920136,1111
1975.268445082395,1129
1977.2130041256642,1110
1979.1570889892423,1094
1981.1006999406304,1106
1983.04383724741,1116
1984.986501177238,1127
1986.928691997853,1116
1988.8704099770712,1090
1990.811655382789,1084
1992.7524284829801,1072
1994.692729545698,1100
1996.6325588390755,1182
1998.5719166313224,1141
2000.5108031907307,1118
2002.4492187856677,1118
2004.387163684583,1093
2006.3246381560011,1106
2008.2616424685298,1081
2010.1981768908527,1076
2012.1342416917332,1113
2014.069837140014,1079
2016.0049635046162,1108
2017.9396210545406,1110
2019.8738100588666,1100
2021.8075307867502,1094
2023.740783507431,1055
2025.6735684902228,1113
2027.6058860045214,1088
2029.5377363198004,1057
2031.4691197056118,1132
2033.4000364315875,1149
2035.3304867674374,1086
2037.260470982952,1137
2039.189989347998,1066
2041.1190421325232,1056
2043.047629606554,1085
2044.9757520401945,1079
2046.9034097036288,1102
2048.8306028671195,1070
2050.7573318010086,1104
2052.683596775716,1088
2054.609398061742,1137
2056.5347359296647,1127
2058.4596106501403,1132
2060.384022493906,1144
2062.3079717317764,1093
2064.231458634646,1103
2066.1544834734873,1118
2068.077046519352,1080
2069.99914804337,1094
2071.9207883167524,1105
2073.8419676107865,1068
2075.7626861968406,1101
2077.6829443463607,1096
2079.6027423308715,1051
2081.522080421977,1113
2083.440958891362,1071
2085.359378010786,1067
2087.2773380520907,1101
2089.194839287196,1145
2091.111881988101,1110
2093.0284664268825,1089
2094.9445928756973,1119
2096.86026160678,1101
2098.775472892446,1100
2100.690227005088,1144
2102.604524217178,1075
2104.5183648012676,1123
2106.431749029985,1101
2108.34467717604,1065
2110.2571495122206,1067
2112.169166311393,1084
2114.080727846503,1092
2115.9918343905747,1113
2117.902486216711,1080
2119.8126835980956,1122
2121.722426807987,1122
2123.6317161197285,1132
2125.5405518067364,1104
2127.448934142509,1105
2129.356863400624,1053
2131.264339854737,1127
2133.1713637785815,1105
2135.077935445972,1117
2136.9840551308002,1118
2138.889723107037,1088
2140.7949396487334,1141
2142.699705030018,1129
2144.6040195250994,1110
2146.507883408264,1067
2148.4112969538774,1105
2150.3142604363848,1068
2152.2167741303097,1105
2154.1188383102535,1139
2156.0204532508997,1119
2157.9216192270064,1153
2159.822336513414,1099
2161.7226053850413,1107
2163.622426116884,1102
2165.5217989840185,1139
2167.4207242616,1087
2169.319202224862,1069
2171.2172331491165,1075
2173.1148173097563,1152
2175.0119549822507,1075
2176.90864644215,1105
2178.8048919650823,1102
2180.7006918267534,1163
2182.596046302952,1117
2184.4909556695407,1061
2186.3854202024645,1141
2188.279440177746,1140
2190.173015871487,1116
2192.066147559868,1079
2193.958835519149,1085
2195.851080025667,1072
2197.7428813558417,1146
2199.6342397861667,1087
2201.5251555932186,1127
2203.415629053651,1165
2205.3056604441986,1131
2207.19525004167,1155
2209.084398122958,1162
2210.9731049650327,1127
2212.861370844941,1105
2214.749196039812,1122
2216.636580826851,1113
2218.523525483344,1153
2220.410030286655,1154
2222.296095514226,1134
2224.1817214435805,1159
2226.066908352319,1108
2227.951656518121,1130
2229.835966218746,1133
2231.71983773203,1190
2233.6032713358913,1138
2235.486267308324,1133
2237.3688259274036,1138
2239.2509474712824,1145
2241.132632218193,1098
2243.013880446447,1120
2244.8946924344323,1161
2246.7750684606203,1133
2248.6550088035574,1111
2250.534513741871,1124
2252.413583554265,1165
2254.292218519526,1116
2256.170418916517,1126
2258.0481850241786,1111
2259.925517121534,1128
2261.8024154876825,1125
2263.678880401803,1126
2265.5549121431536,1185
2267.430510991071,1134
2269.305677224971,1116
2271.180411124348,1145
2273.0547129687766,1121
2274.9285830379076,1100
2276.8020216114737,1105
2278.6750289692845,1115
2280.5476053912294,1165
2282.4197511572766,1167
2284.2914665474727,1195
2286.162751841943,1097
2288.0336073208937,1119
2289.904033264608,1150
2291.774029953448,1150
2293.6435976678554,1156
2295.5127366883517,1147
2297.381447295534,1133
2299.2497297700825,1148
2301.1175843927526,1094
2302.9850114443825,1052
2304.852011205885,1059
2306.7185839582553,1082
2308.5847299825664,1058
2310.4504495599676,1054
2312.3157429716925,1027
2314.1806104990483,1030
2316.0450524234247,1013
2317.9090690262888,1018
2319.772660589186,994
2321.635827393742,1032
2323.498569721661,1007
2325.3608878547248,1078
2327.2227820747967,998
2329.0842526638157,1054
2330.945299903803,1044
2332.805924076857,1025
2334.6661254651535,1031
2336.525904350951,1022
2338.3852610165827,1034
2340.244195744464,1027
2342.102708817088,1029
2343.9608005170253,1036
2345.8184711269287,1013
2347.675720929526,1055
2349.532550207628,963
2351.38895924412,1007
2353.24494832197,1030
2355.100517724223,1064
2356.955667734004,1027
2358.810398634514,1046
2360.664710709037,1037
2362.5186042409337,1057
2364.3720795136437,1012
2366.225136810686,1040
2368.0777764156583,1031
2369.929998612237,1071
2371.7818036841777,998
2373.633191915315,1055
2375.484163589562,1027
2377.3347189909114,1060
2379.184858403434,1053
2381.03458211128,1033
2382.8838903986775,1083
2384.732783549936,1007
2386.5812618494406,1006
2388.4293255816588,1022
2390.2769750311327,1040
2392.1242104824883,1069
2393.971032220427,1000
2395.8174405297295,1008
2397.6634356952563,1037
2399.509018001947,1032
2401.3541877348193,1058
2403.1989451789705,1037
2405.043290619576,1002
2406.8872243418905,1055
2408.730746631247,1034
2410.5738577730594,1030
2412.4165580528183,1058
2414.258847756095,1093
2416.100727168537,1064
2417.9421965758734,1031
2419.783256263912,1056
2421.623906518538,1070
2423.4641476257157,1070
2425.303979871491,1052
2427.143403541984,1085
2428.9824189233977,1054
2430.821026302012,1061
2432.6592259641866,1044
2434.497018196361,1040
2436.33440328505,1055
2438.171381516851,1022
2440.00795317844,1036
2441.844118556569,1068
2443.6798779380724,1079
2445.5152316098606,1043
2447.3501798589255,1060
2449.1847229723357,1070
2451.0188612372403,1057
2452.8525949408663,1055
2454.6859243705203,1011
2456.518849813587,1078
2458.3513715575314,1041
2460.183489889895,1071
2462.015205098301,1045
2463.8465174704493,1038
2465.67742729412,1040
2467.5079348571717,1039
2469.338040447542,1073
2471.1677443532476,1068
2472.9970468623833,1064
2474.825948263123,999
2476.6544488437207,1033
2478.482548892508,1054
2480.310248697896,1105
2482.137548548374,1050
2483.9644487325118,1062
2485.790949538956,1066
2487.617051256433,1064
2489.44275417375,966
2491.26805857979,1035
2493.0929647635157,1070
2494.917473013971,1054
2496.741583620276,1106
2498.5652968716304,1065
2500.3886130573137,1059
2502.2115324666834,1054
2504.0340553891765,1061
2505.856182114308,1044
2507.6779129316733,1073
2509.499248130945,1017
2511.3201880018764,1018
2513.140732834298,1062
2514.9608829181198,1032
2516.780638543331,981
2518.6,1029
2520.418967578273,1072
2522.237541568376,1074
2524.0557222606144,1056
2525.8735099453706,1027
2527.6909049131086,1050
2529.507907454368,1067
2531.32451785977,1070
2533.140736420014,1064
2534.9565634258774,1063
2536.771999168218,1106
2538.5870439379714,1089
2540.4016980261526,1078
2542.2159617238544,1088
2544.02983532225,1101
2545.8433191125914,1039
2547.656413386209,1059
2549.4691184345115,1085
2551.2814345489874,1057
2553.093362021204,1052
2554.904901142808,1125
2556.716052205523,1065
2558.526815501153,1080
2560.3371913215824,1054
2562.147179958771,1073
2563.956781704761,1095
2565.7659968516705,1039
2567.5748256916986,1090
2569.3832685171224,1082
2571.1913256202984,1081
2572.9989972936614,1067
2574.806283829725,1037
2576.613185521084,1098
2578.4197026604074,1064
2580.2258355404483,1046
2582.031584454035,1089
2583.836949694077,1084
2585.6419315535613,1131
2587.4465303255533,1105
2589.2507463032002,1129
2591.0545797797245,1104
2592.8580310484303,1060
2594.6611004026995,1148
2596.463788135992,1116
2598.266094541849,1087
2600.0680199138874,1089
2601.869564545807,1113
2603.670728731383,1129
2605.4715127644704,1097
2607.2719169390048,1138
2609.071941548998,1127
2610.8715868885433,1093
2612.670853251811,1125
2614.469740933052,1153
2616.268250226594,1116
2618.0663814268455,1129
2619.864134828292,1072
2621.6615107255006,1119
2623.458509413115,1083
2625.2551311858597,1130
2627.0513763385347,1067
2628.8472451660223,1089
2630.6427379632833,1085
2632.4378550253564,1102
2634.232596647359,1114
2636.026963124488,1120
2637.8209547520187,1094
2639.6145718253065,1110
2641.407814639785,1069
2643.200683490966,1091
2644.9931786744414,1110
2646.7853004858807,1059
2648.577049221034,1128
2650.3684251757277,1121
2652.1594286458712,1064
2653.9500599274484,1109
2655.740319316525,1128
2657.5302071092437,1059
2659.3197236018286,1107
2661.10886909058,1080
2662.8976438718782,1089
2664.686048242183,1079
2666.4740824980327,1081
2668.2617469360443,1119
2670.0490418529134,1095
2671.8359675454153,1098
2673.622524310403,1072
2675.408712444811,1124
2677.1945322456495,1074
2678.979984010009,1013
2680.76506803506,1075
2682.5497846180497,1100
2684.334134056306,1051
2686.1181166472343,1058
2687.9017326883213,1015
2689.6849824771293,1056
2691.4678663113013,1061
2693.2503844885596,1057
2695.032537306705,1090
2696.8143250636167,1062
2698.5957480572542,1040
2700.3768065856534,1033
2702.1575009469316,1076
2703.937831439283,1044
2705.717798360982,1095
2707.4974020103837,999
2709.276642685917,1033
2711.055520686095,1002
2712.834036309506,986
2714.612189854819,1005
2716.389981620782,1016
2718.1674119062204,1038
2719.944481010041,1013
2721.721189231226,1086
2723.4975368688415,1094
2725.273524222027,1032
2727.0491515900053,1057
2728.824419272075,1024
2730.5993275676146,1052
2732.3738767760838,996
2734.148067197016,1066
2735.921899130031,1051
2737.6953728748194,1050
2739.468488731156,1046
2741.2412469988926,989
2743.0136479779617,1056
2744.785691968372,1031
2746.5573792702116,1010
2748.3287101836504,1048
2750.099685008934,1037
2751.870304046388,1041
2753.640567596418,1050
2755.4104759595057,1059
2757.1800294362156,1076
2758.949228327187,1018
2760.7180729331412,982
2762.486563554877,1024
2764.254700493272,1058
2766.022484049284,1067
2767.789914523947,1055
2769.5569922183786,999
2771.3237174337705,1013
2773.090090471394,1017
2774.8561116326036,1060
2776.6217812188274,1025
2778.3870995315756,1069
2780.1520668724356,1018
2781.9166835430747,1062
2783.6809498452394,969
2785.444866080754,1065
2787.2084325515225,1051
2788.971649559527,1102
2790.73451740683,1047
2792.4970363955713,982
2794.2592068279705,996
2796.0210290063264,1016
2797.7825032330147,999
2799.543629810493,1019
2801.304409041296,1065
2803.0648412280366,1034
2804.8249266734088,1040
2806.5846656801846,1031
2808.344058551212,992
2810.1031055894246,1049
2811.8618070978273,1056
2813.6201633795085,1061
2815.378174737636,1038
2817.1358414754536,1083
2818.893163896285,1083
2820.6501423035334,1041
2822.4067770006814,1065
2824.1630682912883,1053
2825.9190164789957,1019
2827.6746218675207,1071
2829.429884760661,1064
2831.184805462294,1058
2832.9393842763743,1004
2834.693621506936,1028
2836.4475174580916,1050
2838.201072434034,1028
2839.954286739034,1078
2841.707160677441,1030
2843.459694553685,1049
2845.2118886722724,1061
2846.96374333779,1030
2848.7152588549034,1094
2850.4664355283567,1000
2852.217273662973,1090
2853.9677735636546,1057
2855.7179355353833,1031
2857.4677598832186,996
2859.217246912299,981
2860.9663969278427,1057
2862.715210235146,1036
2864.4636871395846,1030
2866.211827946614,1033
2867.9596329617652,1063
2869.7071024906536,1048
2871.4542368389684,1054
2873.20103631248,1046
2874.947501217038,1045
2876.6936318585695,1074
2878.4394285430812,1045
2880.1848915766604,1005
2881.9300212654707,1053
2883.6748179157553,1004
2885.4192818338374,1036
2887.1634133261173,1047
2888.907212699077,1050
2890.6506802592744,1013
2892.393816313348,1066
2894.1366211680142,1021
2895.8790951300693,1071
2897.621238506388,1023
2899.363051603925,1084
2901.1045347297118,1021
2902.8456881908596,1034
2904.58651229456,1063
2906.327007348081,1029
2908.067173658772,1011
2909.8070115340597,1031
2911.5465212814497,1012
2913.285703208527,1049
2915.0245576229563,1069
2916.7630848324807,988
2918.5012851449196,1029
2920.2391588681758,993
2921.976706310227,1047
2923.7139277791334,1007
2925.4508235830313,1052
2927.187394030137,1040
2928.923639428745,1000
2930.6595600872306,1033
2932.395156314046,1053
2934.1304284177218,1067
2935.8653767068713,1040
2937.6000014901815,1045
2939.3343030764227,1050
2941.068281774442,1024
2942.8019378931644,1081
2944.5352717415976,1047
2946.2682836288236,1054
2948.0009738640065,1033
2949.7333427563885,1020
2951.465390615289,1040
2953.1971177501086,1011
2954.9285244703265,1065
2956.6596110855,999
2958.3903779052657,1052
2960.1208252393385,1015
2961.8509533975125,1052
2963.5807626896617,993
2965.3102534257378,1011
2967.0394259157715,1029
2968.768280469873,1036
2970.496817398232,1014
2972.2250370111146,1039
2973.952939618869,1049
2975.6805255319196,1023
2977.4077950607707,1049
2979.134748516006,1050
2980.861386208289,1050
2982.587708448359,1002
2984.313715547037,986
2986.039407815222,1040
2987.764785563891,986
2989.489849104102,1046
2991.2145987469908,1013
2992.9390348037705,1004
2994.6631575857346,1022
2996.3869674042576,1026
2998.1104645707887,1045
2999.83364939686,1021
3001.5565221940783,997
3003.2790832741334,1028
3005.0013329487924,1033
3006.7232715298996,1016
3008.4448993293804,1036
3010.166216659239,1083
3011.887223831558,999
3013.607921158498,1020
3015.3283089522993,1024
3017.0483875252826,1069
3018.7681571898443,1021
3020.4876182584626,994
3022.2067710436927,983
3023.9256158581707,1014
3025.644153014609,1030
3027.362382825801,1005
3029.0803056046193,1006
3030.797921664012,1046
3032.5152313170106,1017
3034.2322348767225,1017
3035.9489326563353,1033
3037.665324969115,1005
3039.3814121284063,1027
3041.097194447633,1009
3042.812672240299,1015
3044.5278458199855,1010
3046.2427155003525,1023
3047.9572815951406,997
3049.671544418167,1049
3051.38550428333,1029
3053.0991615046073,998
3054.812516396051,1025
3056.5255692717974,986
3058.2383204460575,1044
3059.9507702331257,992
3061.662918947372,1013
3063.3747669032446,988
3065.0863144152736,998
3066.7975617980674,1029
3068.508509366309,983
3070.219157434767,994
3071.9295063182844,1019
3073.639556331785,1007
3075.3493077902704,964
3077.058761008821,1015
3078.7679163025964,1033
3080.476773986837,985
3082.1853343768594,983
3083.89359778806,971
3085.6015645359153,1037
3087.3092349359786,1043
3089.016609303884,992
3090.7236879553434,1039
3092.4304712061476,968
3094.136959372166,995
3095.843152769349,1026
3097.5490517137237,1049
3099.2546565213966,1050
3100.959967508554,983
3102.66498499146,1044
3104.3697092864577,1022
3106.0741407099695,1048
3107.778279578498,1040
3109.482126208622,1016
3111.1856809170004,1024
3112.8889440203716,1054
3114.5919158355528,1024
3116.294596679439,1008
3117.996986869006,1012
3119.6990867213062,987
3121.4008965534726,989
3123.102416682717,967
3124.803647426329,1012
3126.5045891016784,1033
3128.205242026213,1011
3129.90560651746,1002
3131.605682893025,1055
3133.3054714705922,1050
3135.0049725679282,1014
3136.7041865028714,1028
3138.4031135933465,1033
3140.101754157353,1029
3141.800108512971,1014
3143.498176978357,1026
3145.1959598717494,1015
3146.8934575114636,994
3148.5906702158954,1044
3150.2875983035183,1004
3151.9842420928853,948
3153.680601902627,1013
3155.376678051456,1013
3157.07247085816,1014
3158.767980641609,951
3160.463207720748,994
3162.158152414606,1046
3163.8528150422862,1049
3165.5471959229726,997
3167.2412953759303,1039
3168.9351137204976,1030
3170.628651276098,1021
3172.3219083622307,1017
3174.014885298474,1005
3175.707582404485,1026
3177.4000000000005,1034
3179.092138404835,1027
3180.7839979388846,1048
3182.47557892212,1010
3184.166881674594,1045
3185.8579065164386,996
3187.5486537678626,1031
3189.2391237491547,1020
3190.9293167806827,984
3192.6192331828934,1001
3194.3088732763117,1074
3195.998237381542,1013
3197.687325819268,1000
3199.376138910251,1101
3201.064676975334,991
3202.7529403354347,1045
3204.4409293115523,1009
3206.1286442247647,1005
3207.816085396229,999
3209.5032531471825,1006
3211.190147798936,985
3212.8767696728846,994
3214.5631190905015,1000
3216.2491963733373,964
3217.9350018430214,986
3219.6205358212637,1026
3221.305798629851,998
3222.990790590651,981
3224.6755120256103,968
3226.359963256751,955
3228.0441446061795,988
3229.7280563960758,1029
3231.411698948703,978
3233.0950725863995,983
3234.778177631587,973
3236.461014406761,1018
3238.1435832345005,1000
3239.8258844374595,1007
3241.507918338374,1037
3243.1896852600576,982
3244.8711855254023,1014
3246.552419457381,981
3248.233387379042,966
3249.914089613516,985
3251.59452648401,1020
3253.274698313813,1044
3254.95460542629,1015
3256.6342481448855,1037
3258.313626793125,1010
3259.9927416946084,987
3261.6715931730196,1001
3263.3501815521176,1004
3265.0285071557437,1019
3266.706570307815,992
3268.3843713323286,985
3270.0619105533615,976
3271.739188295068,1009
3273.4162048816834,1005
3275.0929606375184,1006
3276.769455886966,1018
3278.445690954498,1014
3280.1216661646613,1078
3281.797381842087,1030
3283.4728383114807,1031
3285.1480358976296,999
3286.8229749253996,1028
3288.4976557197333,1019
3290.172078605655,1030
3291.846243908266,990
3293.5201519527463,1027
3295.193803064357,994
3296.8671975684374,976
3298.5403357904024,959
3300.21321805575,997
3301.8858446900567,995
3303.558216018975,957
3305.23033236824,1007
3306.9021940636603,995
3308.57380143113,972
3310.2451547966184,973
3311.916254486174,999
3313.5871008259246,1025
3315.2576941420766,1042
3316.9280347609147,1003
3318.5981230088046,965
3320.2679592121895,956
3321.9375436975924,983
3323.606876791612,1022
3325.27595882093,973
3326.944790112305,962
3328.6133709925753,1002
3330.2817017886573,980
3331.949782827547,1005
3333.617614436319,1024
3335.2851969421245,960
3336.952530672199,1033
3338.619615953853,995
3340.286453114475,1015
3341.9530424815357,956
3343.619384382583,1059
3345.2854791452437,1067
3346.951327097224,994
3348.6169285663073,1020
3350.2822838803577,961
3351.947393367319,1007
3353.61225735521,1031
3355.2768761721345,936
3356.9412501462693,1020
3358.605379605873,1026
3360.2692648792827,984
3361.9329062949146,985
3363.596304181263,1018
