CollectionTime,7/3/2024 2:56:56 PM
ExposureUsed,3
CalibratedSpectrum
-962.7078968117929,432
-959.9714848408522,494
-957.2358232597828,482
-954.5009119013725,464
-951.7667505983302,468
-949.0333391832855,468
-946.3006774887896,470
-943.5687653473143,458
-940.837602591253,458
-938.1071890529199,477
-935.3775245645503,478
-932.6486089583007,486
-929.9204420662485,540
-927.1930237203925,487
-924.4663537526524,473
-921.7404319948689,495
-919.0152582788041,517
-916.2908324361409,540
-913.5671542984834,511
-910.8442236973568,465
-908.1220404642074,468
-905.4006044304027,493
-902.679915427231,512
-899.959973285902,451
-897.2407778375464,455
-894.5223289132158,475
-891.8046263438832,488
-889.0876699604426,451
-886.3714595937089,447
-883.6559950744183,484
-880.9412762332282,464
-878.2273029007168,433
-875.5140749073835,458
-872.8015920836489,501
-870.0898542598545,465
-867.3788612662631,448
-864.6686129330585,463
-861.9591090903457,469
-859.2503495681506,472
-856.5423341964203,473
-853.8350628050229,490
-851.1285352237478,463
-848.4227512823054,456
-845.7177108103272,480
-843.0134136373656,514
-840.3098595928943,476
-837.6070485063082,479
-834.9049802069229,502
-832.2036545239757,443
-829.5030712866244,450
-826.8032303239481,471
-824.1041314649472,462
-821.4057745385428,502
-818.7081593735775,500
-816.0112857988148,502
-813.3151536429393,501
-810.6197627345566,499
-807.9251129021936,489
-805.2312039742981,475
-802.5380357792392,482
-799.8456081453069,474
-797.1539209007124,488
-794.462973873588,516
-791.772766891987,485
-789.083299783884,467
-786.3945723771743,483
-783.7065844996748,467
-781.0193359791231,463
-778.3328266431781,502
-775.6470563194197,451
-772.9620248353489,455
-770.2777320183878,494
-767.5941776958798,489
-764.9113616950891,518
-762.2292838432011,513
-759.5479439673222,482
-756.8673418944801,509
-754.1874774516235,482
-751.5083504656222,499
-748.8299607632671,500
-746.15230817127,499
-743.475392516264,504
-740.7992136248035,512
-738.1237713233636,474
-735.4490654383407,514
-732.7750957960521,546
-730.1018622227365,520
-727.4293645445534,496
-724.7576025875837,502
-722.0865761778291,529
-719.4162851412126,537
-716.7467293035781,500
-714.0779084906909,510
-711.409822528237,523
-708.7424712418238,503
-706.0758544569796,534
-703.4099719991541,540
-700.7448236937178,561
-698.0804093659622,525
-695.4167288411002,536
-692.7537819442656,523
-690.0915685005134,536
-687.4300883348199,528
-684.7693412720819,519
-682.1093271371178,544
-679.4500457546669,541
-676.7914969493897,511
-674.1336805458676,499
-671.4765963686034,521
-668.8202442420206,546
-666.1646239904642,551
-663.5097354382001,519
-660.8555784094151,517
-658.2021527282176,544
-655.5494582186366,529
-652.8974947046223,538
-650.2462620100463,518
-647.5957599587009,514
-644.9459883742998,603
-642.2969470804776,539
-639.6486359007902,597
-637.0010546587141,627
-634.3542031776476,551
-631.7080812809096,569
-629.0626887917401,546
-626.4180255333008,533
-623.7740913286734,573
-621.1308860008619,581
-618.4884093727904,545
-615.8466612673046,543
-613.2056415071715,547
-610.5653499150785,596
-607.9257863136347,596
-605.28695052537,599
-602.6488423727357,562
-600.0114616781036,567
-597.3748082637674,558
-594.7388819519412,606
-592.1036825647604,664
-589.4692099242818,660
-586.8354638524829,577
-584.2024441712624,608
-581.5701507024403,582
-578.9385832677575,607
-576.3077416888759,561
-573.6776257873787,584
-571.0482353847704,552
-568.4195703024757,554
-565.7916303618415,579
-563.164415384135,592
-560.5379251905453,602
-557.9121596021815,593
-555.2871184400748,576
-552.6628015251767,603
-550.0392086783606,587
-547.4163397204204,604
-544.794194472071,605
-542.1727727539491,651
-539.5520743866118,661
-536.9320991905377,682
-534.3128469861261,680
-531.6943175936979,703
-529.0765108334947,693
-526.4594265256793,726
-523.8430644903358,864
-521.2274245474689,1012
-518.612506517005,1073
-515.9983102187913,1044
-513.3848354725959,1141
-510.77208209810846,1307
-508.16004991493924,1370
-505.5487387426199,1517
-502.9381484006032,1507
-500.3282787082628,1325
-497.71912948489364,1159
-495.1107005497117,1046
-492.5029917218539,900
-489.8960028203786,819
-487.28973366426493,758
-484.68418407241325,791
-482.07935386364494,719
-479.47524285670266,701
-476.87185087025,709
-474.2691777228715,674
-471.66722323307334,684
-469.0659872192821,757
-466.4654694998459,747
-463.86566989303384,779
-461.26658821703614,724
-458.66822428996414,701
-456.07057792985,774
-453.4736489546475,727
-450.877437182231,682
-448.28194243039627,689
-445.68716451686,655
-443.09310325926003,741
-440.49975847515555,741
-437.9071299820263,683
-435.31521759727354,717
-432.72402113821954,782
-430.13354042210767,714
-427.5437752661022,706
-424.95472548728867,728
-422.36639090267386,739
-419.7787713291855,769
-417.1918665836721,843
-414.60567648290385,795
-412.0202008435715,785
-409.4354394822874,802
-406.8513922155845,772
-404.26805885991723,812
-401.685439231661,842
-399.103533147112,817
-396.522340422488,790
-393.9418608739278,711
-391.3620943174908,768
-388.7830405691583,780
-386.2046994448317,701
-383.6270707603344,696
-381.05015433141045,699
-378.473949973725,682
-375.8984575028645,677
-373.32367673433623,666
-370.74960748356875,617
-368.1762495659117,658
-365.60360279663576,551
-363.03166699093265,533
-360.4604419639154,525
-357.8899275306178,519
-355.32012350599507,527
-352.7510297049233,493
-350.1826459421999,473
-347.61497203254316,497
-345.04800779059235,494
-342.4817530309082,497
-339.91620756797226,505
-337.35137121618743,549
-334.7872437898774,608
-332.22382510328725,585
-329.66111497058273,522
-327.09911320585127,483
-324.53781962310075,516
-321.9772340362607,526
-319.4173562591816,524
-316.8581861056348,501
-314.2997233893127,468
-311.7419679238294,485
-309.1849195227194,503
-306.62857799943856,529
-304.0729431673641,567
-301.51801483979375,560
-298.963792829947,532
-296.41027695096386,582
-293.85746701590574,562
-291.3053628377552,573
-288.7539642294155,590
-286.2032710037115,562
-283.65328297338897,568
-281.1039999511146,638
-278.5554217494762,648
-276.007548180983,646
-273.4603790580651,549
-270.9139141930734,534
-268.3681533982807,531
-265.8230964858798,589
-263.27874326798565,634
-260.7350935566336,589
-258.1921471637804,608
-255.6499039013039,621
-253.10836358100266,669
-250.56752601459698,622
-248.02739101372765,676
-245.48795838995704,740
-242.94922795476816,718
-240.41119951956557,675
-237.8738728956746,665
-235.33724789434166,722
-232.80132432673452,718
-230.2661020039418,621
-227.73158073697357,678
-225.19776033676033,696
-222.66464061415422,740
-220.1322213799284,673
-217.60050244477725,645
-215.06948361931552,653
-212.53916471408013,710
-210.00954553952818,836
-207.48062590603843,783
-204.9524056239104,755
-202.4248845033651,854
-199.8980623545441,880
-197.37193898751036,886
-194.84651421224817,869
-192.32178783866232,859
-189.79775967657952,869
-187.27442953574644,933
-184.7517972258321,1045
-182.2298625564256,927
-179.7086253370378,916
-177.18808537710026,847
-174.66824248596583,892
-172.14909647290835,1009
-169.6306471471229,1002
-167.11289431772548,952
-164.59583779375328,955
-162.07947738416453,928
-159.5638128978386,1034
-157.04884414357605,1216
-154.53457093009854,1441
-152.02099306604828,1203
-149.50811035998936,874
-146.99592262040665,884
-144.48442965570587,1036
-141.97363127421409,1235
-139.46352728417958,1400
-136.95411749377126,1512
-134.44540171107985,1231
-131.93737974411636,1008
-129.43005140081357,1304
-126.92341648902493,1820
-124.41747481652521,2189
-121.91222619101006,2777
-119.40767042009657,3682
-116.90380731132257,4031
-114.40063667214702,3763
-111.8981583099503,2474
-109.3963720320337,1474
-106.89527764561933,1301
-104.39487495785067,2244
-101.89516377579241,3947
-99.39614390642998,5952
-96.89781515667039,5915
-94.40017733334128,5765
-91.90323024319173,6765
-89.40697369289148,11195
-86.91140748903172,14986
-84.41653143812482,10724
-81.92234534660395,5500
-79.42884902082358,6293
-76.93604226705907,17691
-74.4439248915071,34652
-71.95249670028534,45380
-69.46175749943245,42393
-66.97170709490854,31732
-64.48234529259423,21859
-61.99367189829195,17110
-59.50568671772464,14121
-57.01838955653636,10243
-54.53178022029283,8266
-52.045858514480074,8748
-49.560624244506016,9633
-47.07607721569923,11349
-44.59221723330904,11075
-42.10904410250669,10549
-39.62655762838392,10178
-37.14475761595372,10887
-34.66364387015028,10962
-32.18321619582866,10353
-29.70347439776515,10370
-27.224418280657005,12317
-24.74604764912317,14276
-22.26836230770266,21863
-19.7913620608565,44182
-17.315046712966478,65039
-14.83941606833514,65039
-12.36446993118659,65039
-9.89020810566592,65039
-7.416630395839093,65039
-4.94373660569363,65039
-2.471526539137585,65039
-6.821210263296962E-13,65039
2.47084320796705,65039
4.941003281093458,65039
7.410480415786196,65039
9.879274808531363,65039
12.347386655893956,65039
14.814816154518212,65039
17.28156350112681,65039
19.74762889252179,65039
22.21301252558385,65039
24.67771459727237,20435
27.141735304626195,4047
29.605074844762612,2948
32.06773341487792,2744
34.52971121224755,2652
36.99100843422559,2515
39.45162527824516,2119
41.91156194181792,1900
44.370818622535126,1871
46.82939551806646,1520
49.287292826160524,1801
51.74451074464503,2464
54.201049471426245,2564
56.65690920448981,1988
59.112090141899785,1468
61.56659248179983,1324
64.02041642241159,1233
66.4735621620365,1335
68.92602989905402,1312
71.37781983192338,1585
73.82893215918205,1711
76.27936707944684,1812
78.72912479141326,1522
81.17820549385567,1683
83.62660938562783,1876
86.07433666566146,1485
88.5213875329681,1043
90.96776218663751,1023
93.41346082583925,1158
95.85848364982041,1385
98.30283085790859,1462
100.7465026495089,1355
103.18949922410604,1191
105.63182078126385,1083
108.07346752062438,1091
110.51443964190923,893
112.95473734491827,811
115.39436082953114,953
117.83331029570547,958
120.27158594347827,1095
122.7091879729652,1343
125.1461165843615,1177
127.58237197794062,914
130.01795435405518,788
132.4528639131364,950
134.88710085569494,996
137.32066538231982,959
139.75355769367923,983
142.1857779905207,1029
144.61732647366978,926
147.04820334403132,810
149.47840880258934,781
151.90794305040674,924
154.33680628862487,982
156.76499871846443,1197
159.19252054122433,1161
161.61937195828352,1237
164.04555317109896,1280
166.47106438120693,1409
168.89590579022217,1473
171.320077599839,1500
173.7435800118302,1620
176.16641322804742,1705
178.58857745042144,1826
181.01007288096173,1923
183.43089972175687,1850
185.85105817497413,1931
188.27054844285988,1908
190.6893707277394,1804
193.10752523201643,1809
195.5250121581745,1812
197.9418317087751,1864
200.3579840864594,1897
202.7734694939469,1993
205.18828813403627,1962
207.6024402096051,2106
210.01592592360964,2188
212.42874547908548,2215
214.84089907914665,2096
217.2523869269868,2051
219.66320922587727,1994
222.0733661791695,2031
224.48285799029293,2024
226.8916848627572,1948
229.29984700014882,1992
231.7073446061355,2035
234.11417788446204,2043
236.520347038953,1988
238.92585227351185,2074
241.33069379212054,2016
243.73487179884035,2070
246.1383864978112,2123
248.541238093252,2058
250.9434267894609,2044
253.34495279081432,2027
255.74581630176783,2047
258.1460175268563,1923
260.54555667069314,1936
262.9444339379703,1937
265.3426495334594,1982
267.7402036620107,2159
270.1370965285529,2181
272.53332833809407,2091
274.9288992957214,2042
277.32380960660055,2043
279.718059475976,2035
282.1116491091717,2102
284.5045787115897,1998
286.89684848871195,1996
289.2884586460981,2009
291.67940938938807,2094
294.0697009242996,2061
296.4593334566299,2180
298.84830719225477,2021
301.23662233712923,2025
303.6242790972866,2065
306.01127767884,2035
308.39761828798066,2057
310.78330113097934,2032
313.16832641418534,2004
315.5526943440269,1869
317.9364051270112,1847
320.3194589697242,1876
322.70185607883093,1976
325.0835966610754,1970
327.4646809232805,1829
329.8451090723478,1885
332.2248813152577,1839
334.6039978590701,1887
336.9824589109231,1867
339.36026467803447,1779
341.7374153677,1772
344.113911187295,1829
346.48975234427337,1775
348.8649390461686,1781
351.2394715005918,1784
353.61334991523415,1778
355.9865744978655,1828
358.35914545633375,1766
360.73106299856715,1901
363.10232733257146,1830
365.47293866643247,1686
367.84289720831396,1715
370.2122031664593,1675
372.5808567491905,1857
374.9488581649083,1743
377.31620762209275,1702
379.6829053293021,1647
382.0489514951745,1639
384.4143463284262,1696
386.7790900378528,1743
389.14318283232853,1712
391.50662492080653,1685
393.86941651231916,1641
396.23155781597745,1678
398.5930490409713,1697
400.9538903965696,1693
403.3140820921202,1724
405.6736243370498,1654
408.03251734086336,1634
410.3907613131465,1631
412.74835646356166,1590
415.10530300185144,1636
417.4616011378372,1614
419.81725108141893,1614
422.1722530425758,1586
424.5266072313656,1582
426.880313857925,1646
429.2333731324701,1603
431.58578526529516,1580
433.9375504667738,1583
436.2886689473588,1532
438.63914091758113,1590
440.9889665880513,1619
443.33814616945835,1623
445.68667987257015,1565
448.03456790823395,1549
450.3818104873759,1598
452.72840782100013,1523
455.07436012019105,1590
457.41966759611057,1583
459.7643304600007,1538
462.10834892318155,1589
464.4517231970525,1504
466.79445349309174,1585
469.1365400228566,1563
471.4779829979826,1521
473.81878263018564,1557
476.15893913125876,1602
478.4984527130747,1578
480.8373235875855,1652
483.17555196682144,1641
485.5131380628919,1624
487.8500820879857,1742
490.1863842543697,1832
492.52204477439034,1854
494.8570638604725,1954
497.1914417251204,2175
499.52517858091653,2515
501.85827464052306,2890
504.19073011668036,3329
506.5225452222086,3700
508.85372017000566,3751
511.18425517304956,3868
513.514150444396,3879
515.8434061971808,4504
518.1720226446176,5184
520.4999999999999,5367
522.8273384766991,4891
525.1540382881666,4309
527.480099647932,3675
529.8055227696037,2990
532.1303078668694,2435
534.454455153496,1985
536.777964843328,1907
539.1008371502907,1800
541.4230722883866,1693
543.744670471698,1719
546.0656319143858,1721
548.3859568306899,1729
550.7056454349294,1671
553.0246979415016,1590
555.3431145648834,1645
557.6608955196306,1670
559.978041020377,1653
562.2945512818363,1532
564.6104265188006,1585
566.9256669461412,1623
569.2402727788082,1624
571.5542442318302,1636
573.8675815203156,1569
576.1802848594508,1585
578.4923544645015,1590
580.8037905508126,1621
583.114593333807,1693
585.4247630289875,1593
587.7342998519354,1592
590.0432040183106,1593
592.3514757438526,1668
594.6591152443794,1623
596.9661227357875,1613
599.2724984340531,1601
601.578242555231,1687
603.8833553154542,1661
606.1878369309362,1691
608.4916876179676,1660
610.7949075929192,1629
613.0974970722403,1604
615.3994562724587,1616
617.7007854101818,1611
620.0014847020951,1657
622.3015543649641,1636
624.6009946156324,1658
626.8998056710224,1615
629.1979877481361,1596
631.4955410640538,1643
633.7924658359349,1633
636.0887622810175,1699
638.3844306166192,1663
640.6794710601358,1677
642.9738838290426,1637
645.2676691408932,1607
647.5608272133207,1654
649.853358264037,1616
652.1452625108324,1671
654.4365401715764,1738
656.7271914642178,1772
659.0172166067838,1689
661.3066158173809,1665
663.5953893141935,1637
665.8835373154867,1695
668.1710600396028,1715
670.4579577049639,1667
672.7442305300709,1692
675.0298787335033,1701
677.3149025339197,1632
679.599302150058,1701
681.8830778007342,1638
684.1662297048437,1694
686.4487580813608,1722
688.7306631493387,1687
691.0119451279091,1642
693.2926042362834,1672
695.5726406937516,1639
697.8520547196814,1718
700.1308465335215,1643
702.4090163547982,1648
704.6865644031171,1562
706.9634908981619,1707
709.2397960596965,1578
711.5154801075631,1676
713.7905432616823,1690
716.0649857420548,1675
718.3388077687592,1613
720.612009561953,1637
722.8845913418733,1616
725.1565533288352,1749
727.427895743234,1668
729.6986188055427,1708
731.9687227363137,1635
734.238207756178,1687
736.5070740858458,1671
738.7753219461066,1620
741.0429515578281,1664
743.3099631419569,1614
745.5763569195191,1671
747.8421331116193,1645
750.1072919394409,1663
752.3718336242467,1616
754.6357583873777,1678
756.8990664502545,1688
759.1617580343765,1617
761.423833361321,1663
763.6852926527457,1731
765.9461361303862,1675
768.206364016058,1721
770.4659765316536,1706
772.7249738991469,1733
774.9833563405886,1702
777.2411240781092,1701
779.4982773339183,1680
781.7548163303044,1686
784.010741289634,1703
786.2660524343538,1790
788.5207499869881,1753
790.7748341701416,1690
793.0283052064964,1718
795.2811633188143,1719
797.5334087299362,1805
799.7850416627813,1721
802.0360623403484,1705
804.2864709857143,1714
806.5362678220353,1756
808.7854530725468,1760
811.0340269605625,1783
813.2819897094754,1720
815.5293415427581,1629
817.77608268396,1672
820.0222133567116,1787
822.2677337847211,1744
824.5126441917765,1667
826.7569448017433,1702
829.0006358385675,1703
831.2437175262731,1756
833.4861900889629,1695
835.7280537508192,1722
837.9693087361026,1705
840.2099552691533,1718
842.4499935743896,1645
844.689423876309,1680
846.9282463994886,1689
849.1664613685833,1778
851.4040690083276,1783
853.6410695435349,1674
855.877463199097,1640
858.1132501999847,1700
860.3484307712487,1727
862.5830051380175,1669
864.8169735254988,1727
867.0503361589791,1705
869.2830932638243,1727
871.5152450654786,1691
873.7467917894654,1701
875.9777336613873,1743
878.2080709069252,1722
880.4378037518389,1728
882.666932421968,1739
884.8954571432301,1724
887.1233781416219,1784
889.3506956432192,1764
891.5774098741766,1704
893.803521060728,1664
896.0290294291852,1665
898.2539352059397,1675
900.4782386174619,1651
902.7019398903011,1741
904.925039251085,1692
907.147536926521,1719
909.3694331433943,1744
911.59072812857,1687
913.8114221089921,1751
916.0315153116827,1692
918.2510079637437,1699
920.4699002923547,1724
922.6881925247761,1735
924.905884888345,1723
927.1229776104793,1637
929.3394709186747,1677
931.555365040506,1644
933.7706602036275,1755
935.9853566357709,1665
938.1994545647489,1696
940.4129542184515,1798
942.6258558248488,1752
944.8381596119883,1779
947.0498658079974,1720
949.2609746410825,1738
951.4714863395287,1657
953.6814011316998,1630
955.8907192460387,1685
958.0994409110671,1703
960.3075663553858,1676
962.5150958076741,1704
964.7220294966913,1764
966.928367651274,1720
969.1341105003388,1667
971.3392582728806,1639
973.5438111979742,1664
975.747769504772,1617
977.9511334225061,1573
980.153903180487,1590
982.3560790081052,1579
984.5576611348289,1628
986.7586497902058,1545
988.9590452038618,1638
991.158847605503,1558
993.3580572249133,1514
995.5566742919558,1517
997.7546990365728,1495
999.952131688785,1571
1002.1489724786926,1483
1004.3452216364743,1443
1006.5408793923874,1447
1008.7359459767691,1479
1010.9304216200343,1398
1013.1243065526781,1454
1015.3176010052733,1412
1017.510305208472,1424
1019.7024193930064,1393
1021.8939437896848,1428
1024.0848786293977,1410
1026.2752241431122,1384
1028.4649805618747,1435
1030.6541481168115,1382
1032.842727039127,1374
1035.0307175601051,1366
1037.2181199111074,1350
1039.4049343235752,1348
1041.591161029029,1316
1043.7768002590683,1322
1045.9618522453698,1335
1048.1463172196918,1317
1050.3301954138697,1340
1052.513487059818,1296
1054.69619238953,1265
1056.8783116350783,1295
1059.0598450286152,1330
1061.2407928023704,1349
1063.4211551886528,1278
1065.6009324198508,1326
1067.780124728432,1300
1069.9587323469414,1296
1072.1367555080046,1299
1074.314194444325,1294
1076.4910493886855,1323
1078.667320573947,1283
1080.843008233051,1292
1083.0181125990161,1241
1085.1926339049414,1243
1087.3665723840027,1247
1089.5399282694575,1286
1091.7127017946405,1233
1093.8848931929647,1239
1096.0565026979243,1275
1098.2275305430899,1246
1100.3979769621128,1287
1102.567842188722,1210
1104.737126456726,1263
1106.9058300000124,1232
1109.0739530525475,1223
1111.2414958483764,1193
1113.4084586216231,1250
1115.5748416064907,1242
1117.7406450372605,1245
1119.9058691482942,1273
1122.0705141740304,1239
1124.2345803489884,1234
1126.3980679077658,1256
1128.5609770850388,1290
1130.7233081155623,1203
1132.8850612341707,1248
1135.0462366757774,1225
1137.2068346753745,1234
1139.3668554680326,1216
1141.526299288901,1248
1143.68516637321,1208
1145.8434569562655,1232
1148.001171273455,1233
1150.158309560244,1199
1152.3148720521767,1217
1154.470858984876,1250
1156.626270594044,1210
1158.7811071154629,1211
1160.9353687849912,1247
1163.089055838569,1199
1165.242168512213,1216
1167.3947070420209,1252
1169.5466716641677,1220
1171.6980626149075,1167
1173.8488801305748,1156
1175.9991244475814,1135
1178.1487958024186,1189
1180.2978944316555,1234
1182.4464205719428,1180
1184.5943744600072,1166
1186.7417563326567,1215
1188.8885664267755,1211
1191.0348049793297,1178
1193.1804722273619,1187
1195.325568407995,1226
1197.4700937584303,1216
1199.614048515948,1182
1201.7574329179074,1194
1203.900247201746,1168
1206.042491604982,1233
1208.1841663652099,1198
1210.3252717201053,1174
1212.465807907422,1222
1214.6057751649923,1215
1216.7451737307279,1186
1218.8840038426192,1190
1221.0222657387353,1202
1223.1599596572241,1216
1225.2970858363137,1205
1227.4336445143094,1214
1229.5696359295966,1194
1231.705060320639,1201
1233.8399179259786,1208
1235.9742089842384,1202
1238.107933734118,1202
1240.2410924143974,1184
1242.373685263935,1230
1244.5057125216676,1195
1246.6371744266116,1202
1248.7680712178621,1231
1250.898403134593,1231
1253.028170416058,1173
1255.1573733015875,1206
1257.2860120305932,1256
1259.4140868425648,1211
1261.54159797707,1248
1263.6685456737569,1251
1265.7949301723515,1272
1267.9207517126597,1236
1270.046010534565,1241
1272.1707068780306,1217
1274.2948409830983,1196
1276.4184130898889,1218
1278.541423438603,1204
1280.6638722695184,1255
1282.785759822993,1237
1284.9070863394636,1273
1287.0278520594447,1206
1289.1480572235314,1239
1291.2677020723963,1234
1293.3867868467923,1286
1295.5053117875495,1268
1297.623277135579,1238
1299.740683131868,1253
1301.8575300174857,1254
1303.973818033578,1295
1306.0895474213703,1305
1308.2047184221678,1225
1310.3193312773528,1228
1312.4333862283888,1248
1314.5468835168163,1262
1316.659823384255,1282
1318.7722060724045,1230
1320.8840318230418,1256
1322.9953008780249,1292
1325.1060134792888,1229
1327.2161698688478,1296
1329.3257702887959,1283
1331.4348149813054,1278
1333.5433041886276,1292
1335.6512381530933,1342
1337.7586171171101,1255
1339.8654413231675,1295
1341.9717110138317,1352
1344.0774264317488,1306
1346.1825878196432,1283
1348.2871954203192,1282
1350.3912494766587,1262
1352.4947502316231,1263
1354.5976979282532,1280
1356.7000928096686,1299
1358.8019351190665,1291
1360.9032250997243,1289
1363.0039629949988,1257
1365.1041490483235,1211
1367.2037835032133,1308
1369.3028666032606,1257
1371.401398592137,1264
1373.4993797135926,1272
1375.5968102114575,1268
1377.6936903296396,1263
1379.7900203121262,1278
1381.8858004029835,1240
1383.9810308463561,1213
1386.075711886469,1200
1388.1698437676241,1286
1390.2634267342032,1263
1392.356461030667,1316
1394.4489469015557,1251
1396.5408845914872,1254
1398.6322743451592,1274
1400.7231164073469,1299
1402.813411022907,1232
1404.903158436773,1233
1406.9923588939578,1224
1409.0810126395531,1235
1411.1691199187303,1235
1413.2566809767386,1277
1415.343696058907,1271
1417.4301654106425,1251
1419.5160892774315,1278
1421.6014679048399,1301
1423.6863015385125,1251
1425.7705904241707,1200
1427.8543348076178,1185
1429.9375349347342,1231
1432.0201910514802,1264
1434.102303403894,1318
1436.1838722380944,1273
1438.2648978002767,1268
1440.3453803367174,1298
1442.4253200937692,1250
1444.5047173178677,1223
1446.5835722555234,1292
1448.6618851533285,1329
1450.739656257952,1244
1452.8168858161434,1271
1454.8935740747306,1247
1456.96972128062,1287
1459.045327680797,1321
1461.120393522327,1267
1463.1949190523528,1272
1465.2689045180973,1325
1467.3423501668608,1356
1469.415256246024,1379
1471.4876230030463,1292
1473.559450685465,1292
1475.6307395408976,1262
1477.7014898170391,1305
1479.771701761665,1303
1481.8413756226287,1296
1483.9105116478618,1332
1485.9791100853772,1331
1488.0471711832643,1254
1490.1146951896926,1295
1492.1816823529098,1272
1494.2481329212433,1317
1496.3140471430984,1291
1498.3794252669609,1286
1500.4442675413939,1298
1502.5085742150404,1285
1504.572345536622,1319
1506.6355817549388,1309
1508.6982831188702,1376
1510.7604498773744,1321
1512.8220822794883,1330
1514.8831805743293,1283
1516.9437450110909,1367
1519.003775839048,1304
1521.0632733075522,1323
1523.1222376660367,1266
1525.1806691640113,1275
1527.2385680510652,1261
1529.2959345768668,1347
1531.3527689911643,1333
1533.4090715437833,1340
1535.4648424846291,1347
1537.5200820636855,1369
1539.5747905310159,1355
1541.6289681367616,1376
1543.6826151311434,1432
1545.7357317644614,1390
1547.7883182870937,1403
1549.8403749494987,1352
1551.8919020022113,1360
1553.9428996958477,1397
1555.9933682811015,1400
1558.0433080087469,1436
1560.0927191296346,1432
1562.1416018946961,1401
1564.1899565549415,1360
1566.2377833614592,1399
1568.2850825654164,1390
1570.3318544180606,1431
1572.3780991707158,1390
1574.423817074788,1425
1576.4690083817595,1425
1578.5136733431923,1328
1580.5578122107272,1410
1582.601425236085,1367
1584.6445126710646,1404
1586.6870747675434,1377
1588.7291117774776,1405
1590.7706239529034,1355
1592.8116115459347,1368
1594.8520748087658,1380
1596.8920139936686,1347
1598.9314293529933,1346
1600.9703211391711,1289
1603.008689604711,1344
1605.0465350022005,1251
1607.0838575843068,1283
1609.1206576037753,1277
1611.1569353134305,1245
1613.1926909661765,1333
1615.2279248149953,1301
1617.2626371129481,1289
1619.2968281131757,1234
1621.3304980688963,1305
1623.3636472334088,1264
1625.39627586009,1294
1627.428384202396,1269
1629.459972513861,1297
1631.4910410480993,1292
1633.5215900588028,1295
1635.551619799744,1279
1637.5811305247717,1248
1639.6101224878166,1269
1641.6385959428862,1262
1643.6665511440683,1271
1645.693988345528,1273
1647.7209078015112,1201
1649.7473097663405,1248
1651.7731944944203,1233
1653.7985622402307,1212
1655.823413258333,1255
1657.847747803366,1262
1659.8715661300494,1213
1661.8948684931793,1236
1663.9176551476316,1281
1665.9399263483624,1208
1667.9616823504057,1285
1669.982923408873,1249
1672.0036497789574,1250
1674.0238617159293,1259
1676.043559475138,1214
1678.0627433120121,1259
1680.081413482059,1252
1682.0995702408654,1208
1684.117213844096,1245
1686.134344547495,1271
1688.1509626068864,1230
1690.1670682781705,1219
1692.182661817329,1216
1694.1977434804217,1193
1696.2123135235875,1210
1698.226372203043,1237
1700.2399197750851,1244
1702.2529564960905,1263
1704.2654826225112,1227
1706.277498410882,1299
1708.2890041178139,1284
1710.2999999999988,1228
1712.3104863142066,1260
1714.3204633172854,1232
1716.329931266163,1243
1718.3388904178469,1243
1720.3473410294214,1255
1722.3552833580516,1279
1724.3627176609807,1231
1726.3696441955308,1187
1728.3760632191033,1230
1730.3819749891782,1228
1732.3873797633146,1257
1734.3922777991502,1233
1736.3966693544012,1211
1738.4005546868639,1291
1740.4039340544127,1265
1742.406807715001,1249
1744.4091759266616,1232
1746.4110389475054,1253
1748.4123970357223,1246
1750.413250449582,1231
1752.4135994474318,1208
1754.4134442876993,1239
1756.4127852288902,1251
1758.4116225295893,1208
1760.4099564484595,1197
1762.407787244244,1230
1764.405115175764,1238
1766.4019405019203,1225
1768.3982634816916,1264
1770.3940843741357,1260
1772.3894034383907,1277
1774.3842209336717,1253
1776.378537119274,1235
1778.372352254571,1227
1780.3656665990156,1225
1782.3584804121397,1230
1784.3507939535534,1185
1786.3426074829463,1237
1788.3339212600863,1222
1790.3247355448211,1260
1792.3150505970766,1256
1794.3048666768573,1253
1796.2941840442477,1242
1798.2830029594106,1275
1800.2713236825884,1357
1802.2591464741004,1258
1804.2464715943465,1265
1806.2332993038058,1282
1808.2196298630352,1242
1810.2054635326708,1241
1812.190800573428,1242
1814.175641246101,1261
1816.1599858115628,1265
1818.1438345307652,1218
1820.127187664738,1241
1822.1100454745924,1285
1824.092408221516,1266
1826.0742761667766,1264
1828.055649571721,1243
1830.0365286977735,1240
1832.0169138064398,1277
1833.9968051593014,1278
1835.9762030180214,1240
1837.9551076443408,1283
1839.9335193000788,1255
1841.9114382471344,1243
1843.888864747485,1266
1845.8657990631878,1164
1847.842241456378,1201
1849.8181921892697,1202
1851.7936515241558,1223
1853.7686197234098,1168
1855.7430970494815,1210
1857.7170837649014,1246
1859.6905801322787,1156
1861.6635864143004,1223
1863.6361028737338,1195
1865.608129773424,1266
1867.5796673762961,1307
1869.5507159453537,1262
1871.521275743678,1215
1873.4913470344313,1256
1875.4609300808534,1259
1877.4300251462632,1265
1879.3986324940588,1250
1881.366752387717,1230
1883.3343850907936,1228
1885.3015308669228,1192
1887.268189979819,1239
1889.2343626932739,1247
1891.2000492711595,1251
1893.1652499774254,1228
1895.1299650761011,1261
1897.0941948312952,1238
1899.0579395071945,1257
1901.0211993680641,1269
1902.98397467825,1216
1904.9462657021745,1262
1906.9080727043415,1260
1908.869395949332,1259
1910.8302357018065,1255
1912.790592226504,1193
1914.7504657882428,1237
1916.7098566519212,1226
1918.6687650825133,1283
1920.6271913450764,1242
1922.5851357047422,1223
1924.5425984267245,1237
1926.499579776314,1186
1928.4560800188833,1204
1930.4120994198802,1280
1932.367638244833,1250
1934.32269675935,1255
1936.2772752291175,1230
1938.231373919899,1241
1940.1849930975404,1299
1942.1381330279637,1238
1944.0907939771696,1205
1946.0429762112412,1248
1947.9946799963363,1195
1949.9459055986945,1290
1951.896653284633,1206
1953.8469233205478,1234
1955.7967159729142,1256
1957.7460315082863,1250
1959.6948701932974,1205
1961.6432322946594,1220
1963.5911180791632,1223
1965.5385278136787,1254
1967.4854617651545,1253
1969.4319202006182,1244
1971.377903387176,1223
1973.3234115920136,1238
1975.268445082395,1254
1977.2130041256642,1237
1979.1570889892423,1219
1981.1006999406304,1241
1983.04383724741,1237
1984.986501177238,1275
1986.928691997853,1258
1988.8704099770712,1205
1990.811655382789,1193
1992.7524284829801,1256
1994.692729545698,1215
1996.6325588390755,1206
1998.5719166313224,1222
2000.5108031907307,1216
2002.4492187856677,1201
2004.387163684583,1198
2006.3246381560011,1205
2008.2616424685298,1222
2010.1981768908527,1242
2012.1342416917332,1177
2014.069837140014,1207
2016.0049635046162,1210
2017.9396210545406,1230
2019.8738100588666,1203
2021.8075307867502,1213
2023.740783507431,1211
2025.6735684902228,1224
2027.6058860045214,1168
2029.5377363198004,1239
2031.4691197056118,1213
2033.4000364315875,1245
2035.3304867674374,1238
2037.260470982952,1180
2039.189989347998,1245
2041.1190421325232,1248
2043.047629606554,1185
2044.9757520401945,1194
2046.9034097036288,1215
2048.8306028671195,1182
2050.7573318010086,1190
2052.683596775716,1260
2054.609398061742,1246
2056.5347359296647,1241
2058.4596106501403,1261
2060.384022493906,1247
2062.3079717317764,1212
2064.231458634646,1254
2066.1544834734873,1250
2068.077046519352,1189
2069.99914804337,1198
2071.9207883167524,1195
2073.8419676107865,1152
2075.7626861968406,1174
2077.6829443463607,1237
2079.6027423308715,1212
2081.522080421977,1163
2083.440958891362,1263
2085.359378010786,1165
2087.2773380520907,1265
2089.194839287196,1212
2091.111881988101,1179
2093.0284664268825,1210
2094.9445928756973,1261
2096.86026160678,1190
2098.775472892446,1203
2100.690227005088,1240
2102.604524217178,1241
2104.5183648012676,1242
2106.431749029985,1197
2108.34467717604,1226
2110.2571495122206,1178
2112.169166311393,1235
2114.080727846503,1247
2115.9918343905747,1249
2117.902486216711,1238
2119.8126835980956,1202
2121.722426807987,1254
2123.6317161197285,1180
2125.5405518067364,1205
2127.448934142509,1232
2129.356863400624,1229
2131.264339854737,1224
2133.1713637785815,1227
2135.077935445972,1253
2136.9840551308002,1253
2138.889723107037,1200
2140.7949396487334,1202
2142.699705030018,1213
2144.6040195250994,1284
2146.507883408264,1256
2148.4112969538774,1276
2150.3142604363848,1251
2152.2167741303097,1193
2154.1188383102535,1211
2156.0204532508997,1265
2157.9216192270064,1209
2159.822336513414,1253
2161.7226053850413,1199
2163.622426116884,1179
2165.5217989840185,1167
2167.4207242616,1254
2169.319202224862,1242
2171.2172331491165,1229
2173.1148173097563,1201
2175.0119549822507,1252
2176.90864644215,1283
2178.8048919650823,1321
2180.7006918267534,1241
2182.596046302952,1236
2184.4909556695407,1294
2186.3854202024645,1267
2188.279440177746,1262
2190.173015871487,1248
2192.066147559868,1233
2193.958835519149,1237
2195.851080025667,1211
2197.7428813558417,1308
2199.6342397861667,1245
2201.5251555932186,1218
2203.415629053651,1251
2205.3056604441986,1285
2207.19525004167,1233
2209.084398122958,1213
2210.9731049650327,1273
2212.861370844941,1285
2214.749196039812,1277
2216.636580826851,1267
2218.523525483344,1283
2220.410030286655,1248
2222.296095514226,1261
2224.1817214435805,1271
2226.066908352319,1291
2227.951656518121,1272
2229.835966218746,1259
2231.71983773203,1281
2233.6032713358913,1244
2235.486267308324,1241
2237.3688259274036,1262
2239.2509474712824,1273
2241.132632218193,1283
2243.013880446447,1321
2244.8946924344323,1269
2246.7750684606203,1257
2248.6550088035574,1277
2250.534513741871,1265
2252.413583554265,1329
2254.292218519526,1272
2256.170418916517,1284
2258.0481850241786,1254
2259.925517121534,1326
2261.8024154876825,1300
2263.678880401803,1314
2265.5549121431536,1289
2267.430510991071,1299
2269.305677224971,1202
2271.180411124348,1248
2273.0547129687766,1268
2274.9285830379076,1225
2276.8020216114737,1259
2278.6750289692845,1283
2280.5476053912294,1258
2282.4197511572766,1253
2284.2914665474727,1288
2286.162751841943,1306
2288.0336073208937,1336
2289.904033264608,1335
2291.774029953448,1251
2293.6435976678554,1317
2295.5127366883517,1250
2297.381447295534,1259
2299.2497297700825,1237
2301.1175843927526,1171
2302.9850114443825,1161
2304.852011205885,1181
2306.7185839582553,1120
2308.5847299825664,1122
2310.4504495599676,1149
2312.3157429716925,1115
2314.1806104990483,1121
2316.0450524234247,1087
2317.9090690262888,1110
2319.772660589186,1125
2321.635827393742,1123
2323.498569721661,1041
2325.3608878547248,1136
2327.2227820747967,1139
2329.0842526638157,1112
2330.945299903803,1110
2332.805924076857,1087
2334.6661254651535,1066
2336.525904350951,1105
2338.3852610165827,1102
2340.244195744464,1151
2342.102708817088,1099
2343.9608005170253,1068
2345.8184711269287,1163
2347.675720929526,1099
2349.532550207628,1073
2351.38895924412,1095
2353.24494832197,1145
2355.100517724223,1131
2356.955667734004,1131
2358.810398634514,1099
2360.664710709037,1097
2362.5186042409337,1061
2364.3720795136437,1078
2366.225136810686,1114
2368.0777764156583,1101
2369.929998612237,1072
2371.7818036841777,1113
2373.633191915315,1100
2375.484163589562,1116
2377.3347189909114,1108
2379.184858403434,1129
2381.03458211128,1111
2382.8838903986775,1103
2384.732783549936,1074
2386.5812618494406,1132
2388.4293255816588,1087
2390.2769750311327,1118
2392.1242104824883,1096
2393.971032220427,1087
2395.8174405297295,1102
2397.6634356952563,1057
2399.509018001947,1069
2401.3541877348193,1148
2403.1989451789705,1134
2405.043290619576,1093
2406.8872243418905,1150
2408.730746631247,1102
2410.5738577730594,1156
2412.4165580528183,1129
2414.258847756095,1093
2416.100727168537,1121
2417.9421965758734,1139
2419.783256263912,1089
2421.623906518538,1117
2423.4641476257157,1118
2425.303979871491,1171
2427.143403541984,1110
2428.9824189233977,1149
2430.821026302012,1153
2432.6592259641866,1171
2434.497018196361,1119
2436.33440328505,1101
2438.171381516851,1061
2440.00795317844,1119
2441.844118556569,1172
2443.6798779380724,1151
2445.5152316098606,1085
2447.3501798589255,1138
2449.1847229723357,1121
2451.0188612372403,1152
2452.8525949408663,1119
2454.6859243705203,1119
2456.518849813587,1124
2458.3513715575314,1112
2460.183489889895,1172
2462.015205098301,1100
2463.8465174704493,1114
2465.67742729412,1128
2467.5079348571717,1126
2469.338040447542,1104
2471.1677443532476,1091
2472.9970468623833,1103
2474.825948263123,1100
2476.6544488437207,1135
2478.482548892508,1072
2480.310248697896,1102
2482.137548548374,1081
2483.9644487325118,1079
2485.790949538956,1099
2487.617051256433,1098
2489.44275417375,1133
2491.26805857979,1077
2493.0929647635157,1081
2494.917473013971,1095
2496.741583620276,1110
2498.5652968716304,1164
2500.3886130573137,1109
2502.2115324666834,1092
2504.0340553891765,1051
2505.856182114308,1113
2507.6779129316733,1112
2509.499248130945,1130
2511.3201880018764,1110
2513.140732834298,1120
2514.9608829181198,1116
2516.780638543331,1091
2518.6,1170
2520.418967578273,1131
2522.237541568376,1142
2524.0557222606144,1116
2525.8735099453706,1082
2527.6909049131086,1107
2529.507907454368,1108
2531.32451785977,1121
2533.140736420014,1134
2534.9565634258774,1116
2536.771999168218,1129
2538.5870439379714,1079
2540.4016980261526,1127
2542.2159617238544,1157
2544.02983532225,1122
2545.8433191125914,1155
2547.656413386209,1070
2549.4691184345115,1103
2551.2814345489874,1125
2553.093362021204,1118
2554.904901142808,1112
2556.716052205523,1110
2558.526815501153,1127
2560.3371913215824,1108
2562.147179958771,1099
2563.956781704761,1120
2565.7659968516705,1094
2567.5748256916986,1126
2569.3832685171224,1058
2571.1913256202984,1105
2572.9989972936614,1129
2574.806283829725,1076
2576.613185521084,1094
2578.4197026604074,1077
2580.2258355404483,1160
2582.031584454035,1166
2583.836949694077,1111
2585.6419315535613,1134
2587.4465303255533,1087
2589.2507463032002,1154
2591.0545797797245,1135
2592.8580310484303,1091
2594.6611004026995,1056
2596.463788135992,1145
2598.266094541849,1114
2600.0680199138874,1155
2601.869564545807,1126
2603.670728731383,1078
2605.4715127644704,1170
2607.2719169390048,1157
2609.071941548998,1173
2610.8715868885433,1123
2612.670853251811,1216
2614.469740933052,1167
2616.268250226594,1139
2618.0663814268455,1143
2619.864134828292,1152
2621.6615107255006,1158
2623.458509413115,1146
2625.2551311858597,1073
2627.0513763385347,1146
2628.8472451660223,1128
2630.6427379632833,1117
2632.4378550253564,1134
2634.232596647359,1070
2636.026963124488,1087
2637.8209547520187,1112
2639.6145718253065,1150
2641.407814639785,1132
2643.200683490966,1091
2644.9931786744414,1116
2646.7853004858807,1152
2648.577049221034,1131
2650.3684251757277,1094
2652.1594286458712,1152
2653.9500599274484,1148
2655.740319316525,1154
2657.5302071092437,1091
2659.3197236018286,1111
2661.10886909058,1152
2662.8976438718782,1143
2664.686048242183,1152
2666.4740824980327,1109
2668.2617469360443,1091
2670.0490418529134,1130
2671.8359675454153,1143
2673.622524310403,1103
2675.408712444811,1135
2677.1945322456495,1117
2678.979984010009,1124
2680.76506803506,1075
2682.5497846180497,1093
2684.334134056306,1102
2686.1181166472343,1092
2687.9017326883213,1147
2689.6849824771293,1117
2691.4678663113013,1125
2693.2503844885596,1061
2695.032537306705,1119
2696.8143250636167,1096
2698.5957480572542,1126
2700.3768065856534,1124
2702.1575009469316,1092
2703.937831439283,1122
2705.717798360982,1144
2707.4974020103837,1111
2709.276642685917,1092
2711.055520686095,1073
2712.834036309506,1118
2714.612189854819,1124
2716.389981620782,1032
2718.1674119062204,1112
2719.944481010041,1124
2721.721189231226,1121
2723.4975368688415,1106
2725.273524222027,1174
2727.0491515900053,1134
2728.824419272075,1115
2730.5993275676146,1062
2732.3738767760838,1100
2734.148067197016,1147
2735.921899130031,1154
2737.6953728748194,1127
2739.468488731156,1103
2741.2412469988926,1156
2743.0136479779617,1109
2744.785691968372,1138
2746.5573792702116,1101
2748.3287101836504,1042
2750.099685008934,1066
2751.870304046388,1154
2753.640567596418,1083
2755.4104759595057,1104
2757.1800294362156,1035
2758.949228327187,1138
2760.7180729331412,1115
2762.486563554877,1120
2764.254700493272,1066
2766.022484049284,1070
2767.789914523947,1103
2769.5569922183786,1152
2771.3237174337705,1100
2773.090090471394,1088
2774.8561116326036,1065
2776.6217812188274,1123
2778.3870995315756,1032
2780.1520668724356,1036
2781.9166835430747,1077
2783.6809498452394,1101
2785.444866080754,1118
2787.2084325515225,1072
2788.971649559527,1080
2790.73451740683,1093
2792.4970363955713,1102
2794.2592068279705,1101
2796.0210290063264,1076
2797.7825032330147,1098
2799.543629810493,1122
2801.304409041296,1122
2803.0648412280366,1098
2804.8249266734088,1111
2806.5846656801846,1119
2808.344058551212,1115
2810.1031055894246,1108
2811.8618070978273,1105
2813.6201633795085,1107
2815.378174737636,1119
2817.1358414754536,1140
2818.893163896285,1087
2820.6501423035334,1115
2822.4067770006814,1087
2824.1630682912883,1121
2825.9190164789957,1119
2827.6746218675207,1086
2829.429884760661,1094
2831.184805462294,1087
2832.9393842763743,1106
2834.693621506936,1058
2836.4475174580916,1105
2838.201072434034,1083
2839.954286739034,1115
2841.707160677441,1111
2843.459694553685,1070
2845.2118886722724,1098
2846.96374333779,1155
2848.7152588549034,1109
2850.4664355283567,1150
2852.217273662973,1092
2853.9677735636546,1163
2855.7179355353833,1121
2857.4677598832186,1105
2859.217246912299,1108
2860.9663969278427,1074
2862.715210235146,1091
2864.4636871395846,1093
2866.211827946614,1146
2867.9596329617652,1085
2869.7071024906536,1104
2871.4542368389684,1100
2873.20103631248,1087
2874.947501217038,1125
2876.6936318585695,1081
2878.4394285430812,1114
2880.1848915766604,1128
2881.9300212654707,1098
2883.6748179157553,1115
2885.4192818338374,1113
2887.1634133261173,1106
2888.907212699077,1123
2890.6506802592744,1142
2892.393816313348,1133
2894.1366211680142,1114
2895.8790951300693,1166
2897.621238506388,1102
2899.363051603925,1110
2901.1045347297118,1133
2902.8456881908596,1100
2904.58651229456,1135
2906.327007348081,1096
2908.067173658772,1070
2909.8070115340597,1103
2911.5465212814497,1083
2913.285703208527,1113
2915.0245576229563,1139
2916.7630848324807,1095
2918.5012851449196,1092
2920.2391588681758,1096
2921.976706310227,1101
2923.7139277791334,1095
2925.4508235830313,1117
2927.187394030137,1130
2928.923639428745,1128
2930.6595600872306,1071
2932.395156314046,1073
2934.1304284177218,1071
2935.8653767068713,1106
2937.6000014901815,1123
2939.3343030764227,1061
2941.068281774442,1097
2942.8019378931644,1103
2944.5352717415976,1166
2946.2682836288236,1085
2948.0009738640065,1104
2949.7333427563885,1127
2951.465390615289,1120
2953.1971177501086,1108
2954.9285244703265,1109
2956.6596110855,1128
2958.3903779052657,1059
2960.1208252393385,1126
2961.8509533975125,1151
2963.5807626896617,1129
2965.3102534257378,1127
2967.0394259157715,1096
2968.768280469873,1138
2970.496817398232,1078
2972.2250370111146,1093
2973.952939618869,1089
2975.6805255319196,1118
2977.4077950607707,1132
2979.134748516006,1091
2980.861386208289,1120
2982.587708448359,1106
2984.313715547037,1125
2986.039407815222,1143
2987.764785563891,1077
2989.489849104102,1133
2991.2145987469908,1050
2992.9390348037705,1091
2994.6631575857346,1080
2996.3869674042576,1071
2998.1104645707887,1060
2999.83364939686,1096
3001.5565221940783,1105
3003.2790832741334,1164
3005.0013329487924,1074
3006.7232715298996,1081
3008.4448993293804,1106
3010.166216659239,1077
3011.887223831558,1109
3013.607921158498,1080
3015.3283089522993,1110
3017.0483875252826,1120
3018.7681571898443,1082
3020.4876182584626,1107
3022.2067710436927,1115
3023.9256158581707,1136
3025.644153014609,1100
3027.362382825801,1077
3029.0803056046193,1116
3030.797921664012,1128
3032.5152313170106,1086
3034.2322348767225,1120
3035.9489326563353,1106
3037.665324969115,1122
3039.3814121284063,1051
3041.097194447633,1085
3042.812672240299,1087
3044.5278458199855,1100
3046.2427155003525,1071
3047.9572815951406,1084
3049.671544418167,1090
3051.38550428333,1127
3053.0991615046073,1084
3054.812516396051,1100
3056.5255692717974,1090
3058.2383204460575,1079
3059.9507702331257,1108
3061.662918947372,1100
3063.3747669032446,1117
3065.0863144152736,1099
3066.7975617980674,1131
3068.508509366309,1098
3070.219157434767,1111
3071.9295063182844,1083
3073.639556331785,1054
3075.3493077902704,1087
3077.058761008821,1099
3078.7679163025964,1064
3080.476773986837,1098
3082.1853343768594,1086
3083.89359778806,1086
3085.6015645359153,1090
3087.3092349359786,1049
3089.016609303884,1030
3090.7236879553434,1052
3092.4304712061476,1125
3094.136959372166,1119
3095.843152769349,1140
3097.5490517137237,1084
3099.2546565213966,1004
3100.959967508554,1113
3102.66498499146,1060
3104.3697092864577,1074
3106.0741407099695,1058
3107.778279578498,1073
3109.482126208622,1050
3111.1856809170004,1068
3112.8889440203716,1070
3114.5919158355528,1091
3116.294596679439,1051
3117.996986869006,1121
3119.6990867213062,1043
3121.4008965534726,1113
3123.102416682717,1090
3124.803647426329,1083
3126.5045891016784,1072
3128.205242026213,1073
3129.90560651746,1065
3131.605682893025,1101
3133.3054714705922,1045
3135.0049725679282,1122
3136.7041865028714,1069
3138.4031135933465,1068
3140.101754157353,1095
3141.800108512971,1102
3143.498176978357,1117
3145.1959598717494,1100
3146.8934575114636,1094
3148.5906702158954,1060
3150.2875983035183,1037
3151.9842420928853,1091
3153.680601902627,1080
3155.376678051456,1066
3157.07247085816,1049
3158.767980641609,1085
3160.463207720748,1093
3162.158152414606,1108
3163.8528150422862,1076
3165.5471959229726,1069
3167.2412953759303,1108
3168.9351137204976,1110
3170.628651276098,1052
3172.3219083622307,1042
3174.014885298474,1076
3175.707582404485,1101
3177.4000000000005,1080
3179.092138404835,1072
3180.7839979388846,1122
3182.47557892212,1087
3184.166881674594,1112
3185.8579065164386,1107
3187.5486537678626,1116
3189.2391237491547,1033
3190.9293167806827,1103
3192.6192331828934,1107
3194.3088732763117,1057
3195.998237381542,1065
3197.687325819268,1065
3199.376138910251,1057
3201.064676975334,1037
3202.7529403354347,1122
3204.4409293115523,1132
3206.1286442247647,1045
3207.816085396229,1086
3209.5032531471825,1074
3211.190147798936,1066
3212.8767696728846,1062
3214.5631190905015,1115
3216.2491963733373,1083
3217.9350018430214,1027
3219.6205358212637,1067
3221.305798629851,1095
3222.990790590651,1075
3224.6755120256103,1074
3226.359963256751,1081
3228.0441446061795,1081
3229.7280563960758,1071
3231.411698948703,1103
3233.0950725863995,1054
3234.778177631587,1068
3236.461014406761,1096
3238.1435832345005,1107
3239.8258844374595,1093
3241.507918338374,1124
3243.1896852600576,1098
3244.8711855254023,1072
3246.552419457381,1095
3248.233387379042,1118
3249.914089613516,1085
3251.59452648401,1113
3253.274698313813,1068
3254.95460542629,1079
3256.6342481448855,1074
3258.313626793125,1044
3259.9927416946084,1091
3261.6715931730196,1080
3263.3501815521176,1036
3265.0285071557437,1098
3266.706570307815,1037
3268.3843713323286,1052
3270.0619105533615,1083
3271.739188295068,1062
3273.4162048816834,1106
3275.0929606375184,1111
3276.769455886966,1062
3278.445690954498,1076
3280.1216661646613,1130
3281.797381842087,1062
3283.4728383114807,1078
3285.1480358976296,1125
3286.8229749253996,1069
3288.4976557197333,1078
3290.172078605655,1119
3291.846243908266,1053
3293.5201519527463,1072
3295.193803064357,1021
3296.8671975684374,1075
3298.5403357904024,1075
3300.21321805575,1075
3301.8858446900567,1031
3303.558216018975,1076
3305.23033236824,1068
3306.9021940636603,1109
3308.57380143113,1050
3310.2451547966184,1081
3311.916254486174,1061
3313.5871008259246,1040
3315.2576941420766,1089
3316.9280347609147,1070
3318.5981230088046,1099
3320.2679592121895,1082
3321.9375436975924,1056
3323.606876791612,1067
3325.27595882093,1069
3326.944790112305,1081
3328.6133709925753,1086
3330.2817017886573,1042
3331.949782827547,1086
3333.617614436319,1017
3335.2851969421245,1089
3336.952530672199,1038
3338.619615953853,1072
3340.286453114475,1071
3341.9530424815357,1090
3343.619384382583,1065
3345.2854791452437,1066
3346.951327097224,1043
3348.6169285663073,1046
3350.2822838803577,1126
3351.947393367319,1138
3353.61225735521,1093
3355.2768761721345,1047
3356.9412501462693,1074
3358.605379605873,1142
3360.2692648792827,1048
3361.9329062949146,1153
3363.596304181263,1058
