CollectionTime,7/3/2024 2:57:42 PM
ExposureUsed,3
CalibratedSpectrum
-962.7078968117929,424
-959.9714848408522,467
-957.2358232597828,507
-954.5009119013725,471
-951.7667505983302,468
-949.0333391832855,463
-946.3006774887896,453
-943.5687653473143,485
-940.837602591253,457
-938.1071890529199,482
-935.3775245645503,467
-932.6486089583007,477
-929.9204420662485,489
-927.1930237203925,485
-924.4663537526524,465
-921.7404319948689,492
-919.0152582788041,480
-916.2908324361409,517
-913.5671542984834,486
-910.8442236973568,479
-908.1220404642074,450
-905.4006044304027,503
-902.679915427231,478
-899.959973285902,467
-897.2407778375464,477
-894.5223289132158,458
-891.8046263438832,463
-889.0876699604426,467
-886.3714595937089,472
-883.6559950744183,455
-880.9412762332282,447
-878.2273029007168,447
-875.5140749073835,455
-872.8015920836489,469
-870.0898542598545,479
-867.3788612662631,463
-864.6686129330585,456
-861.9591090903457,461
-859.2503495681506,437
-856.5423341964203,457
-853.8350628050229,488
-851.1285352237478,476
-848.4227512823054,454
-845.7177108103272,473
-843.0134136373656,473
-840.3098595928943,480
-837.6070485063082,500
-834.9049802069229,455
-832.2036545239757,478
-829.5030712866244,486
-826.8032303239481,492
-824.1041314649472,503
-821.4057745385428,469
-818.7081593735775,504
-816.0112857988148,475
-813.3151536429393,491
-810.6197627345566,513
-807.9251129021936,513
-805.2312039742981,456
-802.5380357792392,449
-799.8456081453069,488
-797.1539209007124,464
-794.462973873588,487
-791.772766891987,485
-789.083299783884,464
-786.3945723771743,484
-783.7065844996748,459
-781.0193359791231,466
-778.3328266431781,465
-775.6470563194197,475
-772.9620248353489,454
-770.2777320183878,467
-767.5941776958798,482
-764.9113616950891,514
-762.2292838432011,489
-759.5479439673222,492
-756.8673418944801,474
-754.1874774516235,497
-751.5083504656222,492
-748.8299607632671,515
-746.15230817127,495
-743.475392516264,496
-740.7992136248035,507
-738.1237713233636,497
-735.4490654383407,499
-732.7750957960521,504
-730.1018622227365,524
-727.4293645445534,496
-724.7576025875837,488
-722.0865761778291,494
-719.4162851412126,494
-716.7467293035781,513
-714.0779084906909,487
-711.409822528237,504
-708.7424712418238,487
-706.0758544569796,516
-703.4099719991541,543
-700.7448236937178,533
-698.0804093659622,533
-695.4167288411002,518
-692.7537819442656,519
-690.0915685005134,497
-687.4300883348199,502
-684.7693412720819,514
-682.1093271371178,525
-679.4500457546669,515
-676.7914969493897,509
-674.1336805458676,499
-671.4765963686034,508
-668.8202442420206,531
-666.1646239904642,519
-663.5097354382001,526
-660.8555784094151,539
-658.2021527282176,500
-655.5494582186366,528
-652.8974947046223,519
-650.2462620100463,592
-647.5957599587009,547
-644.9459883742998,537
-642.2969470804776,523
-639.6486359007902,563
-637.0010546587141,563
-634.3542031776476,571
-631.7080812809096,562
-629.0626887917401,524
-626.4180255333008,540
-623.7740913286734,542
-621.1308860008619,550
-618.4884093727904,579
-615.8466612673046,537
-613.2056415071715,543
-610.5653499150785,522
-607.9257863136347,548
-605.28695052537,569
-602.6488423727357,547
-600.0114616781036,549
-597.3748082637674,534
-594.7388819519412,563
-592.1036825647604,652
-589.4692099242818,658
-586.8354638524829,603
-584.2024441712624,531
-581.5701507024403,570
-578.9385832677575,577
-576.3077416888759,565
-573.6776257873787,573
-571.0482353847704,535
-568.4195703024757,566
-565.7916303618415,609
-563.164415384135,569
-560.5379251905453,558
-557.9121596021815,593
-555.2871184400748,574
-552.6628015251767,618
-550.0392086783606,624
-547.4163397204204,606
-544.794194472071,620
-542.1727727539491,611
-539.5520743866118,602
-536.9320991905377,651
-534.3128469861261,662
-531.6943175936979,670
-529.0765108334947,655
-526.4594265256793,731
-523.8430644903358,869
-521.2274245474689,974
-518.612506517005,1027
-515.9983102187913,1030
-513.3848354725959,1023
-510.77208209810846,1153
-508.16004991493924,1293
-505.5487387426199,1327
-502.9381484006032,1293
-500.3282787082628,1177
-497.71912948489364,1060
-495.1107005497117,934
-492.5029917218539,801
-489.8960028203786,763
-487.28973366426493,714
-484.68418407241325,724
-482.07935386364494,719
-479.47524285670266,697
-476.87185087025,699
-474.2691777228715,694
-471.66722323307334,688
-469.0659872192821,699
-466.4654694998459,737
-463.86566989303384,707
-461.26658821703614,692
-458.66822428996414,715
-456.07057792985,710
-453.4736489546475,694
-450.877437182231,677
-448.28194243039627,681
-445.68716451686,676
-443.09310325926003,695
-440.49975847515555,706
-437.9071299820263,664
-435.31521759727354,710
-432.72402113821954,727
-430.13354042210767,732
-427.5437752661022,704
-424.95472548728867,756
-422.36639090267386,768
-419.7787713291855,762
-417.1918665836721,838
-414.60567648290385,772
-412.0202008435715,746
-409.4354394822874,797
-406.8513922155845,753
-404.26805885991723,755
-401.685439231661,827
-399.103533147112,814
-396.522340422488,770
-393.9418608739278,697
-391.3620943174908,735
-388.7830405691583,764
-386.2046994448317,708
-383.6270707603344,736
-381.05015433141045,674
-378.473949973725,681
-375.8984575028645,669
-373.32367673433623,638
-370.74960748356875,617
-368.1762495659117,595
-365.60360279663576,541
-363.03166699093265,518
-360.4604419639154,510
-357.8899275306178,492
-355.32012350599507,512
-352.7510297049233,513
-350.1826459421999,480
-347.61497203254316,464
-345.04800779059235,475
-342.4817530309082,505
-339.91620756797226,474
-337.35137121618743,505
-334.7872437898774,574
-332.22382510328725,554
-329.66111497058273,519
-327.09911320585127,491
-324.53781962310075,482
-321.9772340362607,524
-319.4173562591816,489
-316.8581861056348,493
-314.2997233893127,464
-311.7419679238294,452
-309.1849195227194,499
-306.62857799943856,502
-304.0729431673641,544
-301.51801483979375,521
-298.963792829947,539
-296.41027695096386,578
-293.85746701590574,546
-291.3053628377552,597
-288.7539642294155,591
-286.2032710037115,554
-283.65328297338897,578
-281.1039999511146,687
-278.5554217494762,661
-276.007548180983,558
-273.4603790580651,545
-270.9139141930734,560
-268.3681533982807,553
-265.8230964858798,604
-263.27874326798565,611
-260.7350935566336,596
-258.1921471637804,609
-255.6499039013039,676
-253.10836358100266,624
-250.56752601459698,582
-248.02739101372765,646
-245.48795838995704,739
-242.94922795476816,635
-240.41119951956557,652
-237.8738728956746,691
-235.33724789434166,746
-232.80132432673452,775
-230.2661020039418,679
-227.73158073697357,685
-225.19776033676033,818
-222.66464061415422,798
-220.1322213799284,675
-217.60050244477725,622
-215.06948361931552,651
-212.53916471408013,760
-210.00954553952818,835
-207.48062590603843,755
-204.9524056239104,721
-202.4248845033651,812
-199.8980623545441,882
-197.37193898751036,926
-194.84651421224817,849
-192.32178783866232,776
-189.79775967657952,824
-187.27442953574644,955
-184.7517972258321,1048
-182.2298625564256,918
-179.7086253370378,835
-177.18808537710026,851
-174.66824248596583,933
-172.14909647290835,1074
-169.6306471471229,962
-167.11289431772548,879
-164.59583779375328,928
-162.07947738416453,953
-159.5638128978386,1063
-157.04884414357605,1250
-154.53457093009854,1446
-152.02099306604828,1202
-149.50811035998936,846
-146.99592262040665,879
-144.48442965570587,1111
-141.97363127421409,1207
-139.46352728417958,1370
-136.95411749377126,1519
-134.44540171107985,1288
-131.93737974411636,1014
-129.43005140081357,1315
-126.92341648902493,1911
-124.41747481652521,2187
-121.91222619101006,2862
-119.40767042009657,3746
-116.90380731132257,3966
-114.40063667214702,3696
-111.8981583099503,2537
-109.3963720320337,1559
-106.89527764561933,1644
-104.39487495785067,2364
-101.89516377579241,3771
-99.39614390642998,6146
-96.89781515667039,6028
-94.40017733334128,4888
-91.90323024319173,3980
-89.40697369289148,6259
-86.91140748903172,9870
-84.41653143812482,8608
-81.92234534660395,5217
-79.42884902082358,5839
-76.93604226705907,14979
-74.4439248915071,29744
-71.95249670028534,40000
-69.46175749943245,37890
-66.97170709490854,28957
-64.48234529259423,19734
-61.99367189829195,15063
-59.50568671772464,12303
-57.01838955653636,9324
-54.53178022029283,7418
-52.045858514480074,8592
-49.560624244506016,10264
-47.07607721569923,11489
-44.59221723330904,11521
-42.10904410250669,11868
-39.62655762838392,12532
-37.14475761595372,13665
-34.66364387015028,15115
-32.18321619582866,14563
-29.70347439776515,13782
-27.224418280657005,15473
-24.74604764912317,17347
-22.26836230770266,25390
-19.7913620608565,52477
-17.315046712966478,65039
-14.83941606833514,65039
-12.36446993118659,65039
-9.89020810566592,65039
-7.416630395839093,65039
-4.94373660569363,65039
-2.471526539137585,65039
-6.821210263296962E-13,65039
2.47084320796705,65039
4.941003281093458,65039
7.410480415786196,65039
9.879274808531363,65039
12.347386655893956,65039
14.814816154518212,65039
17.28156350112681,65039
19.74762889252179,65039
22.21301252558385,65039
24.67771459727237,20151
27.141735304626195,3925
29.605074844762612,2831
32.06773341487792,2229
34.52971121224755,2492
36.99100843422559,2391
39.45162527824516,1987
41.91156194181792,1862
44.370818622535126,1874
46.82939551806646,1544
49.287292826160524,1674
51.74451074464503,2114
54.201049471426245,2203
56.65690920448981,1820
59.112090141899785,1453
61.56659248179983,1270
64.02041642241159,1211
66.4735621620365,1349
68.92602989905402,1285
71.37781983192338,1378
73.82893215918205,1418
76.27936707944684,1446
78.72912479141326,1372
81.17820549385567,1699
83.62660938562783,1930
86.07433666566146,1557
88.5213875329681,1036
90.96776218663751,1003
93.41346082583925,1051
95.85848364982041,1229
98.30283085790859,1265
100.7465026495089,1313
103.18949922410604,1173
105.63182078126385,1128
108.07346752062438,1145
110.51443964190923,840
112.95473734491827,839
115.39436082953114,968
117.83331029570547,908
120.27158594347827,1028
122.7091879729652,1207
125.1461165843615,1000
127.58237197794062,841
130.01795435405518,776
132.4528639131364,849
134.88710085569494,933
137.32066538231982,1002
139.75355769367923,927
142.1857779905207,956
144.61732647366978,921
147.04820334403132,860
149.47840880258934,858
151.90794305040674,890
154.33680628862487,968
156.76499871846443,1059
159.19252054122433,1152
161.61937195828352,1160
164.04555317109896,1253
166.47106438120693,1323
168.89590579022217,1422
171.320077599839,1448
173.7435800118302,1629
176.16641322804742,1670
178.58857745042144,1727
181.01007288096173,1817
183.43089972175687,1853
185.85105817497413,1765
188.27054844285988,1769
190.6893707277394,1742
193.10752523201643,1804
195.5250121581745,1812
197.9418317087751,1831
200.3579840864594,1839
202.7734694939469,1878
205.18828813403627,1896
207.6024402096051,1855
210.01592592360964,1955
212.42874547908548,2039
214.84089907914665,1970
217.2523869269868,1943
219.66320922587727,1889
222.0733661791695,1945
224.48285799029293,1960
226.8916848627572,1890
229.29984700014882,1932
231.7073446061355,2017
234.11417788446204,1943
236.520347038953,1964
238.92585227351185,1943
241.33069379212054,1943
243.73487179884035,2004
246.1383864978112,1971
248.541238093252,1982
250.9434267894609,1962
253.34495279081432,1961
255.74581630176783,1939
258.1460175268563,1874
260.54555667069314,1962
262.9444339379703,1881
265.3426495334594,1939
267.7402036620107,2075
270.1370965285529,2048
272.53332833809407,2018
274.9288992957214,1941
277.32380960660055,1974
279.718059475976,1971
282.1116491091717,2073
284.5045787115897,1884
286.89684848871195,1892
289.2884586460981,1956
291.67940938938807,1963
294.0697009242996,1982
296.4593334566299,1993
298.84830719225477,1985
301.23662233712923,1872
303.6242790972866,1900
306.01127767884,1941
308.39761828798066,1854
310.78330113097934,1984
313.16832641418534,1886
315.5526943440269,1856
317.9364051270112,1811
320.3194589697242,1910
322.70185607883093,1824
325.0835966610754,1789
327.4646809232805,1805
329.8451090723478,1739
332.2248813152577,1737
334.6039978590701,1755
336.9824589109231,1796
339.36026467803447,1725
341.7374153677,1756
344.113911187295,1771
346.48975234427337,1694
348.8649390461686,1724
351.2394715005918,1653
353.61334991523415,1759
355.9865744978655,1653
358.35914545633375,1689
360.73106299856715,1673
363.10232733257146,1799
365.47293866643247,1646
367.84289720831396,1612
370.2122031664593,1703
372.5808567491905,1751
374.9488581649083,1642
377.31620762209275,1577
379.6829053293021,1572
382.0489514951745,1637
384.4143463284262,1600
386.7790900378528,1569
389.14318283232853,1620
391.50662492080653,1601
393.86941651231916,1657
396.23155781597745,1611
398.5930490409713,1584
400.9538903965696,1648
403.3140820921202,1655
405.6736243370498,1657
408.03251734086336,1618
410.3907613131465,1563
412.74835646356166,1555
415.10530300185144,1603
417.4616011378372,1583
419.81725108141893,1550
422.1722530425758,1542
424.5266072313656,1572
426.880313857925,1574
429.2333731324701,1583
431.58578526529516,1565
433.9375504667738,1540
436.2886689473588,1616
438.63914091758113,1585
440.9889665880513,1549
443.33814616945835,1517
445.68667987257015,1518
448.03456790823395,1547
450.3818104873759,1516
452.72840782100013,1498
455.07436012019105,1474
457.41966759611057,1567
459.7643304600007,1446
462.10834892318155,1522
464.4517231970525,1505
466.79445349309174,1500
469.1365400228566,1526
471.4779829979826,1491
473.81878263018564,1510
476.15893913125876,1480
478.4984527130747,1591
480.8373235875855,1588
483.17555196682144,1544
485.5131380628919,1583
487.8500820879857,1686
490.1863842543697,1689
492.52204477439034,1718
494.8570638604725,1804
497.1914417251204,1998
499.52517858091653,2271
501.85827464052306,2576
504.19073011668036,2991
506.5225452222086,3276
508.85372017000566,3487
511.18425517304956,3466
513.514150444396,3675
515.8434061971808,4197
518.1720226446176,4824
520.4999999999999,5128
522.8273384766991,4585
525.1540382881666,4063
527.480099647932,3484
529.8055227696037,2863
532.1303078668694,2357
534.454455153496,1935
536.777964843328,1784
539.1008371502907,1708
541.4230722883866,1694
543.744670471698,1622
546.0656319143858,1704
548.3859568306899,1634
550.7056454349294,1636
553.0246979415016,1610
555.3431145648834,1569
557.6608955196306,1616
559.978041020377,1522
562.2945512818363,1486
564.6104265188006,1564
566.9256669461412,1468
569.2402727788082,1544
571.5542442318302,1555
573.8675815203156,1580
576.1802848594508,1603
578.4923544645015,1521
580.8037905508126,1596
583.114593333807,1584
585.4247630289875,1645
587.7342998519354,1505
590.0432040183106,1499
592.3514757438526,1561
594.6591152443794,1487
596.9661227357875,1536
599.2724984340531,1576
601.578242555231,1537
603.8833553154542,1588
606.1878369309362,1603
608.4916876179676,1657
610.7949075929192,1619
613.0974970722403,1595
615.3994562724587,1605
617.7007854101818,1550
620.0014847020951,1539
622.3015543649641,1572
624.6009946156324,1550
626.8998056710224,1513
629.1979877481361,1638
631.4955410640538,1539
633.7924658359349,1594
636.0887622810175,1539
638.3844306166192,1572
640.6794710601358,1593
642.9738838290426,1610
645.2676691408932,1554
647.5608272133207,1507
649.853358264037,1552
652.1452625108324,1637
654.4365401715764,1629
656.7271914642178,1618
659.0172166067838,1589
661.3066158173809,1581
663.5953893141935,1573
665.8835373154867,1552
668.1710600396028,1592
670.4579577049639,1590
672.7442305300709,1588
675.0298787335033,1546
677.3149025339197,1605
679.599302150058,1537
681.8830778007342,1639
684.1662297048437,1582
686.4487580813608,1580
688.7306631493387,1619
691.0119451279091,1591
693.2926042362834,1559
695.5726406937516,1571
697.8520547196814,1572
700.1308465335215,1600
702.4090163547982,1587
704.6865644031171,1543
706.9634908981619,1562
709.2397960596965,1582
711.5154801075631,1585
713.7905432616823,1561
716.0649857420548,1572
718.3388077687592,1589
720.612009561953,1659
722.8845913418733,1560
725.1565533288352,1611
727.427895743234,1573
729.6986188055427,1589
731.9687227363137,1598
734.238207756178,1515
736.5070740858458,1571
738.7753219461066,1504
741.0429515578281,1514
743.3099631419569,1520
745.5763569195191,1594
747.8421331116193,1518
750.1072919394409,1586
752.3718336242467,1585
754.6357583873777,1627
756.8990664502545,1536
759.1617580343765,1569
761.423833361321,1591
763.6852926527457,1565
765.9461361303862,1615
768.206364016058,1631
770.4659765316536,1650
772.7249738991469,1671
774.9833563405886,1669
777.2411240781092,1604
779.4982773339183,1579
781.7548163303044,1579
784.010741289634,1616
786.2660524343538,1636
788.5207499869881,1594
790.7748341701416,1674
793.0283052064964,1604
795.2811633188143,1684
797.5334087299362,1643
799.7850416627813,1630
802.0360623403484,1595
804.2864709857143,1666
806.5362678220353,1703
808.7854530725468,1650
811.0340269605625,1634
813.2819897094754,1624
815.5293415427581,1627
817.77608268396,1624
820.0222133567116,1707
822.2677337847211,1647
824.5126441917765,1628
826.7569448017433,1562
829.0006358385675,1602
831.2437175262731,1648
833.4861900889629,1620
835.7280537508192,1589
837.9693087361026,1669
840.2099552691533,1612
842.4499935743896,1607
844.689423876309,1606
846.9282463994886,1703
849.1664613685833,1666
851.4040690083276,1653
853.6410695435349,1585
855.877463199097,1692
858.1132501999847,1649
860.3484307712487,1627
862.5830051380175,1581
864.8169735254988,1552
867.0503361589791,1551
869.2830932638243,1656
871.5152450654786,1667
873.7467917894654,1629
875.9777336613873,1657
878.2080709069252,1587
880.4378037518389,1596
882.666932421968,1629
884.8954571432301,1609
887.1233781416219,1671
889.3506956432192,1573
891.5774098741766,1572
893.803521060728,1615
896.0290294291852,1621
898.2539352059397,1641
900.4782386174619,1593
902.7019398903011,1619
904.925039251085,1596
907.147536926521,1585
909.3694331433943,1619
911.59072812857,1643
913.8114221089921,1597
916.0315153116827,1631
918.2510079637437,1623
920.4699002923547,1587
922.6881925247761,1603
924.905884888345,1512
927.1229776104793,1572
929.3394709186747,1639
931.555365040506,1569
933.7706602036275,1583
935.9853566357709,1624
938.1994545647489,1578
940.4129542184515,1647
942.6258558248488,1619
944.8381596119883,1585
947.0498658079974,1589
949.2609746410825,1626
951.4714863395287,1555
953.6814011316998,1543
955.8907192460387,1624
958.0994409110671,1602
960.3075663553858,1619
962.5150958076741,1587
964.7220294966913,1609
966.928367651274,1582
969.1341105003388,1600
971.3392582728806,1542
973.5438111979742,1550
975.747769504772,1498
977.9511334225061,1539
980.153903180487,1560
982.3560790081052,1510
984.5576611348289,1511
986.7586497902058,1492
988.9590452038618,1534
991.158847605503,1493
993.3580572249133,1432
995.5566742919558,1421
997.7546990365728,1442
999.952131688785,1457
1002.1489724786926,1379
1004.3452216364743,1406
1006.5408793923874,1353
1008.7359459767691,1307
1010.9304216200343,1420
1013.1243065526781,1387
1015.3176010052733,1339
1017.510305208472,1346
1019.7024193930064,1342
1021.8939437896848,1348
1024.0848786293977,1271
1026.2752241431122,1331
1028.4649805618747,1383
1030.6541481168115,1288
1032.842727039127,1327
1035.0307175601051,1275
1037.2181199111074,1225
1039.4049343235752,1240
1041.591161029029,1255
1043.7768002590683,1249
1045.9618522453698,1269
1048.1463172196918,1270
1050.3301954138697,1240
1052.513487059818,1235
1054.69619238953,1229
1056.8783116350783,1216
1059.0598450286152,1233
1061.2407928023704,1272
1063.4211551886528,1220
1065.6009324198508,1219
1067.780124728432,1227
1069.9587323469414,1239
1072.1367555080046,1218
1074.314194444325,1233
1076.4910493886855,1194
1078.667320573947,1229
1080.843008233051,1193
1083.0181125990161,1231
1085.1926339049414,1194
1087.3665723840027,1196
1089.5399282694575,1185
1091.7127017946405,1199
1093.8848931929647,1197
1096.0565026979243,1185
1098.2275305430899,1234
1100.3979769621128,1237
1102.567842188722,1157
1104.737126456726,1183
1106.9058300000124,1210
1109.0739530525475,1191
1111.2414958483764,1236
1113.4084586216231,1210
1115.5748416064907,1159
1117.7406450372605,1134
1119.9058691482942,1186
1122.0705141740304,1143
1124.2345803489884,1115
1126.3980679077658,1234
1128.5609770850388,1168
1130.7233081155623,1208
1132.8850612341707,1191
1135.0462366757774,1204
1137.2068346753745,1198
1139.3668554680326,1199
1141.526299288901,1227
1143.68516637321,1170
1145.8434569562655,1178
1148.001171273455,1184
1150.158309560244,1237
1152.3148720521767,1131
1154.470858984876,1125
1156.626270594044,1191
1158.7811071154629,1170
1160.9353687849912,1213
1163.089055838569,1105
1165.242168512213,1147
1167.3947070420209,1155
1169.5466716641677,1160
1171.6980626149075,1149
1173.8488801305748,1162
1175.9991244475814,1171
1178.1487958024186,1179
1180.2978944316555,1139
1182.4464205719428,1170
1184.5943744600072,1118
1186.7417563326567,1152
1188.8885664267755,1140
1191.0348049793297,1150
1193.1804722273619,1161
1195.325568407995,1140
1197.4700937584303,1196
1199.614048515948,1170
1201.7574329179074,1189
1203.900247201746,1128
1206.042491604982,1159
1208.1841663652099,1241
1210.3252717201053,1202
1212.465807907422,1163
1214.6057751649923,1187
1216.7451737307279,1186
1218.8840038426192,1158
1221.0222657387353,1148
1223.1599596572241,1182
1225.2970858363137,1198
1227.4336445143094,1114
1229.5696359295966,1152
1231.705060320639,1135
1233.8399179259786,1185
1235.9742089842384,1214
1238.107933734118,1167
1240.2410924143974,1183
1242.373685263935,1165
1244.5057125216676,1186
1246.6371744266116,1159
1248.7680712178621,1197
1250.898403134593,1187
1253.028170416058,1249
1255.1573733015875,1196
1257.2860120305932,1158
1259.4140868425648,1212
1261.54159797707,1254
1263.6685456737569,1216
1265.7949301723515,1164
1267.9207517126597,1195
1270.046010534565,1145
1272.1707068780306,1183
1274.2948409830983,1215
1276.4184130898889,1177
1278.541423438603,1169
1280.6638722695184,1177
1282.785759822993,1221
1284.9070863394636,1220
1287.0278520594447,1211
1289.1480572235314,1200
1291.2677020723963,1224
1293.3867868467923,1271
1295.5053117875495,1279
1297.623277135579,1238
1299.740683131868,1276
1301.8575300174857,1250
1303.973818033578,1216
1306.0895474213703,1292
1308.2047184221678,1262
1310.3193312773528,1273
1312.4333862283888,1258
1314.5468835168163,1309
1316.659823384255,1304
1318.7722060724045,1302
1320.8840318230418,1253
1322.9953008780249,1297
1325.1060134792888,1244
1327.2161698688478,1303
1329.3257702887959,1314
1331.4348149813054,1291
1333.5433041886276,1286
1335.6512381530933,1310
1337.7586171171101,1256
1339.8654413231675,1281
1341.9717110138317,1284
1344.0774264317488,1217
1346.1825878196432,1198
1348.2871954203192,1269
1350.3912494766587,1287
1352.4947502316231,1237
1354.5976979282532,1333
1356.7000928096686,1250
1358.8019351190665,1220
1360.9032250997243,1252
1363.0039629949988,1220
1365.1041490483235,1227
1367.2037835032133,1256
1369.3028666032606,1222
1371.401398592137,1214
1373.4993797135926,1226
1375.5968102114575,1225
1377.6936903296396,1251
1379.7900203121262,1267
1381.8858004029835,1240
1383.9810308463561,1247
1386.075711886469,1236
1388.1698437676241,1253
1390.2634267342032,1222
1392.356461030667,1187
1394.4489469015557,1249
1396.5408845914872,1198
1398.6322743451592,1190
1400.7231164073469,1205
1402.813411022907,1264
1404.903158436773,1264
1406.9923588939578,1239
1409.0810126395531,1244
1411.1691199187303,1225
1413.2566809767386,1200
1415.343696058907,1234
1417.4301654106425,1213
1419.5160892774315,1269
1421.6014679048399,1217
1423.6863015385125,1256
1425.7705904241707,1266
1427.8543348076178,1223
1429.9375349347342,1222
1432.0201910514802,1255
1434.102303403894,1191
1436.1838722380944,1203
1438.2648978002767,1230
1440.3453803367174,1263
1442.4253200937692,1226
1444.5047173178677,1250
1446.5835722555234,1249
1448.6618851533285,1269
1450.739656257952,1206
1452.8168858161434,1239
1454.8935740747306,1244
1456.96972128062,1277
1459.045327680797,1302
1461.120393522327,1269
1463.1949190523528,1261
1465.2689045180973,1250
1467.3423501668608,1251
1469.415256246024,1241
1471.4876230030463,1262
1473.559450685465,1272
1475.6307395408976,1293
1477.7014898170391,1313
1479.771701761665,1270
1481.8413756226287,1279
1483.9105116478618,1293
1485.9791100853772,1241
1488.0471711832643,1299
1490.1146951896926,1300
1492.1816823529098,1291
1494.2481329212433,1266
1496.3140471430984,1211
1498.3794252669609,1295
1500.4442675413939,1243
1502.5085742150404,1332
1504.572345536622,1278
1506.6355817549388,1291
1508.6982831188702,1277
1510.7604498773744,1251
1512.8220822794883,1293
1514.8831805743293,1354
1516.9437450110909,1329
1519.003775839048,1337
1521.0632733075522,1284
1523.1222376660367,1289
1525.1806691640113,1289
1527.2385680510652,1319
1529.2959345768668,1294
1531.3527689911643,1296
1533.4090715437833,1309
1535.4648424846291,1318
1537.5200820636855,1379
1539.5747905310159,1355
1541.6289681367616,1372
1543.6826151311434,1342
1545.7357317644614,1387
1547.7883182870937,1311
1549.8403749494987,1371
1551.8919020022113,1389
1553.9428996958477,1445
1555.9933682811015,1459
1558.0433080087469,1451
1560.0927191296346,1480
1562.1416018946961,1456
1564.1899565549415,1424
1566.2377833614592,1475
1568.2850825654164,1461
1570.3318544180606,1382
1572.3780991707158,1427
1574.423817074788,1425
1576.4690083817595,1430
1578.5136733431923,1399
1580.5578122107272,1412
1582.601425236085,1384
1584.6445126710646,1438
1586.6870747675434,1434
1588.7291117774776,1378
1590.7706239529034,1406
1592.8116115459347,1352
1594.8520748087658,1327
1596.8920139936686,1366
1598.9314293529933,1371
1600.9703211391711,1290
1603.008689604711,1342
1605.0465350022005,1303
1607.0838575843068,1339
1609.1206576037753,1293
1611.1569353134305,1270
1613.1926909661765,1243
1615.2279248149953,1262
1617.2626371129481,1253
1619.2968281131757,1284
1621.3304980688963,1244
1623.3636472334088,1219
1625.39627586009,1200
1627.428384202396,1210
1629.459972513861,1304
1631.4910410480993,1275
1633.5215900588028,1207
1635.551619799744,1237
1637.5811305247717,1206
1639.6101224878166,1151
1641.6385959428862,1201
1643.6665511440683,1208
1645.693988345528,1210
1647.7209078015112,1204
1649.7473097663405,1203
1651.7731944944203,1236
1653.7985622402307,1185
1655.823413258333,1229
1657.847747803366,1198
1659.8715661300494,1141
1661.8948684931793,1222
1663.9176551476316,1193
1665.9399263483624,1146
1667.9616823504057,1198
1669.982923408873,1220
1672.0036497789574,1252
1674.0238617159293,1211
1676.043559475138,1208
1678.0627433120121,1175
1680.081413482059,1176
1682.0995702408654,1179
1684.117213844096,1182
1686.134344547495,1138
1688.1509626068864,1198
1690.1670682781705,1178
1692.182661817329,1182
1694.1977434804217,1156
1696.2123135235875,1185
1698.226372203043,1205
1700.2399197750851,1164
1702.2529564960905,1174
1704.2654826225112,1188
1706.277498410882,1224
1708.2890041178139,1200
1710.2999999999988,1250
1712.3104863142066,1240
1714.3204633172854,1162
1716.329931266163,1150
1718.3388904178469,1181
1720.3473410294214,1202
1722.3552833580516,1195
1724.3627176609807,1194
1726.3696441955308,1242
1728.3760632191033,1225
1730.3819749891782,1167
1732.3873797633146,1166
1734.3922777991502,1177
1736.3966693544012,1192
1738.4005546868639,1204
1740.4039340544127,1192
1742.406807715001,1186
1744.4091759266616,1252
1746.4110389475054,1206
1748.4123970357223,1175
1750.413250449582,1224
1752.4135994474318,1164
1754.4134442876993,1218
1756.4127852288902,1153
1758.4116225295893,1200
1760.4099564484595,1183
1762.407787244244,1165
1764.405115175764,1178
1766.4019405019203,1153
1768.3982634816916,1163
1770.3940843741357,1183
1772.3894034383907,1212
1774.3842209336717,1215
1776.378537119274,1220
1778.372352254571,1214
1780.3656665990156,1174
1782.3584804121397,1156
1784.3507939535534,1132
1786.3426074829463,1183
1788.3339212600863,1185
1790.3247355448211,1158
1792.3150505970766,1195
1794.3048666768573,1145
1796.2941840442477,1232
1798.2830029594106,1191
1800.2713236825884,1198
1802.2591464741004,1180
1804.2464715943465,1147
1806.2332993038058,1198
1808.2196298630352,1178
1810.2054635326708,1164
1812.190800573428,1163
1814.175641246101,1194
1816.1599858115628,1196
1818.1438345307652,1202
1820.127187664738,1152
1822.1100454745924,1178
1824.092408221516,1205
1826.0742761667766,1193
1828.055649571721,1200
1830.0365286977735,1193
1832.0169138064398,1164
1833.9968051593014,1184
1835.9762030180214,1176
1837.9551076443408,1176
1839.9335193000788,1171
1841.9114382471344,1168
1843.888864747485,1194
1845.8657990631878,1141
1847.842241456378,1206
1849.8181921892697,1209
1851.7936515241558,1139
1853.7686197234098,1145
1855.7430970494815,1166
1857.7170837649014,1153
1859.6905801322787,1137
1861.6635864143004,1195
1863.6361028737338,1141
1865.608129773424,1155
1867.5796673762961,1189
1869.5507159453537,1162
1871.521275743678,1211
1873.4913470344313,1165
1875.4609300808534,1185
1877.4300251462632,1155
1879.3986324940588,1130
1881.366752387717,1173
1883.3343850907936,1160
1885.3015308669228,1214
1887.268189979819,1182
1889.2343626932739,1199
1891.2000492711595,1177
1893.1652499774254,1189
1895.1299650761011,1184
1897.0941948312952,1193
1899.0579395071945,1175
1901.0211993680641,1228
1902.98397467825,1196
1904.9462657021745,1183
1906.9080727043415,1179
1908.869395949332,1164
1910.8302357018065,1183
1912.790592226504,1229
1914.7504657882428,1134
1916.7098566519212,1126
1918.6687650825133,1201
1920.6271913450764,1122
1922.5851357047422,1208
1924.5425984267245,1206
1926.499579776314,1198
1928.4560800188833,1185
1930.4120994198802,1227
1932.367638244833,1177
1934.32269675935,1220
1936.2772752291175,1213
1938.231373919899,1227
1940.1849930975404,1231
1942.1381330279637,1219
1944.0907939771696,1168
1946.0429762112412,1209
1947.9946799963363,1202
1949.9459055986945,1217
1951.896653284633,1154
1953.8469233205478,1194
1955.7967159729142,1218
1957.7460315082863,1164
1959.6948701932974,1155
1961.6432322946594,1155
1963.5911180791632,1229
1965.5385278136787,1151
1967.4854617651545,1192
1969.4319202006182,1211
1971.377903387176,1233
1973.3234115920136,1223
1975.268445082395,1153
1977.2130041256642,1194
1979.1570889892423,1159
1981.1006999406304,1186
1983.04383724741,1183
1984.986501177238,1243
1986.928691997853,1195
1988.8704099770712,1179
1990.811655382789,1209
1992.7524284829801,1171
1994.692729545698,1172
1996.6325588390755,1181
1998.5719166313224,1204
2000.5108031907307,1164
2002.4492187856677,1271
2004.387163684583,1205
2006.3246381560011,1260
2008.2616424685298,1219
2010.1981768908527,1145
2012.1342416917332,1229
2014.069837140014,1222
2016.0049635046162,1212
2017.9396210545406,1131
2019.8738100588666,1166
2021.8075307867502,1145
2023.740783507431,1158
2025.6735684902228,1144
2027.6058860045214,1166
2029.5377363198004,1132
2031.4691197056118,1199
2033.4000364315875,1188
2035.3304867674374,1153
2037.260470982952,1145
2039.189989347998,1102
2041.1190421325232,1166
2043.047629606554,1160
2044.9757520401945,1164
2046.9034097036288,1204
2048.8306028671195,1195
2050.7573318010086,1168
2052.683596775716,1128
2054.609398061742,1206
2056.5347359296647,1196
2058.4596106501403,1161
2060.384022493906,1159
2062.3079717317764,1162
2064.231458634646,1199
2066.1544834734873,1143
2068.077046519352,1156
2069.99914804337,1181
2071.9207883167524,1179
2073.8419676107865,1132
2075.7626861968406,1186
2077.6829443463607,1131
2079.6027423308715,1175
2081.522080421977,1165
2083.440958891362,1174
2085.359378010786,1149
2087.2773380520907,1166
2089.194839287196,1164
2091.111881988101,1239
2093.0284664268825,1177
2094.9445928756973,1139
2096.86026160678,1169
2098.775472892446,1174
2100.690227005088,1148
2102.604524217178,1093
2104.5183648012676,1135
2106.431749029985,1165
2108.34467717604,1178
2110.2571495122206,1190
2112.169166311393,1160
2114.080727846503,1166
2115.9918343905747,1163
2117.902486216711,1160
2119.8126835980956,1196
2121.722426807987,1174
2123.6317161197285,1147
2125.5405518067364,1127
2127.448934142509,1142
2129.356863400624,1218
2131.264339854737,1165
2133.1713637785815,1178
2135.077935445972,1213
2136.9840551308002,1206
2138.889723107037,1173
2140.7949396487334,1155
2142.699705030018,1128
2144.6040195250994,1175
2146.507883408264,1158
2148.4112969538774,1160
2150.3142604363848,1143
2152.2167741303097,1191
2154.1188383102535,1156
2156.0204532508997,1194
2157.9216192270064,1185
2159.822336513414,1141
2161.7226053850413,1194
2163.622426116884,1161
2165.5217989840185,1152
2167.4207242616,1181
2169.319202224862,1154
2171.2172331491165,1214
2173.1148173097563,1182
2175.0119549822507,1161
2176.90864644215,1197
2178.8048919650823,1221
2180.7006918267534,1134
2182.596046302952,1164
2184.4909556695407,1202
2186.3854202024645,1172
2188.279440177746,1171
2190.173015871487,1177
2192.066147559868,1177
2193.958835519149,1154
2195.851080025667,1153
2197.7428813558417,1186
2199.6342397861667,1210
2201.5251555932186,1178
2203.415629053651,1157
2205.3056604441986,1183
2207.19525004167,1201
2209.084398122958,1196
2210.9731049650327,1227
2212.861370844941,1215
2214.749196039812,1241
2216.636580826851,1175
2218.523525483344,1232
2220.410030286655,1186
2222.296095514226,1231
2224.1817214435805,1189
2226.066908352319,1157
2227.951656518121,1143
2229.835966218746,1209
2231.71983773203,1164
2233.6032713358913,1240
2235.486267308324,1211
2237.3688259274036,1215
2239.2509474712824,1211
2241.132632218193,1213
2243.013880446447,1254
2244.8946924344323,1244
2246.7750684606203,1205
2248.6550088035574,1235
2250.534513741871,1235
2252.413583554265,1214
2254.292218519526,1233
2256.170418916517,1209
2258.0481850241786,1170
2259.925517121534,1246
2261.8024154876825,1160
2263.678880401803,1237
2265.5549121431536,1251
2267.430510991071,1268
2269.305677224971,1271
2271.180411124348,1244
2273.0547129687766,1211
2274.9285830379076,1217
2276.8020216114737,1191
2278.6750289692845,1175
2280.5476053912294,1166
2282.4197511572766,1227
2284.2914665474727,1257
2286.162751841943,1240
2288.0336073208937,1228
2289.904033264608,1264
2291.774029953448,1200
2293.6435976678554,1239
2295.5127366883517,1276
2297.381447295534,1203
2299.2497297700825,1185
2301.1175843927526,1176
2302.9850114443825,1183
2304.852011205885,1165
2306.7185839582553,1104
2308.5847299825664,1127
2310.4504495599676,1098
2312.3157429716925,1038
2314.1806104990483,1105
2316.0450524234247,1091
2317.9090690262888,1080
2319.772660589186,1107
2321.635827393742,1102
2323.498569721661,1086
2325.3608878547248,1110
2327.2227820747967,1065
2329.0842526638157,1068
2330.945299903803,1045
2332.805924076857,1048
2334.6661254651535,1067
2336.525904350951,1075
2338.3852610165827,1031
2340.244195744464,1087
2342.102708817088,1079
2343.9608005170253,1064
2345.8184711269287,1096
2347.675720929526,1046
2349.532550207628,1068
2351.38895924412,1051
2353.24494832197,1096
2355.100517724223,1063
2356.955667734004,1112
2358.810398634514,1020
2360.664710709037,1125
2362.5186042409337,1107
2364.3720795136437,1083
2366.225136810686,1071
2368.0777764156583,1067
2369.929998612237,1056
2371.7818036841777,1071
2373.633191915315,1093
2375.484163589562,1051
2377.3347189909114,1035
2379.184858403434,1112
2381.03458211128,1071
2382.8838903986775,1127
2384.732783549936,1061
2386.5812618494406,1043
2388.4293255816588,1045
2390.2769750311327,1100
2392.1242104824883,1089
2393.971032220427,1060
2395.8174405297295,1078
2397.6634356952563,1087
2399.509018001947,1062
2401.3541877348193,1067
2403.1989451789705,1069
2405.043290619576,1080
2406.8872243418905,1061
2408.730746631247,1058
2410.5738577730594,1089
2412.4165580528183,1088
2414.258847756095,1111
2416.100727168537,1067
2417.9421965758734,1080
2419.783256263912,1149
2421.623906518538,1105
2423.4641476257157,1099
2425.303979871491,1083
2427.143403541984,1125
2428.9824189233977,1106
2430.821026302012,1124
2432.6592259641866,1123
2434.497018196361,1087
2436.33440328505,1093
2438.171381516851,1106
2440.00795317844,1108
2441.844118556569,1080
2443.6798779380724,1079
2445.5152316098606,1110
2447.3501798589255,1079
2449.1847229723357,1059
2451.0188612372403,1057
2452.8525949408663,1086
2454.6859243705203,1088
2456.518849813587,1107
2458.3513715575314,1040
2460.183489889895,1121
2462.015205098301,1133
2463.8465174704493,1083
2465.67742729412,1067
2467.5079348571717,1070
2469.338040447542,1146
2471.1677443532476,1079
2472.9970468623833,1110
2474.825948263123,1032
2476.6544488437207,1099
2478.482548892508,1095
2480.310248697896,1043
2482.137548548374,1095
2483.9644487325118,1043
2485.790949538956,1045
2487.617051256433,1026
2489.44275417375,1035
2491.26805857979,1071
2493.0929647635157,1040
2494.917473013971,1097
2496.741583620276,1065
2498.5652968716304,1078
2500.3886130573137,1099
2502.2115324666834,1059
2504.0340553891765,1096
2505.856182114308,1098
2507.6779129316733,1054
2509.499248130945,1107
2511.3201880018764,1119
2513.140732834298,1080
2514.9608829181198,1063
2516.780638543331,1106
2518.6,1112
2520.418967578273,1103
2522.237541568376,1090
2524.0557222606144,1062
2525.8735099453706,1089
2527.6909049131086,1095
2529.507907454368,1045
2531.32451785977,1070
2533.140736420014,1084
2534.9565634258774,1083
2536.771999168218,1068
2538.5870439379714,1072
2540.4016980261526,1088
2542.2159617238544,1093
2544.02983532225,1089
2545.8433191125914,1118
2547.656413386209,1097
2549.4691184345115,1112
2551.2814345489874,1149
2553.093362021204,1161
2554.904901142808,1099
2556.716052205523,1106
2558.526815501153,1100
2560.3371913215824,1054
2562.147179958771,1094
2563.956781704761,1122
2565.7659968516705,1127
2567.5748256916986,1109
2569.3832685171224,1107
2571.1913256202984,1111
2572.9989972936614,1092
2574.806283829725,1093
2576.613185521084,1104
2578.4197026604074,1110
2580.2258355404483,1109
2582.031584454035,1094
2583.836949694077,1118
2585.6419315535613,1116
2587.4465303255533,1135
2589.2507463032002,1119
2591.0545797797245,1142
2592.8580310484303,1102
2594.6611004026995,1117
2596.463788135992,1110
2598.266094541849,1092
2600.0680199138874,1096
2601.869564545807,1113
2603.670728731383,1122
2605.4715127644704,1067
2607.2719169390048,1123
2609.071941548998,1133
2610.8715868885433,1117
2612.670853251811,1143
2614.469740933052,1061
2616.268250226594,1106
2618.0663814268455,1084
2619.864134828292,1118
2621.6615107255006,1143
2623.458509413115,1102
2625.2551311858597,1116
2627.0513763385347,1106
2628.8472451660223,1053
2630.6427379632833,1099
2632.4378550253564,1151
2634.232596647359,1091
2636.026963124488,1132
2637.8209547520187,1099
2639.6145718253065,1082
2641.407814639785,1102
2643.200683490966,1078
2644.9931786744414,1088
2646.7853004858807,1060
2648.577049221034,1089
2650.3684251757277,1140
2652.1594286458712,1093
2653.9500599274484,1135
2655.740319316525,1067
2657.5302071092437,1120
2659.3197236018286,1100
2661.10886909058,1057
2662.8976438718782,1076
2664.686048242183,1104
2666.4740824980327,1105
2668.2617469360443,1139
2670.0490418529134,1179
2671.8359675454153,1086
2673.622524310403,1153
2675.408712444811,1063
2677.1945322456495,1095
2678.979984010009,1102
2680.76506803506,1067
2682.5497846180497,1107
2684.334134056306,1035
2686.1181166472343,1100
2687.9017326883213,1136
2689.6849824771293,1077
2691.4678663113013,1087
2693.2503844885596,1150
2695.032537306705,1083
2696.8143250636167,1137
2698.5957480572542,1076
2700.3768065856534,1098
2702.1575009469316,1062
2703.937831439283,1065
2705.717798360982,1076
2707.4974020103837,1074
2709.276642685917,1088
2711.055520686095,1055
2712.834036309506,1055
2714.612189854819,1077
2716.389981620782,1092
2718.1674119062204,1060
2719.944481010041,1056
2721.721189231226,1108
2723.4975368688415,1056
2725.273524222027,1061
2727.0491515900053,1080
2728.824419272075,1132
2730.5993275676146,1080
2732.3738767760838,1101
2734.148067197016,1084
2735.921899130031,1063
2737.6953728748194,1091
2739.468488731156,1073
2741.2412469988926,1072
2743.0136479779617,1064
2744.785691968372,1061
2746.5573792702116,1067
2748.3287101836504,1070
2750.099685008934,1118
2751.870304046388,1106
2753.640567596418,1113
2755.4104759595057,1069
2757.1800294362156,1076
2758.949228327187,1070
2760.7180729331412,1102
2762.486563554877,1066
2764.254700493272,1109
2766.022484049284,1043
2767.789914523947,1058
2769.5569922183786,1059
2771.3237174337705,1068
2773.090090471394,1078
2774.8561116326036,1069
2776.6217812188274,1057
2778.3870995315756,1054
2780.1520668724356,1068
2781.9166835430747,1036
2783.6809498452394,1026
2785.444866080754,1058
2787.2084325515225,1064
2788.971649559527,1053
2790.73451740683,1130
2792.4970363955713,1130
2794.2592068279705,1063
2796.0210290063264,1062
2797.7825032330147,1080
2799.543629810493,1062
2801.304409041296,1096
2803.0648412280366,1037
2804.8249266734088,1132
2806.5846656801846,1075
2808.344058551212,1075
2810.1031055894246,1060
2811.8618070978273,1047
2813.6201633795085,1049
2815.378174737636,1031
2817.1358414754536,1087
2818.893163896285,1104
2820.6501423035334,1101
2822.4067770006814,1089
2824.1630682912883,1107
2825.9190164789957,1078
2827.6746218675207,1101
2829.429884760661,1087
2831.184805462294,1118
2832.9393842763743,1105
2834.693621506936,1078
2836.4475174580916,1100
2838.201072434034,1097
2839.954286739034,1038
2841.707160677441,1060
2843.459694553685,1028
2845.2118886722724,1087
2846.96374333779,1097
2848.7152588549034,1082
2850.4664355283567,1054
2852.217273662973,1078
2853.9677735636546,1091
2855.7179355353833,1117
2857.4677598832186,1090
2859.217246912299,1095
2860.9663969278427,1075
2862.715210235146,1067
2864.4636871395846,1056
2866.211827946614,1074
2867.9596329617652,1082
2869.7071024906536,1079
2871.4542368389684,1080
2873.20103631248,1042
2874.947501217038,1051
2876.6936318585695,1040
2878.4394285430812,1101
2880.1848915766604,1103
2881.9300212654707,1084
2883.6748179157553,1088
2885.4192818338374,1062
2887.1634133261173,1036
2888.907212699077,1101
2890.6506802592744,1097
2892.393816313348,1107
2894.1366211680142,1104
2895.8790951300693,1102
2897.621238506388,1087
2899.363051603925,1067
2901.1045347297118,1115
2902.8456881908596,1053
2904.58651229456,1026
2906.327007348081,1109
2908.067173658772,1079
2909.8070115340597,1072
2911.5465212814497,1066
2913.285703208527,1092
2915.0245576229563,1071
2916.7630848324807,1065
2918.5012851449196,1128
2920.2391588681758,1034
2921.976706310227,1078
2923.7139277791334,1044
2925.4508235830313,1090
2927.187394030137,1062
2928.923639428745,1101
2930.6595600872306,1107
2932.395156314046,1095
2934.1304284177218,1079
2935.8653767068713,1115
2937.6000014901815,1067
2939.3343030764227,1084
2941.068281774442,1036
2942.8019378931644,1050
2944.5352717415976,1026
2946.2682836288236,1057
2948.0009738640065,1057
2949.7333427563885,1112
2951.465390615289,1052
2953.1971177501086,1113
2954.9285244703265,1064
2956.6596110855,1072
2958.3903779052657,1084
2960.1208252393385,1088
2961.8509533975125,1123
2963.5807626896617,1103
2965.3102534257378,1052
2967.0394259157715,1024
2968.768280469873,1005
2970.496817398232,1078
2972.2250370111146,1090
2973.952939618869,1076
2975.6805255319196,1069
2977.4077950607707,1069
2979.134748516006,1073
2980.861386208289,1039
2982.587708448359,1039
2984.313715547037,1085
2986.039407815222,1086
2987.764785563891,1039
2989.489849104102,1068
2991.2145987469908,1092
2992.9390348037705,1142
2994.6631575857346,1025
2996.3869674042576,1065
2998.1104645707887,1035
2999.83364939686,1052
3001.5565221940783,1051
3003.2790832741334,1111
3005.0013329487924,1065
3006.7232715298996,1079
3008.4448993293804,1031
3010.166216659239,1046
3011.887223831558,1036
3013.607921158498,1088
3015.3283089522993,1084
3017.0483875252826,1059
3018.7681571898443,1079
3020.4876182584626,1101
3022.2067710436927,1055
3023.9256158581707,1041
3025.644153014609,1092
3027.362382825801,1076
3029.0803056046193,1070
3030.797921664012,1068
3032.5152313170106,1029
3034.2322348767225,1051
3035.9489326563353,1061
3037.665324969115,1075
3039.3814121284063,1113
3041.097194447633,1029
3042.812672240299,1055
3044.5278458199855,1073
3046.2427155003525,1057
3047.9572815951406,1076
3049.671544418167,1043
3051.38550428333,1079
3053.0991615046073,1094
3054.812516396051,1068
3056.5255692717974,1102
3058.2383204460575,1034
3059.9507702331257,1046
3061.662918947372,1060
3063.3747669032446,1058
3065.0863144152736,1074
3066.7975617980674,1011
3068.508509366309,1051
3070.219157434767,1009
3071.9295063182844,1052
3073.639556331785,1027
3075.3493077902704,1025
3077.058761008821,1050
3078.7679163025964,1070
3080.476773986837,1072
3082.1853343768594,1084
3083.89359778806,1013
3085.6015645359153,1062
3087.3092349359786,1019
3089.016609303884,1072
3090.7236879553434,1041
3092.4304712061476,1072
3094.136959372166,1079
3095.843152769349,1061
3097.5490517137237,1051
3099.2546565213966,1004
3100.959967508554,1041
3102.66498499146,1068
3104.3697092864577,1054
3106.0741407099695,1085
3107.778279578498,1060
3109.482126208622,1026
3111.1856809170004,1064
3112.8889440203716,1051
3114.5919158355528,1050
3116.294596679439,1089
3117.996986869006,1059
3119.6990867213062,1057
3121.4008965534726,1022
3123.102416682717,1055
3124.803647426329,1064
3126.5045891016784,1042
3128.205242026213,1078
3129.90560651746,1069
3131.605682893025,1088
3133.3054714705922,1047
3135.0049725679282,1044
3136.7041865028714,1046
3138.4031135933465,1022
3140.101754157353,1016
3141.800108512971,1069
3143.498176978357,1040
3145.1959598717494,1025
3146.8934575114636,1060
3148.5906702158954,1062
3150.2875983035183,1059
3151.9842420928853,1074
3153.680601902627,1060
3155.376678051456,1031
3157.07247085816,1035
3158.767980641609,1042
3160.463207720748,1061
3162.158152414606,1068
3163.8528150422862,1050
3165.5471959229726,1070
3167.2412953759303,1075
3168.9351137204976,1056
3170.628651276098,1051
3172.3219083622307,1047
3174.014885298474,1077
3175.707582404485,1023
3177.4000000000005,1045
3179.092138404835,1058
3180.7839979388846,1073
3182.47557892212,1102
3184.166881674594,1074
3185.8579065164386,1102
3187.5486537678626,1049
3189.2391237491547,1071
3190.9293167806827,1062
3192.6192331828934,1040
3194.3088732763117,1028
3195.998237381542,973
3197.687325819268,1052
3199.376138910251,1001
3201.064676975334,1026
3202.7529403354347,1063
3204.4409293115523,1067
3206.1286442247647,1047
3207.816085396229,1042
3209.5032531471825,1002
3211.190147798936,1029
3212.8767696728846,1068
3214.5631190905015,1033
3216.2491963733373,1084
3217.9350018430214,1067
3219.6205358212637,1063
3221.305798629851,1042
3222.990790590651,1056
3224.6755120256103,1031
3226.359963256751,1072
3228.0441446061795,1040
3229.7280563960758,1072
3231.411698948703,1044
3233.0950725863995,1037
3234.778177631587,1022
3236.461014406761,1098
3238.1435832345005,1051
3239.8258844374595,1077
3241.507918338374,1029
3243.1896852600576,1080
3244.8711855254023,1041
3246.552419457381,1026
3248.233387379042,1040
3249.914089613516,1041
3251.59452648401,1095
3253.274698313813,1048
3254.95460542629,1056
3256.6342481448855,999
3258.313626793125,1032
3259.9927416946084,1059
3261.6715931730196,1051
3263.3501815521176,1071
3265.0285071557437,1022
3266.706570307815,1020
3268.3843713323286,1008
3270.0619105533615,1091
3271.739188295068,1033
3273.4162048816834,1056
3275.0929606375184,1062
3276.769455886966,1082
3278.445690954498,1053
3280.1216661646613,1088
3281.797381842087,1059
3283.4728383114807,1087
3285.1480358976296,996
3286.8229749253996,1098
3288.4976557197333,1043
3290.172078605655,1043
3291.846243908266,1071
3293.5201519527463,1033
3295.193803064357,1070
3296.8671975684374,1014
3298.5403357904024,1088
3300.21321805575,1037
3301.8858446900567,1056
3303.558216018975,1049
3305.23033236824,1056
3306.9021940636603,1064
3308.57380143113,1057
3310.2451547966184,1059
3311.916254486174,1067
3313.5871008259246,1082
3315.2576941420766,1035
3316.9280347609147,1070
3318.5981230088046,1036
3320.2679592121895,1037
3321.9375436975924,1024
3323.606876791612,1020
3325.27595882093,1058
3326.944790112305,991
3328.6133709925753,1028
3330.2817017886573,1033
3331.949782827547,1037
3333.617614436319,1057
3335.2851969421245,1040
3336.952530672199,1067
3338.619615953853,1011
3340.286453114475,1059
3341.9530424815357,1042
3343.619384382583,1070
3345.2854791452437,1095
3346.951327097224,1048
3348.6169285663073,1080
3350.2822838803577,1107
3351.947393367319,1070
3353.61225735521,1068
3355.2768761721345,1107
3356.9412501462693,1065
3358.605379605873,1066
3360.2692648792827,1050
3361.9329062949146,1072
3363.596304181263,1025
