CollectionTime,7/9/2024 3:51:52 PM
ExposureUsed,3
CalibratedSpectrum
-962.7078968117929,973
-959.9714848408522,1060
-957.2358232597828,1047
-954.5009119013725,1040
-951.7667505983302,1055
-949.0333391832855,1110
-946.3006774887896,1074
-943.5687653473143,1028
-940.837602591253,1099
-938.1071890529199,1083
-935.3775245645503,1122
-932.6486089583007,1087
-929.9204420662485,1078
-927.1930237203925,1037
-924.4663537526524,1049
-921.7404319948689,1132
-919.0152582788041,1133
-916.2908324361409,1121
-913.5671542984834,1146
-910.8442236973568,1069
-908.1220404642074,1057
-905.4006044304027,1129
-902.679915427231,1078
-899.959973285902,1077
-897.2407778375464,1058
-894.5223289132158,1034
-891.8046263438832,1077
-889.0876699604426,1049
-886.3714595937089,1074
-883.6559950744183,1043
-880.9412762332282,1059
-878.2273029007168,1101
-875.5140749073835,1082
-872.8015920836489,1051
-870.0898542598545,1052
-867.3788612662631,1049
-864.6686129330585,1072
-861.9591090903457,1061
-859.2503495681506,1072
-856.5423341964203,1100
-853.8350628050229,1128
-851.1285352237478,1092
-848.4227512823054,1054
-845.7177108103272,1056
-843.0134136373656,1082
-840.3098595928943,1081
-837.6070485063082,1094
-834.9049802069229,1089
-832.2036545239757,1116
-829.5030712866244,1128
-826.8032303239481,1089
-824.1041314649472,1082
-821.4057745385428,1099
-818.7081593735775,1093
-816.0112857988148,1123
-813.3151536429393,1098
-810.6197627345566,1099
-807.9251129021936,1113
-805.2312039742981,1184
-802.5380357792392,1154
-799.8456081453069,1127
-797.1539209007124,1154
-794.462973873588,1098
-791.772766891987,1125
-789.083299783884,1127
-786.3945723771743,1144
-783.7065844996748,1157
-781.0193359791231,1109
-778.3328266431781,1155
-775.6470563194197,1145
-772.9620248353489,1157
-770.2777320183878,1113
-767.5941776958798,1181
-764.9113616950891,1143
-762.2292838432011,1167
-759.5479439673222,1223
-756.8673418944801,1104
-754.1874774516235,1205
-751.5083504656222,1138
-748.8299607632671,1171
-746.15230817127,1154
-743.475392516264,1159
-740.7992136248035,1166
-738.1237713233636,1120
-735.4490654383407,1208
-732.7750957960521,1178
-730.1018622227365,1180
-727.4293645445534,1176
-724.7576025875837,1138
-722.0865761778291,1206
-719.4162851412126,1163
-716.7467293035781,1218
-714.0779084906909,1209
-711.409822528237,1193
-708.7424712418238,1196
-706.0758544569796,1198
-703.4099719991541,1236
-700.7448236937178,1257
-698.0804093659622,1261
-695.4167288411002,1241
-692.7537819442656,1232
-690.0915685005134,1244
-687.4300883348199,1261
-684.7693412720819,1272
-682.1093271371178,1213
-679.4500457546669,1262
-676.7914969493897,1235
-674.1336805458676,1178
-671.4765963686034,1244
-668.8202442420206,1244
-666.1646239904642,1267
-663.5097354382001,1323
-660.8555784094151,1286
-658.2021527282176,1295
-655.5494582186366,1250
-652.8974947046223,1330
-650.2462620100463,1292
-647.5957599587009,1317
-644.9459883742998,1241
-642.2969470804776,1317
-639.6486359007902,1324
-637.0010546587141,1336
-634.3542031776476,1341
-631.7080812809096,1381
-629.0626887917401,1324
-626.4180255333008,1309
-623.7740913286734,1335
-621.1308860008619,1367
-618.4884093727904,1418
-615.8466612673046,1376
-613.2056415071715,1377
-610.5653499150785,1368
-607.9257863136347,1359
-605.28695052537,1400
-602.6488423727357,1343
-600.0114616781036,1352
-597.3748082637674,1368
-594.7388819519412,1343
-592.1036825647604,1425
-589.4692099242818,1384
-586.8354638524829,1368
-584.2024441712624,1335
-581.5701507024403,1391
-578.9385832677575,1458
-576.3077416888759,1414
-573.6776257873787,1439
-571.0482353847704,1378
-568.4195703024757,1408
-565.7916303618415,1451
-563.164415384135,1403
-560.5379251905453,1440
-557.9121596021815,1369
-555.2871184400748,1387
-552.6628015251767,1440
-550.0392086783606,1470
-547.4163397204204,1434
-544.794194472071,1489
-542.1727727539491,1424
-539.5520743866118,1418
-536.9320991905377,1444
-534.3128469861261,1536
-531.6943175936979,1488
-529.0765108334947,1563
-526.4594265256793,1569
-523.8430644903358,1713
-521.2274245474689,1784
-518.612506517005,1803
-515.9983102187913,1806
-513.3848354725959,1853
-510.77208209810846,1842
-508.16004991493924,1892
-505.5487387426199,2000
-502.9381484006032,2174
-500.3282787082628,2192
-497.71912948489364,2207
-495.1107005497117,2173
-492.5029917218539,1927
-489.8960028203786,1862
-487.28973366426493,1870
-484.68418407241325,1686
-482.07935386364494,1678
-479.47524285670266,1671
-476.87185087025,1618
-474.2691777228715,1585
-471.66722323307334,1610
-469.0659872192821,1647
-466.4654694998459,1689
-463.86566989303384,1622
-461.26658821703614,1698
-458.66822428996414,1686
-456.07057792985,1665
-453.4736489546475,1663
-450.877437182231,1629
-448.28194243039627,1649
-445.68716451686,1685
-443.09310325926003,1628
-440.49975847515555,1650
-437.9071299820263,1580
-435.31521759727354,1558
-432.72402113821954,1679
-430.13354042210767,1648
-427.5437752661022,1718
-424.95472548728867,1648
-422.36639090267386,1599
-419.7787713291855,1727
-417.1918665836721,1749
-414.60567648290385,1753
-412.0202008435715,1693
-409.4354394822874,1766
-406.8513922155845,1802
-404.26805885991723,1787
-401.685439231661,1790
-399.103533147112,1801
-396.522340422488,1778
-393.9418608739278,1760
-391.3620943174908,1689
-388.7830405691583,1691
-386.2046994448317,1566
-383.6270707603344,1510
-381.05015433141045,1408
-378.473949973725,1285
-375.8984575028645,1235
-373.32367673433623,1078
-370.74960748356875,992
-368.1762495659117,932
-365.60360279663576,785
-363.03166699093265,687
-360.4604419639154,643
-357.8899275306178,565
-355.32012350599507,566
-352.7510297049233,554
-350.1826459421999,522
-347.61497203254316,518
-345.04800779059235,521
-342.4817530309082,485
-339.91620756797226,527
-337.35137121618743,555
-334.7872437898774,514
-332.22382510328725,558
-329.66111497058273,500
-327.09911320585127,484
-324.53781962310075,516
-321.9772340362607,542
-319.4173562591816,504
-316.8581861056348,511
-314.2997233893127,502
-311.7419679238294,485
-309.1849195227194,507
-306.62857799943856,534
-304.0729431673641,509
-301.51801483979375,494
-298.963792829947,545
-296.41027695096386,593
-293.85746701590574,633
-291.3053628377552,595
-288.7539642294155,580
-286.2032710037115,568
-283.65328297338897,605
-281.1039999511146,655
-278.5554217494762,642
-276.007548180983,547
-273.4603790580651,533
-270.9139141930734,553
-268.3681533982807,661
-265.8230964858798,616
-263.27874326798565,618
-260.7350935566336,666
-258.1921471637804,723
-255.6499039013039,695
-253.10836358100266,710
-250.56752601459698,639
-248.02739101372765,647
-245.48795838995704,737
-242.94922795476816,697
-240.41119951956557,758
-237.8738728956746,832
-235.33724789434166,839
-232.80132432673452,767
-230.2661020039418,690
-227.73158073697357,698
-225.19776033676033,812
-222.66464061415422,752
-220.1322213799284,729
-217.60050244477725,726
-215.06948361931552,781
-212.53916471408013,901
-210.00954553952818,875
-207.48062590603843,764
-204.9524056239104,681
-202.4248845033651,781
-199.8980623545441,908
-197.37193898751036,888
-194.84651421224817,915
-192.32178783866232,855
-189.79775967657952,851
-187.27442953574644,937
-184.7517972258321,1063
-182.2298625564256,918
-179.7086253370378,846
-177.18808537710026,880
-174.66824248596583,1004
-172.14909647290835,1221
-169.6306471471229,1059
-167.11289431772548,927
-164.59583779375328,851
-162.07947738416453,933
-159.5638128978386,1032
-157.04884414357605,1144
-154.53457093009854,1400
-152.02099306604828,1332
-149.50811035998936,1008
-146.99592262040665,1081
-144.48442965570587,1282
-141.97363127421409,1210
-139.46352728417958,1130
-136.95411749377126,1265
-134.44540171107985,1186
-131.93737974411636,1285
-129.43005140081357,1924
-126.92341648902493,3228
-124.41747481652521,3796
-121.91222619101006,3334
-119.40767042009657,2726
-116.90380731132257,2982
-114.40063667214702,2645
-111.8981583099503,2567
-109.3963720320337,4626
-106.89527764561933,9243
-104.39487495785067,12296
-101.89516377579241,13549
-99.39614390642998,14492
-96.89781515667039,17218
-94.40017733334128,18954
-91.90323024319173,16277
-89.40697369289148,11403
-86.91140748903172,6208
-84.41653143812482,6058
-81.92234534660395,11174
-79.42884902082358,16874
-76.93604226705907,20862
-74.4439248915071,22052
-71.95249670028534,22710
-69.46175749943245,22412
-66.97170709490854,20377
-64.48234529259423,16045
-61.99367189829195,12187
-59.50568671772464,9979
-57.01838955653636,8092
-54.53178022029283,8022
-52.045858514480074,10267
-49.560624244506016,12962
-47.07607721569923,13482
-44.59221723330904,12736
-42.10904410250669,11828
-39.62655762838392,9825
-37.14475761595372,8020
-34.66364387015028,7570
-32.18321619582866,8156
-29.70347439776515,9200
-27.224418280657005,11358
-24.74604764912317,14374
-22.26836230770266,23756
-19.7913620608565,47343
-17.315046712966478,65038
-14.83941606833514,65038
-12.36446993118659,65038
-9.89020810566592,65038
-7.416630395839093,65038
-4.94373660569363,65038
-2.471526539137585,65038
-6.821210263296962E-13,65038
2.47084320796705,65038
4.941003281093458,65038
7.410480415786196,65038
9.879274808531363,65038
12.347386655893956,65038
14.814816154518212,65038
17.28156350112681,65038
19.74762889252179,65038
22.21301252558385,65038
24.67771459727237,20932
27.141735304626195,4172
29.605074844762612,3013
32.06773341487792,2543
34.52971121224755,2025
36.99100843422559,1950
39.45162527824516,1988
41.91156194181792,1833
44.370818622535126,1687
46.82939551806646,1562
49.287292826160524,1881
51.74451074464503,2115
54.201049471426245,1798
56.65690920448981,1460
59.112090141899785,1163
61.56659248179983,1216
64.02041642241159,1241
66.4735621620365,1438
68.92602989905402,1446
71.37781983192338,1559
73.82893215918205,1365
76.27936707944684,1094
78.72912479141326,1183
81.17820549385567,1242
83.62660938562783,1209
86.07433666566146,1184
88.5213875329681,1033
90.96776218663751,994
93.41346082583925,1136
95.85848364982041,1430
98.30283085790859,1502
100.7465026495089,1197
103.18949922410604,1303
105.63182078126385,1176
108.07346752062438,1163
110.51443964190923,1205
112.95473734491827,1053
115.39436082953114,1074
117.83331029570547,936
120.27158594347827,922
122.7091879729652,1014
125.1461165843615,1155
127.58237197794062,971
130.01795435405518,952
132.4528639131364,1107
134.88710085569494,1169
137.32066538231982,1115
139.75355769367923,1133
142.1857779905207,1045
144.61732647366978,1008
147.04820334403132,880
149.47840880258934,924
151.90794305040674,1034
154.33680628862487,1160
156.76499871846443,1337
159.19252054122433,1548
161.61937195828352,1756
164.04555317109896,1924
166.47106438120693,2127
168.89590579022217,2483
171.320077599839,2645
173.7435800118302,2845
176.16641322804742,2933
178.58857745042144,3096
181.01007288096173,3288
183.43089972175687,3364
185.85105817497413,3312
188.27054844285988,3297
190.6893707277394,3383
193.10752523201643,3392
195.5250121581745,3638
197.9418317087751,3809
200.3579840864594,3733
202.7734694939469,3632
205.18828813403627,3748
207.6024402096051,3834
210.01592592360964,3932
212.42874547908548,3800
214.84089907914665,3825
217.2523869269868,3730
219.66320922587727,3786
222.0733661791695,3791
224.48285799029293,3820
226.8916848627572,3918
229.29984700014882,3912
231.7073446061355,3892
234.11417788446204,3835
236.520347038953,3948
238.92585227351185,3965
241.33069379212054,3869
243.73487179884035,4074
246.1383864978112,4008
248.541238093252,3998
250.9434267894609,4045
253.34495279081432,4044
255.74581630176783,3919
258.1460175268563,3988
260.54555667069314,3900
262.9444339379703,3879
265.3426495334594,3941
267.7402036620107,3927
270.1370965285529,3842
272.53332833809407,3888
274.9288992957214,3802
277.32380960660055,3709
279.718059475976,3673
282.1116491091717,3726
284.5045787115897,3744
286.89684848871195,3682
289.2884586460981,3792
291.67940938938807,3858
294.0697009242996,3862
296.4593334566299,3779
298.84830719225477,3693
301.23662233712923,3720
303.6242790972866,3728
306.01127767884,3691
308.39761828798066,3727
310.78330113097934,3692
313.16832641418534,3589
315.5526943440269,3524
317.9364051270112,3546
320.3194589697242,3483
322.70185607883093,3552
325.0835966610754,3619
327.4646809232805,3451
329.8451090723478,3575
332.2248813152577,3538
334.6039978590701,3488
336.9824589109231,3535
339.36026467803447,3499
341.7374153677,3499
344.113911187295,3319
346.48975234427337,3409
348.8649390461686,3547
351.2394715005918,3355
353.61334991523415,3371
355.9865744978655,3480
358.35914545633375,3358
360.73106299856715,3569
363.10232733257146,3431
365.47293866643247,3437
367.84289720831396,3299
370.2122031664593,3506
372.5808567491905,3340
374.9488581649083,3416
377.31620762209275,3393
379.6829053293021,3366
382.0489514951745,3341
384.4143463284262,3409
386.7790900378528,3407
389.14318283232853,3387
391.50662492080653,3360
393.86941651231916,3316
396.23155781597745,3298
398.5930490409713,3370
400.9538903965696,3344
403.3140820921202,3282
405.6736243370498,3322
408.03251734086336,3359
410.3907613131465,3247
412.74835646356166,3294
415.10530300185144,3319
417.4616011378372,3330
419.81725108141893,3292
422.1722530425758,3288
424.5266072313656,3398
426.880313857925,3270
429.2333731324701,3446
431.58578526529516,3298
433.9375504667738,3460
436.2886689473588,3425
438.63914091758113,3292
440.9889665880513,3186
443.33814616945835,3375
445.68667987257015,3298
448.03456790823395,3232
450.3818104873759,3273
452.72840782100013,3131
455.07436012019105,3266
457.41966759611057,3256
459.7643304600007,3328
462.10834892318155,3303
464.4517231970525,3215
466.79445349309174,3212
469.1365400228566,3340
471.4779829979826,3299
473.81878263018564,3338
476.15893913125876,3326
478.4984527130747,3401
480.8373235875855,3431
483.17555196682144,3486
485.5131380628919,3518
487.8500820879857,3528
490.1863842543697,3733
492.52204477439034,3932
494.8570638604725,4088
497.1914417251204,4333
499.52517858091653,4483
501.85827464052306,4696
504.19073011668036,4642
506.5225452222086,4666
508.85372017000566,4611
511.18425517304956,4545
513.514150444396,4698
515.8434061971808,5442
518.1720226446176,6174
520.4999999999999,6434
522.8273384766991,6065
525.1540382881666,5636
527.480099647932,5115
529.8055227696037,4565
532.1303078668694,4079
534.454455153496,3690
536.777964843328,3538
539.1008371502907,3457
541.4230722883866,3446
543.744670471698,3509
546.0656319143858,3392
548.3859568306899,3520
550.7056454349294,3383
553.0246979415016,3436
555.3431145648834,3333
557.6608955196306,3270
559.978041020377,3309
562.2945512818363,3323
564.6104265188006,3446
566.9256669461412,3418
569.2402727788082,3461
571.5542442318302,3448
573.8675815203156,3497
576.1802848594508,3418
578.4923544645015,3472
580.8037905508126,3464
583.114593333807,3468
585.4247630289875,3467
587.7342998519354,3433
590.0432040183106,3380
592.3514757438526,3458
594.6591152443794,3481
596.9661227357875,3440
599.2724984340531,3467
601.578242555231,3428
603.8833553154542,3475
606.1878369309362,3394
608.4916876179676,3476
610.7949075929192,3507
613.0974970722403,3493
615.3994562724587,3523
617.7007854101818,3444
620.0014847020951,3496
622.3015543649641,3412
624.6009946156324,3512
626.8998056710224,3456
629.1979877481361,3480
631.4955410640538,3488
633.7924658359349,3431
636.0887622810175,3451
638.3844306166192,3417
640.6794710601358,3467
642.9738838290426,3480
645.2676691408932,3386
647.5608272133207,3441
649.853358264037,3412
652.1452625108324,3629
654.4365401715764,3438
656.7271914642178,3593
659.0172166067838,3606
661.3066158173809,3560
663.5953893141935,3618
665.8835373154867,3512
668.1710600396028,3576
670.4579577049639,3490
672.7442305300709,3576
675.0298787335033,3608
677.3149025339197,3512
679.599302150058,3555
681.8830778007342,3459
684.1662297048437,3517
686.4487580813608,3583
688.7306631493387,3682
691.0119451279091,3530
693.2926042362834,3521
695.5726406937516,3577
697.8520547196814,3571
700.1308465335215,3519
702.4090163547982,3482
704.6865644031171,3634
706.9634908981619,3502
709.2397960596965,3533
711.5154801075631,3561
713.7905432616823,3593
716.0649857420548,3561
718.3388077687592,3486
720.612009561953,3474
722.8845913418733,3482
725.1565533288352,3547
727.427895743234,3534
729.6986188055427,3604
731.9687227363137,3501
734.238207756178,3557
736.5070740858458,3637
738.7753219461066,3602
741.0429515578281,3636
743.3099631419569,3532
745.5763569195191,3610
747.8421331116193,3476
750.1072919394409,3579
752.3718336242467,3538
754.6357583873777,3597
756.8990664502545,3678
759.1617580343765,3622
761.423833361321,3587
763.6852926527457,3536
765.9461361303862,3683
768.206364016058,3621
770.4659765316536,3702
772.7249738991469,3597
774.9833563405886,3563
777.2411240781092,3673
779.4982773339183,3636
781.7548163303044,3604
784.010741289634,3698
786.2660524343538,3523
788.5207499869881,3657
790.7748341701416,3745
793.0283052064964,3659
795.2811633188143,3670
797.5334087299362,3662
799.7850416627813,3703
802.0360623403484,3677
804.2864709857143,3734
806.5362678220353,3704
808.7854530725468,3698
811.0340269605625,3650
813.2819897094754,3684
815.5293415427581,3634
817.77608268396,3629
820.0222133567116,3660
822.2677337847211,3707
824.5126441917765,3628
826.7569448017433,3772
829.0006358385675,3649
831.2437175262731,3658
833.4861900889629,3659
835.7280537508192,3655
837.9693087361026,3657
840.2099552691533,3734
842.4499935743896,3655
844.689423876309,3726
846.9282463994886,3688
849.1664613685833,3711
851.4040690083276,3656
853.6410695435349,3603
855.877463199097,3633
858.1132501999847,3633
860.3484307712487,3709
862.5830051380175,3681
864.8169735254988,3724
867.0503361589791,3793
869.2830932638243,3742
871.5152450654786,3685
873.7467917894654,3690
875.9777336613873,3777
878.2080709069252,3692
880.4378037518389,3721
882.666932421968,3792
884.8954571432301,3781
887.1233781416219,3822
889.3506956432192,3751
891.5774098741766,3770
893.803521060728,3816
896.0290294291852,3830
898.2539352059397,3694
900.4782386174619,3780
902.7019398903011,3772
904.925039251085,3762
907.147536926521,3832
909.3694331433943,3884
911.59072812857,3810
913.8114221089921,3705
916.0315153116827,3642
918.2510079637437,3693
920.4699002923547,3729
922.6881925247761,3684
924.905884888345,3792
927.1229776104793,3636
929.3394709186747,3602
931.555365040506,3763
933.7706602036275,3684
935.9853566357709,3704
938.1994545647489,3744
940.4129542184515,3717
942.6258558248488,3635
944.8381596119883,3666
947.0498658079974,3708
949.2609746410825,3615
951.4714863395287,3639
953.6814011316998,3704
955.8907192460387,3644
958.0994409110671,3742
960.3075663553858,3748
962.5150958076741,3656
964.7220294966913,3713
966.928367651274,3693
969.1341105003388,3626
971.3392582728806,3688
973.5438111979742,3575
975.747769504772,3658
977.9511334225061,3657
980.153903180487,3670
982.3560790081052,3591
984.5576611348289,3662
986.7586497902058,3560
988.9590452038618,3498
991.158847605503,3553
993.3580572249133,3524
995.5566742919558,3520
997.7546990365728,3563
999.952131688785,3498
1002.1489724786926,3568
1004.3452216364743,3495
1006.5408793923874,3459
1008.7359459767691,3407
1010.9304216200343,3411
1013.1243065526781,3464
1015.3176010052733,3459
1017.510305208472,3389
1019.7024193930064,3420
1021.8939437896848,3387
1024.0848786293977,3411
1026.2752241431122,3381
1028.4649805618747,3401
1030.6541481168115,3332
1032.842727039127,3371
1035.0307175601051,3420
1037.2181199111074,3369
1039.4049343235752,3481
1041.591161029029,3397
1043.7768002590683,3386
1045.9618522453698,3391
1048.1463172196918,3513
1050.3301954138697,3377
1052.513487059818,3378
1054.69619238953,3439
1056.8783116350783,3481
1059.0598450286152,3472
1061.2407928023704,3412
1063.4211551886528,3433
1065.6009324198508,3345
1067.780124728432,3361
1069.9587323469414,3386
1072.1367555080046,3392
1074.314194444325,3427
1076.4910493886855,3402
1078.667320573947,3390
1080.843008233051,3331
1083.0181125990161,3343
1085.1926339049414,3394
1087.3665723840027,3314
1089.5399282694575,3399
1091.7127017946405,3320
1093.8848931929647,3311
1096.0565026979243,3412
1098.2275305430899,3423
1100.3979769621128,3336
1102.567842188722,3348
1104.737126456726,3341
1106.9058300000124,3275
1109.0739530525475,3431
1111.2414958483764,3359
1113.4084586216231,3319
1115.5748416064907,3269
1117.7406450372605,3314
1119.9058691482942,3270
1122.0705141740304,3329
1124.2345803489884,3298
1126.3980679077658,3280
1128.5609770850388,3344
1130.7233081155623,3353
1132.8850612341707,3366
1135.0462366757774,3325
1137.2068346753745,3314
1139.3668554680326,3305
1141.526299288901,3397
1143.68516637321,3281
1145.8434569562655,3329
1148.001171273455,3319
1150.158309560244,3315
1152.3148720521767,3399
1154.470858984876,3373
1156.626270594044,3403
1158.7811071154629,3359
1160.9353687849912,3322
1163.089055838569,3351
1165.242168512213,3273
1167.3947070420209,3239
1169.5466716641677,3341
1171.6980626149075,3331
1173.8488801305748,3360
1175.9991244475814,3312
1178.1487958024186,3299
1180.2978944316555,3255
1182.4464205719428,3405
1184.5943744600072,3229
1186.7417563326567,3265
1188.8885664267755,3319
1191.0348049793297,3305
1193.1804722273619,3344
1195.325568407995,3271
1197.4700937584303,3315
1199.614048515948,3281
1201.7574329179074,3327
1203.900247201746,3359
1206.042491604982,3309
1208.1841663652099,3311
1210.3252717201053,3388
1212.465807907422,3324
1214.6057751649923,3311
1216.7451737307279,3399
1218.8840038426192,3450
1221.0222657387353,3382
1223.1599596572241,3402
1225.2970858363137,3476
1227.4336445143094,3264
1229.5696359295966,3421
1231.705060320639,3459
1233.8399179259786,3426
1235.9742089842384,3513
1238.107933734118,3392
1240.2410924143974,3388
1242.373685263935,3420
1244.5057125216676,3462
1246.6371744266116,3432
1248.7680712178621,3435
1250.898403134593,3424
1253.028170416058,3535
1255.1573733015875,3392
1257.2860120305932,3366
1259.4140868425648,3336
1261.54159797707,3456
1263.6685456737569,3376
1265.7949301723515,3422
1267.9207517126597,3523
1270.046010534565,3520
1272.1707068780306,3395
1274.2948409830983,3425
1276.4184130898889,3419
1278.541423438603,3410
1280.6638722695184,3499
1282.785759822993,3536
1284.9070863394636,3516
1287.0278520594447,3436
1289.1480572235314,3526
1291.2677020723963,3554
1293.3867868467923,3486
1295.5053117875495,3574
1297.623277135579,3622
1299.740683131868,3610
1301.8575300174857,3719
1303.973818033578,3543
1306.0895474213703,3719
1308.2047184221678,3671
1310.3193312773528,3673
1312.4333862283888,3648
1314.5468835168163,3562
1316.659823384255,3638
1318.7722060724045,3688
1320.8840318230418,3653
1322.9953008780249,3565
1325.1060134792888,3535
1327.2161698688478,3657
1329.3257702887959,3639
1331.4348149813054,3559
1333.5433041886276,3525
1335.6512381530933,3608
1337.7586171171101,3687
1339.8654413231675,3592
1341.9717110138317,3561
1344.0774264317488,3589
1346.1825878196432,3678
1348.2871954203192,3635
1350.3912494766587,3580
1352.4947502316231,3595
1354.5976979282532,3587
1356.7000928096686,3551
1358.8019351190665,3567
1360.9032250997243,3538
1363.0039629949988,3557
1365.1041490483235,3586
1367.2037835032133,3529
1369.3028666032606,3574
1371.401398592137,3589
1373.4993797135926,3498
1375.5968102114575,3569
1377.6936903296396,3561
1379.7900203121262,3642
1381.8858004029835,3762
1383.9810308463561,3719
1386.075711886469,3637
1388.1698437676241,3638
1390.2634267342032,3708
1392.356461030667,3730
1394.4489469015557,3686
1396.5408845914872,3580
1398.6322743451592,3707
1400.7231164073469,3720
1402.813411022907,3676
1404.903158436773,3757
1406.9923588939578,3678
1409.0810126395531,3714
1411.1691199187303,3678
1413.2566809767386,3721
1415.343696058907,3717
1417.4301654106425,3793
1419.5160892774315,3619
1421.6014679048399,3632
1423.6863015385125,3836
1425.7705904241707,3779
1427.8543348076178,3729
1429.9375349347342,3883
1432.0201910514802,3767
1434.102303403894,3815
1436.1838722380944,3769
1438.2648978002767,3814
1440.3453803367174,3753
1442.4253200937692,3798
1444.5047173178677,3802
1446.5835722555234,3870
1448.6618851533285,3956
1450.739656257952,3938
1452.8168858161434,3903
1454.8935740747306,4007
1456.96972128062,3905
1459.045327680797,3995
1461.120393522327,4015
1463.1949190523528,3982
1465.2689045180973,3967
1467.3423501668608,4109
1469.415256246024,4212
1471.4876230030463,4144
1473.559450685465,4258
1475.6307395408976,4256
1477.7014898170391,4248
1479.771701761665,4260
1481.8413756226287,4365
1483.9105116478618,4347
1485.9791100853772,4385
1488.0471711832643,4453
1490.1146951896926,4365
1492.1816823529098,4395
1494.2481329212433,4444
1496.3140471430984,4535
1498.3794252669609,4488
1500.4442675413939,4551
1502.5085742150404,4586
1504.572345536622,4595
1506.6355817549388,4707
1508.6982831188702,4662
1510.7604498773744,4631
1512.8220822794883,4609
1514.8831805743293,4650
1516.9437450110909,4902
1519.003775839048,4800
1521.0632733075522,4697
1523.1222376660367,4830
1525.1806691640113,4950
1527.2385680510652,4994
1529.2959345768668,4933
1531.3527689911643,5115
1533.4090715437833,5057
1535.4648424846291,5176
1537.5200820636855,5068
1539.5747905310159,5305
1541.6289681367616,5237
1543.6826151311434,5325
1545.7357317644614,5294
1547.7883182870937,5468
1549.8403749494987,5555
1551.8919020022113,5580
1553.9428996958477,5663
1555.9933682811015,5653
1558.0433080087469,5727
1560.0927191296346,5685
1562.1416018946961,5729
1564.1899565549415,5715
1566.2377833614592,5698
1568.2850825654164,5609
1570.3318544180606,5583
1572.3780991707158,5551
1574.423817074788,5428
1576.4690083817595,5226
1578.5136733431923,5123
1580.5578122107272,4970
1582.601425236085,4839
1584.6445126710646,4688
1586.6870747675434,4662
1588.7291117774776,4518
1590.7706239529034,4471
1592.8116115459347,4428
1594.8520748087658,4321
1596.8920139936686,4242
1598.9314293529933,4209
1600.9703211391711,4184
1603.008689604711,4038
1605.0465350022005,4084
1607.0838575843068,4057
1609.1206576037753,4054
1611.1569353134305,4010
1613.1926909661765,3860
1615.2279248149953,3831
1617.2626371129481,3845
1619.2968281131757,3796
1621.3304980688963,3895
1623.3636472334088,3843
1625.39627586009,3850
1627.428384202396,3828
1629.459972513861,3684
1631.4910410480993,3800
1633.5215900588028,3735
1635.551619799744,3771
1637.5811305247717,3676
1639.6101224878166,3679
1641.6385959428862,3686
1643.6665511440683,3775
1645.693988345528,3749
1647.7209078015112,3693
1649.7473097663405,3653
1651.7731944944203,3700
1653.7985622402307,3750
1655.823413258333,3677
1657.847747803366,3660
1659.8715661300494,3685
1661.8948684931793,3654
1663.9176551476316,3630
1665.9399263483624,3625
1667.9616823504057,3614
1669.982923408873,3701
1672.0036497789574,3638
1674.0238617159293,3774
1676.043559475138,3706
1678.0627433120121,3606
1680.081413482059,3536
1682.0995702408654,3608
1684.117213844096,3616
1686.134344547495,3637
1688.1509626068864,3613
1690.1670682781705,3526
1692.182661817329,3573
1694.1977434804217,3638
1696.2123135235875,3537
1698.226372203043,3654
1700.2399197750851,3662
1702.2529564960905,3725
1704.2654826225112,3752
1706.277498410882,3702
1708.2890041178139,3569
1710.2999999999988,3618
1712.3104863142066,3674
1714.3204633172854,3725
1716.329931266163,3681
1718.3388904178469,3556
1720.3473410294214,3517
1722.3552833580516,3641
1724.3627176609807,3703
1726.3696441955308,3646
1728.3760632191033,3631
1730.3819749891782,3620
1732.3873797633146,3568
1734.3922777991502,3662
1736.3966693544012,3609
1738.4005546868639,3613
1740.4039340544127,3653
1742.406807715001,3646
1744.4091759266616,3700
1746.4110389475054,3596
1748.4123970357223,3692
1750.413250449582,3599
1752.4135994474318,3639
1754.4134442876993,3578
1756.4127852288902,3600
1758.4116225295893,3467
1760.4099564484595,3560
1762.407787244244,3560
1764.405115175764,3570
1766.4019405019203,3549
1768.3982634816916,3555
1770.3940843741357,3610
1772.3894034383907,3537
1774.3842209336717,3491
1776.378537119274,3583
1778.372352254571,3479
1780.3656665990156,3507
1782.3584804121397,3498
1784.3507939535534,3564
1786.3426074829463,3531
1788.3339212600863,3537
1790.3247355448211,3502
1792.3150505970766,3550
1794.3048666768573,3508
1796.2941840442477,3509
1798.2830029594106,3602
1800.2713236825884,3560
1802.2591464741004,3512
1804.2464715943465,3542
1806.2332993038058,3461
1808.2196298630352,3564
1810.2054635326708,3547
1812.190800573428,3550
1814.175641246101,3572
1816.1599858115628,3642
1818.1438345307652,3583
1820.127187664738,3580
1822.1100454745924,3555
1824.092408221516,3560
1826.0742761667766,3583
1828.055649571721,3429
1830.0365286977735,3499
1832.0169138064398,3519
1833.9968051593014,3525
1835.9762030180214,3592
1837.9551076443408,3508
1839.9335193000788,3584
1841.9114382471344,3446
1843.888864747485,3562
1845.8657990631878,3595
1847.842241456378,3528
1849.8181921892697,3468
1851.7936515241558,3573
1853.7686197234098,3657
1855.7430970494815,3588
1857.7170837649014,3509
1859.6905801322787,3637
1861.6635864143004,3598
1863.6361028737338,3562
1865.608129773424,3479
1867.5796673762961,3512
1869.5507159453537,3674
1871.521275743678,3521
1873.4913470344313,3526
1875.4609300808534,3655
1877.4300251462632,3595
1879.3986324940588,3617
1881.366752387717,3538
1883.3343850907936,3731
1885.3015308669228,3597
1887.268189979819,3572
1889.2343626932739,3532
1891.2000492711595,3574
1893.1652499774254,3526
1895.1299650761011,3658
1897.0941948312952,3674
1899.0579395071945,3624
1901.0211993680641,3541
1902.98397467825,3731
1904.9462657021745,3650
1906.9080727043415,3650
1908.869395949332,3601
1910.8302357018065,3599
1912.790592226504,3595
1914.7504657882428,3582
1916.7098566519212,3557
1918.6687650825133,3619
1920.6271913450764,3631
1922.5851357047422,3602
1924.5425984267245,3534
1926.499579776314,3628
1928.4560800188833,3622
1930.4120994198802,3553
1932.367638244833,3590
1934.32269675935,3594
1936.2772752291175,3606
1938.231373919899,3628
1940.1849930975404,3656
1942.1381330279637,3606
1944.0907939771696,3610
1946.0429762112412,3594
1947.9946799963363,3585
1949.9459055986945,3615
1951.896653284633,3687
1953.8469233205478,3695
1955.7967159729142,3680
1957.7460315082863,3578
1959.6948701932974,3604
1961.6432322946594,3599
1963.5911180791632,3670
1965.5385278136787,3571
1967.4854617651545,3690
1969.4319202006182,3596
1971.377903387176,3709
1973.3234115920136,3523
1975.268445082395,3630
1977.2130041256642,3701
1979.1570889892423,3589
1981.1006999406304,3531
1983.04383724741,3636
1984.986501177238,3588
1986.928691997853,3572
1988.8704099770712,3720
1990.811655382789,3559
1992.7524284829801,3620
1994.692729545698,3665
1996.6325588390755,3672
1998.5719166313224,3594
2000.5108031907307,3684
2002.4492187856677,3567
2004.387163684583,3562
2006.3246381560011,3621
2008.2616424685298,3631
2010.1981768908527,3591
2012.1342416917332,3625
2014.069837140014,3630
2016.0049635046162,3631
2017.9396210545406,3591
2019.8738100588666,3631
2021.8075307867502,3540
2023.740783507431,3589
2025.6735684902228,3623
2027.6058860045214,3491
2029.5377363198004,3577
2031.4691197056118,3495
2033.4000364315875,3538
2035.3304867674374,3573
2037.260470982952,3642
2039.189989347998,3707
2041.1190421325232,3650
2043.047629606554,3546
2044.9757520401945,3569
2046.9034097036288,3604
2048.8306028671195,3665
2050.7573318010086,3626
2052.683596775716,3648
2054.609398061742,3625
2056.5347359296647,3628
2058.4596106501403,3679
2060.384022493906,3687
2062.3079717317764,3702
2064.231458634646,3629
2066.1544834734873,3633
2068.077046519352,3631
2069.99914804337,3674
2071.9207883167524,3657
2073.8419676107865,3641
2075.7626861968406,3591
2077.6829443463607,3583
2079.6027423308715,3613
2081.522080421977,3666
2083.440958891362,3675
2085.359378010786,3679
2087.2773380520907,3633
2089.194839287196,3604
2091.111881988101,3586
2093.0284664268825,3667
2094.9445928756973,3642
2096.86026160678,3695
2098.775472892446,3775
2100.690227005088,3621
2102.604524217178,3663
2104.5183648012676,3770
2106.431749029985,3748
2108.34467717604,3698
2110.2571495122206,3606
2112.169166311393,3659
2114.080727846503,3644
2115.9918343905747,3700
2117.902486216711,3759
2119.8126835980956,3745
2121.722426807987,3731
2123.6317161197285,3657
2125.5405518067364,3708
2127.448934142509,3744
2129.356863400624,3717
2131.264339854737,3805
2133.1713637785815,3867
2135.077935445972,3695
2136.9840551308002,3668
2138.889723107037,3737
2140.7949396487334,3661
2142.699705030018,3832
2144.6040195250994,3763
2146.507883408264,3737
2148.4112969538774,3659
2150.3142604363848,3809
2152.2167741303097,3717
2154.1188383102535,3775
2156.0204532508997,3733
2157.9216192270064,3820
2159.822336513414,3805
2161.7226053850413,3784
2163.622426116884,3765
2165.5217989840185,3797
2167.4207242616,3776
2169.319202224862,3749
2171.2172331491165,3830
2173.1148173097563,3845
2175.0119549822507,3922
2176.90864644215,3876
2178.8048919650823,3827
2180.7006918267534,3738
2182.596046302952,3839
2184.4909556695407,3873
2186.3854202024645,3807
2188.279440177746,3809
2190.173015871487,3849
2192.066147559868,3942
2193.958835519149,3884
2195.851080025667,3871
2197.7428813558417,3876
2199.6342397861667,3920
2201.5251555932186,3797
2203.415629053651,3799
2205.3056604441986,3910
2207.19525004167,3845
2209.084398122958,3921
2210.9731049650327,3873
2212.861370844941,3935
2214.749196039812,3939
2216.636580826851,3914
2218.523525483344,3975
2220.410030286655,3953
2222.296095514226,3989
2224.1817214435805,3913
2226.066908352319,3903
2227.951656518121,4006
2229.835966218746,3948
2231.71983773203,4042
2233.6032713358913,3945
2235.486267308324,3958
2237.3688259274036,4024
2239.2509474712824,3940
2241.132632218193,3909
2243.013880446447,3985
2244.8946924344323,3889
2246.7750684606203,3963
2248.6550088035574,3974
2250.534513741871,3944
2252.413583554265,4113
2254.292218519526,3901
2256.170418916517,3865
2258.0481850241786,3900
2259.925517121534,3831
2261.8024154876825,3870
2263.678880401803,3901
2265.5549121431536,3978
2267.430510991071,3892
2269.305677224971,3797
2271.180411124348,3913
2273.0547129687766,3933
2274.9285830379076,3939
2276.8020216114737,3889
2278.6750289692845,3872
2280.5476053912294,3897
2282.4197511572766,3882
2284.2914665474727,3972
2286.162751841943,3945
2288.0336073208937,3900
2289.904033264608,3972
2291.774029953448,3840
2293.6435976678554,3911
2295.5127366883517,4041
2297.381447295534,3867
2299.2497297700825,3789
2301.1175843927526,3801
2302.9850114443825,3896
2304.852011205885,3761
2306.7185839582553,3779
2308.5847299825664,3778
2310.4504495599676,3729
2312.3157429716925,3734
2314.1806104990483,3754
2316.0450524234247,3787
2317.9090690262888,3689
2319.772660589186,3775
2321.635827393742,3722
2323.498569721661,3741
2325.3608878547248,3756
2327.2227820747967,3644
2329.0842526638157,3821
2330.945299903803,3742
2332.805924076857,3829
2334.6661254651535,3735
2336.525904350951,3845
2338.3852610165827,3676
2340.244195744464,3739
2342.102708817088,3788
2343.9608005170253,3713
2345.8184711269287,3763
2347.675720929526,3821
2349.532550207628,3832
2351.38895924412,3811
2353.24494832197,3847
2355.100517724223,3800
2356.955667734004,3706
2358.810398634514,3764
2360.664710709037,3801
2362.5186042409337,3744
2364.3720795136437,3674
2366.225136810686,3705
2368.0777764156583,3843
2369.929998612237,3771
2371.7818036841777,3759
2373.633191915315,3770
2375.484163589562,3801
2377.3347189909114,3827
2379.184858403434,3828
2381.03458211128,3892
2382.8838903986775,3689
2384.732783549936,3735
2386.5812618494406,3667
2388.4293255816588,3749
2390.2769750311327,3759
2392.1242104824883,3768
2393.971032220427,3814
2395.8174405297295,3848
2397.6634356952563,3732
2399.509018001947,3788
2401.3541877348193,3760
2403.1989451789705,3805
2405.043290619576,3801
2406.8872243418905,3797
2408.730746631247,3709
2410.5738577730594,3837
2412.4165580528183,3803
2414.258847756095,3798
2416.100727168537,3864
2417.9421965758734,3871
2419.783256263912,3858
2421.623906518538,3870
2423.4641476257157,3799
2425.303979871491,3845
2427.143403541984,3789
2428.9824189233977,3811
2430.821026302012,3759
2432.6592259641866,3796
2434.497018196361,3807
2436.33440328505,3813
2438.171381516851,3874
2440.00795317844,3890
2441.844118556569,3850
2443.6798779380724,3819
2445.5152316098606,3880
2447.3501798589255,3861
2449.1847229723357,3787
2451.0188612372403,3886
2452.8525949408663,3794
2454.6859243705203,3745
2456.518849813587,3900
2458.3513715575314,3973
2460.183489889895,3904
2462.015205098301,3827
2463.8465174704493,3854
2465.67742729412,3872
2467.5079348571717,3914
2469.338040447542,3910
2471.1677443532476,3919
2472.9970468623833,3795
2474.825948263123,3912
2476.6544488437207,3889
2478.482548892508,3866
2480.310248697896,3960
2482.137548548374,3972
2483.9644487325118,3828
2485.790949538956,3916
2487.617051256433,4004
2489.44275417375,3875
2491.26805857979,3915
2493.0929647635157,3931
2494.917473013971,4016
2496.741583620276,3975
2498.5652968716304,3941
2500.3886130573137,3859
2502.2115324666834,4077
2504.0340553891765,4040
2505.856182114308,4000
2507.6779129316733,3980
2509.499248130945,3941
2511.3201880018764,3966
2513.140732834298,3989
2514.9608829181198,4066
2516.780638543331,3927
2518.6,3899
2520.418967578273,3897
2522.237541568376,3992
2524.0557222606144,3955
2525.8735099453706,3861
2527.6909049131086,3961
2529.507907454368,3976
2531.32451785977,3905
2533.140736420014,4018
2534.9565634258774,3954
2536.771999168218,3982
2538.5870439379714,4023
2540.4016980261526,4086
2542.2159617238544,4079
2544.02983532225,3995
2545.8433191125914,4048
2547.656413386209,3992
2549.4691184345115,4111
2551.2814345489874,4093
2553.093362021204,4160
2554.904901142808,4158
2556.716052205523,4149
2558.526815501153,4102
2560.3371913215824,4095
2562.147179958771,4071
2563.956781704761,4074
2565.7659968516705,4118
2567.5748256916986,4106
2569.3832685171224,4199
2571.1913256202984,4065
2572.9989972936614,4259
2574.806283829725,4004
2576.613185521084,4106
2578.4197026604074,4074
2580.2258355404483,4120
2582.031584454035,4218
2583.836949694077,4107
2585.6419315535613,4221
2587.4465303255533,4205
2589.2507463032002,4175
2591.0545797797245,4203
2592.8580310484303,4121
2594.6611004026995,4214
2596.463788135992,4194
2598.266094541849,4252
2600.0680199138874,4345
2601.869564545807,4177
2603.670728731383,4216
2605.4715127644704,4164
2607.2719169390048,4227
2609.071941548998,4183
2610.8715868885433,4164
2612.670853251811,4195
2614.469740933052,4321
2616.268250226594,4292
2618.0663814268455,4144
2619.864134828292,4234
2621.6615107255006,4318
2623.458509413115,4218
2625.2551311858597,4201
2627.0513763385347,4127
2628.8472451660223,4170
2630.6427379632833,4187
2632.4378550253564,4168
2634.232596647359,4159
2636.026963124488,4060
2637.8209547520187,4110
2639.6145718253065,4143
2641.407814639785,4115
2643.200683490966,4190
2644.9931786744414,4123
2646.7853004858807,4096
2648.577049221034,4159
2650.3684251757277,4115
2652.1594286458712,4161
2653.9500599274484,4140
2655.740319316525,4054
2657.5302071092437,4078
2659.3197236018286,4118
2661.10886909058,3931
2662.8976438718782,4127
2664.686048242183,4178
2666.4740824980327,4088
2668.2617469360443,4056
2670.0490418529134,4069
2671.8359675454153,4104
2673.622524310403,4062
2675.408712444811,4095
2677.1945322456495,4110
2678.979984010009,3979
2680.76506803506,3958
2682.5497846180497,3995
2684.334134056306,4007
2686.1181166472343,4075
2687.9017326883213,4060
2689.6849824771293,3918
2691.4678663113013,3971
2693.2503844885596,4127
2695.032537306705,3935
2696.8143250636167,4023
2698.5957480572542,4025
2700.3768065856534,3942
2702.1575009469316,3987
2703.937831439283,4004
2705.717798360982,3991
2707.4974020103837,3898
2709.276642685917,3861
2711.055520686095,4037
2712.834036309506,4053
2714.612189854819,4013
2716.389981620782,3991
2718.1674119062204,3983
2719.944481010041,4111
2721.721189231226,3971
2723.4975368688415,4007
2725.273524222027,3946
2727.0491515900053,3952
2728.824419272075,3893
2730.5993275676146,3966
2732.3738767760838,3880
2734.148067197016,3924
2735.921899130031,3925
2737.6953728748194,3986
2739.468488731156,3980
2741.2412469988926,3988
2743.0136479779617,3911
2744.785691968372,3938
2746.5573792702116,4030
2748.3287101836504,3913
2750.099685008934,3924
2751.870304046388,3986
2753.640567596418,3956
2755.4104759595057,3815
2757.1800294362156,3914
2758.949228327187,3924
2760.7180729331412,3977
2762.486563554877,3938
2764.254700493272,4056
2766.022484049284,4001
2767.789914523947,3913
2769.5569922183786,3894
2771.3237174337705,4111
2773.090090471394,3889
2774.8561116326036,4018
2776.6217812188274,3866
2778.3870995315756,4071
2780.1520668724356,4036
2781.9166835430747,4021
2783.6809498452394,3938
2785.444866080754,4023
2787.2084325515225,4018
2788.971649559527,4027
2790.73451740683,3986
2792.4970363955713,4016
2794.2592068279705,4013
2796.0210290063264,4087
2797.7825032330147,3967
2799.543629810493,3999
2801.304409041296,3974
2803.0648412280366,3865
2804.8249266734088,3964
2806.5846656801846,3979
2808.344058551212,4018
2810.1031055894246,3990
2811.8618070978273,4062
2813.6201633795085,4079
2815.378174737636,4091
2817.1358414754536,4027
2818.893163896285,4035
2820.6501423035334,4029
2822.4067770006814,4036
2824.1630682912883,4070
2825.9190164789957,3993
2827.6746218675207,4108
2829.429884760661,4130
2831.184805462294,4035
2832.9393842763743,3942
2834.693621506936,4093
2836.4475174580916,4067
2838.201072434034,4024
2839.954286739034,3976
2841.707160677441,4006
2843.459694553685,4064
2845.2118886722724,4069
2846.96374333779,3971
2848.7152588549034,4085
2850.4664355283567,4021
2852.217273662973,4053
2853.9677735636546,4041
2855.7179355353833,4008
2857.4677598832186,4038
2859.217246912299,4032
2860.9663969278427,4024
2862.715210235146,3975
2864.4636871395846,4123
2866.211827946614,4014
2867.9596329617652,4034
2869.7071024906536,3966
2871.4542368389684,4061
2873.20103631248,3927
2874.947501217038,4025
2876.6936318585695,3983
2878.4394285430812,3937
2880.1848915766604,4059
2881.9300212654707,3983
2883.6748179157553,3951
2885.4192818338374,3991
2887.1634133261173,3993
2888.907212699077,3977
2890.6506802592744,4140
2892.393816313348,4053
2894.1366211680142,4005
2895.8790951300693,4027
2897.621238506388,4037
2899.363051603925,4005
2901.1045347297118,4022
2902.8456881908596,4003
2904.58651229456,4047
2906.327007348081,4053
2908.067173658772,3947
2909.8070115340597,3966
2911.5465212814497,4034
2913.285703208527,3985
2915.0245576229563,3879
2916.7630848324807,4080
2918.5012851449196,3977
2920.2391588681758,3966
2921.976706310227,4047
2923.7139277791334,3990
2925.4508235830313,4034
2927.187394030137,3963
2928.923639428745,4065
2930.6595600872306,4128
2932.395156314046,4073
2934.1304284177218,4103
2935.8653767068713,4112
2937.6000014901815,4043
2939.3343030764227,3999
2941.068281774442,4155
2942.8019378931644,4122
2944.5352717415976,4091
2946.2682836288236,4103
2948.0009738640065,4090
2949.7333427563885,4224
2951.465390615289,4048
2953.1971177501086,4103
2954.9285244703265,3930
2956.6596110855,4072
2958.3903779052657,4147
2960.1208252393385,4095
2961.8509533975125,4042
2963.5807626896617,4007
2965.3102534257378,4074
2967.0394259157715,4070
2968.768280469873,4024
2970.496817398232,4013
2972.2250370111146,4090
2973.952939618869,4039
2975.6805255319196,4145
2977.4077950607707,4152
2979.134748516006,4113
2980.861386208289,4107
2982.587708448359,4129
2984.313715547037,4100
2986.039407815222,4134
2987.764785563891,4152
2989.489849104102,4140
2991.2145987469908,4013
2992.9390348037705,4058
2994.6631575857346,4119
2996.3869674042576,4122
2998.1104645707887,4105
2999.83364939686,4110
3001.5565221940783,4073
3003.2790832741334,4004
3005.0013329487924,4046
3006.7232715298996,4121
3008.4448993293804,4088
3010.166216659239,4033
3011.887223831558,4104
3013.607921158498,4031
3015.3283089522993,4082
3017.0483875252826,4138
3018.7681571898443,4125
3020.4876182584626,4095
3022.2067710436927,4184
3023.9256158581707,4097
3025.644153014609,4135
3027.362382825801,4090
3029.0803056046193,4072
3030.797921664012,4119
3032.5152313170106,4106
3034.2322348767225,4122
3035.9489326563353,4168
3037.665324969115,4061
3039.3814121284063,4139
3041.097194447633,4207
3042.812672240299,4091
3044.5278458199855,4162
3046.2427155003525,4072
3047.9572815951406,4183
3049.671544418167,4128
3051.38550428333,4113
3053.0991615046073,4030
3054.812516396051,4098
3056.5255692717974,4036
3058.2383204460575,4204
3059.9507702331257,4151
3061.662918947372,4118
3063.3747669032446,4119
3065.0863144152736,4155
3066.7975617980674,4157
3068.508509366309,4148
3070.219157434767,4167
3071.9295063182844,4169
3073.639556331785,4151
3075.3493077902704,4041
3077.058761008821,4206
3078.7679163025964,4242
3080.476773986837,4134
3082.1853343768594,4162
3083.89359778806,4275
3085.6015645359153,4111
3087.3092349359786,4237
3089.016609303884,4193
3090.7236879553434,4116
3092.4304712061476,4115
3094.136959372166,4217
3095.843152769349,4160
3097.5490517137237,4136
3099.2546565213966,4284
3100.959967508554,4171
3102.66498499146,4116
3104.3697092864577,4175
3106.0741407099695,4262
3107.778279578498,4261
3109.482126208622,4226
3111.1856809170004,4102
3112.8889440203716,4164
3114.5919158355528,4404
3116.294596679439,4331
3117.996986869006,4280
3119.6990867213062,4284
3121.4008965534726,4302
3123.102416682717,4258
3124.803647426329,4190
3126.5045891016784,4281
3128.205242026213,4265
3129.90560651746,4288
3131.605682893025,4292
3133.3054714705922,4274
3135.0049725679282,4290
3136.7041865028714,4299
3138.4031135933465,4342
3140.101754157353,4205
3141.800108512971,4206
3143.498176978357,4322
3145.1959598717494,4195
3146.8934575114636,4155
3148.5906702158954,4167
3150.2875983035183,4229
3151.9842420928853,4115
3153.680601902627,4246
3155.376678051456,4243
3157.07247085816,4217
3158.767980641609,4245
3160.463207720748,4253
3162.158152414606,4158
3163.8528150422862,4286
3165.5471959229726,4196
3167.2412953759303,4268
3168.9351137204976,4272
3170.628651276098,4363
3172.3219083622307,4202
3174.014885298474,4242
3175.707582404485,4319
3177.4000000000005,4248
3179.092138404835,4351
3180.7839979388846,4355
3182.47557892212,4258
3184.166881674594,4244
3185.8579065164386,4296
3187.5486537678626,4322
3189.2391237491547,4286
3190.9293167806827,4358
3192.6192331828934,4292
3194.3088732763117,4216
3195.998237381542,4223
3197.687325819268,4313
3199.376138910251,4288
3201.064676975334,4252
3202.7529403354347,4330
3204.4409293115523,4260
3206.1286442247647,4328
3207.816085396229,4357
3209.5032531471825,4202
3211.190147798936,4191
3212.8767696728846,4138
3214.5631190905015,4268
3216.2491963733373,4288
3217.9350018430214,4164
3219.6205358212637,4232
3221.305798629851,4197
3222.990790590651,4141
3224.6755120256103,4084
3226.359963256751,4219
3228.0441446061795,4112
3229.7280563960758,4273
3231.411698948703,4188
3233.0950725863995,4224
3234.778177631587,4424
3236.461014406761,4313
3238.1435832345005,4343
3239.8258844374595,4245
3241.507918338374,4378
3243.1896852600576,4251
3244.8711855254023,4300
3246.552419457381,4347
3248.233387379042,4396
3249.914089613516,4278
3251.59452648401,4329
3253.274698313813,4283
3254.95460542629,4358
3256.6342481448855,4337
3258.313626793125,4215
3259.9927416946084,4154
3261.6715931730196,4200
3263.3501815521176,4193
3265.0285071557437,4236
3266.706570307815,4281
3268.3843713323286,4245
3270.0619105533615,4202
3271.739188295068,4269
3273.4162048816834,4325
3275.0929606375184,4308
3276.769455886966,4267
3278.445690954498,4365
3280.1216661646613,4320
3281.797381842087,4264
3283.4728383114807,4338
3285.1480358976296,4393
3286.8229749253996,4287
3288.4976557197333,4180
3290.172078605655,4323
3291.846243908266,4354
3293.5201519527463,4346
3295.193803064357,4194
3296.8671975684374,4241
3298.5403357904024,4288
3300.21321805575,4350
3301.8858446900567,4322
3303.558216018975,4300
3305.23033236824,4282
3306.9021940636603,4439
3308.57380143113,4369
3310.2451547966184,4476
3311.916254486174,4371
3313.5871008259246,4372
3315.2576941420766,4257
3316.9280347609147,4339
3318.5981230088046,4240
3320.2679592121895,4236
3321.9375436975924,4263
3323.606876791612,4263
3325.27595882093,4166
3326.944790112305,4232
3328.6133709925753,4294
3330.2817017886573,4258
3331.949782827547,4317
3333.617614436319,4286
3335.2851969421245,4361
3336.952530672199,4374
3338.619615953853,4370
3340.286453114475,4478
3341.9530424815357,4328
3343.619384382583,4434
3345.2854791452437,4416
3346.951327097224,4371
3348.6169285663073,4420
3350.2822838803577,4399
3351.947393367319,4495
3353.61225735521,4342
3355.2768761721345,4461
3356.9412501462693,4339
3358.605379605873,4413
3360.2692648792827,4420
3361.9329062949146,4379
3363.596304181263,4358
