CollectionTime,7/9/2024 3:51:45 PM
ExposureUsed,3
CalibratedSpectrum
-962.7078968117929,1108
-959.9714848408522,1198
-957.2358232597828,1228
-954.5009119013725,1141
-951.7667505983302,1106
-949.0333391832855,1195
-946.3006774887896,1245
-943.5687653473143,1227
-940.837602591253,1189
-938.1071890529199,1179
-935.3775245645503,1148
-932.6486089583007,1117
-929.9204420662485,1205
-927.1930237203925,1171
-924.4663537526524,1202
-921.7404319948689,1210
-919.0152582788041,1238
-916.2908324361409,1263
-913.5671542984834,1224
-910.8442236973568,1222
-908.1220404642074,1252
-905.4006044304027,1210
-902.679915427231,1175
-899.959973285902,1186
-897.2407778375464,1178
-894.5223289132158,1192
-891.8046263438832,1258
-889.0876699604426,1173
-886.3714595937089,1208
-883.6559950744183,1209
-880.9412762332282,1135
-878.2273029007168,1191
-875.5140749073835,1241
-872.8015920836489,1243
-870.0898542598545,1201
-867.3788612662631,1224
-864.6686129330585,1230
-861.9591090903457,1252
-859.2503495681506,1194
-856.5423341964203,1212
-853.8350628050229,1186
-851.1285352237478,1240
-848.4227512823054,1209
-845.7177108103272,1194
-843.0134136373656,1183
-840.3098595928943,1244
-837.6070485063082,1219
-834.9049802069229,1269
-832.2036545239757,1310
-829.5030712866244,1210
-826.8032303239481,1255
-824.1041314649472,1292
-821.4057745385428,1241
-818.7081593735775,1252
-816.0112857988148,1243
-813.3151536429393,1228
-810.6197627345566,1262
-807.9251129021936,1243
-805.2312039742981,1255
-802.5380357792392,1285
-799.8456081453069,1231
-797.1539209007124,1215
-794.462973873588,1243
-791.772766891987,1313
-789.083299783884,1291
-786.3945723771743,1233
-783.7065844996748,1263
-781.0193359791231,1303
-778.3328266431781,1331
-775.6470563194197,1284
-772.9620248353489,1311
-770.2777320183878,1312
-767.5941776958798,1286
-764.9113616950891,1300
-762.2292838432011,1283
-759.5479439673222,1314
-756.8673418944801,1308
-754.1874774516235,1364
-751.5083504656222,1303
-748.8299607632671,1314
-746.15230817127,1397
-743.475392516264,1367
-740.7992136248035,1349
-738.1237713233636,1331
-735.4490654383407,1340
-732.7750957960521,1286
-730.1018622227365,1333
-727.4293645445534,1368
-724.7576025875837,1315
-722.0865761778291,1343
-719.4162851412126,1367
-716.7467293035781,1375
-714.0779084906909,1379
-711.409822528237,1450
-708.7424712418238,1345
-706.0758544569796,1360
-703.4099719991541,1392
-700.7448236937178,1411
-698.0804093659622,1406
-695.4167288411002,1380
-692.7537819442656,1360
-690.0915685005134,1399
-687.4300883348199,1448
-684.7693412720819,1395
-682.1093271371178,1388
-679.4500457546669,1315
-676.7914969493897,1456
-674.1336805458676,1436
-671.4765963686034,1441
-668.8202442420206,1478
-666.1646239904642,1447
-663.5097354382001,1444
-660.8555784094151,1463
-658.2021527282176,1447
-655.5494582186366,1421
-652.8974947046223,1488
-650.2462620100463,1478
-647.5957599587009,1433
-644.9459883742998,1500
-642.2969470804776,1500
-639.6486359007902,1515
-637.0010546587141,1555
-634.3542031776476,1506
-631.7080812809096,1508
-629.0626887917401,1503
-626.4180255333008,1490
-623.7740913286734,1546
-621.1308860008619,1486
-618.4884093727904,1564
-615.8466612673046,1508
-613.2056415071715,1488
-610.5653499150785,1480
-607.9257863136347,1501
-605.28695052537,1551
-602.6488423727357,1540
-600.0114616781036,1463
-597.3748082637674,1591
-594.7388819519412,1540
-592.1036825647604,1499
-589.4692099242818,1563
-586.8354638524829,1555
-584.2024441712624,1580
-581.5701507024403,1574
-578.9385832677575,1546
-576.3077416888759,1582
-573.6776257873787,1600
-571.0482353847704,1588
-568.4195703024757,1579
-565.7916303618415,1624
-563.164415384135,1594
-560.5379251905453,1525
-557.9121596021815,1562
-555.2871184400748,1506
-552.6628015251767,1589
-550.0392086783606,1636
-547.4163397204204,1562
-544.794194472071,1636
-542.1727727539491,1673
-539.5520743866118,1658
-536.9320991905377,1634
-534.3128469861261,1726
-531.6943175936979,1738
-529.0765108334947,1688
-526.4594265256793,1750
-523.8430644903358,1876
-521.2274245474689,1939
-518.612506517005,2077
-515.9983102187913,1957
-513.3848354725959,1958
-510.77208209810846,1965
-508.16004991493924,2094
-505.5487387426199,2133
-502.9381484006032,2389
-500.3282787082628,2310
-497.71912948489364,2367
-495.1107005497117,2308
-492.5029917218539,2101
-489.8960028203786,2071
-487.28973366426493,1974
-484.68418407241325,1933
-482.07935386364494,1937
-479.47524285670266,1871
-476.87185087025,1821
-474.2691777228715,1858
-471.66722323307334,1855
-469.0659872192821,1836
-466.4654694998459,1846
-463.86566989303384,1854
-461.26658821703614,1910
-458.66822428996414,1917
-456.07057792985,1920
-453.4736489546475,1848
-450.877437182231,1877
-448.28194243039627,1772
-445.68716451686,1898
-443.09310325926003,1883
-440.49975847515555,1716
-437.9071299820263,1801
-435.31521759727354,1857
-432.72402113821954,1863
-430.13354042210767,1881
-427.5437752661022,1767
-424.95472548728867,1790
-422.36639090267386,1860
-419.7787713291855,1872
-417.1918665836721,1956
-414.60567648290385,1989
-412.0202008435715,1948
-409.4354394822874,1970
-406.8513922155845,1939
-404.26805885991723,1941
-401.685439231661,1956
-399.103533147112,1968
-396.522340422488,1930
-393.9418608739278,1870
-391.3620943174908,1882
-388.7830405691583,1807
-386.2046994448317,1753
-383.6270707603344,1671
-381.05015433141045,1543
-378.473949973725,1388
-375.8984575028645,1342
-373.32367673433623,1207
-370.74960748356875,1060
-368.1762495659117,954
-365.60360279663576,806
-363.03166699093265,713
-360.4604419639154,642
-357.8899275306178,548
-355.32012350599507,550
-352.7510297049233,563
-350.1826459421999,574
-347.61497203254316,541
-345.04800779059235,516
-342.4817530309082,514
-339.91620756797226,540
-337.35137121618743,555
-334.7872437898774,528
-332.22382510328725,543
-329.66111497058273,482
-327.09911320585127,478
-324.53781962310075,515
-321.9772340362607,542
-319.4173562591816,519
-316.8581861056348,521
-314.2997233893127,489
-311.7419679238294,460
-309.1849195227194,478
-306.62857799943856,529
-304.0729431673641,553
-301.51801483979375,518
-298.963792829947,540
-296.41027695096386,613
-293.85746701590574,631
-291.3053628377552,597
-288.7539642294155,658
-286.2032710037115,561
-283.65328297338897,580
-281.1039999511146,670
-278.5554217494762,667
-276.007548180983,585
-273.4603790580651,581
-270.9139141930734,627
-268.3681533982807,641
-265.8230964858798,641
-263.27874326798565,648
-260.7350935566336,701
-258.1921471637804,761
-255.6499039013039,739
-253.10836358100266,771
-250.56752601459698,635
-248.02739101372765,664
-245.48795838995704,691
-242.94922795476816,706
-240.41119951956557,777
-237.8738728956746,849
-235.33724789434166,861
-232.80132432673452,788
-230.2661020039418,690
-227.73158073697357,709
-225.19776033676033,813
-222.66464061415422,774
-220.1322213799284,750
-217.60050244477725,696
-215.06948361931552,736
-212.53916471408013,897
-210.00954553952818,854
-207.48062590603843,773
-204.9524056239104,716
-202.4248845033651,836
-199.8980623545441,870
-197.37193898751036,871
-194.84651421224817,848
-192.32178783866232,784
-189.79775967657952,916
-187.27442953574644,1018
-184.7517972258321,1144
-182.2298625564256,933
-179.7086253370378,805
-177.18808537710026,780
-174.66824248596583,935
-172.14909647290835,1141
-169.6306471471229,1170
-167.11289431772548,1129
-164.59583779375328,915
-162.07947738416453,987
-159.5638128978386,1218
-157.04884414357605,1362
-154.53457093009854,1607
-152.02099306604828,1345
-149.50811035998936,1006
-146.99592262040665,1055
-144.48442965570587,1307
-141.97363127421409,1295
-139.46352728417958,1260
-136.95411749377126,1415
-134.44540171107985,1240
-131.93737974411636,1364
-129.43005140081357,2135
-126.92341648902493,3315
-124.41747481652521,3723
-121.91222619101006,3271
-119.40767042009657,2896
-116.90380731132257,3116
-114.40063667214702,2747
-111.8981583099503,2708
-109.3963720320337,4851
-106.89527764561933,9852
-104.39487495785067,12569
-101.89516377579241,13197
-99.39614390642998,14215
-96.89781515667039,17191
-94.40017733334128,18983
-91.90323024319173,16139
-89.40697369289148,10874
-86.91140748903172,6082
-84.41653143812482,6296
-81.92234534660395,11476
-79.42884902082358,16522
-76.93604226705907,19677
-74.4439248915071,20459
-71.95249670028534,20759
-69.46175749943245,20297
-66.97170709490854,18867
-64.48234529259423,15186
-61.99367189829195,11695
-59.50568671772464,9583
-57.01838955653636,7658
-54.53178022029283,7815
-52.045858514480074,10043
-49.560624244506016,13367
-47.07607721569923,14424
-44.59221723330904,14158
-42.10904410250669,13834
-39.62655762838392,12052
-37.14475761595372,10208
-34.66364387015028,9574
-32.18321619582866,10016
-29.70347439776515,10975
-27.224418280657005,12850
-24.74604764912317,15437
-22.26836230770266,25414
-19.7913620608565,49938
-17.315046712966478,65039
-14.83941606833514,65039
-12.36446993118659,65039
-9.89020810566592,65039
-7.416630395839093,65039
-4.94373660569363,65039
-2.471526539137585,65039
-6.821210263296962E-13,65039
2.47084320796705,65039
4.941003281093458,65039
7.410480415786196,65039
9.879274808531363,65039
12.347386655893956,65039
14.814816154518212,65039
17.28156350112681,65039
19.74762889252179,65039
22.21301252558385,65039
24.67771459727237,20582
27.141735304626195,4229
29.605074844762612,2991
32.06773341487792,2516
34.52971121224755,2039
36.99100843422559,2033
39.45162527824516,2189
41.91156194181792,1900
44.370818622535126,1726
46.82939551806646,1607
49.287292826160524,1797
51.74451074464503,1983
54.201049471426245,1542
56.65690920448981,1327
59.112090141899785,1156
61.56659248179983,1189
64.02041642241159,1227
66.4735621620365,1437
68.92602989905402,1562
71.37781983192338,1511
73.82893215918205,1278
76.27936707944684,1181
78.72912479141326,1154
81.17820549385567,1296
83.62660938562783,1252
86.07433666566146,1135
88.5213875329681,1017
90.96776218663751,972
93.41346082583925,1167
95.85848364982041,1461
98.30283085790859,1625
100.7465026495089,1367
103.18949922410604,1391
105.63182078126385,1179
108.07346752062438,1151
110.51443964190923,1095
112.95473734491827,1072
115.39436082953114,1134
117.83331029570547,971
120.27158594347827,911
122.7091879729652,1108
125.1461165843615,1140
127.58237197794062,966
130.01795435405518,1020
132.4528639131364,1128
134.88710085569494,1201
137.32066538231982,1108
139.75355769367923,1101
142.1857779905207,1040
144.61732647366978,1014
147.04820334403132,974
149.47840880258934,985
151.90794305040674,1080
154.33680628862487,1177
156.76499871846443,1350
159.19252054122433,1623
161.61937195828352,1848
164.04555317109896,2003
166.47106438120693,2324
168.89590579022217,2486
171.320077599839,2661
173.7435800118302,2965
176.16641322804742,3068
178.58857745042144,3205
181.01007288096173,3385
183.43089972175687,3648
185.85105817497413,3540
188.27054844285988,3554
190.6893707277394,3747
193.10752523201643,3857
195.5250121581745,3775
197.9418317087751,3833
200.3579840864594,4002
202.7734694939469,4052
205.18828813403627,4052
207.6024402096051,4132
210.01592592360964,4099
212.42874547908548,4119
214.84089907914665,4185
217.2523869269868,4301
219.66320922587727,4247
222.0733661791695,4241
224.48285799029293,4331
226.8916848627572,4147
229.29984700014882,4245
231.7073446061355,4229
234.11417788446204,4111
236.520347038953,4229
238.92585227351185,4222
241.33069379212054,4315
243.73487179884035,4344
246.1383864978112,4395
248.541238093252,4403
250.9434267894609,4268
253.34495279081432,4333
255.74581630176783,4230
258.1460175268563,4274
260.54555667069314,4260
262.9444339379703,4368
265.3426495334594,4359
267.7402036620107,4285
270.1370965285529,4141
272.53332833809407,4225
274.9288992957214,4041
277.32380960660055,4091
279.718059475976,4058
282.1116491091717,4027
284.5045787115897,4022
286.89684848871195,3996
289.2884586460981,4033
291.67940938938807,4095
294.0697009242996,4210
296.4593334566299,4128
298.84830719225477,3961
301.23662233712923,4021
303.6242790972866,3964
306.01127767884,4027
308.39761828798066,4035
310.78330113097934,4088
313.16832641418534,3955
315.5526943440269,3930
317.9364051270112,4045
320.3194589697242,3908
322.70185607883093,3942
325.0835966610754,3904
327.4646809232805,3803
329.8451090723478,3851
332.2248813152577,3822
334.6039978590701,3860
336.9824589109231,3935
339.36026467803447,3763
341.7374153677,3777
344.113911187295,3833
346.48975234427337,3822
348.8649390461686,3873
351.2394715005918,3868
353.61334991523415,3904
355.9865744978655,3735
358.35914545633375,3884
360.73106299856715,3821
363.10232733257146,3768
365.47293866643247,3827
367.84289720831396,3710
370.2122031664593,3795
372.5808567491905,3793
374.9488581649083,3798
377.31620762209275,3730
379.6829053293021,3715
382.0489514951745,3821
384.4143463284262,3666
386.7790900378528,3639
389.14318283232853,3784
391.50662492080653,3645
393.86941651231916,3661
396.23155781597745,3723
398.5930490409713,3817
400.9538903965696,3807
403.3140820921202,3713
405.6736243370498,3714
408.03251734086336,3642
410.3907613131465,3585
412.74835646356166,3768
415.10530300185144,3704
417.4616011378372,3694
419.81725108141893,3748
422.1722530425758,3756
424.5266072313656,3736
426.880313857925,3661
429.2333731324701,3630
431.58578526529516,3812
433.9375504667738,3775
436.2886689473588,3785
438.63914091758113,3575
440.9889665880513,3738
443.33814616945835,3633
445.68667987257015,3611
448.03456790823395,3618
450.3818104873759,3754
452.72840782100013,3576
455.07436012019105,3681
457.41966759611057,3687
459.7643304600007,3785
462.10834892318155,3715
464.4517231970525,3746
466.79445349309174,3752
469.1365400228566,3728
471.4779829979826,3766
473.81878263018564,3720
476.15893913125876,3698
478.4984527130747,3709
480.8373235875855,3837
483.17555196682144,3746
485.5131380628919,3766
487.8500820879857,3971
490.1863842543697,4226
492.52204477439034,4318
494.8570638604725,4573
497.1914417251204,4746
499.52517858091653,4947
501.85827464052306,4954
504.19073011668036,5003
506.5225452222086,4969
508.85372017000566,5010
511.18425517304956,4959
513.514150444396,5097
515.8434061971808,5759
518.1720226446176,6777
520.4999999999999,6829
522.8273384766991,6519
525.1540382881666,6115
527.480099647932,5621
529.8055227696037,4816
532.1303078668694,4424
534.454455153496,3992
536.777964843328,4028
539.1008371502907,3926
541.4230722883866,3925
543.744670471698,3798
546.0656319143858,3864
548.3859568306899,3825
550.7056454349294,3811
553.0246979415016,3782
555.3431145648834,3717
557.6608955196306,3800
559.978041020377,3803
562.2945512818363,3761
564.6104265188006,3812
566.9256669461412,3946
569.2402727788082,3878
571.5542442318302,3787
573.8675815203156,3744
576.1802848594508,3795
578.4923544645015,3951
580.8037905508126,3991
583.114593333807,3934
585.4247630289875,3861
587.7342998519354,3888
590.0432040183106,3869
592.3514757438526,3807
594.6591152443794,3905
596.9661227357875,3853
599.2724984340531,3846
601.578242555231,3835
603.8833553154542,3905
606.1878369309362,3956
608.4916876179676,3785
610.7949075929192,3877
613.0974970722403,3842
615.3994562724587,3913
617.7007854101818,3921
620.0014847020951,3832
622.3015543649641,3765
624.6009946156324,3837
626.8998056710224,3916
629.1979877481361,3841
631.4955410640538,3878
633.7924658359349,3971
636.0887622810175,3979
638.3844306166192,3999
640.6794710601358,3934
642.9738838290426,3830
645.2676691408932,3918
647.5608272133207,3896
649.853358264037,3925
652.1452625108324,3991
654.4365401715764,3836
656.7271914642178,4040
659.0172166067838,3996
661.3066158173809,3863
663.5953893141935,3890
665.8835373154867,3972
668.1710600396028,3923
670.4579577049639,3892
672.7442305300709,3915
675.0298787335033,4014
677.3149025339197,3962
679.599302150058,4012
681.8830778007342,3911
684.1662297048437,4015
686.4487580813608,3979
688.7306631493387,4021
691.0119451279091,4002
693.2926042362834,4004
695.5726406937516,4023
697.8520547196814,3939
700.1308465335215,3934
702.4090163547982,4039
704.6865644031171,3934
706.9634908981619,4027
709.2397960596965,3945
711.5154801075631,3957
713.7905432616823,3944
716.0649857420548,3917
718.3388077687592,3891
720.612009561953,4032
722.8845913418733,4012
725.1565533288352,4068
727.427895743234,3975
729.6986188055427,3969
731.9687227363137,3967
734.238207756178,3917
736.5070740858458,4000
738.7753219461066,4004
741.0429515578281,3948
743.3099631419569,4035
745.5763569195191,3916
747.8421331116193,4129
750.1072919394409,4144
752.3718336242467,3967
754.6357583873777,4006
756.8990664502545,3952
759.1617580343765,3980
761.423833361321,3938
763.6852926527457,3995
765.9461361303862,3994
768.206364016058,4188
770.4659765316536,4061
772.7249738991469,4057
774.9833563405886,4130
777.2411240781092,4094
779.4982773339183,4071
781.7548163303044,4091
784.010741289634,4051
786.2660524343538,4066
788.5207499869881,4047
790.7748341701416,4104
793.0283052064964,4116
795.2811633188143,4059
797.5334087299362,4033
799.7850416627813,4081
802.0360623403484,4085
804.2864709857143,4004
806.5362678220353,4147
808.7854530725468,4059
811.0340269605625,4049
813.2819897094754,4132
815.5293415427581,4056
817.77608268396,4064
820.0222133567116,4125
822.2677337847211,4173
824.5126441917765,4203
826.7569448017433,4121
829.0006358385675,4210
831.2437175262731,4127
833.4861900889629,4213
835.7280537508192,4099
837.9693087361026,4076
840.2099552691533,4142
842.4499935743896,4177
844.689423876309,4045
846.9282463994886,4146
849.1664613685833,4163
851.4040690083276,4108
853.6410695435349,4164
855.877463199097,4152
858.1132501999847,4172
860.3484307712487,4120
862.5830051380175,4217
864.8169735254988,4262
867.0503361589791,4157
869.2830932638243,4237
871.5152450654786,4157
873.7467917894654,4254
875.9777336613873,4195
878.2080709069252,4200
880.4378037518389,4320
882.666932421968,4211
884.8954571432301,4251
887.1233781416219,4250
889.3506956432192,4281
891.5774098741766,4293
893.803521060728,4216
896.0290294291852,4284
898.2539352059397,4225
900.4782386174619,4262
902.7019398903011,4269
904.925039251085,4227
907.147536926521,4238
909.3694331433943,4303
911.59072812857,4349
913.8114221089921,4166
916.0315153116827,4181
918.2510079637437,4231
920.4699002923547,4216
922.6881925247761,4157
924.905884888345,4102
927.1229776104793,4126
929.3394709186747,4072
931.555365040506,4179
933.7706602036275,4099
935.9853566357709,4195
938.1994545647489,4152
940.4129542184515,4190
942.6258558248488,4231
944.8381596119883,4314
947.0498658079974,4117
949.2609746410825,4307
951.4714863395287,4242
953.6814011316998,4141
955.8907192460387,4116
958.0994409110671,4237
960.3075663553858,4147
962.5150958076741,4167
964.7220294966913,4165
966.928367651274,4153
969.1341105003388,4145
971.3392582728806,4184
973.5438111979742,4055
975.747769504772,4147
977.9511334225061,4117
980.153903180487,4249
982.3560790081052,4126
984.5576611348289,4191
986.7586497902058,4147
988.9590452038618,4074
991.158847605503,3915
993.3580572249133,4055
995.5566742919558,4139
997.7546990365728,4023
999.952131688785,4015
1002.1489724786926,3946
1004.3452216364743,3891
1006.5408793923874,3920
1008.7359459767691,3826
1010.9304216200343,3956
1013.1243065526781,3846
1015.3176010052733,3955
1017.510305208472,3908
1019.7024193930064,3987
1021.8939437896848,3953
1024.0848786293977,3832
1026.2752241431122,3911
1028.4649805618747,3948
1030.6541481168115,3898
1032.842727039127,3928
1035.0307175601051,3884
1037.2181199111074,3941
1039.4049343235752,3907
1041.591161029029,3768
1043.7768002590683,3759
1045.9618522453698,3877
1048.1463172196918,3892
1050.3301954138697,3880
1052.513487059818,3828
1054.69619238953,3823
1056.8783116350783,3943
1059.0598450286152,3989
1061.2407928023704,3943
1063.4211551886528,3969
1065.6009324198508,3983
1067.780124728432,3942
1069.9587323469414,3813
1072.1367555080046,3854
1074.314194444325,3888
1076.4910493886855,3988
1078.667320573947,3928
1080.843008233051,3775
1083.0181125990161,3857
1085.1926339049414,3888
1087.3665723840027,3886
1089.5399282694575,3878
1091.7127017946405,3860
1093.8848931929647,3888
1096.0565026979243,3947
1098.2275305430899,3839
1100.3979769621128,3862
1102.567842188722,3738
1104.737126456726,3861
1106.9058300000124,3805
1109.0739530525475,3828
1111.2414958483764,3983
1113.4084586216231,3865
1115.5748416064907,3823
1117.7406450372605,3858
1119.9058691482942,3808
1122.0705141740304,3884
1124.2345803489884,3796
1126.3980679077658,3802
1128.5609770850388,3892
1130.7233081155623,3940
1132.8850612341707,3871
1135.0462366757774,3829
1137.2068346753745,3870
1139.3668554680326,3906
1141.526299288901,3848
1143.68516637321,3854
1145.8434569562655,3882
1148.001171273455,3907
1150.158309560244,3826
1152.3148720521767,3833
1154.470858984876,3796
1156.626270594044,3873
1158.7811071154629,3836
1160.9353687849912,3895
1163.089055838569,3900
1165.242168512213,3843
1167.3947070420209,3821
1169.5466716641677,3790
1171.6980626149075,3856
1173.8488801305748,3748
1175.9991244475814,3762
1178.1487958024186,3835
1180.2978944316555,3859
1182.4464205719428,3767
1184.5943744600072,3804
1186.7417563326567,3724
1188.8885664267755,3812
1191.0348049793297,3824
1193.1804722273619,3772
1195.325568407995,3898
1197.4700937584303,3840
1199.614048515948,3821
1201.7574329179074,3896
1203.900247201746,3820
1206.042491604982,3958
1208.1841663652099,3857
1210.3252717201053,3848
1212.465807907422,3808
1214.6057751649923,3766
1216.7451737307279,3968
1218.8840038426192,3858
1221.0222657387353,3889
1223.1599596572241,3838
1225.2970858363137,3842
1227.4336445143094,3918
1229.5696359295966,3805
1231.705060320639,3878
1233.8399179259786,3866
1235.9742089842384,3952
1238.107933734118,3896
1240.2410924143974,3891
1242.373685263935,3942
1244.5057125216676,3921
1246.6371744266116,3991
1248.7680712178621,3827
1250.898403134593,3925
1253.028170416058,3971
1255.1573733015875,3912
1257.2860120305932,3940
1259.4140868425648,3929
1261.54159797707,3927
1263.6685456737569,3960
1265.7949301723515,3916
1267.9207517126597,3962
1270.046010534565,3973
1272.1707068780306,3923
1274.2948409830983,3943
1276.4184130898889,4031
1278.541423438603,4014
1280.6638722695184,3958
1282.785759822993,3916
1284.9070863394636,4056
1287.0278520594447,4037
1289.1480572235314,4024
1291.2677020723963,4068
1293.3867868467923,4008
1295.5053117875495,4100
1297.623277135579,4040
1299.740683131868,4124
1301.8575300174857,4077
1303.973818033578,4133
1306.0895474213703,4117
1308.2047184221678,4116
1310.3193312773528,4181
1312.4333862283888,4145
1314.5468835168163,4131
1316.659823384255,4254
1318.7722060724045,4063
1320.8840318230418,4140
1322.9953008780249,4111
1325.1060134792888,4068
1327.2161698688478,4198
1329.3257702887959,4070
1331.4348149813054,4189
1333.5433041886276,4122
1335.6512381530933,4164
1337.7586171171101,4123
1339.8654413231675,4235
1341.9717110138317,4167
1344.0774264317488,4066
1346.1825878196432,4138
1348.2871954203192,4190
1350.3912494766587,4168
1352.4947502316231,4063
1354.5976979282532,4057
1356.7000928096686,4095
1358.8019351190665,4101
1360.9032250997243,4090
1363.0039629949988,4038
1365.1041490483235,4160
1367.2037835032133,4080
1369.3028666032606,4073
1371.401398592137,4103
1373.4993797135926,4115
1375.5968102114575,4161
1377.6936903296396,4178
1379.7900203121262,4081
1381.8858004029835,4189
1383.9810308463561,4157
1386.075711886469,4242
1388.1698437676241,4180
1390.2634267342032,4158
1392.356461030667,4182
1394.4489469015557,4189
1396.5408845914872,4267
1398.6322743451592,4296
1400.7231164073469,4278
1402.813411022907,4149
1404.903158436773,4267
1406.9923588939578,4268
1409.0810126395531,4282
1411.1691199187303,4282
1413.2566809767386,4174
1415.343696058907,4354
1417.4301654106425,4226
1419.5160892774315,4236
1421.6014679048399,4196
1423.6863015385125,4195
1425.7705904241707,4302
1427.8543348076178,4343
1429.9375349347342,4296
1432.0201910514802,4188
1434.102303403894,4334
1436.1838722380944,4324
1438.2648978002767,4307
1440.3453803367174,4426
1442.4253200937692,4249
1444.5047173178677,4266
1446.5835722555234,4378
1448.6618851533285,4439
1450.739656257952,4414
1452.8168858161434,4410
1454.8935740747306,4530
1456.96972128062,4494
1459.045327680797,4555
1461.120393522327,4534
1463.1949190523528,4599
1465.2689045180973,4657
1467.3423501668608,4648
1469.415256246024,4619
1471.4876230030463,4698
1473.559450685465,4705
1475.6307395408976,4801
1477.7014898170391,4794
1479.771701761665,4844
1481.8413756226287,4784
1483.9105116478618,4847
1485.9791100853772,4900
1488.0471711832643,4937
1490.1146951896926,5011
1492.1816823529098,4928
1494.2481329212433,4953
1496.3140471430984,5091
1498.3794252669609,5096
1500.4442675413939,5112
1502.5085742150404,5079
1504.572345536622,5090
1506.6355817549388,5142
1508.6982831188702,5248
1510.7604498773744,5061
1512.8220822794883,5345
1514.8831805743293,5338
1516.9437450110909,5286
1519.003775839048,5274
1521.0632733075522,5364
1523.1222376660367,5460
1525.1806691640113,5511
1527.2385680510652,5536
1529.2959345768668,5508
1531.3527689911643,5570
1533.4090715437833,5690
1535.4648424846291,5636
1537.5200820636855,5763
1539.5747905310159,5901
1541.6289681367616,5767
1543.6826151311434,5929
1545.7357317644614,5819
1547.7883182870937,5992
1549.8403749494987,5983
1551.8919020022113,6051
1553.9428996958477,6068
1555.9933682811015,6219
1558.0433080087469,6266
1560.0927191296346,6326
1562.1416018946961,6356
1564.1899565549415,6407
1566.2377833614592,6271
1568.2850825654164,6051
1570.3318544180606,6143
1572.3780991707158,6000
1574.423817074788,5727
1576.4690083817595,5716
1578.5136733431923,5697
1580.5578122107272,5558
1582.601425236085,5306
1584.6445126710646,5393
1586.6870747675434,5193
1588.7291117774776,5148
1590.7706239529034,4968
1592.8116115459347,4971
1594.8520748087658,4762
1596.8920139936686,4789
1598.9314293529933,4732
1600.9703211391711,4671
1603.008689604711,4691
1605.0465350022005,4589
1607.0838575843068,4410
1609.1206576037753,4565
1611.1569353134305,4459
1613.1926909661765,4393
1615.2279248149953,4371
1617.2626371129481,4460
1619.2968281131757,4394
1621.3304980688963,4293
1623.3636472334088,4252
1625.39627586009,4267
1627.428384202396,4353
1629.459972513861,4333
1631.4910410480993,4173
1633.5215900588028,4350
1635.551619799744,4269
1637.5811305247717,4327
1639.6101224878166,4224
1641.6385959428862,4237
1643.6665511440683,4286
1645.693988345528,4220
1647.7209078015112,4114
1649.7473097663405,4233
1651.7731944944203,4242
1653.7985622402307,4191
1655.823413258333,4231
1657.847747803366,4202
1659.8715661300494,4170
1661.8948684931793,4211
1663.9176551476316,4121
1665.9399263483624,4260
1667.9616823504057,4193
1669.982923408873,4216
1672.0036497789574,4203
1674.0238617159293,4128
1676.043559475138,4222
1678.0627433120121,4167
1680.081413482059,4126
1682.0995702408654,4270
1684.117213844096,4129
1686.134344547495,4131
1688.1509626068864,4200
1690.1670682781705,4257
1692.182661817329,4168
1694.1977434804217,4163
1696.2123135235875,4287
1698.226372203043,4214
1700.2399197750851,4174
1702.2529564960905,4099
1704.2654826225112,4166
1706.277498410882,4165
1708.2890041178139,4224
1710.2999999999988,4118
1712.3104863142066,4197
1714.3204633172854,4196
1716.329931266163,4206
1718.3388904178469,4096
1720.3473410294214,4121
1722.3552833580516,4149
1724.3627176609807,4102
1726.3696441955308,4161
1728.3760632191033,4167
1730.3819749891782,4164
1732.3873797633146,4219
1734.3922777991502,4152
1736.3966693544012,4197
1738.4005546868639,4158
1740.4039340544127,4124
1742.406807715001,4155
1744.4091759266616,4147
1746.4110389475054,4246
1748.4123970357223,4114
1750.413250449582,4118
1752.4135994474318,4041
1754.4134442876993,4092
1756.4127852288902,4063
1758.4116225295893,4177
1760.4099564484595,4240
1762.407787244244,4180
1764.405115175764,4151
1766.4019405019203,4058
1768.3982634816916,4080
1770.3940843741357,4027
1772.3894034383907,4182
1774.3842209336717,4067
1776.378537119274,4060
1778.372352254571,4078
1780.3656665990156,4084
1782.3584804121397,4107
1784.3507939535534,4177
1786.3426074829463,4111
1788.3339212600863,4085
1790.3247355448211,4050
1792.3150505970766,4104
1794.3048666768573,4066
1796.2941840442477,4047
1798.2830029594106,4108
1800.2713236825884,4110
1802.2591464741004,4154
1804.2464715943465,4123
1806.2332993038058,4035
1808.2196298630352,4162
1810.2054635326708,4038
1812.190800573428,4039
1814.175641246101,4104
1816.1599858115628,4082
1818.1438345307652,4104
1820.127187664738,4161
1822.1100454745924,4165
1824.092408221516,4078
1826.0742761667766,4069
1828.055649571721,4074
1830.0365286977735,4199
1832.0169138064398,4096
1833.9968051593014,4046
1835.9762030180214,4058
1837.9551076443408,4112
1839.9335193000788,4111
1841.9114382471344,4107
1843.888864747485,4037
1845.8657990631878,4057
1847.842241456378,4037
1849.8181921892697,4088
1851.7936515241558,4065
1853.7686197234098,4028
1855.7430970494815,4115
1857.7170837649014,4005
1859.6905801322787,4175
1861.6635864143004,3996
1863.6361028737338,4083
1865.608129773424,4033
1867.5796673762961,4163
1869.5507159453537,4120
1871.521275743678,4128
1873.4913470344313,4152
1875.4609300808534,4155
1877.4300251462632,4085
1879.3986324940588,4095
1881.366752387717,4071
1883.3343850907936,4236
1885.3015308669228,4147
1887.268189979819,4170
1889.2343626932739,4092
1891.2000492711595,4116
1893.1652499774254,4120
1895.1299650761011,4183
1897.0941948312952,4148
1899.0579395071945,4169
1901.0211993680641,4189
1902.98397467825,4123
1904.9462657021745,4201
1906.9080727043415,4314
1908.869395949332,4184
1910.8302357018065,4033
1912.790592226504,4125
1914.7504657882428,4146
1916.7098566519212,4007
1918.6687650825133,4121
1920.6271913450764,4037
1922.5851357047422,4140
1924.5425984267245,4108
1926.499579776314,4140
1928.4560800188833,4080
1930.4120994198802,4164
1932.367638244833,4112
1934.32269675935,4185
1936.2772752291175,4151
1938.231373919899,4118
1940.1849930975404,4163
1942.1381330279637,4149
1944.0907939771696,3985
1946.0429762112412,4071
1947.9946799963363,4087
1949.9459055986945,4078
1951.896653284633,4184
1953.8469233205478,4185
1955.7967159729142,4142
1957.7460315082863,4094
1959.6948701932974,4066
1961.6432322946594,4183
1963.5911180791632,4173
1965.5385278136787,4210
1967.4854617651545,4190
1969.4319202006182,4297
1971.377903387176,4094
1973.3234115920136,4088
1975.268445082395,4041
1977.2130041256642,4092
1979.1570889892423,4254
1981.1006999406304,4235
1983.04383724741,4185
1984.986501177238,4223
1986.928691997853,4111
1988.8704099770712,4135
1990.811655382789,4146
1992.7524284829801,4135
1994.692729545698,4162
1996.6325588390755,4095
1998.5719166313224,4215
2000.5108031907307,4212
2002.4492187856677,4164
2004.387163684583,4097
2006.3246381560011,4130
2008.2616424685298,4119
2010.1981768908527,4110
2012.1342416917332,4145
2014.069837140014,4218
2016.0049635046162,4208
2017.9396210545406,4198
2019.8738100588666,4194
2021.8075307867502,4191
2023.740783507431,4085
2025.6735684902228,4183
2027.6058860045214,4121
2029.5377363198004,4180
2031.4691197056118,4133
2033.4000364315875,4172
2035.3304867674374,4148
2037.260470982952,4159
2039.189989347998,4157
2041.1190421325232,4163
2043.047629606554,4190
2044.9757520401945,4288
2046.9034097036288,4129
2048.8306028671195,4256
2050.7573318010086,4159
2052.683596775716,4160
2054.609398061742,4281
2056.5347359296647,4186
2058.4596106501403,4162
2060.384022493906,4162
2062.3079717317764,4162
2064.231458634646,4230
2066.1544834734873,4196
2068.077046519352,4261
2069.99914804337,4104
2071.9207883167524,4253
2073.8419676107865,4187
2075.7626861968406,4209
2077.6829443463607,4195
2079.6027423308715,4196
2081.522080421977,4214
2083.440958891362,4323
2085.359378010786,4203
2087.2773380520907,4187
2089.194839287196,4212
2091.111881988101,4121
2093.0284664268825,4218
2094.9445928756973,4256
2096.86026160678,4283
2098.775472892446,4278
2100.690227005088,4280
2102.604524217178,4245
2104.5183648012676,4225
2106.431749029985,4148
2108.34467717604,4254
2110.2571495122206,4299
2112.169166311393,4270
2114.080727846503,4270
2115.9918343905747,4232
2117.902486216711,4168
2119.8126835980956,4242
2121.722426807987,4286
2123.6317161197285,4246
2125.5405518067364,4272
2127.448934142509,4387
2129.356863400624,4231
2131.264339854737,4227
2133.1713637785815,4235
2135.077935445972,4304
2136.9840551308002,4347
2138.889723107037,4285
2140.7949396487334,4265
2142.699705030018,4372
2144.6040195250994,4343
2146.507883408264,4345
2148.4112969538774,4342
2150.3142604363848,4387
2152.2167741303097,4374
2154.1188383102535,4401
2156.0204532508997,4394
2157.9216192270064,4408
2159.822336513414,4352
2161.7226053850413,4415
2163.622426116884,4393
2165.5217989840185,4433
2167.4207242616,4354
2169.319202224862,4304
2171.2172331491165,4349
2173.1148173097563,4528
2175.0119549822507,4378
2176.90864644215,4468
2178.8048919650823,4406
2180.7006918267534,4333
2182.596046302952,4413
2184.4909556695407,4550
2186.3854202024645,4409
2188.279440177746,4378
2190.173015871487,4478
2192.066147559868,4396
2193.958835519149,4488
2195.851080025667,4505
2197.7428813558417,4419
2199.6342397861667,4456
2201.5251555932186,4524
2203.415629053651,4539
2205.3056604441986,4514
2207.19525004167,4495
2209.084398122958,4536
2210.9731049650327,4504
2212.861370844941,4567
2214.749196039812,4534
2216.636580826851,4615
2218.523525483344,4491
2220.410030286655,4554
2222.296095514226,4570
2224.1817214435805,4657
2226.066908352319,4441
2227.951656518121,4557
2229.835966218746,4503
2231.71983773203,4626
2233.6032713358913,4545
2235.486267308324,4505
2237.3688259274036,4540
2239.2509474712824,4542
2241.132632218193,4475
2243.013880446447,4567
2244.8946924344323,4616
2246.7750684606203,4602
2248.6550088035574,4538
2250.534513741871,4584
2252.413583554265,4757
2254.292218519526,4503
2256.170418916517,4483
2258.0481850241786,4428
2259.925517121534,4439
2261.8024154876825,4524
2263.678880401803,4400
2265.5549121431536,4534
2267.430510991071,4499
2269.305677224971,4622
2271.180411124348,4534
2273.0547129687766,4519
2274.9285830379076,4412
2276.8020216114737,4429
2278.6750289692845,4465
2280.5476053912294,4552
2282.4197511572766,4549
2284.2914665474727,4547
2286.162751841943,4547
2288.0336073208937,4530
2289.904033264608,4587
2291.774029953448,4504
2293.6435976678554,4421
2295.5127366883517,4585
2297.381447295534,4487
2299.2497297700825,4483
2301.1175843927526,4400
2302.9850114443825,4398
2304.852011205885,4324
2306.7185839582553,4356
2308.5847299825664,4277
2310.4504495599676,4467
2312.3157429716925,4405
2314.1806104990483,4375
2316.0450524234247,4395
2317.9090690262888,4446
2319.772660589186,4324
2321.635827393742,4390
2323.498569721661,4296
2325.3608878547248,4313
2327.2227820747967,4396
2329.0842526638157,4330
2330.945299903803,4336
2332.805924076857,4306
2334.6661254651535,4397
2336.525904350951,4339
2338.3852610165827,4240
2340.244195744464,4263
2342.102708817088,4436
2343.9608005170253,4352
2345.8184711269287,4322
2347.675720929526,4450
2349.532550207628,4381
2351.38895924412,4372
2353.24494832197,4386
2355.100517724223,4293
2356.955667734004,4412
2358.810398634514,4398
2360.664710709037,4371
2362.5186042409337,4372
2364.3720795136437,4304
2366.225136810686,4362
2368.0777764156583,4373
2369.929998612237,4355
2371.7818036841777,4380
2373.633191915315,4442
2375.484163589562,4377
2377.3347189909114,4402
2379.184858403434,4368
2381.03458211128,4356
2382.8838903986775,4355
2384.732783549936,4365
2386.5812618494406,4293
2388.4293255816588,4455
2390.2769750311327,4327
2392.1242104824883,4371
2393.971032220427,4400
2395.8174405297295,4263
2397.6634356952563,4448
2399.509018001947,4407
2401.3541877348193,4392
2403.1989451789705,4360
2405.043290619576,4504
2406.8872243418905,4369
2408.730746631247,4444
2410.5738577730594,4466
2412.4165580528183,4348
2414.258847756095,4387
2416.100727168537,4443
2417.9421965758734,4395
2419.783256263912,4359
2421.623906518538,4358
2423.4641476257157,4447
2425.303979871491,4450
2427.143403541984,4434
2428.9824189233977,4356
2430.821026302012,4431
2432.6592259641866,4303
2434.497018196361,4396
2436.33440328505,4367
2438.171381516851,4474
2440.00795317844,4447
2441.844118556569,4509
2443.6798779380724,4484
2445.5152316098606,4462
2447.3501798589255,4457
2449.1847229723357,4415
2451.0188612372403,4468
2452.8525949408663,4532
2454.6859243705203,4475
2456.518849813587,4471
2458.3513715575314,4554
2460.183489889895,4555
2462.015205098301,4498
2463.8465174704493,4403
2465.67742729412,4456
2467.5079348571717,4491
2469.338040447542,4416
2471.1677443532476,4487
2472.9970468623833,4561
2474.825948263123,4466
2476.6544488437207,4530
2478.482548892508,4417
2480.310248697896,4408
2482.137548548374,4384
2483.9644487325118,4512
2485.790949538956,4472
2487.617051256433,4406
2489.44275417375,4620
2491.26805857979,4482
2493.0929647635157,4440
2494.917473013971,4455
2496.741583620276,4531
2498.5652968716304,4550
2500.3886130573137,4543
2502.2115324666834,4545
2504.0340553891765,4523
2505.856182114308,4488
2507.6779129316733,4538
2509.499248130945,4620
2511.3201880018764,4497
2513.140732834298,4438
2514.9608829181198,4441
2516.780638543331,4589
2518.6,4528
2520.418967578273,4526
2522.237541568376,4569
2524.0557222606144,4464
2525.8735099453706,4573
2527.6909049131086,4556
2529.507907454368,4553
2531.32451785977,4616
2533.140736420014,4598
2534.9565634258774,4578
2536.771999168218,4603
2538.5870439379714,4644
2540.4016980261526,4564
2542.2159617238544,4710
2544.02983532225,4729
2545.8433191125914,4679
2547.656413386209,4588
2549.4691184345115,4672
2551.2814345489874,4694
2553.093362021204,4568
2554.904901142808,4583
2556.716052205523,4656
2558.526815501153,4689
2560.3371913215824,4671
2562.147179958771,4752
2563.956781704761,4673
2565.7659968516705,4670
2567.5748256916986,4719
2569.3832685171224,4712
2571.1913256202984,4783
2572.9989972936614,4780
2574.806283829725,4782
2576.613185521084,4730
2578.4197026604074,4713
2580.2258355404483,4757
2582.031584454035,4765
2583.836949694077,4786
2585.6419315535613,4780
2587.4465303255533,4797
2589.2507463032002,4892
2591.0545797797245,4803
2592.8580310484303,4848
2594.6611004026995,4821
2596.463788135992,4767
2598.266094541849,4851
2600.0680199138874,4812
2601.869564545807,4801
2603.670728731383,4709
2605.4715127644704,4882
2607.2719169390048,4904
2609.071941548998,4773
2610.8715868885433,4810
2612.670853251811,4845
2614.469740933052,4875
2616.268250226594,4830
2618.0663814268455,4893
2619.864134828292,4848
2621.6615107255006,4928
2623.458509413115,4969
2625.2551311858597,4794
2627.0513763385347,4858
2628.8472451660223,4749
2630.6427379632833,4805
2632.4378550253564,4813
2634.232596647359,4732
2636.026963124488,4757
2637.8209547520187,4761
2639.6145718253065,4791
2641.407814639785,4820
2643.200683490966,4899
2644.9931786744414,4781
2646.7853004858807,4812
2648.577049221034,4665
2650.3684251757277,4743
2652.1594286458712,4851
2653.9500599274484,4731
2655.740319316525,4812
2657.5302071092437,4857
2659.3197236018286,4691
2661.10886909058,4785
2662.8976438718782,4660
2664.686048242183,4676
2666.4740824980327,4679
2668.2617469360443,4763
2670.0490418529134,4740
2671.8359675454153,4706
2673.622524310403,4723
2675.408712444811,4654
2677.1945322456495,4704
2678.979984010009,4664
2680.76506803506,4729
2682.5497846180497,4706
2684.334134056306,4646
2686.1181166472343,4642
2687.9017326883213,4604
2689.6849824771293,4703
2691.4678663113013,4642
2693.2503844885596,4715
2695.032537306705,4674
2696.8143250636167,4611
2698.5957480572542,4669
2700.3768065856534,4527
2702.1575009469316,4508
2703.937831439283,4638
2705.717798360982,4593
2707.4974020103837,4539
2709.276642685917,4579
2711.055520686095,4614
2712.834036309506,4599
2714.612189854819,4540
2716.389981620782,4725
2718.1674119062204,4631
2719.944481010041,4586
2721.721189231226,4583
2723.4975368688415,4619
2725.273524222027,4621
2727.0491515900053,4692
2728.824419272075,4527
2730.5993275676146,4697
2732.3738767760838,4512
2734.148067197016,4579
2735.921899130031,4641
2737.6953728748194,4566
2739.468488731156,4577
2741.2412469988926,4499
2743.0136479779617,4439
2744.785691968372,4536
2746.5573792702116,4510
2748.3287101836504,4615
2750.099685008934,4615
2751.870304046388,4611
2753.640567596418,4647
2755.4104759595057,4589
2757.1800294362156,4580
2758.949228327187,4519
2760.7180729331412,4580
2762.486563554877,4684
2764.254700493272,4641
2766.022484049284,4595
2767.789914523947,4531
2769.5569922183786,4548
2771.3237174337705,4533
2773.090090471394,4533
2774.8561116326036,4555
2776.6217812188274,4660
2778.3870995315756,4667
2780.1520668724356,4610
2781.9166835430747,4642
2783.6809498452394,4633
2785.444866080754,4560
2787.2084325515225,4590
2788.971649559527,4572
2790.73451740683,4605
2792.4970363955713,4540
2794.2592068279705,4573
2796.0210290063264,4575
2797.7825032330147,4639
2799.543629810493,4622
2801.304409041296,4472
2803.0648412280366,4695
2804.8249266734088,4508
2806.5846656801846,4600
2808.344058551212,4590
2810.1031055894246,4710
2811.8618070978273,4588
2813.6201633795085,4615
2815.378174737636,4695
2817.1358414754536,4678
2818.893163896285,4613
2820.6501423035334,4664
2822.4067770006814,4741
2824.1630682912883,4707
2825.9190164789957,4686
2827.6746218675207,4685
2829.429884760661,4649
2831.184805462294,4606
2832.9393842763743,4770
2834.693621506936,4615
2836.4475174580916,4650
2838.201072434034,4645
2839.954286739034,4658
2841.707160677441,4606
2843.459694553685,4682
2845.2118886722724,4730
2846.96374333779,4688
2848.7152588549034,4692
2850.4664355283567,4707
2852.217273662973,4678
2853.9677735636546,4737
2855.7179355353833,4723
2857.4677598832186,4644
2859.217246912299,4781
2860.9663969278427,4710
2862.715210235146,4721
2864.4636871395846,4702
2866.211827946614,4726
2867.9596329617652,4746
2869.7071024906536,4603
2871.4542368389684,4639
2873.20103631248,4661
2874.947501217038,4624
2876.6936318585695,4719
2878.4394285430812,4583
2880.1848915766604,4582
2881.9300212654707,4730
2883.6748179157553,4596
2885.4192818338374,4690
2887.1634133261173,4711
2888.907212699077,4690
2890.6506802592744,4708
2892.393816313348,4722
2894.1366211680142,4658
2895.8790951300693,4694
2897.621238506388,4714
2899.363051603925,4642
2901.1045347297118,4678
2902.8456881908596,4712
2904.58651229456,4704
2906.327007348081,4687
2908.067173658772,4637
2909.8070115340597,4783
2911.5465212814497,4623
2913.285703208527,4702
2915.0245576229563,4615
2916.7630848324807,4685
2918.5012851449196,4587
2920.2391588681758,4645
2921.976706310227,4581
2923.7139277791334,4748
2925.4508235830313,4686
2927.187394030137,4609
2928.923639428745,4619
2930.6595600872306,4742
2932.395156314046,4639
2934.1304284177218,4716
2935.8653767068713,4627
2937.6000014901815,4795
2939.3343030764227,4677
2941.068281774442,4718
2942.8019378931644,4710
2944.5352717415976,4745
2946.2682836288236,4835
2948.0009738640065,4751
2949.7333427563885,4699
2951.465390615289,4740
2953.1971177501086,4676
2954.9285244703265,4733
2956.6596110855,4663
2958.3903779052657,4718
2960.1208252393385,4651
2961.8509533975125,4730
2963.5807626896617,4610
2965.3102534257378,4663
2967.0394259157715,4680
2968.768280469873,4721
2970.496817398232,4721
2972.2250370111146,4747
2973.952939618869,4798
2975.6805255319196,4811
2977.4077950607707,4734
2979.134748516006,4796
2980.861386208289,4824
2982.587708448359,4787
2984.313715547037,4802
2986.039407815222,4719
2987.764785563891,4793
2989.489849104102,4802
2991.2145987469908,4735
2992.9390348037705,4729
2994.6631575857346,4805
2996.3869674042576,4744
2998.1104645707887,4707
2999.83364939686,4715
3001.5565221940783,4831
3003.2790832741334,4731
3005.0013329487924,4701
3006.7232715298996,4751
3008.4448993293804,4730
3010.166216659239,4740
3011.887223831558,4688
3013.607921158498,4702
3015.3283089522993,4847
3017.0483875252826,4775
3018.7681571898443,4673
3020.4876182584626,4782
3022.2067710436927,4819
3023.9256158581707,4868
3025.644153014609,4858
3027.362382825801,4840
3029.0803056046193,4747
3030.797921664012,4872
3032.5152313170106,4784
3034.2322348767225,4715
3035.9489326563353,4880
3037.665324969115,4720
3039.3814121284063,4919
3041.097194447633,4814
3042.812672240299,4814
3044.5278458199855,4769
3046.2427155003525,4849
3047.9572815951406,4811
3049.671544418167,4702
3051.38550428333,4725
3053.0991615046073,4841
3054.812516396051,4834
3056.5255692717974,4716
3058.2383204460575,4728
3059.9507702331257,4775
3061.662918947372,4825
3063.3747669032446,4782
3065.0863144152736,4756
3066.7975617980674,4806
3068.508509366309,4846
3070.219157434767,4826
3071.9295063182844,4790
3073.639556331785,4911
3075.3493077902704,4810
3077.058761008821,4810
3078.7679163025964,4787
3080.476773986837,4812
3082.1853343768594,4881
3083.89359778806,4810
3085.6015645359153,4853
3087.3092349359786,4823
3089.016609303884,4750
3090.7236879553434,4826
3092.4304712061476,4853
3094.136959372166,4796
3095.843152769349,4750
3097.5490517137237,4996
3099.2546565213966,4912
3100.959967508554,4893
3102.66498499146,4868
3104.3697092864577,4917
3106.0741407099695,5025
3107.778279578498,4921
3109.482126208622,4744
3111.1856809170004,4867
3112.8889440203716,4883
3114.5919158355528,4893
3116.294596679439,4918
3117.996986869006,4916
3119.6990867213062,5031
3121.4008965534726,5026
3123.102416682717,5036
3124.803647426329,4944
3126.5045891016784,5023
3128.205242026213,5036
3129.90560651746,4935
3131.605682893025,4902
3133.3054714705922,4971
3135.0049725679282,4936
3136.7041865028714,4898
3138.4031135933465,4841
3140.101754157353,4995
3141.800108512971,4963
3143.498176978357,5032
3145.1959598717494,4922
3146.8934575114636,5004
3148.5906702158954,4947
3150.2875983035183,4838
3151.9842420928853,4985
3153.680601902627,4915
3155.376678051456,4914
3157.07247085816,4883
3158.767980641609,4850
3160.463207720748,4800
3162.158152414606,4880
3163.8528150422862,4823
3165.5471959229726,4886
3167.2412953759303,4915
3168.9351137204976,4923
3170.628651276098,4856
3172.3219083622307,4963
3174.014885298474,5045
3175.707582404485,4887
3177.4000000000005,5075
3179.092138404835,5019
3180.7839979388846,5077
3182.47557892212,4949
3184.166881674594,5032
3185.8579065164386,5036
3187.5486537678626,4914
3189.2391237491547,5101
3190.9293167806827,5031
3192.6192331828934,4947
3194.3088732763117,4920
3195.998237381542,4942
3197.687325819268,4921
3199.376138910251,4921
3201.064676975334,4970
3202.7529403354347,5054
3204.4409293115523,4855
3206.1286442247647,5002
3207.816085396229,4941
3209.5032531471825,4969
3211.190147798936,4848
3212.8767696728846,4935
3214.5631190905015,4805
3216.2491963733373,4927
3217.9350018430214,4773
3219.6205358212637,4791
3221.305798629851,4810
3222.990790590651,4897
3224.6755120256103,4936
3226.359963256751,4938
3228.0441446061795,4846
3229.7280563960758,4930
3231.411698948703,4927
3233.0950725863995,4960
3234.778177631587,4944
3236.461014406761,5030
3238.1435832345005,4976
3239.8258844374595,4973
3241.507918338374,5008
3243.1896852600576,5015
3244.8711855254023,5016
3246.552419457381,4994
3248.233387379042,4973
3249.914089613516,4938
3251.59452648401,5051
3253.274698313813,5073
3254.95460542629,4840
3256.6342481448855,4943
3258.313626793125,4997
3259.9927416946084,4970
3261.6715931730196,4895
3263.3501815521176,4891
3265.0285071557437,4784
3266.706570307815,4858
3268.3843713323286,4967
3270.0619105533615,4934
3271.739188295068,4863
3273.4162048816834,4973
3275.0929606375184,4921
3276.769455886966,4826
3278.445690954498,5091
3280.1216661646613,4931
3281.797381842087,5042
3283.4728383114807,5147
3285.1480358976296,5051
3286.8229749253996,4977
3288.4976557197333,4980
3290.172078605655,4873
3291.846243908266,4872
3293.5201519527463,4949
3295.193803064357,4890
3296.8671975684374,4971
3298.5403357904024,4869
3300.21321805575,4979
3301.8858446900567,4849
3303.558216018975,5003
3305.23033236824,5015
3306.9021940636603,5124
3308.57380143113,5129
3310.2451547966184,5134
3311.916254486174,5215
3313.5871008259246,5075
3315.2576941420766,5076
3316.9280347609147,5087
3318.5981230088046,4998
3320.2679592121895,4935
3321.9375436975924,4988
3323.606876791612,4980
3325.27595882093,4908
3326.944790112305,4907
3328.6133709925753,4862
3330.2817017886573,4888
3331.949782827547,4931
3333.617614436319,5064
3335.2851969421245,4995
3336.952530672199,4987
3338.619615953853,5127
3340.286453114475,5192
3341.9530424815357,5052
3343.619384382583,4979
3345.2854791452437,5142
3346.951327097224,5002
3348.6169285663073,5137
3350.2822838803577,5123
3351.947393367319,5198
3353.61225735521,4990
3355.2768761721345,5127
3356.9412501462693,5136
3358.605379605873,5086
3360.2692648792827,5001
3361.9329062949146,4968
3363.596304181263,4977
