CollectionTime,7/9/2024 3:49:40 PM
ExposureUsed,3
CalibratedSpectrum
-962.7078968117929,513
-959.9714848408522,526
-957.2358232597828,550
-954.5009119013725,522
-951.7667505983302,555
-949.0333391832855,559
-946.3006774887896,555
-943.5687653473143,538
-940.837602591253,526
-938.1071890529199,527
-935.3775245645503,578
-932.6486089583007,537
-929.9204420662485,542
-927.1930237203925,561
-924.4663537526524,546
-921.7404319948689,542
-919.0152582788041,562
-916.2908324361409,601
-913.5671542984834,578
-910.8442236973568,567
-908.1220404642074,540
-905.4006044304027,557
-902.679915427231,555
-899.959973285902,550
-897.2407778375464,531
-894.5223289132158,519
-891.8046263438832,549
-889.0876699604426,530
-886.3714595937089,537
-883.6559950744183,540
-880.9412762332282,546
-878.2273029007168,526
-875.5140749073835,514
-872.8015920836489,498
-870.0898542598545,545
-867.3788612662631,526
-864.6686129330585,562
-861.9591090903457,517
-859.2503495681506,568
-856.5423341964203,554
-853.8350628050229,551
-851.1285352237478,554
-848.4227512823054,535
-845.7177108103272,535
-843.0134136373656,547
-840.3098595928943,556
-837.6070485063082,565
-834.9049802069229,577
-832.2036545239757,543
-829.5030712866244,560
-826.8032303239481,576
-824.1041314649472,538
-821.4057745385428,527
-818.7081593735775,528
-816.0112857988148,546
-813.3151536429393,543
-810.6197627345566,536
-807.9251129021936,560
-805.2312039742981,530
-802.5380357792392,576
-799.8456081453069,560
-797.1539209007124,540
-794.462973873588,549
-791.772766891987,582
-789.083299783884,565
-786.3945723771743,542
-783.7065844996748,556
-781.0193359791231,561
-778.3328266431781,534
-775.6470563194197,562
-772.9620248353489,552
-770.2777320183878,567
-767.5941776958798,550
-764.9113616950891,567
-762.2292838432011,548
-759.5479439673222,566
-756.8673418944801,578
-754.1874774516235,567
-751.5083504656222,569
-748.8299607632671,582
-746.15230817127,550
-743.475392516264,590
-740.7992136248035,578
-738.1237713233636,561
-735.4490654383407,564
-732.7750957960521,572
-730.1018622227365,595
-727.4293645445534,567
-724.7576025875837,646
-722.0865761778291,633
-719.4162851412126,605
-716.7467293035781,583
-714.0779084906909,616
-711.409822528237,614
-708.7424712418238,581
-706.0758544569796,582
-703.4099719991541,614
-700.7448236937178,634
-698.0804093659622,616
-695.4167288411002,601
-692.7537819442656,585
-690.0915685005134,601
-687.4300883348199,600
-684.7693412720819,608
-682.1093271371178,630
-679.4500457546669,635
-676.7914969493897,617
-674.1336805458676,620
-671.4765963686034,626
-668.8202442420206,623
-666.1646239904642,643
-663.5097354382001,642
-660.8555784094151,653
-658.2021527282176,647
-655.5494582186366,616
-652.8974947046223,632
-650.2462620100463,597
-647.5957599587009,626
-644.9459883742998,662
-642.2969470804776,624
-639.6486359007902,668
-637.0010546587141,662
-634.3542031776476,620
-631.7080812809096,672
-629.0626887917401,660
-626.4180255333008,645
-623.7740913286734,642
-621.1308860008619,660
-618.4884093727904,645
-615.8466612673046,682
-613.2056415071715,658
-610.5653499150785,647
-607.9257863136347,649
-605.28695052537,684
-602.6488423727357,659
-600.0114616781036,656
-597.3748082637674,712
-594.7388819519412,655
-592.1036825647604,685
-589.4692099242818,695
-586.8354638524829,691
-584.2024441712624,687
-581.5701507024403,680
-578.9385832677575,656
-576.3077416888759,694
-573.6776257873787,670
-571.0482353847704,659
-568.4195703024757,697
-565.7916303618415,690
-563.164415384135,676
-560.5379251905453,695
-557.9121596021815,675
-555.2871184400748,738
-552.6628015251767,718
-550.0392086783606,680
-547.4163397204204,726
-544.794194472071,701
-542.1727727539491,708
-539.5520743866118,706
-536.9320991905377,704
-534.3128469861261,795
-531.6943175936979,810
-529.0765108334947,768
-526.4594265256793,844
-523.8430644903358,937
-521.2274245474689,1054
-518.612506517005,1087
-515.9983102187913,1064
-513.3848354725959,1068
-510.77208209810846,1142
-508.16004991493924,1137
-505.5487387426199,1310
-502.9381484006032,1421
-500.3282787082628,1518
-497.71912948489364,1511
-495.1107005497117,1403
-492.5029917218539,1315
-489.8960028203786,1172
-487.28973366426493,1108
-484.68418407241325,1038
-482.07935386364494,937
-479.47524285670266,944
-476.87185087025,907
-474.2691777228715,860
-471.66722323307334,918
-469.0659872192821,895
-466.4654694998459,879
-463.86566989303384,897
-461.26658821703614,907
-458.66822428996414,921
-456.07057792985,864
-453.4736489546475,907
-450.877437182231,882
-448.28194243039627,851
-445.68716451686,870
-443.09310325926003,806
-440.49975847515555,853
-437.9071299820263,864
-435.31521759727354,864
-432.72402113821954,866
-430.13354042210767,868
-427.5437752661022,889
-424.95472548728867,887
-422.36639090267386,877
-419.7787713291855,907
-417.1918665836721,947
-414.60567648290385,929
-412.0202008435715,916
-409.4354394822874,938
-406.8513922155845,1003
-404.26805885991723,965
-401.685439231661,954
-399.103533147112,949
-396.522340422488,969
-393.9418608739278,934
-391.3620943174908,925
-388.7830405691583,922
-386.2046994448317,822
-383.6270707603344,841
-381.05015433141045,812
-378.473949973725,756
-375.8984575028645,720
-373.32367673433623,683
-370.74960748356875,639
-368.1762495659117,648
-365.60360279663576,573
-363.03166699093265,537
-360.4604419639154,515
-357.8899275306178,493
-355.32012350599507,475
-352.7510297049233,472
-350.1826459421999,449
-347.61497203254316,466
-345.04800779059235,460
-342.4817530309082,447
-339.91620756797226,453
-337.35137121618743,481
-334.7872437898774,476
-332.22382510328725,474
-329.66111497058273,434
-327.09911320585127,461
-324.53781962310075,502
-321.9772340362607,528
-319.4173562591816,466
-316.8581861056348,455
-314.2997233893127,444
-311.7419679238294,463
-309.1849195227194,480
-306.62857799943856,498
-304.0729431673641,521
-301.51801483979375,539
-298.963792829947,505
-296.41027695096386,520
-293.85746701590574,533
-291.3053628377552,524
-288.7539642294155,549
-286.2032710037115,543
-283.65328297338897,520
-281.1039999511146,503
-278.5554217494762,538
-276.007548180983,567
-273.4603790580651,568
-270.9139141930734,519
-268.3681533982807,545
-265.8230964858798,563
-263.27874326798565,563
-260.7350935566336,589
-258.1921471637804,560
-255.6499039013039,553
-253.10836358100266,570
-250.56752601459698,560
-248.02739101372765,603
-245.48795838995704,604
-242.94922795476816,599
-240.41119951956557,569
-237.8738728956746,635
-235.33724789434166,669
-232.80132432673452,582
-230.2661020039418,615
-227.73158073697357,662
-225.19776033676033,647
-222.66464061415422,662
-220.1322213799284,631
-217.60050244477725,597
-215.06948361931552,631
-212.53916471408013,623
-210.00954553952818,645
-207.48062590603843,656
-204.9524056239104,662
-202.4248845033651,685
-199.8980623545441,718
-197.37193898751036,686
-194.84651421224817,702
-192.32178783866232,698
-189.79775967657952,695
-187.27442953574644,690
-184.7517972258321,699
-182.2298625564256,713
-179.7086253370378,684
-177.18808537710026,693
-174.66824248596583,726
-172.14909647290835,784
-169.6306471471229,725
-167.11289431772548,776
-164.59583779375328,784
-162.07947738416453,766
-159.5638128978386,771
-157.04884414357605,860
-154.53457093009854,938
-152.02099306604828,943
-149.50811035998936,788
-146.99592262040665,816
-144.48442965570587,848
-141.97363127421409,844
-139.46352728417958,959
-136.95411749377126,995
-134.44540171107985,961
-131.93737974411636,849
-129.43005140081357,970
-126.92341648902493,1344
-124.41747481652521,1826
-121.91222619101006,2194
-119.40767042009657,3007
-116.90380731132257,3256
-114.40063667214702,3040
-111.8981583099503,2334
-109.3963720320337,1672
-106.89527764561933,1614
-104.39487495785067,1962
-101.89516377579241,3419
-99.39614390642998,4024
-96.89781515667039,4530
-94.40017733334128,4102
-91.90323024319173,3297
-89.40697369289148,3075
-86.91140748903172,3622
-84.41653143812482,4179
-81.92234534660395,3793
-79.42884902082358,3777
-76.93604226705907,5239
-74.4439248915071,8191
-71.95249670028534,10719
-69.46175749943245,12655
-66.97170709490854,13005
-64.48234529259423,11396
-61.99367189829195,9034
-59.50568671772464,6977
-57.01838955653636,6121
-54.53178022029283,5196
-52.045858514480074,5406
-49.560624244506016,6239
-47.07607721569923,7172
-44.59221723330904,7477
-42.10904410250669,7145
-39.62655762838392,6794
-37.14475761595372,7038
-34.66364387015028,7514
-32.18321619582866,8343
-29.70347439776515,9314
-27.224418280657005,10144
-24.74604764912317,11555
-22.26836230770266,15311
-19.7913620608565,26248
-17.315046712966478,43784
-14.83941606833514,57543
-12.36446993118659,65038
-9.89020810566592,65038
-7.416630395839093,65038
-4.94373660569363,65038
-2.471526539137585,65038
-6.821210263296962E-13,65038
2.47084320796705,65038
4.941003281093458,65038
7.410480415786196,65038
9.879274808531363,65038
12.347386655893956,65038
14.814816154518212,65038
17.28156350112681,65038
19.74762889252179,65038
22.21301252558385,65038
24.67771459727237,20870
27.141735304626195,3843
29.605074844762612,2290
32.06773341487792,1825
34.52971121224755,1681
36.99100843422559,1722
39.45162527824516,1624
41.91156194181792,1434
44.370818622535126,1322
46.82939551806646,1220
49.287292826160524,1354
51.74451074464503,1362
54.201049471426245,1287
56.65690920448981,1271
59.112090141899785,1112
61.56659248179983,1002
64.02041642241159,911
66.4735621620365,872
68.92602989905402,952
71.37781983192338,996
73.82893215918205,1028
76.27936707944684,1074
78.72912479141326,1058
81.17820549385567,966
83.62660938562783,1113
86.07433666566146,1047
88.5213875329681,879
90.96776218663751,864
93.41346082583925,855
95.85848364982041,915
98.30283085790859,943
100.7465026495089,988
103.18949922410604,1009
105.63182078126385,914
108.07346752062438,986
110.51443964190923,899
112.95473734491827,811
115.39436082953114,852
117.83331029570547,921
120.27158594347827,868
122.7091879729652,886
125.1461165843615,998
127.58237197794062,986
130.01795435405518,879
132.4528639131364,827
134.88710085569494,819
137.32066538231982,835
139.75355769367923,774
142.1857779905207,837
144.61732647366978,863
147.04820334403132,856
149.47840880258934,840
151.90794305040674,896
154.33680628862487,1007
156.76499871846443,1156
159.19252054122433,1279
161.61937195828352,1541
164.04555317109896,1633
166.47106438120693,1782
168.89590579022217,2023
171.320077599839,2104
173.7435800118302,2088
176.16641322804742,2233
178.58857745042144,2323
181.01007288096173,2483
183.43089972175687,2571
185.85105817497413,2552
188.27054844285988,2488
190.6893707277394,2416
193.10752523201643,2469
195.5250121581745,2599
197.9418317087751,2591
200.3579840864594,2764
202.7734694939469,2699
205.18828813403627,2621
207.6024402096051,2729
210.01592592360964,2771
212.42874547908548,2870
214.84089907914665,2732
217.2523869269868,2779
219.66320922587727,2819
222.0733661791695,2777
224.48285799029293,2650
226.8916848627572,2738
229.29984700014882,2750
231.7073446061355,2700
234.11417788446204,2641
236.520347038953,2579
238.92585227351185,2774
241.33069379212054,2765
243.73487179884035,2803
246.1383864978112,2841
248.541238093252,2788
250.9434267894609,2769
253.34495279081432,2831
255.74581630176783,2773
258.1460175268563,2877
260.54555667069314,2784
262.9444339379703,2775
265.3426495334594,2726
267.7402036620107,2657
270.1370965285529,2794
272.53332833809407,2605
274.9288992957214,2598
277.32380960660055,2511
279.718059475976,2562
282.1116491091717,2602
284.5045787115897,2578
286.89684848871195,2498
289.2884586460981,2552
291.67940938938807,2563
294.0697009242996,2547
296.4593334566299,2582
298.84830719225477,2582
301.23662233712923,2549
303.6242790972866,2554
306.01127767884,2510
308.39761828798066,2467
310.78330113097934,2449
313.16832641418534,2423
315.5526943440269,2296
317.9364051270112,2290
320.3194589697242,2363
322.70185607883093,2341
325.0835966610754,2305
327.4646809232805,2293
329.8451090723478,2243
332.2248813152577,2248
334.6039978590701,2272
336.9824589109231,2207
339.36026467803447,2270
341.7374153677,2170
344.113911187295,2133
346.48975234427337,2175
348.8649390461686,2145
351.2394715005918,2186
353.61334991523415,2206
355.9865744978655,2161
358.35914545633375,2185
360.73106299856715,2210
363.10232733257146,2167
365.47293866643247,2212
367.84289720831396,2138
370.2122031664593,2207
372.5808567491905,2117
374.9488581649083,2174
377.31620762209275,2120
379.6829053293021,2011
382.0489514951745,2116
384.4143463284262,2029
386.7790900378528,1995
389.14318283232853,2051
391.50662492080653,2101
393.86941651231916,2071
396.23155781597745,2114
398.5930490409713,2092
400.9538903965696,2184
403.3140820921202,2043
405.6736243370498,2076
408.03251734086336,2050
410.3907613131465,1989
412.74835646356166,2026
415.10530300185144,1973
417.4616011378372,2036
419.81725108141893,2034
422.1722530425758,2079
424.5266072313656,1982
426.880313857925,2023
429.2333731324701,2005
431.58578526529516,2004
433.9375504667738,2027
436.2886689473588,1935
438.63914091758113,1959
440.9889665880513,1970
443.33814616945835,1978
445.68667987257015,1965
448.03456790823395,1872
450.3818104873759,2051
452.72840782100013,1950
455.07436012019105,1933
457.41966759611057,2021
459.7643304600007,2021
462.10834892318155,1950
464.4517231970525,1991
466.79445349309174,1960
469.1365400228566,1924
471.4779829979826,2006
473.81878263018564,1944
476.15893913125876,1985
478.4984527130747,1986
480.8373235875855,2150
483.17555196682144,2113
485.5131380628919,2248
487.8500820879857,2305
490.1863842543697,2426
492.52204477439034,2538
494.8570638604725,2809
497.1914417251204,3128
499.52517858091653,3296
501.85827464052306,3513
504.19073011668036,3478
506.5225452222086,3325
508.85372017000566,3345
511.18425517304956,3300
513.514150444396,3370
515.8434061971808,4038
518.1720226446176,4911
520.4999999999999,5144
522.8273384766991,4820
525.1540382881666,4284
527.480099647932,3829
529.8055227696037,3019
532.1303078668694,2614
534.454455153496,2331
536.777964843328,2086
539.1008371502907,2157
541.4230722883866,1983
543.744670471698,2090
546.0656319143858,2123
548.3859568306899,2081
550.7056454349294,1987
553.0246979415016,2031
555.3431145648834,1960
557.6608955196306,1999
559.978041020377,1933
562.2945512818363,1996
564.6104265188006,2013
566.9256669461412,2065
569.2402727788082,2019
571.5542442318302,2072
573.8675815203156,2084
576.1802848594508,2059
578.4923544645015,2075
580.8037905508126,2012
583.114593333807,2061
585.4247630289875,1991
587.7342998519354,2059
590.0432040183106,2055
592.3514757438526,1989
594.6591152443794,2049
596.9661227357875,2117
599.2724984340531,2047
601.578242555231,2110
603.8833553154542,2053
606.1878369309362,2075
608.4916876179676,2047
610.7949075929192,2048
613.0974970722403,2035
615.3994562724587,2019
617.7007854101818,2039
620.0014847020951,1980
622.3015543649641,1971
624.6009946156324,2008
626.8998056710224,2014
629.1979877481361,1986
631.4955410640538,2038
633.7924658359349,2034
636.0887622810175,2072
638.3844306166192,2065
640.6794710601358,2001
642.9738838290426,1972
645.2676691408932,1971
647.5608272133207,2057
649.853358264037,2010
652.1452625108324,2087
654.4365401715764,2026
656.7271914642178,2041
659.0172166067838,2049
661.3066158173809,2018
663.5953893141935,2025
665.8835373154867,2086
668.1710600396028,2048
670.4579577049639,2010
672.7442305300709,2057
675.0298787335033,2030
677.3149025339197,2042
679.599302150058,2107
681.8830778007342,2034
684.1662297048437,2075
686.4487580813608,2160
688.7306631493387,2086
691.0119451279091,1980
693.2926042362834,2080
695.5726406937516,2034
697.8520547196814,2027
700.1308465335215,2052
702.4090163547982,2026
704.6865644031171,2043
706.9634908981619,1963
709.2397960596965,1995
711.5154801075631,2072
713.7905432616823,2000
716.0649857420548,2093
718.3388077687592,2076
720.612009561953,2086
722.8845913418733,2031
725.1565533288352,2006
727.427895743234,1985
729.6986188055427,2043
731.9687227363137,1984
734.238207756178,2038
736.5070740858458,2053
738.7753219461066,1973
741.0429515578281,1952
743.3099631419569,2028
745.5763569195191,2022
747.8421331116193,1954
750.1072919394409,2002
752.3718336242467,1962
754.6357583873777,2047
756.8990664502545,2101
759.1617580343765,1943
761.423833361321,1996
763.6852926527457,1940
765.9461361303862,2050
768.206364016058,1989
770.4659765316536,2033
772.7249738991469,2028
774.9833563405886,2075
777.2411240781092,2148
779.4982773339183,2058
781.7548163303044,2057
784.010741289634,2102
786.2660524343538,2107
788.5207499869881,2048
790.7748341701416,2126
793.0283052064964,1982
795.2811633188143,2031
797.5334087299362,2012
799.7850416627813,2119
802.0360623403484,2040
804.2864709857143,2041
806.5362678220353,2054
808.7854530725468,2075
811.0340269605625,2027
813.2819897094754,2028
815.5293415427581,2093
817.77608268396,2091
820.0222133567116,2136
822.2677337847211,2044
824.5126441917765,2074
826.7569448017433,2029
829.0006358385675,2037
831.2437175262731,2054
833.4861900889629,2098
835.7280537508192,2023
837.9693087361026,2048
840.2099552691533,2002
842.4499935743896,2046
844.689423876309,2114
846.9282463994886,2124
849.1664613685833,2005
851.4040690083276,2100
853.6410695435349,2104
855.877463199097,2070
858.1132501999847,2128
860.3484307712487,2047
862.5830051380175,2086
864.8169735254988,2116
867.0503361589791,2124
869.2830932638243,2218
871.5152450654786,2013
873.7467917894654,2100
875.9777336613873,2097
878.2080709069252,2080
880.4378037518389,2127
882.666932421968,2133
884.8954571432301,2086
887.1233781416219,2097
889.3506956432192,2157
891.5774098741766,2169
893.803521060728,2140
896.0290294291852,2120
898.2539352059397,2105
900.4782386174619,2150
902.7019398903011,2134
904.925039251085,2186
907.147536926521,2156
909.3694331433943,2158
911.59072812857,2075
913.8114221089921,2091
916.0315153116827,2074
918.2510079637437,2051
920.4699002923547,2153
922.6881925247761,2035
924.905884888345,2113
927.1229776104793,2074
929.3394709186747,2041
931.555365040506,2049
933.7706602036275,2092
935.9853566357709,2032
938.1994545647489,2008
940.4129542184515,2077
942.6258558248488,2024
944.8381596119883,2048
947.0498658079974,2040
949.2609746410825,2038
951.4714863395287,1996
953.6814011316998,2060
955.8907192460387,2034
958.0994409110671,2032
960.3075663553858,2000
962.5150958076741,2023
964.7220294966913,1995
966.928367651274,2098
969.1341105003388,2009
971.3392582728806,2004
973.5438111979742,1923
975.747769504772,1978
977.9511334225061,1980
980.153903180487,1920
982.3560790081052,1900
984.5576611348289,1914
986.7586497902058,1873
988.9590452038618,1940
991.158847605503,1945
993.3580572249133,1867
995.5566742919558,1855
997.7546990365728,1802
999.952131688785,1844
1002.1489724786926,1766
1004.3452216364743,1792
1006.5408793923874,1799
1008.7359459767691,1723
1010.9304216200343,1795
1013.1243065526781,1711
1015.3176010052733,1679
1017.510305208472,1732
1019.7024193930064,1776
1021.8939437896848,1718
1024.0848786293977,1680
1026.2752241431122,1684
1028.4649805618747,1633
1030.6541481168115,1662
1032.842727039127,1707
1035.0307175601051,1611
1037.2181199111074,1669
1039.4049343235752,1630
1041.591161029029,1715
1043.7768002590683,1676
1045.9618522453698,1660
1048.1463172196918,1667
1050.3301954138697,1675
1052.513487059818,1699
1054.69619238953,1740
1056.8783116350783,1682
1059.0598450286152,1675
1061.2407928023704,1637
1063.4211551886528,1708
1065.6009324198508,1685
1067.780124728432,1669
1069.9587323469414,1608
1072.1367555080046,1676
1074.314194444325,1682
1076.4910493886855,1636
1078.667320573947,1631
1080.843008233051,1640
1083.0181125990161,1609
1085.1926339049414,1596
1087.3665723840027,1565
1089.5399282694575,1625
1091.7127017946405,1646
1093.8848931929647,1635
1096.0565026979243,1581
1098.2275305430899,1576
1100.3979769621128,1586
1102.567842188722,1623
1104.737126456726,1578
1106.9058300000124,1613
1109.0739530525475,1547
1111.2414958483764,1534
1113.4084586216231,1549
1115.5748416064907,1666
1117.7406450372605,1570
1119.9058691482942,1527
1122.0705141740304,1593
1124.2345803489884,1571
1126.3980679077658,1567
1128.5609770850388,1540
1130.7233081155623,1577
1132.8850612341707,1562
1135.0462366757774,1489
1137.2068346753745,1560
1139.3668554680326,1560
1141.526299288901,1522
1143.68516637321,1508
1145.8434569562655,1572
1148.001171273455,1491
1150.158309560244,1514
1152.3148720521767,1551
1154.470858984876,1483
1156.626270594044,1556
1158.7811071154629,1580
1160.9353687849912,1526
1163.089055838569,1497
1165.242168512213,1535
1167.3947070420209,1526
1169.5466716641677,1522
1171.6980626149075,1496
1173.8488801305748,1506
1175.9991244475814,1508
1178.1487958024186,1572
1180.2978944316555,1544
1182.4464205719428,1504
1184.5943744600072,1499
1186.7417563326567,1490
1188.8885664267755,1539
1191.0348049793297,1473
1193.1804722273619,1534
1195.325568407995,1491
1197.4700937584303,1499
1199.614048515948,1510
1201.7574329179074,1568
1203.900247201746,1502
1206.042491604982,1545
1208.1841663652099,1510
1210.3252717201053,1569
1212.465807907422,1535
1214.6057751649923,1535
1216.7451737307279,1502
1218.8840038426192,1490
1221.0222657387353,1525
1223.1599596572241,1463
1225.2970858363137,1526
1227.4336445143094,1588
1229.5696359295966,1540
1231.705060320639,1598
1233.8399179259786,1603
1235.9742089842384,1594
1238.107933734118,1522
1240.2410924143974,1547
1242.373685263935,1539
1244.5057125216676,1547
1246.6371744266116,1587
1248.7680712178621,1579
1250.898403134593,1485
1253.028170416058,1558
1255.1573733015875,1624
1257.2860120305932,1578
1259.4140868425648,1525
1261.54159797707,1577
1263.6685456737569,1547
1265.7949301723515,1596
1267.9207517126597,1542
1270.046010534565,1588
1272.1707068780306,1593
1274.2948409830983,1591
1276.4184130898889,1610
1278.541423438603,1635
1280.6638722695184,1581
1282.785759822993,1619
1284.9070863394636,1620
1287.0278520594447,1636
1289.1480572235314,1673
1291.2677020723963,1590
1293.3867868467923,1671
1295.5053117875495,1635
1297.623277135579,1690
1299.740683131868,1646
1301.8575300174857,1651
1303.973818033578,1648
1306.0895474213703,1766
1308.2047184221678,1724
1310.3193312773528,1767
1312.4333862283888,1694
1314.5468835168163,1715
1316.659823384255,1735
1318.7722060724045,1708
1320.8840318230418,1687
1322.9953008780249,1656
1325.1060134792888,1601
1327.2161698688478,1650
1329.3257702887959,1649
1331.4348149813054,1694
1333.5433041886276,1769
1335.6512381530933,1693
1337.7586171171101,1630
1339.8654413231675,1700
1341.9717110138317,1715
1344.0774264317488,1602
1346.1825878196432,1637
1348.2871954203192,1724
1350.3912494766587,1695
1352.4947502316231,1701
1354.5976979282532,1728
1356.7000928096686,1676
1358.8019351190665,1633
1360.9032250997243,1635
1363.0039629949988,1738
1365.1041490483235,1666
1367.2037835032133,1693
1369.3028666032606,1639
1371.401398592137,1718
1373.4993797135926,1724
1375.5968102114575,1673
1377.6936903296396,1680
1379.7900203121262,1689
1381.8858004029835,1699
1383.9810308463561,1696
1386.075711886469,1639
1388.1698437676241,1685
1390.2634267342032,1677
1392.356461030667,1735
1394.4489469015557,1750
1396.5408845914872,1709
1398.6322743451592,1715
1400.7231164073469,1747
1402.813411022907,1809
1404.903158436773,1720
1406.9923588939578,1772
1409.0810126395531,1733
1411.1691199187303,1686
1413.2566809767386,1734
1415.343696058907,1780
1417.4301654106425,1730
1419.5160892774315,1736
1421.6014679048399,1826
1423.6863015385125,1790
1425.7705904241707,1772
1427.8543348076178,1768
1429.9375349347342,1881
1432.0201910514802,1888
1434.102303403894,1806
1436.1838722380944,1837
1438.2648978002767,1863
1440.3453803367174,1833
1442.4253200937692,1913
1444.5047173178677,1902
1446.5835722555234,1880
1448.6618851533285,1940
1450.739656257952,1990
1452.8168858161434,1953
1454.8935740747306,2059
1456.96972128062,2019
1459.045327680797,2053
1461.120393522327,2033
1463.1949190523528,2111
1465.2689045180973,2098
1467.3423501668608,2104
1469.415256246024,2220
1471.4876230030463,2154
1473.559450685465,2181
1475.6307395408976,2300
1477.7014898170391,2269
1479.771701761665,2338
1481.8413756226287,2317
1483.9105116478618,2397
1485.9791100853772,2416
1488.0471711832643,2352
1490.1146951896926,2467
1492.1816823529098,2486
1494.2481329212433,2479
1496.3140471430984,2549
1498.3794252669609,2535
1500.4442675413939,2548
1502.5085742150404,2561
1504.572345536622,2536
1506.6355817549388,2632
1508.6982831188702,2665
1510.7604498773744,2638
1512.8220822794883,2669
1514.8831805743293,2693
1516.9437450110909,2706
1519.003775839048,2837
1521.0632733075522,2811
1523.1222376660367,2875
1525.1806691640113,3006
1527.2385680510652,2886
1529.2959345768668,3028
1531.3527689911643,2970
1533.4090715437833,3081
1535.4648424846291,3128
1537.5200820636855,3174
1539.5747905310159,3237
1541.6289681367616,3242
1543.6826151311434,3222
1545.7357317644614,3324
1547.7883182870937,3403
1549.8403749494987,3542
1551.8919020022113,3488
1553.9428996958477,3606
1555.9933682811015,3550
1558.0433080087469,3723
1560.0927191296346,3651
1562.1416018946961,3825
1564.1899565549415,3798
1566.2377833614592,3765
1568.2850825654164,3606
1570.3318544180606,3635
1572.3780991707158,3540
1574.423817074788,3460
1576.4690083817595,3251
1578.5136733431923,3136
1580.5578122107272,2931
1582.601425236085,2792
1584.6445126710646,2770
1586.6870747675434,2650
1588.7291117774776,2535
1590.7706239529034,2413
1592.8116115459347,2285
1594.8520748087658,2209
1596.8920139936686,2197
1598.9314293529933,2113
1600.9703211391711,2077
1603.008689604711,2042
1605.0465350022005,1992
1607.0838575843068,1975
1609.1206576037753,1891
1611.1569353134305,1913
1613.1926909661765,1822
1615.2279248149953,1793
1617.2626371129481,1834
1619.2968281131757,1810
1621.3304980688963,1769
1623.3636472334088,1754
1625.39627586009,1767
1627.428384202396,1719
1629.459972513861,1674
1631.4910410480993,1794
1633.5215900588028,1698
1635.551619799744,1726
1637.5811305247717,1684
1639.6101224878166,1640
1641.6385959428862,1683
1643.6665511440683,1657
1645.693988345528,1630
1647.7209078015112,1572
1649.7473097663405,1692
1651.7731944944203,1577
1653.7985622402307,1641
1655.823413258333,1631
1657.847747803366,1641
1659.8715661300494,1615
1661.8948684931793,1577
1663.9176551476316,1611
1665.9399263483624,1634
1667.9616823504057,1661
1669.982923408873,1599
1672.0036497789574,1605
1674.0238617159293,1642
1676.043559475138,1581
1678.0627433120121,1609
1680.081413482059,1569
1682.0995702408654,1581
1684.117213844096,1580
1686.134344547495,1578
1688.1509626068864,1600
1690.1670682781705,1558
1692.182661817329,1584
1694.1977434804217,1631
1696.2123135235875,1622
1698.226372203043,1602
1700.2399197750851,1572
1702.2529564960905,1663
1704.2654826225112,1617
1706.277498410882,1638
1708.2890041178139,1629
1710.2999999999988,1590
1712.3104863142066,1559
1714.3204633172854,1545
1716.329931266163,1534
1718.3388904178469,1544
1720.3473410294214,1547
1722.3552833580516,1526
1724.3627176609807,1576
1726.3696441955308,1561
1728.3760632191033,1555
1730.3819749891782,1485
1732.3873797633146,1532
1734.3922777991502,1475
1736.3966693544012,1519
1738.4005546868639,1480
1740.4039340544127,1603
1742.406807715001,1555
1744.4091759266616,1529
1746.4110389475054,1591
1748.4123970357223,1554
1750.413250449582,1515
1752.4135994474318,1482
1754.4134442876993,1530
1756.4127852288902,1481
1758.4116225295893,1461
1760.4099564484595,1480
1762.407787244244,1513
1764.405115175764,1448
1766.4019405019203,1501
1768.3982634816916,1495
1770.3940843741357,1541
1772.3894034383907,1521
1774.3842209336717,1475
1776.378537119274,1479
1778.372352254571,1539
1780.3656665990156,1427
1782.3584804121397,1526
1784.3507939535534,1491
1786.3426074829463,1507
1788.3339212600863,1473
1790.3247355448211,1429
1792.3150505970766,1493
1794.3048666768573,1462
1796.2941840442477,1468
1798.2830029594106,1499
1800.2713236825884,1492
1802.2591464741004,1550
1804.2464715943465,1527
1806.2332993038058,1588
1808.2196298630352,1490
1810.2054635326708,1423
1812.190800573428,1507
1814.175641246101,1492
1816.1599858115628,1470
1818.1438345307652,1513
1820.127187664738,1482
1822.1100454745924,1524
1824.092408221516,1527
1826.0742761667766,1467
1828.055649571721,1516
1830.0365286977735,1503
1832.0169138064398,1538
1833.9968051593014,1475
1835.9762030180214,1452
1837.9551076443408,1521
1839.9335193000788,1460
1841.9114382471344,1506
1843.888864747485,1394
1845.8657990631878,1472
1847.842241456378,1396
1849.8181921892697,1483
1851.7936515241558,1496
1853.7686197234098,1430
1855.7430970494815,1483
1857.7170837649014,1474
1859.6905801322787,1470
1861.6635864143004,1455
1863.6361028737338,1488
1865.608129773424,1475
1867.5796673762961,1466
1869.5507159453537,1502
1871.521275743678,1476
1873.4913470344313,1492
1875.4609300808534,1485
1877.4300251462632,1483
1879.3986324940588,1437
1881.366752387717,1547
1883.3343850907936,1451
1885.3015308669228,1492
1887.268189979819,1517
1889.2343626932739,1514
1891.2000492711595,1478
1893.1652499774254,1476
1895.1299650761011,1493
1897.0941948312952,1493
1899.0579395071945,1448
1901.0211993680641,1463
1902.98397467825,1486
1904.9462657021745,1542
1906.9080727043415,1457
1908.869395949332,1462
1910.8302357018065,1497
1912.790592226504,1473
1914.7504657882428,1438
1916.7098566519212,1502
1918.6687650825133,1539
1920.6271913450764,1489
1922.5851357047422,1458
1924.5425984267245,1442
1926.499579776314,1491
1928.4560800188833,1526
1930.4120994198802,1467
1932.367638244833,1487
1934.32269675935,1540
1936.2772752291175,1515
1938.231373919899,1539
1940.1849930975404,1477
1942.1381330279637,1535
1944.0907939771696,1472
1946.0429762112412,1481
1947.9946799963363,1463
1949.9459055986945,1518
1951.896653284633,1473
1953.8469233205478,1468
1955.7967159729142,1553
1957.7460315082863,1504
1959.6948701932974,1435
1961.6432322946594,1475
1963.5911180791632,1503
1965.5385278136787,1469
1967.4854617651545,1479
1969.4319202006182,1448
1971.377903387176,1436
1973.3234115920136,1482
1975.268445082395,1445
1977.2130041256642,1457
1979.1570889892423,1491
1981.1006999406304,1487
1983.04383724741,1483
1984.986501177238,1445
1986.928691997853,1465
1988.8704099770712,1482
1990.811655382789,1492
1992.7524284829801,1466
1994.692729545698,1473
1996.6325588390755,1461
1998.5719166313224,1452
2000.5108031907307,1470
2002.4492187856677,1550
2004.387163684583,1421
2006.3246381560011,1458
2008.2616424685298,1457
2010.1981768908527,1470
2012.1342416917332,1502
2014.069837140014,1437
2016.0049635046162,1474
2017.9396210545406,1462
2019.8738100588666,1426
2021.8075307867502,1413
2023.740783507431,1441
2025.6735684902228,1419
2027.6058860045214,1438
2029.5377363198004,1437
2031.4691197056118,1430
2033.4000364315875,1478
2035.3304867674374,1437
2037.260470982952,1401
2039.189989347998,1499
2041.1190421325232,1415
2043.047629606554,1454
2044.9757520401945,1510
2046.9034097036288,1433
2048.8306028671195,1490
2050.7573318010086,1447
2052.683596775716,1418
2054.609398061742,1414
2056.5347359296647,1464
2058.4596106501403,1408
2060.384022493906,1453
2062.3079717317764,1432
2064.231458634646,1464
2066.1544834734873,1388
2068.077046519352,1431
2069.99914804337,1417
2071.9207883167524,1478
2073.8419676107865,1423
2075.7626861968406,1414
2077.6829443463607,1423
2079.6027423308715,1486
2081.522080421977,1501
2083.440958891362,1435
2085.359378010786,1448
2087.2773380520907,1476
2089.194839287196,1467
2091.111881988101,1470
2093.0284664268825,1431
2094.9445928756973,1450
2096.86026160678,1439
2098.775472892446,1418
2100.690227005088,1437
2102.604524217178,1446
2104.5183648012676,1399
2106.431749029985,1417
2108.34467717604,1453
2110.2571495122206,1455
2112.169166311393,1438
2114.080727846503,1424
2115.9918343905747,1441
2117.902486216711,1460
2119.8126835980956,1440
2121.722426807987,1438
2123.6317161197285,1402
2125.5405518067364,1452
2127.448934142509,1459
2129.356863400624,1480
2131.264339854737,1431
2133.1713637785815,1456
2135.077935445972,1452
2136.9840551308002,1471
2138.889723107037,1481
2140.7949396487334,1419
2142.699705030018,1487
2144.6040195250994,1497
2146.507883408264,1553
2148.4112969538774,1528
2150.3142604363848,1491
2152.2167741303097,1495
2154.1188383102535,1469
2156.0204532508997,1487
2157.9216192270064,1508
2159.822336513414,1476
2161.7226053850413,1471
2163.622426116884,1488
2165.5217989840185,1536
2167.4207242616,1448
2169.319202224862,1458
2171.2172331491165,1514
2173.1148173097563,1493
2175.0119549822507,1504
2176.90864644215,1518
2178.8048919650823,1519
2180.7006918267534,1482
2182.596046302952,1555
2184.4909556695407,1537
2186.3854202024645,1551
2188.279440177746,1529
2190.173015871487,1494
2192.066147559868,1483
2193.958835519149,1581
2195.851080025667,1541
2197.7428813558417,1558
2199.6342397861667,1508
2201.5251555932186,1557
2203.415629053651,1567
2205.3056604441986,1509
2207.19525004167,1577
2209.084398122958,1567
2210.9731049650327,1564
2212.861370844941,1583
2214.749196039812,1529
2216.636580826851,1594
2218.523525483344,1575
2220.410030286655,1656
2222.296095514226,1553
2224.1817214435805,1604
2226.066908352319,1578
2227.951656518121,1583
2229.835966218746,1597
2231.71983773203,1671
2233.6032713358913,1643
2235.486267308324,1602
2237.3688259274036,1590
2239.2509474712824,1567
2241.132632218193,1641
2243.013880446447,1621
2244.8946924344323,1625
2246.7750684606203,1610
2248.6550088035574,1591
2250.534513741871,1639
2252.413583554265,1593
2254.292218519526,1630
2256.170418916517,1574
2258.0481850241786,1615
2259.925517121534,1525
2261.8024154876825,1596
2263.678880401803,1613
2265.5549121431536,1572
2267.430510991071,1560
2269.305677224971,1608
2271.180411124348,1616
2273.0547129687766,1605
2274.9285830379076,1599
2276.8020216114737,1596
2278.6750289692845,1578
2280.5476053912294,1619
2282.4197511572766,1556
2284.2914665474727,1662
2286.162751841943,1686
2288.0336073208937,1710
2289.904033264608,1644
2291.774029953448,1613
2293.6435976678554,1625
2295.5127366883517,1566
2297.381447295534,1630
2299.2497297700825,1534
2301.1175843927526,1536
2302.9850114443825,1492
2304.852011205885,1450
2306.7185839582553,1395
2308.5847299825664,1412
2310.4504495599676,1328
2312.3157429716925,1385
2314.1806104990483,1324
2316.0450524234247,1367
2317.9090690262888,1329
2319.772660589186,1314
2321.635827393742,1367
2323.498569721661,1340
2325.3608878547248,1343
2327.2227820747967,1360
2329.0842526638157,1306
2330.945299903803,1344
2332.805924076857,1331
2334.6661254651535,1294
2336.525904350951,1362
2338.3852610165827,1362
2340.244195744464,1343
2342.102708817088,1318
2343.9608005170253,1387
2345.8184711269287,1357
2347.675720929526,1379
2349.532550207628,1341
2351.38895924412,1405
2353.24494832197,1312
2355.100517724223,1352
2356.955667734004,1306
2358.810398634514,1340
2360.664710709037,1346
2362.5186042409337,1355
2364.3720795136437,1356
2366.225136810686,1359
2368.0777764156583,1363
2369.929998612237,1403
2371.7818036841777,1340
2373.633191915315,1374
2375.484163589562,1349
2377.3347189909114,1373
2379.184858403434,1382
2381.03458211128,1354
2382.8838903986775,1381
2384.732783549936,1379
2386.5812618494406,1346
2388.4293255816588,1379
2390.2769750311327,1362
2392.1242104824883,1351
2393.971032220427,1358
2395.8174405297295,1382
2397.6634356952563,1380
2399.509018001947,1366
2401.3541877348193,1334
2403.1989451789705,1356
2405.043290619576,1374
2406.8872243418905,1348
2408.730746631247,1337
2410.5738577730594,1416
2412.4165580528183,1334
2414.258847756095,1380
2416.100727168537,1440
2417.9421965758734,1394
2419.783256263912,1400
2421.623906518538,1366
2423.4641476257157,1366
2425.303979871491,1461
2427.143403541984,1386
2428.9824189233977,1407
2430.821026302012,1351
2432.6592259641866,1313
2434.497018196361,1400
2436.33440328505,1347
2438.171381516851,1425
2440.00795317844,1411
2441.844118556569,1416
2443.6798779380724,1385
2445.5152316098606,1377
2447.3501798589255,1379
2449.1847229723357,1389
2451.0188612372403,1455
2452.8525949408663,1421
2454.6859243705203,1405
2456.518849813587,1398
2458.3513715575314,1389
2460.183489889895,1363
2462.015205098301,1400
2463.8465174704493,1376
2465.67742729412,1377
2467.5079348571717,1429
2469.338040447542,1398
2471.1677443532476,1395
2472.9970468623833,1439
2474.825948263123,1416
2476.6544488437207,1360
2478.482548892508,1324
2480.310248697896,1376
2482.137548548374,1427
2483.9644487325118,1450
2485.790949538956,1383
2487.617051256433,1442
2489.44275417375,1425
2491.26805857979,1374
2493.0929647635157,1459
2494.917473013971,1371
2496.741583620276,1455
2498.5652968716304,1397
2500.3886130573137,1462
2502.2115324666834,1490
2504.0340553891765,1513
2505.856182114308,1512
2507.6779129316733,1405
2509.499248130945,1467
2511.3201880018764,1430
2513.140732834298,1439
2514.9608829181198,1414
2516.780638543331,1439
2518.6,1488
2520.418967578273,1483
2522.237541568376,1445
2524.0557222606144,1420
2525.8735099453706,1469
2527.6909049131086,1449
2529.507907454368,1456
2531.32451785977,1478
2533.140736420014,1444
2534.9565634258774,1487
2536.771999168218,1503
2538.5870439379714,1468
2540.4016980261526,1520
2542.2159617238544,1539
2544.02983532225,1491
2545.8433191125914,1468
2547.656413386209,1508
2549.4691184345115,1514
2551.2814345489874,1501
2553.093362021204,1547
2554.904901142808,1546
2556.716052205523,1516
2558.526815501153,1606
2560.3371913215824,1586
2562.147179958771,1560
2563.956781704761,1562
2565.7659968516705,1557
2567.5748256916986,1655
2569.3832685171224,1629
2571.1913256202984,1594
2572.9989972936614,1580
2574.806283829725,1584
2576.613185521084,1662
2578.4197026604074,1570
2580.2258355404483,1616
2582.031584454035,1638
2583.836949694077,1654
2585.6419315535613,1620
2587.4465303255533,1692
2589.2507463032002,1653
2591.0545797797245,1679
2592.8580310484303,1678
2594.6611004026995,1754
2596.463788135992,1722
2598.266094541849,1704
2600.0680199138874,1696
2601.869564545807,1763
2603.670728731383,1680
2605.4715127644704,1680
2607.2719169390048,1711
2609.071941548998,1674
2610.8715868885433,1688
2612.670853251811,1779
2614.469740933052,1673
2616.268250226594,1678
2618.0663814268455,1700
2619.864134828292,1734
2621.6615107255006,1706
2623.458509413115,1704
2625.2551311858597,1698
2627.0513763385347,1656
2628.8472451660223,1606
2630.6427379632833,1691
2632.4378550253564,1634
2634.232596647359,1704
2636.026963124488,1602
2637.8209547520187,1666
2639.6145718253065,1602
2641.407814639785,1594
2643.200683490966,1609
2644.9931786744414,1591
2646.7853004858807,1591
2648.577049221034,1513
2650.3684251757277,1609
2652.1594286458712,1540
2653.9500599274484,1561
2655.740319316525,1527
2657.5302071092437,1524
2659.3197236018286,1576
2661.10886909058,1555
2662.8976438718782,1531
2664.686048242183,1555
2666.4740824980327,1520
2668.2617469360443,1528
2670.0490418529134,1568
2671.8359675454153,1540
2673.622524310403,1500
2675.408712444811,1463
2677.1945322456495,1507
2678.979984010009,1469
2680.76506803506,1467
2682.5497846180497,1480
2684.334134056306,1474
2686.1181166472343,1461
2687.9017326883213,1452
2689.6849824771293,1415
2691.4678663113013,1413
2693.2503844885596,1382
2695.032537306705,1403
2696.8143250636167,1396
2698.5957480572542,1438
2700.3768065856534,1400
2702.1575009469316,1434
2703.937831439283,1434
2705.717798360982,1459
2707.4974020103837,1373
2709.276642685917,1418
2711.055520686095,1382
2712.834036309506,1382
2714.612189854819,1404
2716.389981620782,1405
2718.1674119062204,1379
2719.944481010041,1323
2721.721189231226,1345
2723.4975368688415,1391
2725.273524222027,1420
2727.0491515900053,1372
2728.824419272075,1372
2730.5993275676146,1396
2732.3738767760838,1375
2734.148067197016,1327
2735.921899130031,1317
2737.6953728748194,1379
2739.468488731156,1353
2741.2412469988926,1376
2743.0136479779617,1362
2744.785691968372,1324
2746.5573792702116,1385
2748.3287101836504,1358
2750.099685008934,1310
2751.870304046388,1339
2753.640567596418,1372
2755.4104759595057,1330
2757.1800294362156,1327
2758.949228327187,1359
2760.7180729331412,1327
2762.486563554877,1331
2764.254700493272,1383
2766.022484049284,1337
2767.789914523947,1368
2769.5569922183786,1371
2771.3237174337705,1365
2773.090090471394,1343
2774.8561116326036,1334
2776.6217812188274,1345
2778.3870995315756,1389
2780.1520668724356,1347
2781.9166835430747,1365
2783.6809498452394,1402
2785.444866080754,1409
2787.2084325515225,1342
2788.971649559527,1363
2790.73451740683,1319
2792.4970363955713,1386
2794.2592068279705,1346
2796.0210290063264,1374
2797.7825032330147,1315
2799.543629810493,1321
2801.304409041296,1319
2803.0648412280366,1370
2804.8249266734088,1330
2806.5846656801846,1372
2808.344058551212,1404
2810.1031055894246,1381
2811.8618070978273,1323
2813.6201633795085,1351
2815.378174737636,1345
2817.1358414754536,1372
2818.893163896285,1336
2820.6501423035334,1361
2822.4067770006814,1325
2824.1630682912883,1357
2825.9190164789957,1413
2827.6746218675207,1362
2829.429884760661,1390
2831.184805462294,1382
2832.9393842763743,1399
2834.693621506936,1336
2836.4475174580916,1370
2838.201072434034,1328
2839.954286739034,1327
2841.707160677441,1321
2843.459694553685,1316
2845.2118886722724,1333
2846.96374333779,1370
2848.7152588549034,1339
2850.4664355283567,1327
2852.217273662973,1361
2853.9677735636546,1340
2855.7179355353833,1300
2857.4677598832186,1342
2859.217246912299,1320
2860.9663969278427,1318
2862.715210235146,1413
2864.4636871395846,1349
2866.211827946614,1359
2867.9596329617652,1282
2869.7071024906536,1408
2871.4542368389684,1329
2873.20103631248,1322
2874.947501217038,1369
2876.6936318585695,1346
2878.4394285430812,1351
2880.1848915766604,1340
2881.9300212654707,1372
2883.6748179157553,1335
2885.4192818338374,1361
2887.1634133261173,1296
2888.907212699077,1280
2890.6506802592744,1384
2892.393816313348,1333
2894.1366211680142,1308
2895.8790951300693,1317
2897.621238506388,1323
2899.363051603925,1330
2901.1045347297118,1356
2902.8456881908596,1350
2904.58651229456,1283
2906.327007348081,1307
2908.067173658772,1318
2909.8070115340597,1403
2911.5465212814497,1351
2913.285703208527,1400
2915.0245576229563,1314
2916.7630848324807,1321
2918.5012851449196,1322
2920.2391588681758,1388
2921.976706310227,1313
2923.7139277791334,1296
2925.4508235830313,1333
2927.187394030137,1334
2928.923639428745,1319
2930.6595600872306,1327
2932.395156314046,1330
2934.1304284177218,1352
2935.8653767068713,1330
2937.6000014901815,1352
2939.3343030764227,1391
2941.068281774442,1326
2942.8019378931644,1386
2944.5352717415976,1303
2946.2682836288236,1352
2948.0009738640065,1385
2949.7333427563885,1337
2951.465390615289,1414
2953.1971177501086,1325
2954.9285244703265,1351
2956.6596110855,1349
2958.3903779052657,1351
2960.1208252393385,1352
2961.8509533975125,1390
2963.5807626896617,1322
2965.3102534257378,1308
2967.0394259157715,1351
2968.768280469873,1349
2970.496817398232,1315
2972.2250370111146,1325
2973.952939618869,1362
2975.6805255319196,1351
2977.4077950607707,1348
2979.134748516006,1284
2980.861386208289,1354
2982.587708448359,1327
2984.313715547037,1347
2986.039407815222,1346
2987.764785563891,1362
2989.489849104102,1327
2991.2145987469908,1309
2992.9390348037705,1326
2994.6631575857346,1327
2996.3869674042576,1315
2998.1104645707887,1342
2999.83364939686,1354
3001.5565221940783,1314
3003.2790832741334,1343
3005.0013329487924,1308
3006.7232715298996,1270
3008.4448993293804,1325
3010.166216659239,1325
3011.887223831558,1315
3013.607921158498,1351
3015.3283089522993,1272
3017.0483875252826,1354
3018.7681571898443,1322
3020.4876182584626,1341
3022.2067710436927,1306
3023.9256158581707,1282
3025.644153014609,1282
3027.362382825801,1364
3029.0803056046193,1328
3030.797921664012,1323
3032.5152313170106,1350
3034.2322348767225,1343
3035.9489326563353,1367
3037.665324969115,1378
3039.3814121284063,1312
3041.097194447633,1343
3042.812672240299,1320
3044.5278458199855,1320
3046.2427155003525,1354
3047.9572815951406,1327
3049.671544418167,1310
3051.38550428333,1335
3053.0991615046073,1343
3054.812516396051,1363
3056.5255692717974,1287
3058.2383204460575,1324
3059.9507702331257,1312
3061.662918947372,1357
3063.3747669032446,1322
3065.0863144152736,1345
3066.7975617980674,1359
3068.508509366309,1347
3070.219157434767,1338
3071.9295063182844,1348
3073.639556331785,1317
3075.3493077902704,1404
3077.058761008821,1323
3078.7679163025964,1330
3080.476773986837,1315
3082.1853343768594,1362
3083.89359778806,1390
3085.6015645359153,1341
3087.3092349359786,1354
3089.016609303884,1349
3090.7236879553434,1339
3092.4304712061476,1372
3094.136959372166,1340
3095.843152769349,1310
3097.5490517137237,1377
3099.2546565213966,1322
3100.959967508554,1275
3102.66498499146,1324
3104.3697092864577,1299
3106.0741407099695,1299
3107.778279578498,1329
3109.482126208622,1344
3111.1856809170004,1371
3112.8889440203716,1384
3114.5919158355528,1344
3116.294596679439,1352
3117.996986869006,1329
3119.6990867213062,1348
3121.4008965534726,1312
3123.102416682717,1389
3124.803647426329,1357
3126.5045891016784,1382
3128.205242026213,1313
3129.90560651746,1338
3131.605682893025,1362
3133.3054714705922,1351
3135.0049725679282,1372
3136.7041865028714,1320
3138.4031135933465,1352
3140.101754157353,1349
3141.800108512971,1410
3143.498176978357,1316
3145.1959598717494,1362
3146.8934575114636,1331
3148.5906702158954,1325
3150.2875983035183,1317
3151.9842420928853,1316
3153.680601902627,1328
3155.376678051456,1329
3157.07247085816,1304
3158.767980641609,1361
3160.463207720748,1364
3162.158152414606,1348
3163.8528150422862,1362
3165.5471959229726,1372
3167.2412953759303,1356
3168.9351137204976,1297
3170.628651276098,1317
3172.3219083622307,1378
3174.014885298474,1332
3175.707582404485,1325
3177.4000000000005,1346
3179.092138404835,1271
3180.7839979388846,1263
3182.47557892212,1329
3184.166881674594,1352
3185.8579065164386,1306
3187.5486537678626,1336
3189.2391237491547,1339
3190.9293167806827,1309
3192.6192331828934,1311
3194.3088732763117,1357
3195.998237381542,1326
3197.687325819268,1339
3199.376138910251,1303
3201.064676975334,1366
3202.7529403354347,1383
3204.4409293115523,1317
3206.1286442247647,1358
3207.816085396229,1305
3209.5032531471825,1330
3211.190147798936,1286
3212.8767696728846,1305
3214.5631190905015,1340
3216.2491963733373,1265
3217.9350018430214,1296
3219.6205358212637,1320
3221.305798629851,1322
3222.990790590651,1299
3224.6755120256103,1253
3226.359963256751,1282
3228.0441446061795,1305
3229.7280563960758,1308
3231.411698948703,1302
3233.0950725863995,1366
3234.778177631587,1307
3236.461014406761,1266
3238.1435832345005,1331
3239.8258844374595,1337
3241.507918338374,1318
3243.1896852600576,1342
3244.8711855254023,1353
3246.552419457381,1304
3248.233387379042,1329
3249.914089613516,1331
3251.59452648401,1382
3253.274698313813,1304
3254.95460542629,1293
3256.6342481448855,1309
3258.313626793125,1283
3259.9927416946084,1270
3261.6715931730196,1240
3263.3501815521176,1281
3265.0285071557437,1264
3266.706570307815,1248
3268.3843713323286,1243
3270.0619105533615,1319
3271.739188295068,1278
3273.4162048816834,1349
3275.0929606375184,1306
3276.769455886966,1332
3278.445690954498,1326
3280.1216661646613,1341
3281.797381842087,1357
3283.4728383114807,1298
3285.1480358976296,1327
3286.8229749253996,1379
3288.4976557197333,1303
3290.172078605655,1310
3291.846243908266,1351
3293.5201519527463,1287
3295.193803064357,1270
3296.8671975684374,1276
3298.5403357904024,1298
3300.21321805575,1290
3301.8858446900567,1302
3303.558216018975,1280
3305.23033236824,1316
3306.9021940636603,1274
3308.57380143113,1334
3310.2451547966184,1308
3311.916254486174,1286
3313.5871008259246,1292
3315.2576941420766,1284
3316.9280347609147,1295
3318.5981230088046,1311
3320.2679592121895,1244
3321.9375436975924,1298
3323.606876791612,1272
3325.27595882093,1280
3326.944790112305,1352
3328.6133709925753,1259
3330.2817017886573,1320
3331.949782827547,1297
3333.617614436319,1272
3335.2851969421245,1285
3336.952530672199,1347
3338.619615953853,1306
3340.286453114475,1286
3341.9530424815357,1314
3343.619384382583,1321
3345.2854791452437,1366
3346.951327097224,1317
3348.6169285663073,1358
3350.2822838803577,1291
3351.947393367319,1327
3353.61225735521,1286
3355.2768761721345,1293
3356.9412501462693,1299
3358.605379605873,1291
3360.2692648792827,1369
3361.9329062949146,1291
3363.596304181263,1322
