CollectionTime,7/9/2024 3:48:54 PM
ExposureUsed,3
CalibratedSpectrum
-962.7078968117929,494
-959.9714848408522,537
-957.2358232597828,594
-954.5009119013725,549
-951.7667505983302,546
-949.0333391832855,589
-946.3006774887896,564
-943.5687653473143,579
-940.837602591253,566
-938.1071890529199,560
-935.3775245645503,588
-932.6486089583007,581
-929.9204420662485,559
-927.1930237203925,565
-924.4663537526524,597
-921.7404319948689,575
-919.0152582788041,596
-916.2908324361409,641
-913.5671542984834,610
-910.8442236973568,590
-908.1220404642074,601
-905.4006044304027,612
-902.679915427231,582
-899.959973285902,565
-897.2407778375464,573
-894.5223289132158,570
-891.8046263438832,585
-889.0876699604426,575
-886.3714595937089,552
-883.6559950744183,533
-880.9412762332282,570
-878.2273029007168,542
-875.5140749073835,547
-872.8015920836489,554
-870.0898542598545,552
-867.3788612662631,559
-864.6686129330585,556
-861.9591090903457,562
-859.2503495681506,572
-856.5423341964203,564
-853.8350628050229,578
-851.1285352237478,538
-848.4227512823054,561
-845.7177108103272,545
-843.0134136373656,566
-840.3098595928943,553
-837.6070485063082,618
-834.9049802069229,577
-832.2036545239757,580
-829.5030712866244,584
-826.8032303239481,605
-824.1041314649472,576
-821.4057745385428,587
-818.7081593735775,564
-816.0112857988148,584
-813.3151536429393,580
-810.6197627345566,586
-807.9251129021936,583
-805.2312039742981,564
-802.5380357792392,582
-799.8456081453069,594
-797.1539209007124,591
-794.462973873588,591
-791.772766891987,594
-789.083299783884,610
-786.3945723771743,601
-783.7065844996748,578
-781.0193359791231,598
-778.3328266431781,594
-775.6470563194197,564
-772.9620248353489,586
-770.2777320183878,576
-767.5941776958798,579
-764.9113616950891,614
-762.2292838432011,570
-759.5479439673222,587
-756.8673418944801,603
-754.1874774516235,610
-751.5083504656222,579
-748.8299607632671,596
-746.15230817127,577
-743.475392516264,598
-740.7992136248035,580
-738.1237713233636,598
-735.4490654383407,624
-732.7750957960521,579
-730.1018622227365,613
-727.4293645445534,618
-724.7576025875837,602
-722.0865761778291,640
-719.4162851412126,659
-716.7467293035781,594
-714.0779084906909,619
-711.409822528237,616
-708.7424712418238,609
-706.0758544569796,618
-703.4099719991541,666
-700.7448236937178,657
-698.0804093659622,666
-695.4167288411002,618
-692.7537819442656,612
-690.0915685005134,652
-687.4300883348199,661
-684.7693412720819,623
-682.1093271371178,649
-679.4500457546669,680
-676.7914969493897,655
-674.1336805458676,678
-671.4765963686034,649
-668.8202442420206,662
-666.1646239904642,681
-663.5097354382001,669
-660.8555784094151,700
-658.2021527282176,677
-655.5494582186366,706
-652.8974947046223,701
-650.2462620100463,677
-647.5957599587009,654
-644.9459883742998,696
-642.2969470804776,681
-639.6486359007902,725
-637.0010546587141,726
-634.3542031776476,682
-631.7080812809096,690
-629.0626887917401,699
-626.4180255333008,686
-623.7740913286734,681
-621.1308860008619,694
-618.4884093727904,695
-615.8466612673046,703
-613.2056415071715,682
-610.5653499150785,728
-607.9257863136347,687
-605.28695052537,687
-602.6488423727357,714
-600.0114616781036,722
-597.3748082637674,718
-594.7388819519412,725
-592.1036825647604,725
-589.4692099242818,760
-586.8354638524829,757
-584.2024441712624,697
-581.5701507024403,710
-578.9385832677575,702
-576.3077416888759,728
-573.6776257873787,744
-571.0482353847704,713
-568.4195703024757,730
-565.7916303618415,736
-563.164415384135,713
-560.5379251905453,744
-557.9121596021815,718
-555.2871184400748,710
-552.6628015251767,744
-550.0392086783606,738
-547.4163397204204,745
-544.794194472071,741
-542.1727727539491,737
-539.5520743866118,760
-536.9320991905377,739
-534.3128469861261,811
-531.6943175936979,810
-529.0765108334947,834
-526.4594265256793,874
-523.8430644903358,1004
-521.2274245474689,1105
-518.612506517005,1174
-515.9983102187913,1113
-513.3848354725959,1119
-510.77208209810846,1154
-508.16004991493924,1248
-505.5487387426199,1310
-502.9381484006032,1482
-500.3282787082628,1562
-497.71912948489364,1568
-495.1107005497117,1560
-492.5029917218539,1429
-489.8960028203786,1299
-487.28973366426493,1178
-484.68418407241325,1086
-482.07935386364494,1011
-479.47524285670266,954
-476.87185087025,962
-474.2691777228715,932
-471.66722323307334,937
-469.0659872192821,962
-466.4654694998459,950
-463.86566989303384,904
-461.26658821703614,932
-458.66822428996414,956
-456.07057792985,895
-453.4736489546475,931
-450.877437182231,908
-448.28194243039627,898
-445.68716451686,933
-443.09310325926003,942
-440.49975847515555,939
-437.9071299820263,889
-435.31521759727354,873
-432.72402113821954,912
-430.13354042210767,964
-427.5437752661022,1010
-424.95472548728867,903
-422.36639090267386,952
-419.7787713291855,953
-417.1918665836721,1006
-414.60567648290385,970
-412.0202008435715,948
-409.4354394822874,1033
-406.8513922155845,1020
-404.26805885991723,991
-401.685439231661,1061
-399.103533147112,1034
-396.522340422488,1070
-393.9418608739278,1007
-391.3620943174908,965
-388.7830405691583,954
-386.2046994448317,891
-383.6270707603344,879
-381.05015433141045,863
-378.473949973725,818
-375.8984575028645,761
-373.32367673433623,688
-370.74960748356875,695
-368.1762495659117,684
-365.60360279663576,598
-363.03166699093265,523
-360.4604419639154,534
-357.8899275306178,505
-355.32012350599507,475
-352.7510297049233,498
-350.1826459421999,482
-347.61497203254316,483
-345.04800779059235,500
-342.4817530309082,474
-339.91620756797226,469
-337.35137121618743,491
-334.7872437898774,490
-332.22382510328725,508
-329.66111497058273,481
-327.09911320585127,467
-324.53781962310075,513
-321.9772340362607,510
-319.4173562591816,514
-316.8581861056348,489
-314.2997233893127,459
-311.7419679238294,484
-309.1849195227194,482
-306.62857799943856,480
-304.0729431673641,530
-301.51801483979375,517
-298.963792829947,510
-296.41027695096386,557
-293.85746701590574,550
-291.3053628377552,550
-288.7539642294155,530
-286.2032710037115,537
-283.65328297338897,522
-281.1039999511146,586
-278.5554217494762,577
-276.007548180983,545
-273.4603790580651,544
-270.9139141930734,554
-268.3681533982807,557
-265.8230964858798,532
-263.27874326798565,528
-260.7350935566336,545
-258.1921471637804,578
-255.6499039013039,558
-253.10836358100266,575
-250.56752601459698,542
-248.02739101372765,582
-245.48795838995704,628
-242.94922795476816,591
-240.41119951956557,604
-237.8738728956746,674
-235.33724789434166,691
-232.80132432673452,611
-230.2661020039418,638
-227.73158073697357,652
-225.19776033676033,695
-222.66464061415422,721
-220.1322213799284,664
-217.60050244477725,649
-215.06948361931552,625
-212.53916471408013,712
-210.00954553952818,657
-207.48062590603843,677
-204.9524056239104,691
-202.4248845033651,732
-199.8980623545441,726
-197.37193898751036,745
-194.84651421224817,717
-192.32178783866232,745
-189.79775967657952,746
-187.27442953574644,751
-184.7517972258321,748
-182.2298625564256,688
-179.7086253370378,730
-177.18808537710026,738
-174.66824248596583,762
-172.14909647290835,794
-169.6306471471229,785
-167.11289431772548,778
-164.59583779375328,765
-162.07947738416453,764
-159.5638128978386,806
-157.04884414357605,941
-154.53457093009854,945
-152.02099306604828,928
-149.50811035998936,776
-146.99592262040665,750
-144.48442965570587,824
-141.97363127421409,848
-139.46352728417958,949
-136.95411749377126,1049
-134.44540171107985,967
-131.93737974411636,830
-129.43005140081357,1079
-126.92341648902493,1549
-124.41747481652521,1988
-121.91222619101006,2352
-119.40767042009657,2820
-116.90380731132257,3182
-114.40063667214702,3108
-111.8981583099503,2518
-109.3963720320337,1733
-106.89527764561933,1621
-104.39487495785067,1944
-101.89516377579241,3645
-99.39614390642998,4603
-96.89781515667039,4855
-94.40017733334128,4207
-91.90323024319173,3354
-89.40697369289148,3419
-86.91140748903172,4262
-84.41653143812482,5118
-81.92234534660395,5101
-79.42884902082358,5012
-76.93604226705907,6864
-74.4439248915071,10530
-71.95249670028534,14509
-69.46175749943245,16615
-66.97170709490854,16887
-64.48234529259423,14553
-61.99367189829195,11289
-59.50568671772464,7656
-57.01838955653636,7043
-54.53178022029283,7484
-52.045858514480074,8162
-49.560624244506016,9237
-47.07607721569923,10435
-44.59221723330904,10382
-42.10904410250669,9260
-39.62655762838392,7541
-37.14475761595372,6791
-34.66364387015028,7394
-32.18321619582866,8411
-29.70347439776515,9288
-27.224418280657005,10546
-24.74604764912317,11481
-22.26836230770266,16197
-19.7913620608565,28247
-17.315046712966478,47550
-14.83941606833514,64118
-12.36446993118659,65037
-9.89020810566592,65037
-7.416630395839093,65037
-4.94373660569363,65037
-2.471526539137585,65037
-6.821210263296962E-13,65037
2.47084320796705,65037
4.941003281093458,65037
7.410480415786196,65037
9.879274808531363,65037
12.347386655893956,65037
14.814816154518212,65037
17.28156350112681,65037
19.74762889252179,65037
22.21301252558385,65037
24.67771459727237,18822
27.141735304626195,3734
29.605074844762612,2282
32.06773341487792,2031
34.52971121224755,1921
36.99100843422559,1900
39.45162527824516,1713
41.91156194181792,1588
44.370818622535126,1513
46.82939551806646,1185
49.287292826160524,1198
51.74451074464503,1375
54.201049471426245,1461
56.65690920448981,1331
59.112090141899785,1093
61.56659248179983,1046
64.02041642241159,937
66.4735621620365,947
68.92602989905402,1013
71.37781983192338,1081
73.82893215918205,1106
76.27936707944684,1079
78.72912479141326,1077
81.17820549385567,1001
83.62660938562783,1102
86.07433666566146,1082
88.5213875329681,916
90.96776218663751,846
93.41346082583925,858
95.85848364982041,928
98.30283085790859,932
100.7465026495089,997
103.18949922410604,978
105.63182078126385,953
108.07346752062438,1086
110.51443964190923,977
112.95473734491827,852
115.39436082953114,870
117.83331029570547,853
120.27158594347827,886
122.7091879729652,942
125.1461165843615,887
127.58237197794062,865
130.01795435405518,843
132.4528639131364,922
134.88710085569494,907
137.32066538231982,874
139.75355769367923,789
142.1857779905207,867
144.61732647366978,864
147.04820334403132,844
149.47840880258934,862
151.90794305040674,947
154.33680628862487,1013
156.76499871846443,1185
159.19252054122433,1355
161.61937195828352,1571
164.04555317109896,1657
166.47106438120693,1831
168.89590579022217,1976
171.320077599839,2171
173.7435800118302,2254
176.16641322804742,2396
178.58857745042144,2449
181.01007288096173,2725
183.43089972175687,2681
185.85105817497413,2630
188.27054844285988,2601
190.6893707277394,2556
193.10752523201643,2597
195.5250121581745,2615
197.9418317087751,2727
200.3579840864594,2846
202.7734694939469,2745
205.18828813403627,2907
207.6024402096051,2830
210.01592592360964,2891
212.42874547908548,2910
214.84089907914665,2834
217.2523869269868,2830
219.66320922587727,2883
222.0733661791695,2836
224.48285799029293,2851
226.8916848627572,2813
229.29984700014882,2888
231.7073446061355,2820
234.11417788446204,2648
236.520347038953,2735
238.92585227351185,2846
241.33069379212054,2957
243.73487179884035,2929
246.1383864978112,2786
248.541238093252,2879
250.9434267894609,2894
253.34495279081432,2916
255.74581630176783,2894
258.1460175268563,2955
260.54555667069314,2992
262.9444339379703,2929
265.3426495334594,2931
267.7402036620107,2843
270.1370965285529,2792
272.53332833809407,2774
274.9288992957214,2728
277.32380960660055,2660
279.718059475976,2659
282.1116491091717,2656
284.5045787115897,2672
286.89684848871195,2716
289.2884586460981,2752
291.67940938938807,2724
294.0697009242996,2670
296.4593334566299,2726
298.84830719225477,2709
301.23662233712923,2634
303.6242790972866,2590
306.01127767884,2586
308.39761828798066,2618
310.78330113097934,2561
313.16832641418534,2619
315.5526943440269,2480
317.9364051270112,2525
320.3194589697242,2480
322.70185607883093,2448
325.0835966610754,2475
327.4646809232805,2348
329.8451090723478,2302
332.2248813152577,2259
334.6039978590701,2312
336.9824589109231,2309
339.36026467803447,2296
341.7374153677,2252
344.113911187295,2312
346.48975234427337,2304
348.8649390461686,2264
351.2394715005918,2304
353.61334991523415,2323
355.9865744978655,2297
358.35914545633375,2369
360.73106299856715,2362
363.10232733257146,2233
365.47293866643247,2162
367.84289720831396,2194
370.2122031664593,2119
372.5808567491905,2212
374.9488581649083,2201
377.31620762209275,2225
379.6829053293021,2189
382.0489514951745,2143
384.4143463284262,2067
386.7790900378528,2161
389.14318283232853,2109
391.50662492080653,2194
393.86941651231916,2148
396.23155781597745,2221
398.5930490409713,2136
400.9538903965696,2157
403.3140820921202,2164
405.6736243370498,2126
408.03251734086336,2088
410.3907613131465,2111
412.74835646356166,2147
415.10530300185144,2188
417.4616011378372,2105
419.81725108141893,2125
422.1722530425758,2094
424.5266072313656,2096
426.880313857925,2094
429.2333731324701,2144
431.58578526529516,2110
433.9375504667738,2095
436.2886689473588,2068
438.63914091758113,2073
440.9889665880513,2051
443.33814616945835,1999
445.68667987257015,2045
448.03456790823395,2007
450.3818104873759,2004
452.72840782100013,2055
455.07436012019105,2059
457.41966759611057,2015
459.7643304600007,2059
462.10834892318155,2095
464.4517231970525,2065
466.79445349309174,2047
469.1365400228566,2082
471.4779829979826,2049
473.81878263018564,2097
476.15893913125876,2060
478.4984527130747,2133
480.8373235875855,2112
483.17555196682144,2235
485.5131380628919,2303
487.8500820879857,2439
490.1863842543697,2538
492.52204477439034,2709
494.8570638604725,3048
497.1914417251204,3270
499.52517858091653,3490
501.85827464052306,3746
504.19073011668036,3694
506.5225452222086,3527
508.85372017000566,3354
511.18425517304956,3335
513.514150444396,3543
515.8434061971808,4338
518.1720226446176,5238
520.4999999999999,5441
522.8273384766991,4920
525.1540382881666,4579
527.480099647932,4126
529.8055227696037,3469
532.1303078668694,2734
534.454455153496,2379
536.777964843328,2297
539.1008371502907,2230
541.4230722883866,2172
543.744670471698,2128
546.0656319143858,2116
548.3859568306899,2145
550.7056454349294,2029
553.0246979415016,2060
555.3431145648834,2165
557.6608955196306,2110
559.978041020377,2137
562.2945512818363,2148
564.6104265188006,2123
566.9256669461412,2114
569.2402727788082,2106
571.5542442318302,2213
573.8675815203156,2143
576.1802848594508,2156
578.4923544645015,2169
580.8037905508126,2175
583.114593333807,2204
585.4247630289875,2083
587.7342998519354,2133
590.0432040183106,2100
592.3514757438526,2220
594.6591152443794,2121
596.9661227357875,2185
599.2724984340531,2172
601.578242555231,2153
603.8833553154542,2203
606.1878369309362,2244
608.4916876179676,2103
610.7949075929192,2170
613.0974970722403,2081
615.3994562724587,2091
617.7007854101818,2090
620.0014847020951,2112
622.3015543649641,2161
624.6009946156324,2091
626.8998056710224,2118
629.1979877481361,2085
631.4955410640538,2118
633.7924658359349,2186
636.0887622810175,2066
638.3844306166192,2097
640.6794710601358,2159
642.9738838290426,2133
645.2676691408932,2133
647.5608272133207,2079
649.853358264037,2168
652.1452625108324,2221
654.4365401715764,2156
656.7271914642178,2163
659.0172166067838,2148
661.3066158173809,2185
663.5953893141935,2167
665.8835373154867,2142
668.1710600396028,2113
670.4579577049639,2149
672.7442305300709,2153
675.0298787335033,2132
677.3149025339197,2059
679.599302150058,2163
681.8830778007342,2039
684.1662297048437,2180
686.4487580813608,2122
688.7306631493387,2130
691.0119451279091,2183
693.2926042362834,2107
695.5726406937516,2229
697.8520547196814,2195
700.1308465335215,2072
702.4090163547982,2158
704.6865644031171,2151
706.9634908981619,2105
709.2397960596965,2102
711.5154801075631,2194
713.7905432616823,2077
716.0649857420548,2096
718.3388077687592,2114
720.612009561953,2084
722.8845913418733,2138
725.1565533288352,2142
727.427895743234,2159
729.6986188055427,2101
731.9687227363137,2074
734.238207756178,2150
736.5070740858458,2145
738.7753219461066,2132
741.0429515578281,2085
743.3099631419569,2182
745.5763569195191,2134
747.8421331116193,2122
750.1072919394409,2163
752.3718336242467,2152
754.6357583873777,2120
756.8990664502545,2249
759.1617580343765,2166
761.423833361321,2122
763.6852926527457,2109
765.9461361303862,2201
768.206364016058,2166
770.4659765316536,2109
772.7249738991469,2107
774.9833563405886,2207
777.2411240781092,2152
779.4982773339183,2178
781.7548163303044,2111
784.010741289634,2150
786.2660524343538,2259
788.5207499869881,2117
790.7748341701416,2164
793.0283052064964,2093
795.2811633188143,2237
797.5334087299362,2214
799.7850416627813,2264
802.0360623403484,2153
804.2864709857143,2145
806.5362678220353,2106
808.7854530725468,2173
811.0340269605625,2190
813.2819897094754,2178
815.5293415427581,2168
817.77608268396,2218
820.0222133567116,2223
822.2677337847211,2119
824.5126441917765,2201
826.7569448017433,2168
829.0006358385675,2198
831.2437175262731,2215
833.4861900889629,2224
835.7280537508192,2169
837.9693087361026,2170
840.2099552691533,2184
842.4499935743896,2074
844.689423876309,2200
846.9282463994886,2183
849.1664613685833,2242
851.4040690083276,2218
853.6410695435349,2242
855.877463199097,2196
858.1132501999847,2116
860.3484307712487,2179
862.5830051380175,2235
864.8169735254988,2198
867.0503361589791,2189
869.2830932638243,2266
871.5152450654786,2231
873.7467917894654,2244
875.9777336613873,2288
878.2080709069252,2185
880.4378037518389,2267
882.666932421968,2227
884.8954571432301,2262
887.1233781416219,2225
889.3506956432192,2297
891.5774098741766,2333
893.803521060728,2235
896.0290294291852,2361
898.2539352059397,2233
900.4782386174619,2202
902.7019398903011,2338
904.925039251085,2288
907.147536926521,2281
909.3694331433943,2299
911.59072812857,2211
913.8114221089921,2230
916.0315153116827,2228
918.2510079637437,2194
920.4699002923547,2167
922.6881925247761,2197
924.905884888345,2203
927.1229776104793,2074
929.3394709186747,2252
931.555365040506,2155
933.7706602036275,2230
935.9853566357709,2182
938.1994545647489,2186
940.4129542184515,2207
942.6258558248488,2162
944.8381596119883,2166
947.0498658079974,2221
949.2609746410825,2160
951.4714863395287,2153
953.6814011316998,2091
955.8907192460387,2107
958.0994409110671,2158
960.3075663553858,2043
962.5150958076741,2041
964.7220294966913,2074
966.928367651274,2202
969.1341105003388,2137
971.3392582728806,2094
973.5438111979742,2032
975.747769504772,2085
977.9511334225061,2037
980.153903180487,2024
982.3560790081052,2129
984.5576611348289,1944
986.7586497902058,2093
988.9590452038618,2017
991.158847605503,1903
993.3580572249133,2032
995.5566742919558,1937
997.7546990365728,1914
999.952131688785,1863
1002.1489724786926,1915
1004.3452216364743,1867
1006.5408793923874,1826
1008.7359459767691,1817
1010.9304216200343,1828
1013.1243065526781,1911
1015.3176010052733,1814
1017.510305208472,1842
1019.7024193930064,1806
1021.8939437896848,1720
1024.0848786293977,1827
1026.2752241431122,1787
1028.4649805618747,1811
1030.6541481168115,1806
1032.842727039127,1807
1035.0307175601051,1811
1037.2181199111074,1732
1039.4049343235752,1768
1041.591161029029,1732
1043.7768002590683,1781
1045.9618522453698,1799
1048.1463172196918,1782
1050.3301954138697,1720
1052.513487059818,1700
1054.69619238953,1784
1056.8783116350783,1697
1059.0598450286152,1795
1061.2407928023704,1783
1063.4211551886528,1798
1065.6009324198508,1733
1067.780124728432,1714
1069.9587323469414,1672
1072.1367555080046,1717
1074.314194444325,1779
1076.4910493886855,1707
1078.667320573947,1698
1080.843008233051,1713
1083.0181125990161,1670
1085.1926339049414,1729
1087.3665723840027,1671
1089.5399282694575,1672
1091.7127017946405,1724
1093.8848931929647,1682
1096.0565026979243,1708
1098.2275305430899,1701
1100.3979769621128,1669
1102.567842188722,1664
1104.737126456726,1652
1106.9058300000124,1681
1109.0739530525475,1626
1111.2414958483764,1689
1113.4084586216231,1675
1115.5748416064907,1674
1117.7406450372605,1639
1119.9058691482942,1662
1122.0705141740304,1626
1124.2345803489884,1644
1126.3980679077658,1696
1128.5609770850388,1635
1130.7233081155623,1720
1132.8850612341707,1610
1135.0462366757774,1571
1137.2068346753745,1692
1139.3668554680326,1696
1141.526299288901,1567
1143.68516637321,1643
1145.8434569562655,1626
1148.001171273455,1537
1150.158309560244,1541
1152.3148720521767,1582
1154.470858984876,1573
1156.626270594044,1631
1158.7811071154629,1597
1160.9353687849912,1540
1163.089055838569,1596
1165.242168512213,1606
1167.3947070420209,1572
1169.5466716641677,1631
1171.6980626149075,1553
1173.8488801305748,1622
1175.9991244475814,1595
1178.1487958024186,1602
1180.2978944316555,1589
1182.4464205719428,1621
1184.5943744600072,1598
1186.7417563326567,1555
1188.8885664267755,1597
1191.0348049793297,1589
1193.1804722273619,1624
1195.325568407995,1613
1197.4700937584303,1555
1199.614048515948,1636
1201.7574329179074,1583
1203.900247201746,1605
1206.042491604982,1643
1208.1841663652099,1672
1210.3252717201053,1630
1212.465807907422,1561
1214.6057751649923,1599
1216.7451737307279,1624
1218.8840038426192,1658
1221.0222657387353,1601
1223.1599596572241,1654
1225.2970858363137,1670
1227.4336445143094,1625
1229.5696359295966,1634
1231.705060320639,1631
1233.8399179259786,1675
1235.9742089842384,1648
1238.107933734118,1693
1240.2410924143974,1684
1242.373685263935,1640
1244.5057125216676,1593
1246.6371744266116,1587
1248.7680712178621,1651
1250.898403134593,1614
1253.028170416058,1629
1255.1573733015875,1602
1257.2860120305932,1687
1259.4140868425648,1668
1261.54159797707,1651
1263.6685456737569,1626
1265.7949301723515,1640
1267.9207517126597,1639
1270.046010534565,1635
1272.1707068780306,1684
1274.2948409830983,1673
1276.4184130898889,1686
1278.541423438603,1676
1280.6638722695184,1698
1282.785759822993,1702
1284.9070863394636,1667
1287.0278520594447,1727
1289.1480572235314,1733
1291.2677020723963,1754
1293.3867868467923,1648
1295.5053117875495,1678
1297.623277135579,1705
1299.740683131868,1693
1301.8575300174857,1742
1303.973818033578,1714
1306.0895474213703,1765
1308.2047184221678,1824
1310.3193312773528,1726
1312.4333862283888,1801
1314.5468835168163,1719
1316.659823384255,1771
1318.7722060724045,1765
1320.8840318230418,1760
1322.9953008780249,1755
1325.1060134792888,1724
1327.2161698688478,1716
1329.3257702887959,1739
1331.4348149813054,1719
1333.5433041886276,1767
1335.6512381530933,1772
1337.7586171171101,1820
1339.8654413231675,1743
1341.9717110138317,1720
1344.0774264317488,1751
1346.1825878196432,1764
1348.2871954203192,1774
1350.3912494766587,1733
1352.4947502316231,1746
1354.5976979282532,1702
1356.7000928096686,1762
1358.8019351190665,1790
1360.9032250997243,1713
1363.0039629949988,1718
1365.1041490483235,1767
1367.2037835032133,1725
1369.3028666032606,1682
1371.401398592137,1740
1373.4993797135926,1694
1375.5968102114575,1786
1377.6936903296396,1685
1379.7900203121262,1730
1381.8858004029835,1743
1383.9810308463561,1767
1386.075711886469,1736
1388.1698437676241,1790
1390.2634267342032,1764
1392.356461030667,1783
1394.4489469015557,1789
1396.5408845914872,1734
1398.6322743451592,1810
1400.7231164073469,1783
1402.813411022907,1791
1404.903158436773,1764
1406.9923588939578,1780
1409.0810126395531,1776
1411.1691199187303,1870
1413.2566809767386,1836
1415.343696058907,1848
1417.4301654106425,1841
1419.5160892774315,1943
1421.6014679048399,1884
1423.6863015385125,1884
1425.7705904241707,1870
1427.8543348076178,1880
1429.9375349347342,1880
1432.0201910514802,1947
1434.102303403894,1890
1436.1838722380944,1867
1438.2648978002767,1898
1440.3453803367174,1841
1442.4253200937692,1911
1444.5047173178677,2032
1446.5835722555234,2038
1448.6618851533285,2064
1450.739656257952,2001
1452.8168858161434,1976
1454.8935740747306,2030
1456.96972128062,2068
1459.045327680797,2086
1461.120393522327,2133
1463.1949190523528,2198
1465.2689045180973,2209
1467.3423501668608,2204
1469.415256246024,2215
1471.4876230030463,2268
1473.559450685465,2253
1475.6307395408976,2258
1477.7014898170391,2302
1479.771701761665,2397
1481.8413756226287,2313
1483.9105116478618,2342
1485.9791100853772,2396
1488.0471711832643,2511
1490.1146951896926,2476
1492.1816823529098,2546
1494.2481329212433,2444
1496.3140471430984,2575
1498.3794252669609,2554
1500.4442675413939,2584
1502.5085742150404,2674
1504.572345536622,2590
1506.6355817549388,2598
1508.6982831188702,2675
1510.7604498773744,2793
1512.8220822794883,2786
1514.8831805743293,2740
1516.9437450110909,2792
1519.003775839048,2806
1521.0632733075522,2858
1523.1222376660367,2940
1525.1806691640113,2928
1527.2385680510652,2888
1529.2959345768668,2877
1531.3527689911643,2980
1533.4090715437833,3138
1535.4648424846291,3139
1537.5200820636855,3168
1539.5747905310159,3227
1541.6289681367616,3289
1543.6826151311434,3252
1545.7357317644614,3324
1547.7883182870937,3355
1549.8403749494987,3468
1551.8919020022113,3451
1553.9428996958477,3607
1555.9933682811015,3637
1558.0433080087469,3707
1560.0927191296346,3707
1562.1416018946961,3711
1564.1899565549415,3745
1566.2377833614592,3742
1568.2850825654164,3675
1570.3318544180606,3616
1572.3780991707158,3547
1574.423817074788,3396
1576.4690083817595,3255
1578.5136733431923,3090
1580.5578122107272,3011
1582.601425236085,2836
1584.6445126710646,2675
1586.6870747675434,2664
1588.7291117774776,2515
1590.7706239529034,2469
1592.8116115459347,2411
1594.8520748087658,2280
1596.8920139936686,2300
1598.9314293529933,2129
1600.9703211391711,2153
1603.008689604711,2075
1605.0465350022005,2044
1607.0838575843068,2058
1609.1206576037753,1957
1611.1569353134305,1994
1613.1926909661765,1882
1615.2279248149953,1868
1617.2626371129481,1820
1619.2968281131757,1856
1621.3304980688963,1800
1623.3636472334088,1851
1625.39627586009,1803
1627.428384202396,1820
1629.459972513861,1751
1631.4910410480993,1768
1633.5215900588028,1802
1635.551619799744,1806
1637.5811305247717,1732
1639.6101224878166,1701
1641.6385959428862,1732
1643.6665511440683,1634
1645.693988345528,1714
1647.7209078015112,1705
1649.7473097663405,1721
1651.7731944944203,1684
1653.7985622402307,1710
1655.823413258333,1717
1657.847747803366,1650
1659.8715661300494,1662
1661.8948684931793,1706
1663.9176551476316,1677
1665.9399263483624,1715
1667.9616823504057,1661
1669.982923408873,1684
1672.0036497789574,1656
1674.0238617159293,1676
1676.043559475138,1696
1678.0627433120121,1668
1680.081413482059,1711
1682.0995702408654,1707
1684.117213844096,1669
1686.134344547495,1728
1688.1509626068864,1660
1690.1670682781705,1666
1692.182661817329,1637
1694.1977434804217,1648
1696.2123135235875,1696
1698.226372203043,1714
1700.2399197750851,1739
1702.2529564960905,1737
1704.2654826225112,1636
1706.277498410882,1675
1708.2890041178139,1630
1710.2999999999988,1585
1712.3104863142066,1648
1714.3204633172854,1613
1716.329931266163,1664
1718.3388904178469,1640
1720.3473410294214,1656
1722.3552833580516,1618
1724.3627176609807,1651
1726.3696441955308,1623
1728.3760632191033,1632
1730.3819749891782,1638
1732.3873797633146,1649
1734.3922777991502,1638
1736.3966693544012,1578
1738.4005546868639,1621
1740.4039340544127,1581
1742.406807715001,1610
1744.4091759266616,1627
1746.4110389475054,1588
1748.4123970357223,1618
1750.413250449582,1580
1752.4135994474318,1620
1754.4134442876993,1579
1756.4127852288902,1593
1758.4116225295893,1569
1760.4099564484595,1556
1762.407787244244,1601
1764.405115175764,1674
1766.4019405019203,1548
1768.3982634816916,1519
1770.3940843741357,1563
1772.3894034383907,1653
1774.3842209336717,1524
1776.378537119274,1555
1778.372352254571,1619
1780.3656665990156,1586
1782.3584804121397,1568
1784.3507939535534,1575
1786.3426074829463,1560
1788.3339212600863,1605
1790.3247355448211,1575
1792.3150505970766,1605
1794.3048666768573,1531
1796.2941840442477,1606
1798.2830029594106,1593
1800.2713236825884,1595
1802.2591464741004,1631
1804.2464715943465,1585
1806.2332993038058,1630
1808.2196298630352,1580
1810.2054635326708,1612
1812.190800573428,1539
1814.175641246101,1562
1816.1599858115628,1580
1818.1438345307652,1594
1820.127187664738,1626
1822.1100454745924,1590
1824.092408221516,1497
1826.0742761667766,1605
1828.055649571721,1616
1830.0365286977735,1597
1832.0169138064398,1605
1833.9968051593014,1594
1835.9762030180214,1511
1837.9551076443408,1609
1839.9335193000788,1601
1841.9114382471344,1577
1843.888864747485,1557
1845.8657990631878,1568
1847.842241456378,1558
1849.8181921892697,1558
1851.7936515241558,1528
1853.7686197234098,1583
1855.7430970494815,1430
1857.7170837649014,1535
1859.6905801322787,1607
1861.6635864143004,1586
1863.6361028737338,1629
1865.608129773424,1545
1867.5796673762961,1603
1869.5507159453537,1653
1871.521275743678,1618
1873.4913470344313,1522
1875.4609300808534,1545
1877.4300251462632,1557
1879.3986324940588,1583
1881.366752387717,1546
1883.3343850907936,1539
1885.3015308669228,1557
1887.268189979819,1525
1889.2343626932739,1564
1891.2000492711595,1570
1893.1652499774254,1595
1895.1299650761011,1568
1897.0941948312952,1577
1899.0579395071945,1504
1901.0211993680641,1564
1902.98397467825,1591
1904.9462657021745,1623
1906.9080727043415,1556
1908.869395949332,1545
1910.8302357018065,1543
1912.790592226504,1554
1914.7504657882428,1521
1916.7098566519212,1546
1918.6687650825133,1553
1920.6271913450764,1566
1922.5851357047422,1605
1924.5425984267245,1561
1926.499579776314,1525
1928.4560800188833,1588
1930.4120994198802,1538
1932.367638244833,1534
1934.32269675935,1529
1936.2772752291175,1612
1938.231373919899,1590
1940.1849930975404,1593
1942.1381330279637,1581
1944.0907939771696,1608
1946.0429762112412,1542
1947.9946799963363,1528
1949.9459055986945,1569
1951.896653284633,1527
1953.8469233205478,1610
1955.7967159729142,1599
1957.7460315082863,1598
1959.6948701932974,1572
1961.6432322946594,1594
1963.5911180791632,1610
1965.5385278136787,1628
1967.4854617651545,1558
1969.4319202006182,1573
1971.377903387176,1600
1973.3234115920136,1589
1975.268445082395,1538
1977.2130041256642,1552
1979.1570889892423,1566
1981.1006999406304,1614
1983.04383724741,1558
1984.986501177238,1549
1986.928691997853,1538
1988.8704099770712,1545
1990.811655382789,1591
1992.7524284829801,1620
1994.692729545698,1541
1996.6325588390755,1500
1998.5719166313224,1535
2000.5108031907307,1603
2002.4492187856677,1512
2004.387163684583,1539
2006.3246381560011,1550
2008.2616424685298,1562
2010.1981768908527,1549
2012.1342416917332,1533
2014.069837140014,1563
2016.0049635046162,1538
2017.9396210545406,1476
2019.8738100588666,1528
2021.8075307867502,1547
2023.740783507431,1546
2025.6735684902228,1503
2027.6058860045214,1443
2029.5377363198004,1542
2031.4691197056118,1551
2033.4000364315875,1555
2035.3304867674374,1542
2037.260470982952,1518
2039.189989347998,1528
2041.1190421325232,1546
2043.047629606554,1472
2044.9757520401945,1538
2046.9034097036288,1522
2048.8306028671195,1554
2050.7573318010086,1492
2052.683596775716,1513
2054.609398061742,1500
2056.5347359296647,1525
2058.4596106501403,1564
2060.384022493906,1518
2062.3079717317764,1579
2064.231458634646,1528
2066.1544834734873,1509
2068.077046519352,1560
2069.99914804337,1495
2071.9207883167524,1539
2073.8419676107865,1565
2075.7626861968406,1548
2077.6829443463607,1473
2079.6027423308715,1491
2081.522080421977,1488
2083.440958891362,1509
2085.359378010786,1566
2087.2773380520907,1496
2089.194839287196,1514
2091.111881988101,1497
2093.0284664268825,1538
2094.9445928756973,1544
2096.86026160678,1511
2098.775472892446,1516
2100.690227005088,1513
2102.604524217178,1496
2104.5183648012676,1581
2106.431749029985,1516
2108.34467717604,1556
2110.2571495122206,1495
2112.169166311393,1508
2114.080727846503,1547
2115.9918343905747,1563
2117.902486216711,1488
2119.8126835980956,1569
2121.722426807987,1495
2123.6317161197285,1571
2125.5405518067364,1532
2127.448934142509,1535
2129.356863400624,1503
2131.264339854737,1588
2133.1713637785815,1503
2135.077935445972,1584
2136.9840551308002,1598
2138.889723107037,1564
2140.7949396487334,1554
2142.699705030018,1540
2144.6040195250994,1553
2146.507883408264,1575
2148.4112969538774,1585
2150.3142604363848,1625
2152.2167741303097,1552
2154.1188383102535,1574
2156.0204532508997,1604
2157.9216192270064,1569
2159.822336513414,1538
2161.7226053850413,1581
2163.622426116884,1596
2165.5217989840185,1565
2167.4207242616,1619
2169.319202224862,1639
2171.2172331491165,1629
2173.1148173097563,1630
2175.0119549822507,1626
2176.90864644215,1639
2178.8048919650823,1654
2180.7006918267534,1582
2182.596046302952,1606
2184.4909556695407,1582
2186.3854202024645,1619
2188.279440177746,1631
2190.173015871487,1618
2192.066147559868,1588
2193.958835519149,1653
2195.851080025667,1567
2197.7428813558417,1569
2199.6342397861667,1589
2201.5251555932186,1688
2203.415629053651,1630
2205.3056604441986,1758
2207.19525004167,1655
2209.084398122958,1601
2210.9731049650327,1697
2212.861370844941,1672
2214.749196039812,1700
2216.636580826851,1704
2218.523525483344,1647
2220.410030286655,1621
2222.296095514226,1620
2224.1817214435805,1646
2226.066908352319,1656
2227.951656518121,1678
2229.835966218746,1773
2231.71983773203,1677
2233.6032713358913,1685
2235.486267308324,1647
2237.3688259274036,1680
2239.2509474712824,1670
2241.132632218193,1680
2243.013880446447,1713
2244.8946924344323,1645
2246.7750684606203,1650
2248.6550088035574,1692
2250.534513741871,1696
2252.413583554265,1663
2254.292218519526,1644
2256.170418916517,1638
2258.0481850241786,1680
2259.925517121534,1666
2261.8024154876825,1643
2263.678880401803,1654
2265.5549121431536,1754
2267.430510991071,1652
2269.305677224971,1700
2271.180411124348,1637
2273.0547129687766,1633
2274.9285830379076,1655
2276.8020216114737,1637
2278.6750289692845,1650
2280.5476053912294,1670
2282.4197511572766,1653
2284.2914665474727,1672
2286.162751841943,1693
2288.0336073208937,1661
2289.904033264608,1698
2291.774029953448,1682
2293.6435976678554,1689
2295.5127366883517,1630
2297.381447295534,1551
2299.2497297700825,1497
2301.1175843927526,1565
2302.9850114443825,1505
2304.852011205885,1515
2306.7185839582553,1487
2308.5847299825664,1484
2310.4504495599676,1433
2312.3157429716925,1485
2314.1806104990483,1446
2316.0450524234247,1337
2317.9090690262888,1442
2319.772660589186,1406
2321.635827393742,1440
2323.498569721661,1389
2325.3608878547248,1434
2327.2227820747967,1463
2329.0842526638157,1380
2330.945299903803,1520
2332.805924076857,1369
2334.6661254651535,1428
2336.525904350951,1448
2338.3852610165827,1380
2340.244195744464,1424
2342.102708817088,1452
2343.9608005170253,1415
2345.8184711269287,1475
2347.675720929526,1432
2349.532550207628,1431
2351.38895924412,1477
2353.24494832197,1449
2355.100517724223,1448
2356.955667734004,1427
2358.810398634514,1416
2360.664710709037,1451
2362.5186042409337,1442
2364.3720795136437,1472
2366.225136810686,1432
2368.0777764156583,1440
2369.929998612237,1444
2371.7818036841777,1443
2373.633191915315,1402
2375.484163589562,1437
2377.3347189909114,1389
2379.184858403434,1438
2381.03458211128,1435
2382.8838903986775,1444
2384.732783549936,1458
2386.5812618494406,1436
2388.4293255816588,1444
2390.2769750311327,1472
2392.1242104824883,1411
2393.971032220427,1528
2395.8174405297295,1463
2397.6634356952563,1499
2399.509018001947,1537
2401.3541877348193,1479
2403.1989451789705,1483
2405.043290619576,1505
2406.8872243418905,1496
2408.730746631247,1463
2410.5738577730594,1478
2412.4165580528183,1559
2414.258847756095,1472
2416.100727168537,1417
2417.9421965758734,1462
2419.783256263912,1510
2421.623906518538,1502
2423.4641476257157,1471
2425.303979871491,1462
2427.143403541984,1488
2428.9824189233977,1510
2430.821026302012,1469
2432.6592259641866,1456
2434.497018196361,1449
2436.33440328505,1493
2438.171381516851,1543
2440.00795317844,1485
2441.844118556569,1467
2443.6798779380724,1509
2445.5152316098606,1508
2447.3501798589255,1449
2449.1847229723357,1459
2451.0188612372403,1464
2452.8525949408663,1526
2454.6859243705203,1527
2456.518849813587,1517
2458.3513715575314,1525
2460.183489889895,1469
2462.015205098301,1445
2463.8465174704493,1449
2465.67742729412,1451
2467.5079348571717,1464
2469.338040447542,1434
2471.1677443532476,1464
2472.9970468623833,1431
2474.825948263123,1482
2476.6544488437207,1474
2478.482548892508,1507
2480.310248697896,1506
2482.137548548374,1468
2483.9644487325118,1417
2485.790949538956,1491
2487.617051256433,1437
2489.44275417375,1500
2491.26805857979,1495
2493.0929647635157,1498
2494.917473013971,1553
2496.741583620276,1527
2498.5652968716304,1581
2500.3886130573137,1569
2502.2115324666834,1523
2504.0340553891765,1528
2505.856182114308,1477
2507.6779129316733,1524
2509.499248130945,1552
2511.3201880018764,1471
2513.140732834298,1561
2514.9608829181198,1486
2516.780638543331,1569
2518.6,1514
2520.418967578273,1541
2522.237541568376,1471
2524.0557222606144,1528
2525.8735099453706,1524
2527.6909049131086,1541
2529.507907454368,1590
2531.32451785977,1547
2533.140736420014,1571
2534.9565634258774,1568
2536.771999168218,1559
2538.5870439379714,1563
2540.4016980261526,1593
2542.2159617238544,1637
2544.02983532225,1607
2545.8433191125914,1633
2547.656413386209,1637
2549.4691184345115,1624
2551.2814345489874,1570
2553.093362021204,1587
2554.904901142808,1636
2556.716052205523,1628
2558.526815501153,1647
2560.3371913215824,1664
2562.147179958771,1626
2563.956781704761,1613
2565.7659968516705,1695
2567.5748256916986,1679
2569.3832685171224,1660
2571.1913256202984,1633
2572.9989972936614,1707
2574.806283829725,1709
2576.613185521084,1754
2578.4197026604074,1666
2580.2258355404483,1776
2582.031584454035,1692
2583.836949694077,1754
2585.6419315535613,1739
2587.4465303255533,1770
2589.2507463032002,1712
2591.0545797797245,1796
2592.8580310484303,1796
2594.6611004026995,1694
2596.463788135992,1765
2598.266094541849,1815
2600.0680199138874,1796
2601.869564545807,1758
2603.670728731383,1758
2605.4715127644704,1814
2607.2719169390048,1756
2609.071941548998,1852
2610.8715868885433,1807
2612.670853251811,1808
2614.469740933052,1812
2616.268250226594,1778
2618.0663814268455,1781
2619.864134828292,1821
2621.6615107255006,1761
2623.458509413115,1747
2625.2551311858597,1815
2627.0513763385347,1693
2628.8472451660223,1742
2630.6427379632833,1717
2632.4378550253564,1761
2634.232596647359,1675
2636.026963124488,1727
2637.8209547520187,1732
2639.6145718253065,1745
2641.407814639785,1753
2643.200683490966,1689
2644.9931786744414,1680
2646.7853004858807,1681
2648.577049221034,1674
2650.3684251757277,1666
2652.1594286458712,1634
2653.9500599274484,1643
2655.740319316525,1652
2657.5302071092437,1619
2659.3197236018286,1654
2661.10886909058,1638
2662.8976438718782,1561
2664.686048242183,1597
2666.4740824980327,1575
2668.2617469360443,1553
2670.0490418529134,1551
2671.8359675454153,1598
2673.622524310403,1548
2675.408712444811,1520
2677.1945322456495,1629
2678.979984010009,1586
2680.76506803506,1574
2682.5497846180497,1529
2684.334134056306,1554
2686.1181166472343,1561
2687.9017326883213,1520
2689.6849824771293,1500
2691.4678663113013,1562
2693.2503844885596,1522
2695.032537306705,1526
2696.8143250636167,1518
2698.5957480572542,1574
2700.3768065856534,1480
2702.1575009469316,1551
2703.937831439283,1493
2705.717798360982,1476
2707.4974020103837,1517
2709.276642685917,1480
2711.055520686095,1482
2712.834036309506,1487
2714.612189854819,1496
2716.389981620782,1494
2718.1674119062204,1457
2719.944481010041,1476
2721.721189231226,1503
2723.4975368688415,1428
2725.273524222027,1461
2727.0491515900053,1448
2728.824419272075,1433
2730.5993275676146,1464
2732.3738767760838,1454
2734.148067197016,1447
2735.921899130031,1441
2737.6953728748194,1455
2739.468488731156,1460
2741.2412469988926,1427
2743.0136479779617,1404
2744.785691968372,1407
2746.5573792702116,1408
2748.3287101836504,1441
2750.099685008934,1429
2751.870304046388,1465
2753.640567596418,1428
2755.4104759595057,1411
2757.1800294362156,1440
2758.949228327187,1448
2760.7180729331412,1442
2762.486563554877,1480
2764.254700493272,1441
2766.022484049284,1420
2767.789914523947,1422
2769.5569922183786,1478
2771.3237174337705,1425
2773.090090471394,1504
2774.8561116326036,1385
2776.6217812188274,1431
2778.3870995315756,1390
2780.1520668724356,1465
2781.9166835430747,1454
2783.6809498452394,1423
2785.444866080754,1447
2787.2084325515225,1368
2788.971649559527,1445
2790.73451740683,1456
2792.4970363955713,1455
2794.2592068279705,1452
2796.0210290063264,1468
2797.7825032330147,1458
2799.543629810493,1513
2801.304409041296,1468
2803.0648412280366,1500
2804.8249266734088,1439
2806.5846656801846,1450
2808.344058551212,1503
2810.1031055894246,1486
2811.8618070978273,1435
2813.6201633795085,1428
2815.378174737636,1477
2817.1358414754536,1424
2818.893163896285,1460
2820.6501423035334,1490
2822.4067770006814,1446
2824.1630682912883,1506
2825.9190164789957,1430
2827.6746218675207,1430
2829.429884760661,1469
2831.184805462294,1427
2832.9393842763743,1493
2834.693621506936,1398
2836.4475174580916,1424
2838.201072434034,1459
2839.954286739034,1429
2841.707160677441,1458
2843.459694553685,1442
2845.2118886722724,1406
2846.96374333779,1448
2848.7152588549034,1402
2850.4664355283567,1474
2852.217273662973,1473
2853.9677735636546,1493
2855.7179355353833,1428
2857.4677598832186,1423
2859.217246912299,1399
2860.9663969278427,1382
2862.715210235146,1430
2864.4636871395846,1470
2866.211827946614,1443
2867.9596329617652,1402
2869.7071024906536,1500
2871.4542368389684,1409
2873.20103631248,1423
2874.947501217038,1425
2876.6936318585695,1415
2878.4394285430812,1432
2880.1848915766604,1430
2881.9300212654707,1439
2883.6748179157553,1524
2885.4192818338374,1511
2887.1634133261173,1419
2888.907212699077,1427
2890.6506802592744,1431
2892.393816313348,1420
2894.1366211680142,1406
2895.8790951300693,1438
2897.621238506388,1484
2899.363051603925,1491
2901.1045347297118,1476
2902.8456881908596,1389
2904.58651229456,1403
2906.327007348081,1413
2908.067173658772,1437
2909.8070115340597,1505
2911.5465212814497,1457
2913.285703208527,1409
2915.0245576229563,1403
2916.7630848324807,1433
2918.5012851449196,1430
2920.2391588681758,1445
2921.976706310227,1427
2923.7139277791334,1419
2925.4508235830313,1382
2927.187394030137,1443
2928.923639428745,1431
2930.6595600872306,1444
2932.395156314046,1440
2934.1304284177218,1432
2935.8653767068713,1461
2937.6000014901815,1457
2939.3343030764227,1414
2941.068281774442,1438
2942.8019378931644,1393
2944.5352717415976,1407
2946.2682836288236,1472
2948.0009738640065,1466
2949.7333427563885,1458
2951.465390615289,1486
2953.1971177501086,1465
2954.9285244703265,1394
2956.6596110855,1467
2958.3903779052657,1458
2960.1208252393385,1439
2961.8509533975125,1452
2963.5807626896617,1366
2965.3102534257378,1473
2967.0394259157715,1426
2968.768280469873,1445
2970.496817398232,1446
2972.2250370111146,1451
2973.952939618869,1448
2975.6805255319196,1419
2977.4077950607707,1423
2979.134748516006,1442
2980.861386208289,1467
2982.587708448359,1518
2984.313715547037,1503
2986.039407815222,1489
2987.764785563891,1445
2989.489849104102,1461
2991.2145987469908,1425
2992.9390348037705,1431
2994.6631575857346,1377
2996.3869674042576,1408
2998.1104645707887,1410
2999.83364939686,1410
3001.5565221940783,1468
3003.2790832741334,1503
3005.0013329487924,1411
3006.7232715298996,1410
3008.4448993293804,1416
3010.166216659239,1401
3011.887223831558,1417
3013.607921158498,1408
3015.3283089522993,1459
3017.0483875252826,1444
3018.7681571898443,1354
3020.4876182584626,1430
3022.2067710436927,1449
3023.9256158581707,1391
3025.644153014609,1434
3027.362382825801,1463
3029.0803056046193,1494
3030.797921664012,1449
3032.5152313170106,1425
3034.2322348767225,1447
3035.9489326563353,1448
3037.665324969115,1409
3039.3814121284063,1423
3041.097194447633,1430
3042.812672240299,1465
3044.5278458199855,1420
3046.2427155003525,1452
3047.9572815951406,1442
3049.671544418167,1465
3051.38550428333,1425
3053.0991615046073,1407
3054.812516396051,1444
3056.5255692717974,1398
3058.2383204460575,1431
3059.9507702331257,1469
3061.662918947372,1477
3063.3747669032446,1444
3065.0863144152736,1418
3066.7975617980674,1373
3068.508509366309,1436
3070.219157434767,1467
3071.9295063182844,1475
3073.639556331785,1402
3075.3493077902704,1449
3077.058761008821,1397
3078.7679163025964,1427
3080.476773986837,1434
3082.1853343768594,1505
3083.89359778806,1442
3085.6015645359153,1471
3087.3092349359786,1459
3089.016609303884,1391
3090.7236879553434,1389
3092.4304712061476,1450
3094.136959372166,1404
3095.843152769349,1433
3097.5490517137237,1433
3099.2546565213966,1455
3100.959967508554,1463
3102.66498499146,1441
3104.3697092864577,1428
3106.0741407099695,1424
3107.778279578498,1454
3109.482126208622,1458
3111.1856809170004,1426
3112.8889440203716,1447
3114.5919158355528,1441
3116.294596679439,1427
3117.996986869006,1430
3119.6990867213062,1443
3121.4008965534726,1458
3123.102416682717,1453
3124.803647426329,1461
3126.5045891016784,1463
3128.205242026213,1472
3129.90560651746,1508
3131.605682893025,1418
3133.3054714705922,1525
3135.0049725679282,1483
3136.7041865028714,1469
3138.4031135933465,1417
3140.101754157353,1424
3141.800108512971,1486
3143.498176978357,1422
3145.1959598717494,1448
3146.8934575114636,1439
3148.5906702158954,1344
3150.2875983035183,1412
3151.9842420928853,1361
3153.680601902627,1470
3155.376678051456,1415
3157.07247085816,1435
3158.767980641609,1406
3160.463207720748,1414
3162.158152414606,1438
3163.8528150422862,1455
3165.5471959229726,1472
3167.2412953759303,1416
3168.9351137204976,1446
3170.628651276098,1463
3172.3219083622307,1473
3174.014885298474,1455
3175.707582404485,1441
3177.4000000000005,1470
3179.092138404835,1473
3180.7839979388846,1430
3182.47557892212,1409
3184.166881674594,1380
3185.8579065164386,1451
3187.5486537678626,1478
3189.2391237491547,1415
3190.9293167806827,1436
3192.6192331828934,1460
3194.3088732763117,1444
3195.998237381542,1408
3197.687325819268,1415
3199.376138910251,1393
3201.064676975334,1401
3202.7529403354347,1385
3204.4409293115523,1414
3206.1286442247647,1416
3207.816085396229,1380
3209.5032531471825,1438
3211.190147798936,1354
3212.8767696728846,1359
3214.5631190905015,1345
3216.2491963733373,1373
3217.9350018430214,1404
3219.6205358212637,1339
3221.305798629851,1366
3222.990790590651,1363
3224.6755120256103,1397
3226.359963256751,1367
3228.0441446061795,1356
3229.7280563960758,1415
3231.411698948703,1428
3233.0950725863995,1381
3234.778177631587,1344
3236.461014406761,1455
3238.1435832345005,1364
3239.8258844374595,1429
3241.507918338374,1476
3243.1896852600576,1418
3244.8711855254023,1475
3246.552419457381,1443
3248.233387379042,1419
3249.914089613516,1455
3251.59452648401,1429
3253.274698313813,1418
3254.95460542629,1387
3256.6342481448855,1408
3258.313626793125,1402
3259.9927416946084,1396
3261.6715931730196,1368
3263.3501815521176,1398
3265.0285071557437,1379
3266.706570307815,1388
3268.3843713323286,1357
3270.0619105533615,1359
3271.739188295068,1434
3273.4162048816834,1426
3275.0929606375184,1400
3276.769455886966,1371
3278.445690954498,1462
3280.1216661646613,1428
3281.797381842087,1415
3283.4728383114807,1430
3285.1480358976296,1420
3286.8229749253996,1396
3288.4976557197333,1330
3290.172078605655,1409
3291.846243908266,1380
3293.5201519527463,1402
3295.193803064357,1377
3296.8671975684374,1380
3298.5403357904024,1361
3300.21321805575,1377
3301.8858446900567,1423
3303.558216018975,1392
3305.23033236824,1407
3306.9021940636603,1443
3308.57380143113,1383
3310.2451547966184,1450
3311.916254486174,1444
3313.5871008259246,1387
3315.2576941420766,1428
3316.9280347609147,1404
3318.5981230088046,1342
3320.2679592121895,1381
3321.9375436975924,1342
3323.606876791612,1315
3325.27595882093,1342
3326.944790112305,1387
3328.6133709925753,1401
3330.2817017886573,1386
3331.949782827547,1348
3333.617614436319,1372
3335.2851969421245,1383
3336.952530672199,1374
3338.619615953853,1378
3340.286453114475,1414
3341.9530424815357,1422
3343.619384382583,1386
3345.2854791452437,1398
3346.951327097224,1392
3348.6169285663073,1411
3350.2822838803577,1410
3351.947393367319,1394
3353.61225735521,1406
3355.2768761721345,1401
3356.9412501462693,1407
3358.605379605873,1431
3360.2692648792827,1369
3361.9329062949146,1420
3363.596304181263,1360
