CollectionTime,9/25/2024 11:28:47 AM
ExposureUsed,3
CalibratedSpectrum
-962.7078968117929,394
-959.9714848408522,400
-957.2358232597828,416
-954.5009119013725,421
-951.7667505983302,410
-949.0333391832855,431
-946.3006774887896,389
-943.5687653473143,404
-940.837602591253,396
-938.1071890529199,398
-935.3775245645503,381
-932.6486089583007,399
-929.9204420662485,388
-927.1930237203925,429
-924.4663537526524,421
-921.7404319948689,425
-919.0152582788041,421
-916.2908324361409,434
-913.5671542984834,427
-910.8442236973568,416
-908.1220404642074,412
-905.4006044304027,428
-902.679915427231,403
-899.959973285902,410
-897.2407778375464,396
-894.5223289132158,402
-891.8046263438832,397
-889.0876699604426,403
-886.3714595937089,393
-883.6559950744183,380
-880.9412762332282,382
-878.2273029007168,388
-875.5140749073835,396
-872.8015920836489,394
-870.0898542598545,414
-867.3788612662631,396
-864.6686129330585,394
-861.9591090903457,406
-859.2503495681506,392
-856.5423341964203,385
-853.8350628050229,383
-851.1285352237478,404
-848.4227512823054,404
-845.7177108103272,431
-843.0134136373656,392
-840.3098595928943,402
-837.6070485063082,393
-834.9049802069229,415
-832.2036545239757,424
-829.5030712866244,412
-826.8032303239481,412
-824.1041314649472,398
-821.4057745385428,395
-818.7081593735775,395
-816.0112857988148,392
-813.3151536429393,436
-810.6197627345566,428
-807.9251129021936,423
-805.2312039742981,391
-802.5380357792392,395
-799.8456081453069,413
-797.1539209007124,407
-794.462973873588,423
-791.772766891987,420
-789.083299783884,429
-786.3945723771743,404
-783.7065844996748,400
-781.0193359791231,405
-778.3328266431781,431
-775.6470563194197,405
-772.9620248353489,400
-770.2777320183878,393
-767.5941776958798,423
-764.9113616950891,430
-762.2292838432011,395
-759.5479439673222,427
-756.8673418944801,400
-754.1874774516235,416
-751.5083504656222,424
-748.8299607632671,406
-746.15230817127,393
-743.475392516264,409
-740.7992136248035,439
-738.1237713233636,403
-735.4490654383407,400
-732.7750957960521,410
-730.1018622227365,401
-727.4293645445534,426
-724.7576025875837,413
-722.0865761778291,419
-719.4162851412126,436
-716.7467293035781,437
-714.0779084906909,446
-711.409822528237,417
-708.7424712418238,453
-706.0758544569796,428
-703.4099719991541,433
-700.7448236937178,423
-698.0804093659622,417
-695.4167288411002,426
-692.7537819442656,410
-690.0915685005134,424
-687.4300883348199,434
-684.7693412720819,463
-682.1093271371178,424
-679.4500457546669,421
-676.7914969493897,421
-674.1336805458676,414
-671.4765963686034,432
-668.8202442420206,416
-666.1646239904642,428
-663.5097354382001,431
-660.8555784094151,441
-658.2021527282176,437
-655.5494582186366,447
-652.8974947046223,418
-650.2462620100463,440
-647.5957599587009,437
-644.9459883742998,450
-642.2969470804776,434
-639.6486359007902,469
-637.0010546587141,458
-634.3542031776476,455
-631.7080812809096,445
-629.0626887917401,432
-626.4180255333008,453
-623.7740913286734,474
-621.1308860008619,455
-618.4884093727904,463
-615.8466612673046,451
-613.2056415071715,459
-610.5653499150785,455
-607.9257863136347,474
-605.28695052537,469
-602.6488423727357,462
-600.0114616781036,467
-597.3748082637674,481
-594.7388819519412,471
-592.1036825647604,478
-589.4692099242818,486
-586.8354638524829,511
-584.2024441712624,493
-581.5701507024403,510
-578.9385832677575,515
-576.3077416888759,455
-573.6776257873787,489
-571.0482353847704,479
-568.4195703024757,451
-565.7916303618415,477
-563.164415384135,476
-560.5379251905453,467
-557.9121596021815,460
-555.2871184400748,453
-552.6628015251767,480
-550.0392086783606,478
-547.4163397204204,521
-544.794194472071,520
-542.1727727539491,515
-539.5520743866118,506
-536.9320991905377,502
-534.3128469861261,491
-531.6943175936979,537
-529.0765108334947,592
-526.4594265256793,614
-523.8430644903358,715
-521.2274245474689,873
-518.612506517005,1066
-515.9983102187913,1204
-513.3848354725959,1366
-510.77208209810846,1355
-508.16004991493924,1216
-505.5487387426199,1137
-502.9381484006032,942
-500.3282787082628,737
-497.71912948489364,622
-495.1107005497117,575
-492.5029917218539,552
-489.8960028203786,517
-487.28973366426493,527
-484.68418407241325,520
-482.07935386364494,512
-479.47524285670266,520
-476.87185087025,547
-474.2691777228715,604
-471.66722323307334,517
-469.0659872192821,531
-466.4654694998459,543
-463.86566989303384,528
-461.26658821703614,558
-458.66822428996414,537
-456.07057792985,558
-453.4736489546475,565
-450.877437182231,572
-448.28194243039627,561
-445.68716451686,522
-443.09310325926003,547
-440.49975847515555,539
-437.9071299820263,519
-435.31521759727354,561
-432.72402113821954,532
-430.13354042210767,583
-427.5437752661022,576
-424.95472548728867,569
-422.36639090267386,532
-419.7787713291855,566
-417.1918665836721,578
-414.60567648290385,617
-412.0202008435715,593
-409.4354394822874,573
-406.8513922155845,571
-404.26805885991723,586
-401.685439231661,616
-399.103533147112,569
-396.522340422488,577
-393.9418608739278,580
-391.3620943174908,549
-388.7830405691583,553
-386.2046994448317,566
-383.6270707603344,573
-381.05015433141045,566
-378.473949973725,527
-375.8984575028645,511
-373.32367673433623,560
-370.74960748356875,545
-368.1762495659117,502
-365.60360279663576,466
-363.03166699093265,475
-360.4604419639154,470
-357.8899275306178,482
-355.32012350599507,442
-352.7510297049233,442
-350.1826459421999,437
-347.61497203254316,429
-345.04800779059235,415
-342.4817530309082,440
-339.91620756797226,480
-337.35137121618743,457
-334.7872437898774,472
-332.22382510328725,479
-329.66111497058273,485
-327.09911320585127,473
-324.53781962310075,450
-321.9772340362607,418
-319.4173562591816,439
-316.8581861056348,455
-314.2997233893127,474
-311.7419679238294,443
-309.1849195227194,452
-306.62857799943856,452
-304.0729431673641,451
-301.51801483979375,506
-298.963792829947,498
-296.41027695096386,447
-293.85746701590574,478
-291.3053628377552,585
-288.7539642294155,578
-286.2032710037115,511
-283.65328297338897,538
-281.1039999511146,561
-278.5554217494762,692
-276.007548180983,701
-273.4603790580651,630
-270.9139141930734,553
-268.3681533982807,566
-265.8230964858798,552
-263.27874326798565,621
-260.7350935566336,611
-258.1921471637804,618
-255.6499039013039,672
-253.10836358100266,601
-250.56752601459698,564
-248.02739101372765,628
-245.48795838995704,675
-242.94922795476816,667
-240.41119951956557,616
-237.8738728956746,674
-235.33724789434166,699
-232.80132432673452,662
-230.2661020039418,583
-227.73158073697357,696
-225.19776033676033,788
-222.66464061415422,824
-220.1322213799284,709
-217.60050244477725,586
-215.06948361931552,649
-212.53916471408013,728
-210.00954553952818,798
-207.48062590603843,769
-204.9524056239104,639
-202.4248845033651,678
-199.8980623545441,766
-197.37193898751036,793
-194.84651421224817,744
-192.32178783866232,675
-189.79775967657952,681
-187.27442953574644,794
-184.7517972258321,897
-182.2298625564256,818
-179.7086253370378,786
-177.18808537710026,776
-174.66824248596583,983
-172.14909647290835,1064
-169.6306471471229,939
-167.11289431772548,777
-164.59583779375328,753
-162.07947738416453,837
-159.5638128978386,1000
-157.04884414357605,1154
-154.53457093009854,1267
-152.02099306604828,1075
-149.50811035998936,887
-146.99592262040665,805
-144.48442965570587,1039
-141.97363127421409,1232
-139.46352728417958,1438
-136.95411749377126,1376
-134.44540171107985,1126
-131.93737974411636,973
-129.43005140081357,1025
-126.92341648902493,1338
-124.41747481652521,1624
-121.91222619101006,2152
-119.40767042009657,2645
-116.90380731132257,2836
-114.40063667214702,2857
-111.8981583099503,2633
-109.3963720320337,2732
-106.89527764561933,3160
-104.39487495785067,3407
-101.89516377579241,5279
-99.39614390642998,7270
-96.89781515667039,10232
-94.40017733334128,10010
-91.90323024319173,8061
-89.40697369289148,6078
-86.91140748903172,4584
-84.41653143812482,4388
-81.92234534660395,5069
-79.42884902082358,5606
-76.93604226705907,6215
-74.4439248915071,6796
-71.95249670028534,9769
-69.46175749943245,14773
-66.97170709490854,19975
-64.48234529259423,24204
-61.99367189829195,26225
-59.50568671772464,24967
-57.01838955653636,20436
-54.53178022029283,15923
-52.045858514480074,15364
-49.560624244506016,14449
-47.07607721569923,12289
-44.59221723330904,10728
-42.10904410250669,10860
-39.62655762838392,10291
-37.14475761595372,9176
-34.66364387015028,11037
-32.18321619582866,12638
-29.70347439776515,14443
-27.224418280657005,17916
-24.74604764912317,23001
-22.26836230770266,39679
-19.7913620608565,65040
-17.315046712966478,65040
-14.83941606833514,65040
-12.36446993118659,65040
-9.89020810566592,65040
-7.416630395839093,65040
-4.94373660569363,65040
-2.471526539137585,65040
-6.821210263296962E-13,65040
2.47084320796705,65040
4.941003281093458,65040
7.410480415786196,65040
9.879274808531363,65040
12.347386655893956,65040
14.814816154518212,65040
17.28156350112681,65040
19.74762889252179,65040
22.21301252558385,21547
24.67771459727237,4372
27.141735304626195,3012
29.605074844762612,2699
32.06773341487792,2731
34.52971121224755,2481
36.99100843422559,2363
39.45162527824516,3444
41.91156194181792,3729
44.370818622535126,2838
46.82939551806646,2504
49.287292826160524,2755
51.74451074464503,2570
54.201049471426245,2668
56.65690920448981,1948
59.112090141899785,1734
61.56659248179983,2411
64.02041642241159,1853
66.4735621620365,1608
68.92602989905402,1561
71.37781983192338,1693
73.82893215918205,1419
76.27936707944684,1496
78.72912479141326,1604
81.17820549385567,1371
83.62660938562783,1368
86.07433666566146,1418
88.5213875329681,1863
90.96776218663751,1471
93.41346082583925,1176
95.85848364982041,1203
98.30283085790859,1209
100.7465026495089,1549
103.18949922410604,1421
105.63182078126385,1613
108.07346752062438,1304
110.51443964190923,976
112.95473734491827,927
115.39436082953114,780
117.83331029570547,972
120.27158594347827,1125
122.7091879729652,1002
125.1461165843615,1006
127.58237197794062,904
130.01795435405518,1106
132.4528639131364,957
134.88710085569494,1029
137.32066538231982,1312
139.75355769367923,1119
142.1857779905207,872
144.61732647366978,894
147.04820334403132,1035
149.47840880258934,970
151.90794305040674,936
154.33680628862487,914
156.76499871846443,913
159.19252054122433,922
161.61937195828352,1038
164.04555317109896,987
166.47106438120693,1095
168.89590579022217,1256
171.320077599839,1307
173.7435800118302,1316
176.16641322804742,1336
178.58857745042144,1353
181.01007288096173,1375
183.43089972175687,1442
185.85105817497413,1386
188.27054844285988,1320
190.6893707277394,1417
193.10752523201643,1413
195.5250121581745,1383
197.9418317087751,1374
200.3579840864594,1309
202.7734694939469,1375
205.18828813403627,1370
207.6024402096051,1309
210.01592592360964,1347
212.42874547908548,1468
214.84089907914665,1413
217.2523869269868,1426
219.66320922587727,1393
222.0733661791695,1433
224.48285799029293,1412
226.8916848627572,1405
229.29984700014882,1493
231.7073446061355,1428
234.11417788446204,1431
236.520347038953,1395
238.92585227351185,1379
241.33069379212054,1371
243.73487179884035,1376
246.1383864978112,1348
248.541238093252,1345
250.9434267894609,1337
253.34495279081432,1353
255.74581630176783,1341
258.1460175268563,1322
260.54555667069314,1310
262.9444339379703,1305
265.3426495334594,1340
267.7402036620107,1420
270.1370965285529,1391
272.53332833809407,1410
274.9288992957214,1383
277.32380960660055,1335
279.718059475976,1272
282.1116491091717,1313
284.5045787115897,1400
286.89684848871195,1382
289.2884586460981,1320
291.67940938938807,1314
294.0697009242996,1353
296.4593334566299,1340
298.84830719225477,1462
301.23662233712923,1417
303.6242790972866,1401
306.01127767884,1358
308.39761828798066,1308
310.78330113097934,1298
313.16832641418534,1245
315.5526943440269,1253
317.9364051270112,1296
320.3194589697242,1251
322.70185607883093,1236
325.0835966610754,1227
327.4646809232805,1265
329.8451090723478,1209
332.2248813152577,1223
334.6039978590701,1292
336.9824589109231,1217
339.36026467803447,1142
341.7374153677,1191
344.113911187295,1185
346.48975234427337,1140
348.8649390461686,1188
351.2394715005918,1226
353.61334991523415,1156
355.9865744978655,1146
358.35914545633375,1131
360.73106299856715,1143
363.10232733257146,1167
365.47293866643247,1189
367.84289720831396,1124
370.2122031664593,1101
372.5808567491905,1138
374.9488581649083,1079
377.31620762209275,1160
379.6829053293021,1069
382.0489514951745,1130
384.4143463284262,1155
386.7790900378528,1091
389.14318283232853,1042
391.50662492080653,1079
393.86941651231916,1128
396.23155781597745,1111
398.5930490409713,1132
400.9538903965696,1079
403.3140820921202,1075
405.6736243370498,1132
408.03251734086336,1089
410.3907613131465,1127
412.74835646356166,1102
415.10530300185144,1079
417.4616011378372,1086
419.81725108141893,1092
422.1722530425758,1066
424.5266072313656,1084
426.880313857925,1091
429.2333731324701,1055
431.58578526529516,1034
433.9375504667738,1044
436.2886689473588,1012
438.63914091758113,1076
440.9889665880513,1015
443.33814616945835,1065
445.68667987257015,1021
448.03456790823395,1059
450.3818104873759,1053
452.72840782100013,1052
455.07436012019105,1023
457.41966759611057,1001
459.7643304600007,1027
462.10834892318155,990
464.4517231970525,997
466.79445349309174,1018
469.1365400228566,981
471.4779829979826,1000
473.81878263018564,1043
476.15893913125876,1022
478.4984527130747,1057
480.8373235875855,1034
483.17555196682144,1069
485.5131380628919,1088
487.8500820879857,1086
490.1863842543697,1119
492.52204477439034,1116
494.8570638604725,1147
497.1914417251204,1183
499.52517858091653,1236
501.85827464052306,1353
504.19073011668036,1567
506.5225452222086,1921
508.85372017000566,2683
511.18425517304956,3433
513.514150444396,4074
515.8434061971808,4759
518.1720226446176,5096
520.4999999999999,4976
522.8273384766991,4399
525.1540382881666,3538
527.480099647932,2819
529.8055227696037,2182
532.1303078668694,1671
534.454455153496,1411
536.777964843328,1257
539.1008371502907,1250
541.4230722883866,1139
543.744670471698,1148
546.0656319143858,1135
548.3859568306899,1094
550.7056454349294,1101
553.0246979415016,1112
555.3431145648834,1117
557.6608955196306,1065
559.978041020377,1031
562.2945512818363,1085
564.6104265188006,1089
566.9256669461412,1060
569.2402727788082,1018
571.5542442318302,1047
573.8675815203156,1064
576.1802848594508,1059
578.4923544645015,1088
580.8037905508126,1071
583.114593333807,1042
585.4247630289875,1104
587.7342998519354,1056
590.0432040183106,1053
592.3514757438526,1051
594.6591152443794,1071
596.9661227357875,1079
599.2724984340531,1059
601.578242555231,1037
603.8833553154542,1041
606.1878369309362,1057
608.4916876179676,1012
610.7949075929192,996
613.0974970722403,1052
615.3994562724587,1046
617.7007854101818,1052
620.0014847020951,1038
622.3015543649641,1028
624.6009946156324,1087
626.8998056710224,1041
629.1979877481361,1042
631.4955410640538,1003
633.7924658359349,1015
636.0887622810175,1043
638.3844306166192,1038
640.6794710601358,1059
642.9738838290426,1007
645.2676691408932,1031
647.5608272133207,1088
649.853358264037,1036
652.1452625108324,1057
654.4365401715764,1061
656.7271914642178,1048
659.0172166067838,1094
661.3066158173809,1137
663.5953893141935,1086
665.8835373154867,1056
668.1710600396028,1058
670.4579577049639,1123
672.7442305300709,1098
675.0298787335033,1080
677.3149025339197,1058
679.599302150058,1103
681.8830778007342,1092
684.1662297048437,1047
686.4487580813608,1101
688.7306631493387,1060
691.0119451279091,1052
693.2926042362834,1084
695.5726406937516,1058
697.8520547196814,1099
700.1308465335215,1095
702.4090163547982,1057
704.6865644031171,1080
706.9634908981619,1052
709.2397960596965,1032
711.5154801075631,1064
713.7905432616823,1042
716.0649857420548,1048
718.3388077687592,1101
720.612009561953,1096
722.8845913418733,1086
725.1565533288352,1080
727.427895743234,1088
729.6986188055427,1026
731.9687227363137,1063
734.238207756178,1092
736.5070740858458,1099
738.7753219461066,1041
741.0429515578281,1046
743.3099631419569,1113
745.5763569195191,1137
747.8421331116193,1140
750.1072919394409,1120
752.3718336242467,1068
754.6357583873777,1017
756.8990664502545,1025
759.1617580343765,1033
761.423833361321,1084
763.6852926527457,1097
765.9461361303862,1102
768.206364016058,1076
770.4659765316536,1084
772.7249738991469,1057
774.9833563405886,1083
777.2411240781092,1059
779.4982773339183,1054
781.7548163303044,1102
784.010741289634,1146
786.2660524343538,1089
788.5207499869881,1088
790.7748341701416,1149
793.0283052064964,1120
795.2811633188143,1145
797.5334087299362,1092
799.7850416627813,1116
802.0360623403484,1104
804.2864709857143,1134
806.5362678220353,1129
808.7854530725468,1115
811.0340269605625,1055
813.2819897094754,1157
815.5293415427581,1144
817.77608268396,1114
820.0222133567116,1063
822.2677337847211,1084
824.5126441917765,1127
826.7569448017433,1156
829.0006358385675,1140
831.2437175262731,1125
833.4861900889629,1123
835.7280537508192,1085
837.9693087361026,1098
840.2099552691533,1093
842.4499935743896,1131
844.689423876309,1090
846.9282463994886,1074
849.1664613685833,1106
851.4040690083276,1069
853.6410695435349,1051
855.877463199097,1096
858.1132501999847,1093
860.3484307712487,1069
862.5830051380175,1140
864.8169735254988,1093
867.0503361589791,1125
869.2830932638243,1124
871.5152450654786,1090
873.7467917894654,1140
875.9777336613873,1053
878.2080709069252,1086
880.4378037518389,1090
882.666932421968,1068
884.8954571432301,1136
887.1233781416219,1066
889.3506956432192,1124
891.5774098741766,1127
893.803521060728,1088
896.0290294291852,1117
898.2539352059397,1081
900.4782386174619,1058
902.7019398903011,1093
904.925039251085,1098
907.147536926521,1092
909.3694331433943,1029
911.59072812857,1095
913.8114221089921,1087
916.0315153116827,1097
918.2510079637437,1086
920.4699002923547,1124
922.6881925247761,1082
924.905884888345,1111
927.1229776104793,1160
929.3394709186747,1189
931.555365040506,1155
933.7706602036275,1156
935.9853566357709,1147
938.1994545647489,1208
940.4129542184515,1228
942.6258558248488,1178
944.8381596119883,1142
947.0498658079974,1239
949.2609746410825,1216
951.4714863395287,1184
953.6814011316998,1181
955.8907192460387,1193
958.0994409110671,1164
960.3075663553858,1153
962.5150958076741,1193
964.7220294966913,1171
966.928367651274,1250
969.1341105003388,1182
971.3392582728806,1147
973.5438111979742,1211
975.747769504772,1128
977.9511334225061,1175
980.153903180487,1129
982.3560790081052,1128
984.5576611348289,1068
986.7586497902058,1068
988.9590452038618,1078
991.158847605503,1077
993.3580572249133,1082
995.5566742919558,1043
997.7546990365728,1024
999.952131688785,1025
1002.1489724786926,956
1004.3452216364743,944
1006.5408793923874,984
1008.7359459767691,1000
1010.9304216200343,988
1013.1243065526781,922
1015.3176010052733,970
1017.510305208472,931
1019.7024193930064,907
1021.8939437896848,953
1024.0848786293977,906
1026.2752241431122,940
1028.4649805618747,936
1030.6541481168115,904
1032.842727039127,935
1035.0307175601051,927
1037.2181199111074,890
1039.4049343235752,897
1041.591161029029,897
1043.7768002590683,844
1045.9618522453698,841
1048.1463172196918,885
1050.3301954138697,897
1052.513487059818,880
1054.69619238953,865
1056.8783116350783,885
1059.0598450286152,888
1061.2407928023704,881
1063.4211551886528,911
1065.6009324198508,931
1067.780124728432,889
1069.9587323469414,835
1072.1367555080046,903
1074.314194444325,871
1076.4910493886855,879
1078.667320573947,870
1080.843008233051,866
1083.0181125990161,859
1085.1926339049414,843
1087.3665723840027,869
1089.5399282694575,827
1091.7127017946405,881
1093.8848931929647,906
1096.0565026979243,867
1098.2275305430899,860
1100.3979769621128,849
1102.567842188722,861
1104.737126456726,826
1106.9058300000124,869
1109.0739530525475,834
1111.2414958483764,874
1113.4084586216231,830
1115.5748416064907,847
1117.7406450372605,823
1119.9058691482942,846
1122.0705141740304,827
1124.2345803489884,828
1126.3980679077658,868
1128.5609770850388,851
1130.7233081155623,887
1132.8850612341707,833
1135.0462366757774,841
1137.2068346753745,841
1139.3668554680326,873
1141.526299288901,846
1143.68516637321,873
1145.8434569562655,836
1148.001171273455,835
1150.158309560244,801
1152.3148720521767,835
1154.470858984876,803
1156.626270594044,843
1158.7811071154629,851
1160.9353687849912,863
1163.089055838569,863
1165.242168512213,829
1167.3947070420209,876
1169.5466716641677,799
1171.6980626149075,833
1173.8488801305748,822
1175.9991244475814,819
1178.1487958024186,830
1180.2978944316555,841
1182.4464205719428,826
1184.5943744600072,809
1186.7417563326567,855
1188.8885664267755,841
1191.0348049793297,813
1193.1804722273619,853
1195.325568407995,857
1197.4700937584303,876
1199.614048515948,838
1201.7574329179074,824
1203.900247201746,860
1206.042491604982,825
1208.1841663652099,845
1210.3252717201053,848
1212.465807907422,828
1214.6057751649923,834
1216.7451737307279,844
1218.8840038426192,777
1221.0222657387353,843
1223.1599596572241,901
1225.2970858363137,859
1227.4336445143094,846
1229.5696359295966,869
1231.705060320639,845
1233.8399179259786,863
1235.9742089842384,852
1238.107933734118,887
1240.2410924143974,883
1242.373685263935,836
1244.5057125216676,860
1246.6371744266116,863
1248.7680712178621,837
1250.898403134593,852
1253.028170416058,849
1255.1573733015875,865
1257.2860120305932,872
1259.4140868425648,864
1261.54159797707,900
1263.6685456737569,818
1265.7949301723515,852
1267.9207517126597,875
1270.046010534565,881
1272.1707068780306,876
1274.2948409830983,882
1276.4184130898889,836
1278.541423438603,886
1280.6638722695184,862
1282.785759822993,838
1284.9070863394636,863
1287.0278520594447,865
1289.1480572235314,920
1291.2677020723963,893
1293.3867868467923,872
1295.5053117875495,882
1297.623277135579,910
1299.740683131868,871
1301.8575300174857,919
1303.973818033578,870
1306.0895474213703,894
1308.2047184221678,910
1310.3193312773528,879
1312.4333862283888,912
1314.5468835168163,903
1316.659823384255,904
1318.7722060724045,906
1320.8840318230418,906
1322.9953008780249,939
1325.1060134792888,938
1327.2161698688478,885
1329.3257702887959,968
1331.4348149813054,918
1333.5433041886276,933
1335.6512381530933,920
1337.7586171171101,875
1339.8654413231675,909
1341.9717110138317,919
1344.0774264317488,883
1346.1825878196432,910
1348.2871954203192,875
1350.3912494766587,899
1352.4947502316231,958
1354.5976979282532,921
1356.7000928096686,880
1358.8019351190665,877
1360.9032250997243,886
1363.0039629949988,891
1365.1041490483235,862
1367.2037835032133,894
1369.3028666032606,969
1371.401398592137,906
1373.4993797135926,908
1375.5968102114575,887
1377.6936903296396,871
1379.7900203121262,926
1381.8858004029835,943
1383.9810308463561,913
1386.075711886469,946
1388.1698437676241,890
1390.2634267342032,925
1392.356461030667,920
1394.4489469015557,884
1396.5408845914872,945
1398.6322743451592,919
1400.7231164073469,911
1402.813411022907,887
1404.903158436773,920
1406.9923588939578,927
1409.0810126395531,910
1411.1691199187303,942
1413.2566809767386,910
1415.343696058907,916
1417.4301654106425,980
1419.5160892774315,955
1421.6014679048399,970
1423.6863015385125,952
1425.7705904241707,910
1427.8543348076178,914
1429.9375349347342,941
1432.0201910514802,899
1434.102303403894,924
1436.1838722380944,936
1438.2648978002767,904
1440.3453803367174,892
1442.4253200937692,948
1444.5047173178677,946
1446.5835722555234,895
1448.6618851533285,893
1450.739656257952,932
1452.8168858161434,944
1454.8935740747306,852
1456.96972128062,930
1459.045327680797,948
1461.120393522327,940
1463.1949190523528,935
1465.2689045180973,939
1467.3423501668608,915
1469.415256246024,957
1471.4876230030463,947
1473.559450685465,913
1475.6307395408976,935
1477.7014898170391,934
1479.771701761665,969
1481.8413756226287,966
1483.9105116478618,928
1485.9791100853772,980
1488.0471711832643,970
1490.1146951896926,937
1492.1816823529098,959
1494.2481329212433,1029
1496.3140471430984,961
1498.3794252669609,996
1500.4442675413939,990
1502.5085742150404,977
1504.572345536622,1032
1506.6355817549388,1029
1508.6982831188702,969
1510.7604498773744,943
1512.8220822794883,1053
1514.8831805743293,1024
1516.9437450110909,1032
1519.003775839048,1036
1521.0632733075522,1019
1523.1222376660367,1027
1525.1806691640113,1038
1527.2385680510652,1020
1529.2959345768668,1077
1531.3527689911643,1030
1533.4090715437833,987
1535.4648424846291,1029
1537.5200820636855,1035
1539.5747905310159,1014
1541.6289681367616,1072
1543.6826151311434,1032
1545.7357317644614,1034
1547.7883182870937,1016
1549.8403749494987,1026
1551.8919020022113,1064
1553.9428996958477,1044
1555.9933682811015,1053
1558.0433080087469,1065
1560.0927191296346,1020
1562.1416018946961,1051
1564.1899565549415,1079
1566.2377833614592,1071
1568.2850825654164,1081
1570.3318544180606,1097
1572.3780991707158,1152
1574.423817074788,1147
1576.4690083817595,1221
1578.5136733431923,1197
1580.5578122107272,1265
1582.601425236085,1278
1584.6445126710646,1332
1586.6870747675434,1309
1588.7291117774776,1349
1590.7706239529034,1341
1592.8116115459347,1233
1594.8520748087658,1234
1596.8920139936686,1175
1598.9314293529933,1118
1600.9703211391711,1077
1603.008689604711,1095
1605.0465350022005,1075
1607.0838575843068,1023
1609.1206576037753,962
1611.1569353134305,960
1613.1926909661765,995
1615.2279248149953,1000
1617.2626371129481,956
1619.2968281131757,921
1621.3304980688963,944
1623.3636472334088,961
1625.39627586009,908
1627.428384202396,931
1629.459972513861,925
1631.4910410480993,960
1633.5215900588028,871
1635.551619799744,895
1637.5811305247717,897
1639.6101224878166,910
1641.6385959428862,902
1643.6665511440683,923
1645.693988345528,880
1647.7209078015112,878
1649.7473097663405,892
1651.7731944944203,895
1653.7985622402307,853
1655.823413258333,888
1657.847747803366,889
1659.8715661300494,904
1661.8948684931793,874
1663.9176551476316,913
1665.9399263483624,870
1667.9616823504057,859
1669.982923408873,874
1672.0036497789574,883
1674.0238617159293,885
1676.043559475138,889
1678.0627433120121,922
1680.081413482059,869
1682.0995702408654,842
1684.117213844096,874
1686.134344547495,850
1688.1509626068864,839
1690.1670682781705,849
1692.182661817329,897
1694.1977434804217,888
1696.2123135235875,857
1698.226372203043,877
1700.2399197750851,889
1702.2529564960905,875
1704.2654826225112,869
1706.277498410882,874
1708.2890041178139,858
1710.2999999999988,847
1712.3104863142066,845
1714.3204633172854,851
1716.329931266163,911
1718.3388904178469,873
1720.3473410294214,910
1722.3552833580516,907
1724.3627176609807,897
1726.3696441955308,890
1728.3760632191033,881
1730.3819749891782,909
1732.3873797633146,857
1734.3922777991502,864
1736.3966693544012,843
1738.4005546868639,884
1740.4039340544127,885
1742.406807715001,874
1744.4091759266616,876
1746.4110389475054,838
1748.4123970357223,891
1750.413250449582,877
1752.4135994474318,871
1754.4134442876993,890
1756.4127852288902,879
1758.4116225295893,847
1760.4099564484595,861
1762.407787244244,873
1764.405115175764,851
1766.4019405019203,884
1768.3982634816916,883
1770.3940843741357,883
1772.3894034383907,844
1774.3842209336717,892
1776.378537119274,856
1778.372352254571,875
1780.3656665990156,848
1782.3584804121397,901
1784.3507939535534,873
1786.3426074829463,840
1788.3339212600863,873
1790.3247355448211,852
1792.3150505970766,865
1794.3048666768573,882
1796.2941840442477,868
1798.2830029594106,848
1800.2713236825884,857
1802.2591464741004,830
1804.2464715943465,828
1806.2332993038058,820
1808.2196298630352,863
1810.2054635326708,838
1812.190800573428,826
1814.175641246101,893
1816.1599858115628,846
1818.1438345307652,849
1820.127187664738,853
1822.1100454745924,863
1824.092408221516,870
1826.0742761667766,902
1828.055649571721,881
1830.0365286977735,859
1832.0169138064398,880
1833.9968051593014,870
1835.9762030180214,889
1837.9551076443408,841
1839.9335193000788,870
1841.9114382471344,875
1843.888864747485,836
1845.8657990631878,850
1847.842241456378,882
1849.8181921892697,815
1851.7936515241558,827
1853.7686197234098,881
1855.7430970494815,823
1857.7170837649014,852
1859.6905801322787,843
1861.6635864143004,878
1863.6361028737338,853
1865.608129773424,828
1867.5796673762961,896
1869.5507159453537,859
1871.521275743678,832
1873.4913470344313,862
1875.4609300808534,858
1877.4300251462632,850
1879.3986324940588,840
1881.366752387717,876
1883.3343850907936,827
1885.3015308669228,887
1887.268189979819,872
1889.2343626932739,885
1891.2000492711595,898
1893.1652499774254,878
1895.1299650761011,838
1897.0941948312952,858
1899.0579395071945,868
1901.0211993680641,900
1902.98397467825,879
1904.9462657021745,876
1906.9080727043415,877
1908.869395949332,883
1910.8302357018065,816
1912.790592226504,887
1914.7504657882428,890
1916.7098566519212,880
1918.6687650825133,845
1920.6271913450764,856
1922.5851357047422,858
1924.5425984267245,872
1926.499579776314,859
1928.4560800188833,919
1930.4120994198802,918
1932.367638244833,879
1934.32269675935,873
1936.2772752291175,888
1938.231373919899,923
1940.1849930975404,864
1942.1381330279637,835
1944.0907939771696,883
1946.0429762112412,846
1947.9946799963363,860
1949.9459055986945,844
1951.896653284633,865
1953.8469233205478,844
1955.7967159729142,882
1957.7460315082863,879
1959.6948701932974,844
1961.6432322946594,838
1963.5911180791632,865
1965.5385278136787,864
1967.4854617651545,858
1969.4319202006182,852
1971.377903387176,825
1973.3234115920136,859
1975.268445082395,857
1977.2130041256642,838
1979.1570889892423,837
1981.1006999406304,839
1983.04383724741,853
1984.986501177238,838
1986.928691997853,865
1988.8704099770712,864
1990.811655382789,847
1992.7524284829801,851
1994.692729545698,883
1996.6325588390755,881
1998.5719166313224,881
2000.5108031907307,865
2002.4492187856677,850
2004.387163684583,884
2006.3246381560011,841
2008.2616424685298,871
2010.1981768908527,807
2012.1342416917332,808
2014.069837140014,867
2016.0049635046162,877
2017.9396210545406,881
2019.8738100588666,856
2021.8075307867502,840
2023.740783507431,848
2025.6735684902228,877
2027.6058860045214,839
2029.5377363198004,849
2031.4691197056118,833
2033.4000364315875,841
2035.3304867674374,866
2037.260470982952,837
2039.189989347998,861
2041.1190421325232,859
2043.047629606554,848
2044.9757520401945,828
2046.9034097036288,805
2048.8306028671195,843
2050.7573318010086,873
2052.683596775716,869
2054.609398061742,878
2056.5347359296647,841
2058.4596106501403,870
2060.384022493906,823
2062.3079717317764,841
2064.231458634646,887
2066.1544834734873,854
2068.077046519352,853
2069.99914804337,850
2071.9207883167524,856
2073.8419676107865,860
2075.7626861968406,831
2077.6829443463607,850
2079.6027423308715,858
2081.522080421977,846
2083.440958891362,829
2085.359378010786,878
2087.2773380520907,849
2089.194839287196,791
2091.111881988101,845
2093.0284664268825,877
2094.9445928756973,862
2096.86026160678,857
2098.775472892446,849
2100.690227005088,837
2102.604524217178,870
2104.5183648012676,860
2106.431749029985,850
2108.34467717604,856
2110.2571495122206,859
2112.169166311393,877
2114.080727846503,850
2115.9918343905747,867
2117.902486216711,867
2119.8126835980956,850
2121.722426807987,853
2123.6317161197285,864
2125.5405518067364,847
2127.448934142509,837
2129.356863400624,849
2131.264339854737,864
2133.1713637785815,880
2135.077935445972,888
2136.9840551308002,876
2138.889723107037,889
2140.7949396487334,868
2142.699705030018,839
2144.6040195250994,844
2146.507883408264,857
2148.4112969538774,817
2150.3142604363848,870
2152.2167741303097,858
2154.1188383102535,862
2156.0204532508997,861
2157.9216192270064,857
2159.822336513414,859
2161.7226053850413,868
2163.622426116884,856
2165.5217989840185,858
2167.4207242616,854
2169.319202224862,882
2171.2172331491165,861
2173.1148173097563,909
2175.0119549822507,871
2176.90864644215,875
2178.8048919650823,882
2180.7006918267534,884
2182.596046302952,859
2184.4909556695407,866
2186.3854202024645,890
2188.279440177746,875
2190.173015871487,884
2192.066147559868,879
2193.958835519149,860
2195.851080025667,872
2197.7428813558417,835
2199.6342397861667,889
2201.5251555932186,892
2203.415629053651,849
2205.3056604441986,843
2207.19525004167,854
2209.084398122958,898
2210.9731049650327,899
2212.861370844941,892
2214.749196039812,870
2216.636580826851,869
2218.523525483344,915
2220.410030286655,874
2222.296095514226,920
2224.1817214435805,935
2226.066908352319,866
2227.951656518121,865
2229.835966218746,897
2231.71983773203,891
2233.6032713358913,876
2235.486267308324,864
2237.3688259274036,865
2239.2509474712824,846
2241.132632218193,853
2243.013880446447,843
2244.8946924344323,853
2246.7750684606203,868
2248.6550088035574,870
2250.534513741871,896
2252.413583554265,823
2254.292218519526,887
2256.170418916517,881
2258.0481850241786,866
2259.925517121534,863
2261.8024154876825,829
2263.678880401803,904
2265.5549121431536,872
2267.430510991071,887
2269.305677224971,891
2271.180411124348,909
2273.0547129687766,868
2274.9285830379076,881
2276.8020216114737,869
2278.6750289692845,895
2280.5476053912294,839
2282.4197511572766,885
2284.2914665474727,872
2286.162751841943,891
2288.0336073208937,909
2289.904033264608,865
2291.774029953448,941
2293.6435976678554,864
2295.5127366883517,894
2297.381447295534,872
2299.2497297700825,870
2301.1175843927526,817
2302.9850114443825,819
2304.852011205885,804
2306.7185839582553,832
2308.5847299825664,785
2310.4504495599676,788
2312.3157429716925,798
2314.1806104990483,798
2316.0450524234247,739
2317.9090690262888,775
2319.772660589186,751
2321.635827393742,786
2323.498569721661,802
2325.3608878547248,775
2327.2227820747967,772
2329.0842526638157,781
2330.945299903803,751
2332.805924076857,767
2334.6661254651535,800
2336.525904350951,768
2338.3852610165827,804
2340.244195744464,749
2342.102708817088,808
2343.9608005170253,807
2345.8184711269287,785
2347.675720929526,785
2349.532550207628,798
2351.38895924412,805
2353.24494832197,759
2355.100517724223,762
2356.955667734004,793
2358.810398634514,775
2360.664710709037,749
2362.5186042409337,822
2364.3720795136437,767
2366.225136810686,792
2368.0777764156583,816
2369.929998612237,795
2371.7818036841777,762
2373.633191915315,783
2375.484163589562,807
2377.3347189909114,778
2379.184858403434,779
2381.03458211128,792
2382.8838903986775,810
2384.732783549936,765
2386.5812618494406,811
2388.4293255816588,801
2390.2769750311327,786
2392.1242104824883,800
2393.971032220427,820
2395.8174405297295,787
2397.6634356952563,788
2399.509018001947,799
2401.3541877348193,804
2403.1989451789705,784
2405.043290619576,824
2406.8872243418905,797
2408.730746631247,812
2410.5738577730594,817
2412.4165580528183,800
2414.258847756095,817
2416.100727168537,821
2417.9421965758734,826
2419.783256263912,776
2421.623906518538,788
2423.4641476257157,780
2425.303979871491,805
2427.143403541984,805
2428.9824189233977,826
2430.821026302012,772
2432.6592259641866,779
2434.497018196361,750
2436.33440328505,767
2438.171381516851,798
2440.00795317844,830
2441.844118556569,827
2443.6798779380724,812
2445.5152316098606,794
2447.3501798589255,805
2449.1847229723357,796
2451.0188612372403,791
2452.8525949408663,841
2454.6859243705203,792
2456.518849813587,787
2458.3513715575314,792
2460.183489889895,812
2462.015205098301,765
2463.8465174704493,769
2465.67742729412,810
2467.5079348571717,806
2469.338040447542,806
2471.1677443532476,820
2472.9970468623833,772
2474.825948263123,771
2476.6544488437207,755
2478.482548892508,788
2480.310248697896,778
2482.137548548374,769
2483.9644487325118,787
2485.790949538956,767
2487.617051256433,827
2489.44275417375,781
2491.26805857979,791
2493.0929647635157,845
2494.917473013971,783
2496.741583620276,836
2498.5652968716304,835
2500.3886130573137,787
2502.2115324666834,833
2504.0340553891765,812
2505.856182114308,784
2507.6779129316733,836
2509.499248130945,821
2511.3201880018764,829
2513.140732834298,786
2514.9608829181198,777
2516.780638543331,793
2518.6,806
2520.418967578273,783
2522.237541568376,783
2524.0557222606144,783
2525.8735099453706,770
2527.6909049131086,775
2529.507907454368,775
2531.32451785977,793
2533.140736420014,802
2534.9565634258774,765
2536.771999168218,776
2538.5870439379714,822
2540.4016980261526,796
2542.2159617238544,821
2544.02983532225,805
2545.8433191125914,820
2547.656413386209,825
2549.4691184345115,854
2551.2814345489874,814
2553.093362021204,841
2554.904901142808,834
2556.716052205523,824
2558.526815501153,827
2560.3371913215824,797
2562.147179958771,816
2563.956781704761,806
2565.7659968516705,840
2567.5748256916986,861
2569.3832685171224,851
2571.1913256202984,821
2572.9989972936614,877
2574.806283829725,800
2576.613185521084,820
2578.4197026604074,853
2580.2258355404483,849
2582.031584454035,857
2583.836949694077,867
2585.6419315535613,850
2587.4465303255533,847
2589.2507463032002,899
2591.0545797797245,913
2592.8580310484303,890
2594.6611004026995,892
2596.463788135992,905
2598.266094541849,917
2600.0680199138874,917
2601.869564545807,898
2603.670728731383,890
2605.4715127644704,919
2607.2719169390048,899
2609.071941548998,917
2610.8715868885433,902
2612.670853251811,890
2614.469740933052,917
2616.268250226594,920
2618.0663814268455,889
2619.864134828292,911
2621.6615107255006,883
2623.458509413115,905
2625.2551311858597,918
2627.0513763385347,891
2628.8472451660223,918
2630.6427379632833,868
2632.4378550253564,861
2634.232596647359,830
2636.026963124488,858
2637.8209547520187,842
2639.6145718253065,842
2641.407814639785,879
2643.200683490966,844
2644.9931786744414,855
2646.7853004858807,867
2648.577049221034,853
2650.3684251757277,891
2652.1594286458712,810
2653.9500599274484,863
2655.740319316525,870
2657.5302071092437,852
2659.3197236018286,837
2661.10886909058,855
2662.8976438718782,836
2664.686048242183,826
2666.4740824980327,811
2668.2617469360443,829
2670.0490418529134,848
2671.8359675454153,836
2673.622524310403,814
2675.408712444811,798
2677.1945322456495,808
2678.979984010009,814
2680.76506803506,843
2682.5497846180497,772
2684.334134056306,781
2686.1181166472343,823
2687.9017326883213,815
2689.6849824771293,802
2691.4678663113013,794
2693.2503844885596,838
2695.032537306705,775
2696.8143250636167,830
2698.5957480572542,847
2700.3768065856534,778
2702.1575009469316,789
2703.937831439283,800
2705.717798360982,817
2707.4974020103837,785
2709.276642685917,795
2711.055520686095,781
2712.834036309506,820
2714.612189854819,798
2716.389981620782,815
2718.1674119062204,758
2719.944481010041,786
2721.721189231226,796
2723.4975368688415,798
2725.273524222027,776
2727.0491515900053,795
2728.824419272075,808
2730.5993275676146,789
2732.3738767760838,799
2734.148067197016,790
2735.921899130031,806
2737.6953728748194,817
2739.468488731156,747
2741.2412469988926,813
2743.0136479779617,787
2744.785691968372,792
2746.5573792702116,780
2748.3287101836504,796
2750.099685008934,814
2751.870304046388,788
2753.640567596418,804
2755.4104759595057,821
2757.1800294362156,760
2758.949228327187,789
2760.7180729331412,756
2762.486563554877,807
2764.254700493272,785
2766.022484049284,790
2767.789914523947,765
2769.5569922183786,785
2771.3237174337705,782
2773.090090471394,803
2774.8561116326036,738
2776.6217812188274,830
2778.3870995315756,780
2780.1520668724356,776
2781.9166835430747,782
2783.6809498452394,762
2785.444866080754,804
2787.2084325515225,797
2788.971649559527,771
2790.73451740683,782
2792.4970363955713,820
2794.2592068279705,772
2796.0210290063264,781
2797.7825032330147,834
2799.543629810493,797
2801.304409041296,777
2803.0648412280366,775
2804.8249266734088,764
2806.5846656801846,784
2808.344058551212,790
2810.1031055894246,774
2811.8618070978273,834
2813.6201633795085,800
2815.378174737636,802
2817.1358414754536,798
2818.893163896285,798
2820.6501423035334,783
2822.4067770006814,792
2824.1630682912883,783
2825.9190164789957,758
2827.6746218675207,773
2829.429884760661,778
2831.184805462294,802
2832.9393842763743,783
2834.693621506936,801
2836.4475174580916,794
2838.201072434034,776
2839.954286739034,820
2841.707160677441,765
2843.459694553685,788
2845.2118886722724,803
2846.96374333779,818
2848.7152588549034,770
2850.4664355283567,777
2852.217273662973,792
2853.9677735636546,799
2855.7179355353833,808
2857.4677598832186,801
2859.217246912299,750
2860.9663969278427,814
2862.715210235146,805
2864.4636871395846,790
2866.211827946614,780
2867.9596329617652,801
2869.7071024906536,764
2871.4542368389684,756
2873.20103631248,770
2874.947501217038,810
2876.6936318585695,766
2878.4394285430812,837
2880.1848915766604,813
2881.9300212654707,755
2883.6748179157553,794
2885.4192818338374,781
2887.1634133261173,818
2888.907212699077,792
2890.6506802592744,790
2892.393816313348,785
2894.1366211680142,783
2895.8790951300693,794
2897.621238506388,808
2899.363051603925,785
2901.1045347297118,801
2902.8456881908596,795
2904.58651229456,808
2906.327007348081,801
2908.067173658772,821
2909.8070115340597,783
2911.5465212814497,808
2913.285703208527,781
2915.0245576229563,766
2916.7630848324807,776
2918.5012851449196,793
2920.2391588681758,776
2921.976706310227,847
2923.7139277791334,804
2925.4508235830313,790
2927.187394030137,793
2928.923639428745,802
2930.6595600872306,817
2932.395156314046,794
2934.1304284177218,807
2935.8653767068713,797
2937.6000014901815,770
2939.3343030764227,766
2941.068281774442,776
2942.8019378931644,799
2944.5352717415976,772
2946.2682836288236,792
2948.0009738640065,814
2949.7333427563885,777
2951.465390615289,841
2953.1971177501086,781
2954.9285244703265,811
2956.6596110855,760
2958.3903779052657,803
2960.1208252393385,789
2961.8509533975125,822
2963.5807626896617,777
2965.3102534257378,763
2967.0394259157715,770
2968.768280469873,773
2970.496817398232,828
2972.2250370111146,828
2973.952939618869,786
2975.6805255319196,794
2977.4077950607707,828
2979.134748516006,798
2980.861386208289,829
2982.587708448359,834
2984.313715547037,789
2986.039407815222,741
2987.764785563891,768
2989.489849104102,819
2991.2145987469908,811
2992.9390348037705,799
2994.6631575857346,789
2996.3869674042576,761
2998.1104645707887,762
2999.83364939686,792
3001.5565221940783,792
3003.2790832741334,763
3005.0013329487924,759
3006.7232715298996,778
3008.4448993293804,749
3010.166216659239,764
3011.887223831558,763
3013.607921158498,769
3015.3283089522993,826
3017.0483875252826,772
3018.7681571898443,749
3020.4876182584626,772
3022.2067710436927,752
3023.9256158581707,799
3025.644153014609,841
3027.362382825801,802
3029.0803056046193,759
3030.797921664012,781
3032.5152313170106,791
3034.2322348767225,792
3035.9489326563353,761
3037.665324969115,803
3039.3814121284063,747
3041.097194447633,855
3042.812672240299,789
3044.5278458199855,796
3046.2427155003525,799
3047.9572815951406,794
3049.671544418167,789
3051.38550428333,808
3053.0991615046073,749
3054.812516396051,789
3056.5255692717974,773
3058.2383204460575,775
3059.9507702331257,782
3061.662918947372,724
3063.3747669032446,733
3065.0863144152736,751
3066.7975617980674,764
3068.508509366309,732
3070.219157434767,774
3071.9295063182844,739
3073.639556331785,775
3075.3493077902704,756
3077.058761008821,756
3078.7679163025964,743
3080.476773986837,768
3082.1853343768594,787
3083.89359778806,780
3085.6015645359153,759
3087.3092349359786,774
3089.016609303884,759
3090.7236879553434,770
3092.4304712061476,801
3094.136959372166,813
3095.843152769349,782
3097.5490517137237,794
3099.2546565213966,812
3100.959967508554,780
3102.66498499146,765
3104.3697092864577,768
3106.0741407099695,799
3107.778279578498,799
3109.482126208622,738
3111.1856809170004,800
3112.8889440203716,769
3114.5919158355528,797
3116.294596679439,812
3117.996986869006,771
3119.6990867213062,804
3121.4008965534726,815
3123.102416682717,781
3124.803647426329,794
3126.5045891016784,780
3128.205242026213,754
3129.90560651746,761
3131.605682893025,745
3133.3054714705922,772
3135.0049725679282,810
3136.7041865028714,793
3138.4031135933465,810
3140.101754157353,784
3141.800108512971,771
3143.498176978357,764
3145.1959598717494,844
3146.8934575114636,748
3148.5906702158954,788
3150.2875983035183,758
3151.9842420928853,762
3153.680601902627,762
3155.376678051456,785
3157.07247085816,772
3158.767980641609,756
3160.463207720748,726
3162.158152414606,784
3163.8528150422862,789
3165.5471959229726,761
3167.2412953759303,778
3168.9351137204976,780
3170.628651276098,772
3172.3219083622307,777
3174.014885298474,817
3175.707582404485,803
3177.4000000000005,746
3179.092138404835,769
3180.7839979388846,771
3182.47557892212,736
3184.166881674594,775
3185.8579065164386,759
3187.5486537678626,800
3189.2391237491547,768
3190.9293167806827,761
3192.6192331828934,760
3194.3088732763117,770
3195.998237381542,794
3197.687325819268,761
3199.376138910251,773
3201.064676975334,778
3202.7529403354347,752
3204.4409293115523,773
3206.1286442247647,760
3207.816085396229,745
3209.5032531471825,734
3211.190147798936,742
3212.8767696728846,767
3214.5631190905015,782
3216.2491963733373,827
3217.9350018430214,791
3219.6205358212637,756
3221.305798629851,725
3222.990790590651,731
3224.6755120256103,729
3226.359963256751,760
3228.0441446061795,764
3229.7280563960758,756
3231.411698948703,762
3233.0950725863995,751
3234.778177631587,727
3236.461014406761,744
3238.1435832345005,735
3239.8258844374595,793
3241.507918338374,749
3243.1896852600576,763
3244.8711855254023,729
3246.552419457381,714
3248.233387379042,789
3249.914089613516,782
3251.59452648401,762
3253.274698313813,768
3254.95460542629,769
3256.6342481448855,775
3258.313626793125,714
3259.9927416946084,753
3261.6715931730196,759
3263.3501815521176,740
3265.0285071557437,735
3266.706570307815,751
3268.3843713323286,740
3270.0619105533615,774
3271.739188295068,771
3273.4162048816834,785
3275.0929606375184,788
3276.769455886966,781
3278.445690954498,786
3280.1216661646613,770
3281.797381842087,782
3283.4728383114807,762
3285.1480358976296,778
3286.8229749253996,774
3288.4976557197333,759
3290.172078605655,744
3291.846243908266,798
3293.5201519527463,768
3295.193803064357,777
3296.8671975684374,750
3298.5403357904024,810
3300.21321805575,790
3301.8858446900567,763
3303.558216018975,737
3305.23033236824,800
3306.9021940636603,771
3308.57380143113,797
3310.2451547966184,799
3311.916254486174,773
3313.5871008259246,797
3315.2576941420766,763
3316.9280347609147,827
3318.5981230088046,759
3320.2679592121895,739
3321.9375436975924,771
3323.606876791612,785
3325.27595882093,749
3326.944790112305,736
3328.6133709925753,742
3330.2817017886573,746
3331.949782827547,763
3333.617614436319,791
3335.2851969421245,756
3336.952530672199,806
3338.619615953853,794
3340.286453114475,792
3341.9530424815357,754
3343.619384382583,769
3345.2854791452437,751
3346.951327097224,740
3348.6169285663073,795
3350.2822838803577,775
3351.947393367319,766
3353.61225735521,781
3355.2768761721345,733
3356.9412501462693,790
3358.605379605873,742
3360.2692648792827,729
3361.9329062949146,739
3363.596304181263,717
