CollectionTime,9/25/2024 11:27:35 AM
ExposureUsed,3
CalibratedSpectrum
-962.7078968117929,399
-959.9714848408522,415
-957.2358232597828,430
-954.5009119013725,426
-951.7667505983302,441
-949.0333391832855,431
-946.3006774887896,418
-943.5687653473143,437
-940.837602591253,425
-938.1071890529199,410
-935.3775245645503,413
-932.6486089583007,417
-929.9204420662485,424
-927.1930237203925,436
-924.4663537526524,438
-921.7404319948689,437
-919.0152582788041,429
-916.2908324361409,435
-913.5671542984834,432
-910.8442236973568,426
-908.1220404642074,409
-905.4006044304027,447
-902.679915427231,434
-899.959973285902,399
-897.2407778375464,390
-894.5223289132158,434
-891.8046263438832,414
-889.0876699604426,414
-886.3714595937089,396
-883.6559950744183,410
-880.9412762332282,413
-878.2273029007168,422
-875.5140749073835,393
-872.8015920836489,421
-870.0898542598545,397
-867.3788612662631,412
-864.6686129330585,415
-861.9591090903457,408
-859.2503495681506,404
-856.5423341964203,374
-853.8350628050229,401
-851.1285352237478,417
-848.4227512823054,418
-845.7177108103272,446
-843.0134136373656,404
-840.3098595928943,423
-837.6070485063082,426
-834.9049802069229,410
-832.2036545239757,426
-829.5030712866244,432
-826.8032303239481,413
-824.1041314649472,415
-821.4057745385428,420
-818.7081593735775,425
-816.0112857988148,435
-813.3151536429393,437
-810.6197627345566,445
-807.9251129021936,419
-805.2312039742981,406
-802.5380357792392,405
-799.8456081453069,430
-797.1539209007124,426
-794.462973873588,432
-791.772766891987,438
-789.083299783884,425
-786.3945723771743,415
-783.7065844996748,413
-781.0193359791231,411
-778.3328266431781,428
-775.6470563194197,428
-772.9620248353489,417
-770.2777320183878,410
-767.5941776958798,428
-764.9113616950891,424
-762.2292838432011,411
-759.5479439673222,417
-756.8673418944801,421
-754.1874774516235,446
-751.5083504656222,428
-748.8299607632671,421
-746.15230817127,403
-743.475392516264,433
-740.7992136248035,436
-738.1237713233636,411
-735.4490654383407,407
-732.7750957960521,420
-730.1018622227365,436
-727.4293645445534,429
-724.7576025875837,455
-722.0865761778291,450
-719.4162851412126,445
-716.7467293035781,439
-714.0779084906909,469
-711.409822528237,452
-708.7424712418238,455
-706.0758544569796,450
-703.4099719991541,440
-700.7448236937178,430
-698.0804093659622,444
-695.4167288411002,447
-692.7537819442656,427
-690.0915685005134,435
-687.4300883348199,446
-684.7693412720819,473
-682.1093271371178,453
-679.4500457546669,435
-676.7914969493897,430
-674.1336805458676,435
-671.4765963686034,431
-668.8202442420206,456
-666.1646239904642,467
-663.5097354382001,435
-660.8555784094151,430
-658.2021527282176,430
-655.5494582186366,440
-652.8974947046223,452
-650.2462620100463,442
-647.5957599587009,462
-644.9459883742998,455
-642.2969470804776,454
-639.6486359007902,454
-637.0010546587141,443
-634.3542031776476,441
-631.7080812809096,465
-629.0626887917401,466
-626.4180255333008,482
-623.7740913286734,498
-621.1308860008619,493
-618.4884093727904,500
-615.8466612673046,479
-613.2056415071715,458
-610.5653499150785,492
-607.9257863136347,499
-605.28695052537,498
-602.6488423727357,489
-600.0114616781036,474
-597.3748082637674,489
-594.7388819519412,496
-592.1036825647604,517
-589.4692099242818,514
-586.8354638524829,501
-584.2024441712624,525
-581.5701507024403,537
-578.9385832677575,520
-576.3077416888759,492
-573.6776257873787,542
-571.0482353847704,509
-568.4195703024757,481
-565.7916303618415,477
-563.164415384135,494
-560.5379251905453,482
-557.9121596021815,475
-555.2871184400748,492
-552.6628015251767,499
-550.0392086783606,508
-547.4163397204204,527
-544.794194472071,556
-542.1727727539491,506
-539.5520743866118,500
-536.9320991905377,521
-534.3128469861261,541
-531.6943175936979,566
-529.0765108334947,573
-526.4594265256793,658
-523.8430644903358,721
-521.2274245474689,824
-518.612506517005,1078
-515.9983102187913,1284
-513.3848354725959,1354
-510.77208209810846,1401
-508.16004991493924,1376
-505.5487387426199,1185
-502.9381484006032,1052
-500.3282787082628,899
-497.71912948489364,724
-495.1107005497117,642
-492.5029917218539,614
-489.8960028203786,574
-487.28973366426493,546
-484.68418407241325,566
-482.07935386364494,515
-479.47524285670266,561
-476.87185087025,579
-474.2691777228715,544
-471.66722323307334,558
-469.0659872192821,565
-466.4654694998459,537
-463.86566989303384,573
-461.26658821703614,534
-458.66822428996414,594
-456.07057792985,584
-453.4736489546475,587
-450.877437182231,600
-448.28194243039627,576
-445.68716451686,567
-443.09310325926003,550
-440.49975847515555,550
-437.9071299820263,547
-435.31521759727354,593
-432.72402113821954,567
-430.13354042210767,611
-427.5437752661022,585
-424.95472548728867,550
-422.36639090267386,570
-419.7787713291855,595
-417.1918665836721,605
-414.60567648290385,638
-412.0202008435715,625
-409.4354394822874,594
-406.8513922155845,614
-404.26805885991723,616
-401.685439231661,599
-399.103533147112,581
-396.522340422488,602
-393.9418608739278,598
-391.3620943174908,628
-388.7830405691583,628
-386.2046994448317,603
-383.6270707603344,566
-381.05015433141045,579
-378.473949973725,576
-375.8984575028645,550
-373.32367673433623,567
-370.74960748356875,591
-368.1762495659117,505
-365.60360279663576,492
-363.03166699093265,477
-360.4604419639154,480
-357.8899275306178,470
-355.32012350599507,462
-352.7510297049233,469
-350.1826459421999,479
-347.61497203254316,402
-345.04800779059235,447
-342.4817530309082,468
-339.91620756797226,507
-337.35137121618743,465
-334.7872437898774,484
-332.22382510328725,501
-329.66111497058273,506
-327.09911320585127,510
-324.53781962310075,482
-321.9772340362607,466
-319.4173562591816,485
-316.8581861056348,455
-314.2997233893127,479
-311.7419679238294,445
-309.1849195227194,455
-306.62857799943856,460
-304.0729431673641,496
-301.51801483979375,545
-298.963792829947,525
-296.41027695096386,496
-293.85746701590574,503
-291.3053628377552,599
-288.7539642294155,641
-286.2032710037115,578
-283.65328297338897,541
-281.1039999511146,595
-278.5554217494762,700
-276.007548180983,804
-273.4603790580651,697
-270.9139141930734,595
-268.3681533982807,605
-265.8230964858798,583
-263.27874326798565,705
-260.7350935566336,657
-258.1921471637804,652
-255.6499039013039,696
-253.10836358100266,670
-250.56752601459698,647
-248.02739101372765,664
-245.48795838995704,707
-242.94922795476816,696
-240.41119951956557,663
-237.8738728956746,674
-235.33724789434166,779
-232.80132432673452,729
-230.2661020039418,669
-227.73158073697357,689
-225.19776033676033,752
-222.66464061415422,846
-220.1322213799284,741
-217.60050244477725,649
-215.06948361931552,734
-212.53916471408013,854
-210.00954553952818,880
-207.48062590603843,835
-204.9524056239104,655
-202.4248845033651,721
-199.8980623545441,820
-197.37193898751036,826
-194.84651421224817,784
-192.32178783866232,728
-189.79775967657952,797
-187.27442953574644,876
-184.7517972258321,956
-182.2298625564256,830
-179.7086253370378,839
-177.18808537710026,930
-174.66824248596583,1120
-172.14909647290835,1142
-169.6306471471229,1061
-167.11289431772548,848
-164.59583779375328,817
-162.07947738416453,904
-159.5638128978386,1102
-157.04884414357605,1332
-154.53457093009854,1415
-152.02099306604828,1152
-149.50811035998936,997
-146.99592262040665,958
-144.48442965570587,1166
-141.97363127421409,1467
-139.46352728417958,1608
-136.95411749377126,1502
-134.44540171107985,1238
-131.93737974411636,1085
-129.43005140081357,1111
-126.92341648902493,1394
-124.41747481652521,1800
-121.91222619101006,2330
-119.40767042009657,2863
-116.90380731132257,3085
-114.40063667214702,2961
-111.8981583099503,2763
-109.3963720320337,2956
-106.89527764561933,3427
-104.39487495785067,3917
-101.89516377579241,5782
-99.39614390642998,8034
-96.89781515667039,11335
-94.40017733334128,11186
-91.90323024319173,8789
-89.40697369289148,6610
-86.91140748903172,5110
-84.41653143812482,4908
-81.92234534660395,5720
-79.42884902082358,6400
-76.93604226705907,7129
-74.4439248915071,7458
-71.95249670028534,11111
-69.46175749943245,16701
-66.97170709490854,23125
-64.48234529259423,27758
-61.99367189829195,30294
-59.50568671772464,29213
-57.01838955653636,23377
-54.53178022029283,18315
-52.045858514480074,17217
-49.560624244506016,16565
-47.07607721569923,14667
-44.59221723330904,13001
-42.10904410250669,13054
-39.62655762838392,11946
-37.14475761595372,10732
-34.66364387015028,12458
-32.18321619582866,14267
-29.70347439776515,16001
-27.224418280657005,19653
-24.74604764912317,25619
-22.26836230770266,44661
-19.7913620608565,65041
-17.315046712966478,65041
-14.83941606833514,65041
-12.36446993118659,65041
-9.89020810566592,65041
-7.416630395839093,65041
-4.94373660569363,65041
-2.471526539137585,65041
-6.821210263296962E-13,65041
2.47084320796705,65041
4.941003281093458,65041
7.410480415786196,65041
9.879274808531363,65041
12.347386655893956,65041
14.814816154518212,65041
17.28156350112681,65041
19.74762889252179,65041
22.21301252558385,21954
24.67771459727237,4686
27.141735304626195,3384
29.605074844762612,2958
32.06773341487792,2978
34.52971121224755,2738
36.99100843422559,2542
39.45162527824516,3533
41.91156194181792,4239
44.370818622535126,3147
46.82939551806646,2929
49.287292826160524,3149
51.74451074464503,2868
54.201049471426245,2844
56.65690920448981,2212
59.112090141899785,2033
61.56659248179983,2775
64.02041642241159,2071
66.4735621620365,1814
68.92602989905402,1754
71.37781983192338,1958
73.82893215918205,1537
76.27936707944684,1650
78.72912479141326,1757
81.17820549385567,1484
83.62660938562783,1502
86.07433666566146,1573
88.5213875329681,1981
90.96776218663751,1576
93.41346082583925,1279
95.85848364982041,1294
98.30283085790859,1304
100.7465026495089,1741
103.18949922410604,1658
105.63182078126385,1690
108.07346752062438,1399
110.51443964190923,1066
112.95473734491827,962
115.39436082953114,818
117.83331029570547,1063
120.27158594347827,1283
122.7091879729652,1105
125.1461165843615,1055
127.58237197794062,1028
130.01795435405518,1320
132.4528639131364,1033
134.88710085569494,1030
137.32066538231982,1345
139.75355769367923,1280
142.1857779905207,926
144.61732647366978,964
147.04820334403132,1078
149.47840880258934,1064
151.90794305040674,993
154.33680628862487,1003
156.76499871846443,942
159.19252054122433,994
161.61937195828352,1117
164.04555317109896,1102
166.47106438120693,1293
168.89590579022217,1379
171.320077599839,1388
173.7435800118302,1389
176.16641322804742,1491
178.58857745042144,1549
181.01007288096173,1569
183.43089972175687,1481
185.85105817497413,1517
188.27054844285988,1445
190.6893707277394,1532
193.10752523201643,1478
195.5250121581745,1473
197.9418317087751,1517
200.3579840864594,1460
202.7734694939469,1505
205.18828813403627,1548
207.6024402096051,1577
210.01592592360964,1537
212.42874547908548,1577
214.84089907914665,1562
217.2523869269868,1551
219.66320922587727,1567
222.0733661791695,1521
224.48285799029293,1510
226.8916848627572,1496
229.29984700014882,1605
231.7073446061355,1585
234.11417788446204,1552
236.520347038953,1541
238.92585227351185,1464
241.33069379212054,1487
243.73487179884035,1520
246.1383864978112,1465
248.541238093252,1463
250.9434267894609,1420
253.34495279081432,1505
255.74581630176783,1508
258.1460175268563,1384
260.54555667069314,1367
262.9444339379703,1367
265.3426495334594,1527
267.7402036620107,1592
270.1370965285529,1480
272.53332833809407,1472
274.9288992957214,1492
277.32380960660055,1425
279.718059475976,1424
282.1116491091717,1421
284.5045787115897,1413
286.89684848871195,1475
289.2884586460981,1409
291.67940938938807,1426
294.0697009242996,1412
296.4593334566299,1532
298.84830719225477,1521
301.23662233712923,1522
303.6242790972866,1481
306.01127767884,1521
308.39761828798066,1420
310.78330113097934,1378
313.16832641418534,1386
315.5526943440269,1321
317.9364051270112,1359
320.3194589697242,1306
322.70185607883093,1311
325.0835966610754,1375
327.4646809232805,1312
329.8451090723478,1339
332.2248813152577,1261
334.6039978590701,1285
336.9824589109231,1362
339.36026467803447,1244
341.7374153677,1253
344.113911187295,1215
346.48975234427337,1222
348.8649390461686,1279
351.2394715005918,1274
353.61334991523415,1192
355.9865744978655,1285
358.35914545633375,1213
360.73106299856715,1199
363.10232733257146,1220
365.47293866643247,1246
367.84289720831396,1229
370.2122031664593,1220
372.5808567491905,1179
374.9488581649083,1184
377.31620762209275,1121
379.6829053293021,1157
382.0489514951745,1144
384.4143463284262,1211
386.7790900378528,1152
389.14318283232853,1164
391.50662492080653,1152
393.86941651231916,1169
396.23155781597745,1205
398.5930490409713,1199
400.9538903965696,1150
403.3140820921202,1193
405.6736243370498,1146
408.03251734086336,1127
410.3907613131465,1175
412.74835646356166,1194
415.10530300185144,1161
417.4616011378372,1111
419.81725108141893,1104
422.1722530425758,1169
424.5266072313656,1122
426.880313857925,1155
429.2333731324701,1168
431.58578526529516,1139
433.9375504667738,1110
436.2886689473588,1153
438.63914091758113,1150
440.9889665880513,1102
443.33814616945835,1139
445.68667987257015,1103
448.03456790823395,1132
450.3818104873759,1102
452.72840782100013,1159
455.07436012019105,1109
457.41966759611057,1064
459.7643304600007,1073
462.10834892318155,1039
464.4517231970525,1092
466.79445349309174,1101
469.1365400228566,1071
471.4779829979826,1101
473.81878263018564,1122
476.15893913125876,1116
478.4984527130747,1110
480.8373235875855,1116
483.17555196682144,1161
485.5131380628919,1190
487.8500820879857,1132
490.1863842543697,1152
492.52204477439034,1223
494.8570638604725,1305
497.1914417251204,1260
499.52517858091653,1364
501.85827464052306,1506
504.19073011668036,1746
506.5225452222086,2258
508.85372017000566,3008
511.18425517304956,3748
513.514150444396,4334
515.8434061971808,4963
518.1720226446176,5253
520.4999999999999,5202
522.8273384766991,4520
525.1540382881666,3640
527.480099647932,2987
529.8055227696037,2408
532.1303078668694,1732
534.454455153496,1455
536.777964843328,1304
539.1008371502907,1288
541.4230722883866,1218
543.744670471698,1218
546.0656319143858,1195
548.3859568306899,1141
550.7056454349294,1169
553.0246979415016,1177
555.3431145648834,1221
557.6608955196306,1144
559.978041020377,1149
562.2945512818363,1189
564.6104265188006,1127
566.9256669461412,1099
569.2402727788082,1118
571.5542442318302,1099
573.8675815203156,1100
576.1802848594508,1152
578.4923544645015,1117
580.8037905508126,1147
583.114593333807,1117
585.4247630289875,1145
587.7342998519354,1121
590.0432040183106,1101
592.3514757438526,1100
594.6591152443794,1125
596.9661227357875,1118
599.2724984340531,1177
601.578242555231,1091
603.8833553154542,1094
606.1878369309362,1120
608.4916876179676,1138
610.7949075929192,1100
613.0974970722403,1138
615.3994562724587,1127
617.7007854101818,1133
620.0014847020951,1137
622.3015543649641,1113
624.6009946156324,1108
626.8998056710224,1093
629.1979877481361,1111
631.4955410640538,1149
633.7924658359349,1116
636.0887622810175,1140
638.3844306166192,1109
640.6794710601358,1149
642.9738838290426,1173
645.2676691408932,1106
647.5608272133207,1139
649.853358264037,1108
652.1452625108324,1126
654.4365401715764,1121
656.7271914642178,1167
659.0172166067838,1181
661.3066158173809,1197
663.5953893141935,1155
665.8835373154867,1125
668.1710600396028,1158
670.4579577049639,1183
672.7442305300709,1219
675.0298787335033,1183
677.3149025339197,1097
679.599302150058,1148
681.8830778007342,1158
684.1662297048437,1141
686.4487580813608,1170
688.7306631493387,1102
691.0119451279091,1141
693.2926042362834,1127
695.5726406937516,1136
697.8520547196814,1159
700.1308465335215,1132
702.4090163547982,1116
704.6865644031171,1167
706.9634908981619,1117
709.2397960596965,1097
711.5154801075631,1154
713.7905432616823,1171
716.0649857420548,1174
718.3388077687592,1104
720.612009561953,1113
722.8845913418733,1121
725.1565533288352,1092
727.427895743234,1156
729.6986188055427,1147
731.9687227363137,1095
734.238207756178,1070
736.5070740858458,1138
738.7753219461066,1122
741.0429515578281,1162
743.3099631419569,1200
745.5763569195191,1098
747.8421331116193,1118
750.1072919394409,1095
752.3718336242467,1109
754.6357583873777,1162
756.8990664502545,1155
759.1617580343765,1232
761.423833361321,1179
763.6852926527457,1185
765.9461361303862,1114
768.206364016058,1106
770.4659765316536,1196
772.7249738991469,1106
774.9833563405886,1171
777.2411240781092,1158
779.4982773339183,1123
781.7548163303044,1107
784.010741289634,1123
786.2660524343538,1238
788.5207499869881,1171
790.7748341701416,1161
793.0283052064964,1176
795.2811633188143,1186
797.5334087299362,1223
799.7850416627813,1153
802.0360623403484,1207
804.2864709857143,1179
806.5362678220353,1154
808.7854530725468,1193
811.0340269605625,1181
813.2819897094754,1187
815.5293415427581,1201
817.77608268396,1179
820.0222133567116,1200
822.2677337847211,1196
824.5126441917765,1198
826.7569448017433,1239
829.0006358385675,1236
831.2437175262731,1159
833.4861900889629,1179
835.7280537508192,1152
837.9693087361026,1199
840.2099552691533,1273
842.4499935743896,1191
844.689423876309,1172
846.9282463994886,1174
849.1664613685833,1120
851.4040690083276,1183
853.6410695435349,1180
855.877463199097,1123
858.1132501999847,1155
860.3484307712487,1185
862.5830051380175,1162
864.8169735254988,1245
867.0503361589791,1223
869.2830932638243,1156
871.5152450654786,1143
873.7467917894654,1142
875.9777336613873,1177
878.2080709069252,1144
880.4378037518389,1191
882.666932421968,1130
884.8954571432301,1218
887.1233781416219,1209
889.3506956432192,1209
891.5774098741766,1148
893.803521060728,1180
896.0290294291852,1184
898.2539352059397,1159
900.4782386174619,1123
902.7019398903011,1199
904.925039251085,1145
907.147536926521,1128
909.3694331433943,1158
911.59072812857,1137
913.8114221089921,1190
916.0315153116827,1195
918.2510079637437,1175
920.4699002923547,1188
922.6881925247761,1187
924.905884888345,1186
927.1229776104793,1258
929.3394709186747,1247
931.555365040506,1202
933.7706602036275,1216
935.9853566357709,1229
938.1994545647489,1305
940.4129542184515,1241
942.6258558248488,1260
944.8381596119883,1271
947.0498658079974,1300
949.2609746410825,1315
951.4714863395287,1221
953.6814011316998,1277
955.8907192460387,1284
958.0994409110671,1266
960.3075663553858,1299
962.5150958076741,1281
964.7220294966913,1307
966.928367651274,1292
969.1341105003388,1290
971.3392582728806,1280
973.5438111979742,1206
975.747769504772,1189
977.9511334225061,1196
980.153903180487,1160
982.3560790081052,1193
984.5576611348289,1178
986.7586497902058,1131
988.9590452038618,1113
991.158847605503,1124
993.3580572249133,1144
995.5566742919558,1132
997.7546990365728,1109
999.952131688785,1146
1002.1489724786926,1121
1004.3452216364743,1044
1006.5408793923874,1080
1008.7359459767691,1026
1010.9304216200343,1024
1013.1243065526781,1033
1015.3176010052733,992
1017.510305208472,1030
1019.7024193930064,1026
1021.8939437896848,1012
1024.0848786293977,983
1026.2752241431122,975
1028.4649805618747,1013
1030.6541481168115,984
1032.842727039127,970
1035.0307175601051,969
1037.2181199111074,955
1039.4049343235752,982
1041.591161029029,974
1043.7768002590683,924
1045.9618522453698,975
1048.1463172196918,952
1050.3301954138697,992
1052.513487059818,927
1054.69619238953,967
1056.8783116350783,933
1059.0598450286152,902
1061.2407928023704,978
1063.4211551886528,930
1065.6009324198508,919
1067.780124728432,951
1069.9587323469414,921
1072.1367555080046,940
1074.314194444325,923
1076.4910493886855,965
1078.667320573947,960
1080.843008233051,945
1083.0181125990161,875
1085.1926339049414,914
1087.3665723840027,922
1089.5399282694575,959
1091.7127017946405,927
1093.8848931929647,939
1096.0565026979243,939
1098.2275305430899,906
1100.3979769621128,899
1102.567842188722,910
1104.737126456726,888
1106.9058300000124,897
1109.0739530525475,894
1111.2414958483764,855
1113.4084586216231,903
1115.5748416064907,895
1117.7406450372605,866
1119.9058691482942,897
1122.0705141740304,897
1124.2345803489884,925
1126.3980679077658,903
1128.5609770850388,915
1130.7233081155623,908
1132.8850612341707,850
1135.0462366757774,900
1137.2068346753745,911
1139.3668554680326,915
1141.526299288901,931
1143.68516637321,877
1145.8434569562655,885
1148.001171273455,837
1150.158309560244,899
1152.3148720521767,926
1154.470858984876,863
1156.626270594044,864
1158.7811071154629,899
1160.9353687849912,922
1163.089055838569,859
1165.242168512213,912
1167.3947070420209,864
1169.5466716641677,887
1171.6980626149075,911
1173.8488801305748,883
1175.9991244475814,924
1178.1487958024186,881
1180.2978944316555,935
1182.4464205719428,836
1184.5943744600072,883
1186.7417563326567,884
1188.8885664267755,877
1191.0348049793297,895
1193.1804722273619,916
1195.325568407995,929
1197.4700937584303,898
1199.614048515948,927
1201.7574329179074,908
1203.900247201746,927
1206.042491604982,913
1208.1841663652099,885
1210.3252717201053,936
1212.465807907422,927
1214.6057751649923,900
1216.7451737307279,889
1218.8840038426192,884
1221.0222657387353,934
1223.1599596572241,928
1225.2970858363137,921
1227.4336445143094,875
1229.5696359295966,917
1231.705060320639,932
1233.8399179259786,915
1235.9742089842384,940
1238.107933734118,901
1240.2410924143974,948
1242.373685263935,918
1244.5057125216676,917
1246.6371744266116,877
1248.7680712178621,900
1250.898403134593,910
1253.028170416058,946
1255.1573733015875,937
1257.2860120305932,897
1259.4140868425648,925
1261.54159797707,955
1263.6685456737569,920
1265.7949301723515,942
1267.9207517126597,927
1270.046010534565,975
1272.1707068780306,986
1274.2948409830983,932
1276.4184130898889,938
1278.541423438603,953
1280.6638722695184,964
1282.785759822993,961
1284.9070863394636,946
1287.0278520594447,928
1289.1480572235314,935
1291.2677020723963,964
1293.3867868467923,982
1295.5053117875495,933
1297.623277135579,942
1299.740683131868,951
1301.8575300174857,1009
1303.973818033578,944
1306.0895474213703,927
1308.2047184221678,955
1310.3193312773528,986
1312.4333862283888,972
1314.5468835168163,968
1316.659823384255,974
1318.7722060724045,996
1320.8840318230418,920
1322.9953008780249,946
1325.1060134792888,994
1327.2161698688478,991
1329.3257702887959,983
1331.4348149813054,944
1333.5433041886276,921
1335.6512381530933,947
1337.7586171171101,975
1339.8654413231675,980
1341.9717110138317,914
1344.0774264317488,990
1346.1825878196432,973
1348.2871954203192,950
1350.3912494766587,967
1352.4947502316231,983
1354.5976979282532,963
1356.7000928096686,947
1358.8019351190665,964
1360.9032250997243,980
1363.0039629949988,948
1365.1041490483235,959
1367.2037835032133,920
1369.3028666032606,954
1371.401398592137,929
1373.4993797135926,985
1375.5968102114575,989
1377.6936903296396,984
1379.7900203121262,976
1381.8858004029835,988
1383.9810308463561,939
1386.075711886469,939
1388.1698437676241,965
1390.2634267342032,994
1392.356461030667,967
1394.4489469015557,961
1396.5408845914872,951
1398.6322743451592,941
1400.7231164073469,980
1402.813411022907,922
1404.903158436773,952
1406.9923588939578,964
1409.0810126395531,947
1411.1691199187303,995
1413.2566809767386,975
1415.343696058907,998
1417.4301654106425,1053
1419.5160892774315,981
1421.6014679048399,1029
1423.6863015385125,1001
1425.7705904241707,1001
1427.8543348076178,949
1429.9375349347342,1010
1432.0201910514802,990
1434.102303403894,1008
1436.1838722380944,965
1438.2648978002767,970
1440.3453803367174,1001
1442.4253200937692,958
1444.5047173178677,1010
1446.5835722555234,1027
1448.6618851533285,998
1450.739656257952,1006
1452.8168858161434,954
1454.8935740747306,977
1456.96972128062,999
1459.045327680797,971
1461.120393522327,991
1463.1949190523528,999
1465.2689045180973,986
1467.3423501668608,969
1469.415256246024,1001
1471.4876230030463,1013
1473.559450685465,1045
1475.6307395408976,1025
1477.7014898170391,1001
1479.771701761665,989
1481.8413756226287,1049
1483.9105116478618,1038
1485.9791100853772,1062
1488.0471711832643,1029
1490.1146951896926,1014
1492.1816823529098,1012
1494.2481329212433,1093
1496.3140471430984,1037
1498.3794252669609,1023
1500.4442675413939,1084
1502.5085742150404,1024
1504.572345536622,1028
1506.6355817549388,1072
1508.6982831188702,1078
1510.7604498773744,1078
1512.8220822794883,1087
1514.8831805743293,1084
1516.9437450110909,1093
1519.003775839048,1065
1521.0632733075522,1128
1523.1222376660367,1094
1525.1806691640113,1072
1527.2385680510652,1075
1529.2959345768668,1082
1531.3527689911643,1114
1533.4090715437833,1114
1535.4648424846291,1092
1537.5200820636855,1090
1539.5747905310159,1185
1541.6289681367616,1087
1543.6826151311434,1066
1545.7357317644614,1128
1547.7883182870937,1127
1549.8403749494987,1121
1551.8919020022113,1120
1553.9428996958477,1118
1555.9933682811015,1077
1558.0433080087469,1083
1560.0927191296346,1116
1562.1416018946961,1149
1564.1899565549415,1143
1566.2377833614592,1157
1568.2850825654164,1196
1570.3318544180606,1160
1572.3780991707158,1160
1574.423817074788,1201
1576.4690083817595,1246
1578.5136733431923,1282
1580.5578122107272,1287
1582.601425236085,1344
1584.6445126710646,1431
1586.6870747675434,1344
1588.7291117774776,1337
1590.7706239529034,1305
1592.8116115459347,1345
1594.8520748087658,1241
1596.8920139936686,1240
1598.9314293529933,1187
1600.9703211391711,1214
1603.008689604711,1133
1605.0465350022005,1077
1607.0838575843068,1046
1609.1206576037753,1095
1611.1569353134305,1052
1613.1926909661765,1030
1615.2279248149953,1076
1617.2626371129481,1049
1619.2968281131757,1048
1621.3304980688963,989
1623.3636472334088,972
1625.39627586009,961
1627.428384202396,929
1629.459972513861,983
1631.4910410480993,955
1633.5215900588028,972
1635.551619799744,992
1637.5811305247717,964
1639.6101224878166,938
1641.6385959428862,906
1643.6665511440683,950
1645.693988345528,922
1647.7209078015112,932
1649.7473097663405,904
1651.7731944944203,932
1653.7985622402307,962
1655.823413258333,914
1657.847747803366,944
1659.8715661300494,945
1661.8948684931793,961
1663.9176551476316,932
1665.9399263483624,918
1667.9616823504057,966
1669.982923408873,939
1672.0036497789574,904
1674.0238617159293,935
1676.043559475138,917
1678.0627433120121,898
1680.081413482059,919
1682.0995702408654,928
1684.117213844096,919
1686.134344547495,892
1688.1509626068864,892
1690.1670682781705,927
1692.182661817329,936
1694.1977434804217,890
1696.2123135235875,916
1698.226372203043,945
1700.2399197750851,931
1702.2529564960905,914
1704.2654826225112,946
1706.277498410882,920
1708.2890041178139,911
1710.2999999999988,993
1712.3104863142066,956
1714.3204633172854,903
1716.329931266163,874
1718.3388904178469,901
1720.3473410294214,946
1722.3552833580516,918
1724.3627176609807,946
1726.3696441955308,944
1728.3760632191033,935
1730.3819749891782,911
1732.3873797633146,930
1734.3922777991502,911
1736.3966693544012,921
1738.4005546868639,912
1740.4039340544127,917
1742.406807715001,912
1744.4091759266616,953
1746.4110389475054,912
1748.4123970357223,944
1750.413250449582,955
1752.4135994474318,920
1754.4134442876993,893
1756.4127852288902,903
1758.4116225295893,928
1760.4099564484595,876
1762.407787244244,942
1764.405115175764,928
1766.4019405019203,978
1768.3982634816916,915
1770.3940843741357,908
1772.3894034383907,869
1774.3842209336717,934
1776.378537119274,923
1778.372352254571,955
1780.3656665990156,934
1782.3584804121397,934
1784.3507939535534,895
1786.3426074829463,909
1788.3339212600863,913
1790.3247355448211,935
1792.3150505970766,908
1794.3048666768573,905
1796.2941840442477,925
1798.2830029594106,894
1800.2713236825884,916
1802.2591464741004,880
1804.2464715943465,875
1806.2332993038058,881
1808.2196298630352,919
1810.2054635326708,895
1812.190800573428,895
1814.175641246101,950
1816.1599858115628,938
1818.1438345307652,899
1820.127187664738,874
1822.1100454745924,908
1824.092408221516,925
1826.0742761667766,898
1828.055649571721,945
1830.0365286977735,944
1832.0169138064398,902
1833.9968051593014,894
1835.9762030180214,909
1837.9551076443408,889
1839.9335193000788,947
1841.9114382471344,908
1843.888864747485,917
1845.8657990631878,937
1847.842241456378,938
1849.8181921892697,886
1851.7936515241558,911
1853.7686197234098,915
1855.7430970494815,884
1857.7170837649014,918
1859.6905801322787,920
1861.6635864143004,904
1863.6361028737338,936
1865.608129773424,929
1867.5796673762961,904
1869.5507159453537,869
1871.521275743678,885
1873.4913470344313,918
1875.4609300808534,902
1877.4300251462632,946
1879.3986324940588,882
1881.366752387717,901
1883.3343850907936,921
1885.3015308669228,949
1887.268189979819,914
1889.2343626932739,920
1891.2000492711595,946
1893.1652499774254,876
1895.1299650761011,914
1897.0941948312952,915
1899.0579395071945,977
1901.0211993680641,921
1902.98397467825,966
1904.9462657021745,936
1906.9080727043415,940
1908.869395949332,947
1910.8302357018065,897
1912.790592226504,913
1914.7504657882428,963
1916.7098566519212,909
1918.6687650825133,898
1920.6271913450764,892
1922.5851357047422,885
1924.5425984267245,935
1926.499579776314,966
1928.4560800188833,943
1930.4120994198802,937
1932.367638244833,976
1934.32269675935,950
1936.2772752291175,926
1938.231373919899,940
1940.1849930975404,929
1942.1381330279637,886
1944.0907939771696,909
1946.0429762112412,905
1947.9946799963363,894
1949.9459055986945,938
1951.896653284633,935
1953.8469233205478,905
1955.7967159729142,908
1957.7460315082863,911
1959.6948701932974,888
1961.6432322946594,913
1963.5911180791632,901
1965.5385278136787,878
1967.4854617651545,903
1969.4319202006182,911
1971.377903387176,890
1973.3234115920136,917
1975.268445082395,913
1977.2130041256642,943
1979.1570889892423,935
1981.1006999406304,906
1983.04383724741,907
1984.986501177238,916
1986.928691997853,915
1988.8704099770712,858
1990.811655382789,896
1992.7524284829801,910
1994.692729545698,864
1996.6325588390755,869
1998.5719166313224,920
2000.5108031907307,911
2002.4492187856677,947
2004.387163684583,905
2006.3246381560011,923
2008.2616424685298,879
2010.1981768908527,877
2012.1342416917332,943
2014.069837140014,905
2016.0049635046162,901
2017.9396210545406,909
2019.8738100588666,892
2021.8075307867502,914
2023.740783507431,885
2025.6735684902228,894
2027.6058860045214,880
2029.5377363198004,914
2031.4691197056118,904
2033.4000364315875,914
2035.3304867674374,912
2037.260470982952,879
2039.189989347998,908
2041.1190421325232,903
2043.047629606554,880
2044.9757520401945,923
2046.9034097036288,920
2048.8306028671195,892
2050.7573318010086,886
2052.683596775716,894
2054.609398061742,878
2056.5347359296647,902
2058.4596106501403,937
2060.384022493906,919
2062.3079717317764,934
2064.231458634646,905
2066.1544834734873,889
2068.077046519352,895
2069.99914804337,902
2071.9207883167524,937
2073.8419676107865,914
2075.7626861968406,892
2077.6829443463607,934
2079.6027423308715,899
2081.522080421977,879
2083.440958891362,936
2085.359378010786,853
2087.2773380520907,858
2089.194839287196,933
2091.111881988101,912
2093.0284664268825,914
2094.9445928756973,880
2096.86026160678,901
2098.775472892446,907
2100.690227005088,897
2102.604524217178,912
2104.5183648012676,933
2106.431749029985,881
2108.34467717604,891
2110.2571495122206,917
2112.169166311393,914
2114.080727846503,864
2115.9918343905747,897
2117.902486216711,881
2119.8126835980956,887
2121.722426807987,924
2123.6317161197285,907
2125.5405518067364,903
2127.448934142509,928
2129.356863400624,926
2131.264339854737,946
2133.1713637785815,876
2135.077935445972,924
2136.9840551308002,915
2138.889723107037,887
2140.7949396487334,928
2142.699705030018,884
2144.6040195250994,949
2146.507883408264,926
2148.4112969538774,951
2150.3142604363848,911
2152.2167741303097,940
2154.1188383102535,929
2156.0204532508997,886
2157.9216192270064,907
2159.822336513414,903
2161.7226053850413,969
2163.622426116884,939
2165.5217989840185,926
2167.4207242616,886
2169.319202224862,903
2171.2172331491165,873
2173.1148173097563,919
2175.0119549822507,891
2176.90864644215,980
2178.8048919650823,929
2180.7006918267534,917
2182.596046302952,970
2184.4909556695407,912
2186.3854202024645,898
2188.279440177746,898
2190.173015871487,855
2192.066147559868,933
2193.958835519149,952
2195.851080025667,905
2197.7428813558417,934
2199.6342397861667,924
2201.5251555932186,917
2203.415629053651,910
2205.3056604441986,971
2207.19525004167,927
2209.084398122958,930
2210.9731049650327,921
2212.861370844941,959
2214.749196039812,926
2216.636580826851,946
2218.523525483344,912
2220.410030286655,894
2222.296095514226,921
2224.1817214435805,933
2226.066908352319,938
2227.951656518121,955
2229.835966218746,954
2231.71983773203,950
2233.6032713358913,920
2235.486267308324,901
2237.3688259274036,963
2239.2509474712824,941
2241.132632218193,922
2243.013880446447,920
2244.8946924344323,952
2246.7750684606203,972
2248.6550088035574,995
2250.534513741871,914
2252.413583554265,872
2254.292218519526,946
2256.170418916517,951
2258.0481850241786,921
2259.925517121534,937
2261.8024154876825,936
2263.678880401803,962
2265.5549121431536,928
2267.430510991071,932
2269.305677224971,923
2271.180411124348,908
2273.0547129687766,923
2274.9285830379076,955
2276.8020216114737,922
2278.6750289692845,938
2280.5476053912294,962
2282.4197511572766,947
2284.2914665474727,967
2286.162751841943,955
2288.0336073208937,998
2289.904033264608,988
2291.774029953448,989
2293.6435976678554,937
2295.5127366883517,975
2297.381447295534,942
2299.2497297700825,901
2301.1175843927526,865
2302.9850114443825,857
2304.852011205885,898
2306.7185839582553,852
2308.5847299825664,854
2310.4504495599676,812
2312.3157429716925,867
2314.1806104990483,841
2316.0450524234247,816
2317.9090690262888,824
2319.772660589186,823
2321.635827393742,830
2323.498569721661,824
2325.3608878547248,837
2327.2227820747967,785
2329.0842526638157,790
2330.945299903803,853
2332.805924076857,805
2334.6661254651535,818
2336.525904350951,850
2338.3852610165827,807
2340.244195744464,787
2342.102708817088,810
2343.9608005170253,866
2345.8184711269287,857
2347.675720929526,822
2349.532550207628,778
2351.38895924412,881
2353.24494832197,834
2355.100517724223,811
2356.955667734004,825
2358.810398634514,862
2360.664710709037,852
2362.5186042409337,840
2364.3720795136437,792
2366.225136810686,807
2368.0777764156583,846
2369.929998612237,849
2371.7818036841777,812
2373.633191915315,856
2375.484163589562,817
2377.3347189909114,833
2379.184858403434,832
2381.03458211128,805
2382.8838903986775,820
2384.732783549936,850
2386.5812618494406,833
2388.4293255816588,848
2390.2769750311327,866
2392.1242104824883,886
2393.971032220427,835
2395.8174405297295,863
2397.6634356952563,804
2399.509018001947,820
2401.3541877348193,820
2403.1989451789705,833
2405.043290619576,849
2406.8872243418905,868
2408.730746631247,823
2410.5738577730594,821
2412.4165580528183,821
2414.258847756095,849
2416.100727168537,833
2417.9421965758734,822
2419.783256263912,818
2421.623906518538,836
2423.4641476257157,869
2425.303979871491,872
2427.143403541984,849
2428.9824189233977,812
2430.821026302012,865
2432.6592259641866,812
2434.497018196361,865
2436.33440328505,858
2438.171381516851,878
2440.00795317844,857
2441.844118556569,811
2443.6798779380724,860
2445.5152316098606,871
2447.3501798589255,868
2449.1847229723357,845
2451.0188612372403,858
2452.8525949408663,850
2454.6859243705203,830
2456.518849813587,851
2458.3513715575314,843
2460.183489889895,830
2462.015205098301,851
2463.8465174704493,848
2465.67742729412,857
2467.5079348571717,826
2469.338040447542,824
2471.1677443532476,839
2472.9970468623833,823
2474.825948263123,809
2476.6544488437207,879
2478.482548892508,851
2480.310248697896,867
2482.137548548374,832
2483.9644487325118,856
2485.790949538956,827
2487.617051256433,839
2489.44275417375,854
2491.26805857979,831
2493.0929647635157,840
2494.917473013971,805
2496.741583620276,874
2498.5652968716304,817
2500.3886130573137,844
2502.2115324666834,855
2504.0340553891765,837
2505.856182114308,855
2507.6779129316733,882
2509.499248130945,821
2511.3201880018764,900
2513.140732834298,836
2514.9608829181198,867
2516.780638543331,841
2518.6,837
2520.418967578273,869
2522.237541568376,828
2524.0557222606144,864
2525.8735099453706,859
2527.6909049131086,908
2529.507907454368,856
2531.32451785977,852
2533.140736420014,853
2534.9565634258774,861
2536.771999168218,868
2538.5870439379714,837
2540.4016980261526,848
2542.2159617238544,935
2544.02983532225,905
2545.8433191125914,871
2547.656413386209,784
2549.4691184345115,866
2551.2814345489874,887
2553.093362021204,866
2554.904901142808,854
2556.716052205523,880
2558.526815501153,887
2560.3371913215824,866
2562.147179958771,837
2563.956781704761,856
2565.7659968516705,856
2567.5748256916986,858
2569.3832685171224,857
2571.1913256202984,852
2572.9989972936614,910
2574.806283829725,855
2576.613185521084,862
2578.4197026604074,901
2580.2258355404483,930
2582.031584454035,913
2583.836949694077,957
2585.6419315535613,959
2587.4465303255533,954
2589.2507463032002,941
2591.0545797797245,926
2592.8580310484303,964
2594.6611004026995,973
2596.463788135992,912
2598.266094541849,979
2600.0680199138874,962
2601.869564545807,941
2603.670728731383,942
2605.4715127644704,919
2607.2719169390048,937
2609.071941548998,933
2610.8715868885433,931
2612.670853251811,947
2614.469740933052,962
2616.268250226594,956
2618.0663814268455,990
2619.864134828292,990
2621.6615107255006,959
2623.458509413115,930
2625.2551311858597,946
2627.0513763385347,940
2628.8472451660223,949
2630.6427379632833,933
2632.4378550253564,905
2634.232596647359,989
2636.026963124488,909
2637.8209547520187,946
2639.6145718253065,907
2641.407814639785,910
2643.200683490966,916
2644.9931786744414,901
2646.7853004858807,877
2648.577049221034,909
2650.3684251757277,890
2652.1594286458712,894
2653.9500599274484,905
2655.740319316525,923
2657.5302071092437,872
2659.3197236018286,897
2661.10886909058,861
2662.8976438718782,903
2664.686048242183,861
2666.4740824980327,852
2668.2617469360443,866
2670.0490418529134,895
2671.8359675454153,876
2673.622524310403,866
2675.408712444811,846
2677.1945322456495,870
2678.979984010009,850
2680.76506803506,863
2682.5497846180497,851
2684.334134056306,901
2686.1181166472343,811
2687.9017326883213,842
2689.6849824771293,794
2691.4678663113013,863
2693.2503844885596,870
2695.032537306705,885
2696.8143250636167,852
2698.5957480572542,833
2700.3768065856534,843
2702.1575009469316,859
2703.937831439283,904
2705.717798360982,816
2707.4974020103837,814
2709.276642685917,869
2711.055520686095,837
2712.834036309506,829
2714.612189854819,851
2716.389981620782,858
2718.1674119062204,814
2719.944481010041,877
2721.721189231226,845
2723.4975368688415,811
2725.273524222027,840
2727.0491515900053,854
2728.824419272075,840
2730.5993275676146,824
2732.3738767760838,856
2734.148067197016,838
2735.921899130031,824
2737.6953728748194,852
2739.468488731156,864
2741.2412469988926,800
2743.0136479779617,823
2744.785691968372,812
2746.5573792702116,806
2748.3287101836504,818
2750.099685008934,824
2751.870304046388,837
2753.640567596418,785
2755.4104759595057,837
2757.1800294362156,798
2758.949228327187,832
2760.7180729331412,855
2762.486563554877,845
2764.254700493272,832
2766.022484049284,830
2767.789914523947,845
2769.5569922183786,838
2771.3237174337705,846
2773.090090471394,821
2774.8561116326036,828
2776.6217812188274,801
2778.3870995315756,803
2780.1520668724356,836
2781.9166835430747,830
2783.6809498452394,831
2785.444866080754,824
2787.2084325515225,803
2788.971649559527,801
2790.73451740683,835
2792.4970363955713,827
2794.2592068279705,859
2796.0210290063264,855
2797.7825032330147,821
2799.543629810493,852
2801.304409041296,824
2803.0648412280366,834
2804.8249266734088,826
2806.5846656801846,794
2808.344058551212,816
2810.1031055894246,835
2811.8618070978273,853
2813.6201633795085,845
2815.378174737636,829
2817.1358414754536,852
2818.893163896285,821
2820.6501423035334,850
2822.4067770006814,822
2824.1630682912883,858
2825.9190164789957,886
2827.6746218675207,872
2829.429884760661,840
2831.184805462294,846
2832.9393842763743,850
2834.693621506936,842
2836.4475174580916,835
2838.201072434034,822
2839.954286739034,802
2841.707160677441,821
2843.459694553685,814
2845.2118886722724,823
2846.96374333779,820
2848.7152588549034,836
2850.4664355283567,835
2852.217273662973,853
2853.9677735636546,794
2855.7179355353833,852
2857.4677598832186,830
2859.217246912299,824
2860.9663969278427,826
2862.715210235146,839
2864.4636871395846,837
2866.211827946614,815
2867.9596329617652,824
2869.7071024906536,865
2871.4542368389684,813
2873.20103631248,810
2874.947501217038,838
2876.6936318585695,779
2878.4394285430812,859
2880.1848915766604,860
2881.9300212654707,830
2883.6748179157553,834
2885.4192818338374,811
2887.1634133261173,812
2888.907212699077,817
2890.6506802592744,849
2892.393816313348,828
2894.1366211680142,815
2895.8790951300693,814
2897.621238506388,800
2899.363051603925,824
2901.1045347297118,851
2902.8456881908596,837
2904.58651229456,849
2906.327007348081,813
2908.067173658772,801
2909.8070115340597,843
2911.5465212814497,850
2913.285703208527,850
2915.0245576229563,814
2916.7630848324807,857
2918.5012851449196,840
2920.2391588681758,816
2921.976706310227,831
2923.7139277791334,847
2925.4508235830313,832
2927.187394030137,850
2928.923639428745,866
2930.6595600872306,858
2932.395156314046,895
2934.1304284177218,853
2935.8653767068713,844
2937.6000014901815,840
2939.3343030764227,835
2941.068281774442,797
2942.8019378931644,887
2944.5352717415976,824
2946.2682836288236,836
2948.0009738640065,898
2949.7333427563885,831
2951.465390615289,822
2953.1971177501086,814
2954.9285244703265,832
2956.6596110855,834
2958.3903779052657,811
2960.1208252393385,825
2961.8509533975125,838
2963.5807626896617,802
2965.3102534257378,819
2967.0394259157715,823
2968.768280469873,811
2970.496817398232,842
2972.2250370111146,823
2973.952939618869,799
2975.6805255319196,838
2977.4077950607707,860
2979.134748516006,839
2980.861386208289,862
2982.587708448359,843
2984.313715547037,814
2986.039407815222,832
2987.764785563891,846
2989.489849104102,792
2991.2145987469908,805
2992.9390348037705,857
2994.6631575857346,805
2996.3869674042576,828
2998.1104645707887,844
2999.83364939686,822
3001.5565221940783,821
3003.2790832741334,823
3005.0013329487924,804
3006.7232715298996,774
3008.4448993293804,824
3010.166216659239,824
3011.887223831558,843
3013.607921158498,787
3015.3283089522993,833
3017.0483875252826,794
3018.7681571898443,831
3020.4876182584626,843
3022.2067710436927,781
3023.9256158581707,861
3025.644153014609,803
3027.362382825801,821
3029.0803056046193,841
3030.797921664012,827
3032.5152313170106,815
3034.2322348767225,813
3035.9489326563353,816
3037.665324969115,834
3039.3814121284063,819
3041.097194447633,834
3042.812672240299,833
3044.5278458199855,857
3046.2427155003525,844
3047.9572815951406,841
3049.671544418167,808
3051.38550428333,838
3053.0991615046073,817
3054.812516396051,819
3056.5255692717974,784
3058.2383204460575,804
3059.9507702331257,805
3061.662918947372,823
3063.3747669032446,857
3065.0863144152736,823
3066.7975617980674,832
3068.508509366309,779
3070.219157434767,818
3071.9295063182844,848
3073.639556331785,822
3075.3493077902704,816
3077.058761008821,832
3078.7679163025964,827
3080.476773986837,812
3082.1853343768594,798
3083.89359778806,828
3085.6015645359153,785
3087.3092349359786,813
3089.016609303884,856
3090.7236879553434,820
3092.4304712061476,836
3094.136959372166,810
3095.843152769349,774
3097.5490517137237,785
3099.2546565213966,777
3100.959967508554,822
3102.66498499146,797
3104.3697092864577,835
3106.0741407099695,802
3107.778279578498,819
3109.482126208622,813
3111.1856809170004,804
3112.8889440203716,831
3114.5919158355528,847
3116.294596679439,841
3117.996986869006,828
3119.6990867213062,853
3121.4008965534726,788
3123.102416682717,821
3124.803647426329,801
3126.5045891016784,785
3128.205242026213,830
3129.90560651746,793
3131.605682893025,820
3133.3054714705922,817
3135.0049725679282,843
3136.7041865028714,839
3138.4031135933465,816
3140.101754157353,819
3141.800108512971,818
3143.498176978357,842
3145.1959598717494,805
3146.8934575114636,821
3148.5906702158954,814
3150.2875983035183,816
3151.9842420928853,771
3153.680601902627,805
3155.376678051456,806
3157.07247085816,766
3158.767980641609,802
3160.463207720748,778
3162.158152414606,791
3163.8528150422862,843
3165.5471959229726,793
3167.2412953759303,791
3168.9351137204976,802
3170.628651276098,786
3172.3219083622307,811
3174.014885298474,809
3175.707582404485,790
3177.4000000000005,811
3179.092138404835,811
3180.7839979388846,814
3182.47557892212,813
3184.166881674594,778
3185.8579065164386,809
3187.5486537678626,796
3189.2391237491547,787
3190.9293167806827,787
3192.6192331828934,842
3194.3088732763117,837
3195.998237381542,820
3197.687325819268,801
3199.376138910251,818
3201.064676975334,825
3202.7529403354347,813
3204.4409293115523,803
3206.1286442247647,797
3207.816085396229,822
3209.5032531471825,798
3211.190147798936,829
3212.8767696728846,797
3214.5631190905015,789
3216.2491963733373,823
3217.9350018430214,787
3219.6205358212637,771
3221.305798629851,782
3222.990790590651,773
3224.6755120256103,789
3226.359963256751,795
3228.0441446061795,816
3229.7280563960758,816
3231.411698948703,797
3233.0950725863995,818
3234.778177631587,819
3236.461014406761,803
3238.1435832345005,822
3239.8258844374595,825
3241.507918338374,818
3243.1896852600576,797
3244.8711855254023,783
3246.552419457381,823
3248.233387379042,751
3249.914089613516,821
3251.59452648401,828
3253.274698313813,816
3254.95460542629,816
3256.6342481448855,800
3258.313626793125,834
3259.9927416946084,814
3261.6715931730196,785
3263.3501815521176,779
3265.0285071557437,821
3266.706570307815,823
3268.3843713323286,802
3270.0619105533615,773
3271.739188295068,783
3273.4162048816834,818
3275.0929606375184,804
3276.769455886966,787
3278.445690954498,803
3280.1216661646613,827
3281.797381842087,801
3283.4728383114807,787
3285.1480358976296,761
3286.8229749253996,792
3288.4976557197333,819
3290.172078605655,850
3291.846243908266,780
3293.5201519527463,814
3295.193803064357,845
3296.8671975684374,773
3298.5403357904024,815
3300.21321805575,814
3301.8858446900567,845
3303.558216018975,780
3305.23033236824,851
3306.9021940636603,833
3308.57380143113,860
3310.2451547966184,834
3311.916254486174,789
3313.5871008259246,834
3315.2576941420766,863
3316.9280347609147,830
3318.5981230088046,776
3320.2679592121895,790
3321.9375436975924,803
3323.606876791612,832
3325.27595882093,768
3326.944790112305,775
3328.6133709925753,826
3330.2817017886573,793
3331.949782827547,786
3333.617614436319,808
3335.2851969421245,815
3336.952530672199,816
3338.619615953853,839
3340.286453114475,824
3341.9530424815357,808
3343.619384382583,785
3345.2854791452437,778
3346.951327097224,829
3348.6169285663073,798
3350.2822838803577,787
3351.947393367319,823
3353.61225735521,772
3355.2768761721345,808
3356.9412501462693,791
3358.605379605873,808
3360.2692648792827,814
3361.9329062949146,793
3363.596304181263,812
