CollectionTime,9/25/2024 11:50:20 AM
ExposureUsed,3
CalibratedSpectrum
-962.7078968117929,417
-959.9714848408522,480
-957.2358232597828,450
-954.5009119013725,485
-951.7667505983302,464
-949.0333391832855,462
-946.3006774887896,472
-943.5687653473143,474
-940.837602591253,489
-938.1071890529199,488
-935.3775245645503,460
-932.6486089583007,465
-929.9204420662485,483
-927.1930237203925,469
-924.4663537526524,467
-921.7404319948689,472
-919.0152582788041,467
-916.2908324361409,467
-913.5671542984834,487
-910.8442236973568,483
-908.1220404642074,470
-905.4006044304027,467
-902.679915427231,474
-899.959973285902,474
-897.2407778375464,458
-894.5223289132158,459
-891.8046263438832,474
-889.0876699604426,474
-886.3714595937089,461
-883.6559950744183,444
-880.9412762332282,451
-878.2273029007168,459
-875.5140749073835,477
-872.8015920836489,460
-870.0898542598545,487
-867.3788612662631,456
-864.6686129330585,485
-861.9591090903457,471
-859.2503495681506,472
-856.5423341964203,458
-853.8350628050229,464
-851.1285352237478,456
-848.4227512823054,465
-845.7177108103272,497
-843.0134136373656,487
-840.3098595928943,470
-837.6070485063082,492
-834.9049802069229,494
-832.2036545239757,481
-829.5030712866244,480
-826.8032303239481,484
-824.1041314649472,480
-821.4057745385428,459
-818.7081593735775,473
-816.0112857988148,480
-813.3151536429393,500
-810.6197627345566,493
-807.9251129021936,483
-805.2312039742981,471
-802.5380357792392,466
-799.8456081453069,486
-797.1539209007124,480
-794.462973873588,489
-791.772766891987,506
-789.083299783884,488
-786.3945723771743,491
-783.7065844996748,522
-781.0193359791231,487
-778.3328266431781,502
-775.6470563194197,503
-772.9620248353489,500
-770.2777320183878,471
-767.5941776958798,493
-764.9113616950891,495
-762.2292838432011,468
-759.5479439673222,470
-756.8673418944801,488
-754.1874774516235,502
-751.5083504656222,517
-748.8299607632671,482
-746.15230817127,502
-743.475392516264,502
-740.7992136248035,512
-738.1237713233636,508
-735.4490654383407,486
-732.7750957960521,498
-730.1018622227365,501
-727.4293645445534,496
-724.7576025875837,500
-722.0865761778291,489
-719.4162851412126,502
-716.7467293035781,527
-714.0779084906909,506
-711.409822528237,535
-708.7424712418238,494
-706.0758544569796,495
-703.4099719991541,517
-700.7448236937178,535
-698.0804093659622,509
-695.4167288411002,513
-692.7537819442656,512
-690.0915685005134,506
-687.4300883348199,520
-684.7693412720819,502
-682.1093271371178,537
-679.4500457546669,542
-676.7914969493897,510
-674.1336805458676,531
-671.4765963686034,514
-668.8202442420206,510
-666.1646239904642,501
-663.5097354382001,531
-660.8555784094151,546
-658.2021527282176,530
-655.5494582186366,529
-652.8974947046223,535
-650.2462620100463,549
-647.5957599587009,554
-644.9459883742998,525
-642.2969470804776,531
-639.6486359007902,542
-637.0010546587141,557
-634.3542031776476,550
-631.7080812809096,560
-629.0626887917401,555
-626.4180255333008,545
-623.7740913286734,543
-621.1308860008619,548
-618.4884093727904,531
-615.8466612673046,513
-613.2056415071715,526
-610.5653499150785,535
-607.9257863136347,572
-605.28695052537,576
-602.6488423727357,548
-600.0114616781036,563
-597.3748082637674,558
-594.7388819519412,576
-592.1036825647604,572
-589.4692099242818,564
-586.8354638524829,603
-584.2024441712624,594
-581.5701507024403,590
-578.9385832677575,598
-576.3077416888759,655
-573.6776257873787,583
-571.0482353847704,566
-568.4195703024757,538
-565.7916303618415,558
-563.164415384135,585
-560.5379251905453,560
-557.9121596021815,571
-555.2871184400748,594
-552.6628015251767,613
-550.0392086783606,572
-547.4163397204204,565
-544.794194472071,566
-542.1727727539491,605
-539.5520743866118,591
-536.9320991905377,621
-534.3128469861261,691
-531.6943175936979,651
-529.0765108334947,679
-526.4594265256793,741
-523.8430644903358,843
-521.2274245474689,949
-518.612506517005,988
-515.9983102187913,1009
-513.3848354725959,1016
-510.77208209810846,1159
-508.16004991493924,1221
-505.5487387426199,1365
-502.9381484006032,1284
-500.3282787082628,1228
-497.71912948489364,1167
-495.1107005497117,1048
-492.5029917218539,953
-489.8960028203786,814
-487.28973366426493,781
-484.68418407241325,720
-482.07935386364494,692
-479.47524285670266,719
-476.87185087025,671
-474.2691777228715,697
-471.66722323307334,736
-469.0659872192821,739
-466.4654694998459,740
-463.86566989303384,777
-461.26658821703614,711
-458.66822428996414,741
-456.07057792985,753
-453.4736489546475,718
-450.877437182231,712
-448.28194243039627,676
-445.68716451686,691
-443.09310325926003,674
-440.49975847515555,714
-437.9071299820263,719
-435.31521759727354,707
-432.72402113821954,685
-430.13354042210767,745
-427.5437752661022,735
-424.95472548728867,715
-422.36639090267386,696
-419.7787713291855,752
-417.1918665836721,712
-414.60567648290385,770
-412.0202008435715,730
-409.4354394822874,754
-406.8513922155845,773
-404.26805885991723,768
-401.685439231661,786
-399.103533147112,757
-396.522340422488,739
-393.9418608739278,749
-391.3620943174908,726
-388.7830405691583,767
-386.2046994448317,731
-383.6270707603344,670
-381.05015433141045,690
-378.473949973725,654
-375.8984575028645,599
-373.32367673433623,590
-370.74960748356875,555
-368.1762495659117,565
-365.60360279663576,533
-363.03166699093265,475
-360.4604419639154,493
-357.8899275306178,475
-355.32012350599507,461
-352.7510297049233,456
-350.1826459421999,447
-347.61497203254316,446
-345.04800779059235,449
-342.4817530309082,429
-339.91620756797226,415
-337.35137121618743,438
-334.7872437898774,432
-332.22382510328725,453
-329.66111497058273,447
-327.09911320585127,477
-324.53781962310075,459
-321.9772340362607,447
-319.4173562591816,440
-316.8581861056348,434
-314.2997233893127,455
-311.7419679238294,461
-309.1849195227194,447
-306.62857799943856,463
-304.0729431673641,464
-301.51801483979375,477
-298.963792829947,463
-296.41027695096386,473
-293.85746701590574,469
-291.3053628377552,461
-288.7539642294155,491
-286.2032710037115,488
-283.65328297338897,521
-281.1039999511146,513
-278.5554217494762,558
-276.007548180983,548
-273.4603790580651,534
-270.9139141930734,559
-268.3681533982807,550
-265.8230964858798,514
-263.27874326798565,532
-260.7350935566336,546
-258.1921471637804,596
-255.6499039013039,574
-253.10836358100266,538
-250.56752601459698,544
-248.02739101372765,559
-245.48795838995704,635
-242.94922795476816,584
-240.41119951956557,562
-237.8738728956746,599
-235.33724789434166,636
-232.80132432673452,592
-230.2661020039418,602
-227.73158073697357,568
-225.19776033676033,624
-222.66464061415422,725
-220.1322213799284,691
-217.60050244477725,605
-215.06948361931552,593
-212.53916471408013,643
-210.00954553952818,717
-207.48062590603843,664
-204.9524056239104,653
-202.4248845033651,665
-199.8980623545441,690
-197.37193898751036,669
-194.84651421224817,718
-192.32178783866232,656
-189.79775967657952,623
-187.27442953574644,681
-184.7517972258321,692
-182.2298625564256,675
-179.7086253370378,630
-177.18808537710026,635
-174.66824248596583,733
-172.14909647290835,777
-169.6306471471229,807
-167.11289431772548,726
-164.59583779375328,694
-162.07947738416453,818
-159.5638128978386,899
-157.04884414357605,990
-154.53457093009854,990
-152.02099306604828,855
-149.50811035998936,789
-146.99592262040665,796
-144.48442965570587,838
-141.97363127421409,959
-139.46352728417958,1095
-136.95411749377126,1061
-134.44540171107985,1027
-131.93737974411636,937
-129.43005140081357,899
-126.92341648902493,1055
-124.41747481652521,1245
-121.91222619101006,1672
-119.40767042009657,2337
-116.90380731132257,2718
-114.40063667214702,2716
-111.8981583099503,2580
-109.3963720320337,2306
-106.89527764561933,2315
-104.39487495785067,2463
-101.89516377579241,2668
-99.39614390642998,3405
-96.89781515667039,4683
-94.40017733334128,6610
-91.90323024319173,7565
-89.40697369289148,6518
-86.91140748903172,4299
-84.41653143812482,2936
-81.92234534660395,2972
-79.42884902082358,4457
-76.93604226705907,5954
-74.4439248915071,6400
-71.95249670028534,6247
-69.46175749943245,5874
-66.97170709490854,5702
-64.48234529259423,5791
-61.99367189829195,5036
-59.50568671772464,5279
-57.01838955653636,6796
-54.53178022029283,9841
-52.045858514480074,11668
-49.560624244506016,12228
-47.07607721569923,10126
-44.59221723330904,9474
-42.10904410250669,9534
-39.62655762838392,10978
-37.14475761595372,12026
-34.66364387015028,14099
-32.18321619582866,17195
-29.70347439776515,20234
-27.224418280657005,23280
-24.74604764912317,25663
-22.26836230770266,34482
-19.7913620608565,56642
-17.315046712966478,65041
-14.83941606833514,65041
-12.36446993118659,65041
-9.89020810566592,65041
-7.416630395839093,65041
-4.94373660569363,65041
-2.471526539137585,65041
-6.821210263296962E-13,65041
2.47084320796705,65041
4.941003281093458,65041
7.410480415786196,65041
9.879274808531363,65041
12.347386655893956,65041
14.814816154518212,65041
17.28156350112681,65041
19.74762889252179,65041
22.21301252558385,21274
24.67771459727237,4247
27.141735304626195,2949
29.605074844762612,3452
32.06773341487792,3296
34.52971121224755,2898
36.99100843422559,2330
39.45162527824516,2165
41.91156194181792,2112
44.370818622535126,1883
46.82939551806646,1654
49.287292826160524,1785
51.74451074464503,2038
54.201049471426245,2266
56.65690920448981,1633
59.112090141899785,1576
61.56659248179983,1733
64.02041642241159,1426
66.4735621620365,1391
68.92602989905402,1853
71.37781983192338,2120
73.82893215918205,1825
76.27936707944684,1469
78.72912479141326,1270
81.17820549385567,1225
83.62660938562783,1064
86.07433666566146,1071
88.5213875329681,1308
90.96776218663751,1276
93.41346082583925,1191
95.85848364982041,1129
98.30283085790859,1105
100.7465026495089,1096
103.18949922410604,1145
105.63182078126385,1167
108.07346752062438,1033
110.51443964190923,940
112.95473734491827,911
115.39436082953114,966
117.83331029570547,1084
120.27158594347827,1118
122.7091879729652,1057
125.1461165843615,1004
127.58237197794062,1038
130.01795435405518,1016
132.4528639131364,905
134.88710085569494,940
137.32066538231982,1058
139.75355769367923,877
142.1857779905207,866
144.61732647366978,901
147.04820334403132,844
149.47840880258934,916
151.90794305040674,972
154.33680628862487,960
156.76499871846443,998
159.19252054122433,1036
161.61937195828352,1113
164.04555317109896,1161
166.47106438120693,1345
168.89590579022217,1554
171.320077599839,1562
173.7435800118302,1522
176.16641322804742,1579
178.58857745042144,1741
181.01007288096173,1648
183.43089972175687,1641
185.85105817497413,1673
188.27054844285988,1727
190.6893707277394,1716
193.10752523201643,1834
195.5250121581745,1763
197.9418317087751,1772
200.3579840864594,1763
202.7734694939469,1814
205.18828813403627,1849
207.6024402096051,1989
210.01592592360964,1966
212.42874547908548,1908
214.84089907914665,1909
217.2523869269868,1900
219.66320922587727,1908
222.0733661791695,1941
224.48285799029293,1899
226.8916848627572,1910
229.29984700014882,2013
231.7073446061355,1987
234.11417788446204,1953
236.520347038953,1989
238.92585227351185,1910
241.33069379212054,2032
243.73487179884035,2008
246.1383864978112,1964
248.541238093252,1917
250.9434267894609,2020
253.34495279081432,2074
255.74581630176783,2038
258.1460175268563,1997
260.54555667069314,2005
262.9444339379703,2046
265.3426495334594,2009
267.7402036620107,1976
270.1370965285529,1976
272.53332833809407,2045
274.9288992957214,1907
277.32380960660055,1938
279.718059475976,1913
282.1116491091717,1915
284.5045787115897,1938
286.89684848871195,1938
289.2884586460981,1846
291.67940938938807,1883
294.0697009242996,1953
296.4593334566299,1913
298.84830719225477,1978
301.23662233712923,1849
303.6242790972866,1952
306.01127767884,1862
308.39761828798066,1888
310.78330113097934,1777
313.16832641418534,1767
315.5526943440269,1728
317.9364051270112,1796
320.3194589697242,1707
322.70185607883093,1742
325.0835966610754,1753
327.4646809232805,1768
329.8451090723478,1757
332.2248813152577,1658
334.6039978590701,1644
336.9824589109231,1665
339.36026467803447,1642
341.7374153677,1676
344.113911187295,1608
346.48975234427337,1719
348.8649390461686,1667
351.2394715005918,1657
353.61334991523415,1623
355.9865744978655,1674
358.35914545633375,1603
360.73106299856715,1679
363.10232733257146,1628
365.47293866643247,1620
367.84289720831396,1567
370.2122031664593,1593
372.5808567491905,1606
374.9488581649083,1582
377.31620762209275,1502
379.6829053293021,1604
382.0489514951745,1545
384.4143463284262,1521
386.7790900378528,1505
389.14318283232853,1538
391.50662492080653,1575
393.86941651231916,1580
396.23155781597745,1553
398.5930490409713,1545
400.9538903965696,1511
403.3140820921202,1488
405.6736243370498,1551
408.03251734086336,1544
410.3907613131465,1475
412.74835646356166,1494
415.10530300185144,1528
417.4616011378372,1543
419.81725108141893,1510
422.1722530425758,1586
424.5266072313656,1537
426.880313857925,1533
429.2333731324701,1514
431.58578526529516,1493
433.9375504667738,1497
436.2886689473588,1420
438.63914091758113,1450
440.9889665880513,1474
443.33814616945835,1491
445.68667987257015,1478
448.03456790823395,1449
450.3818104873759,1423
452.72840782100013,1455
455.07436012019105,1511
457.41966759611057,1499
459.7643304600007,1443
462.10834892318155,1464
464.4517231970525,1461
466.79445349309174,1448
469.1365400228566,1401
471.4779829979826,1403
473.81878263018564,1461
476.15893913125876,1454
478.4984527130747,1481
480.8373235875855,1525
483.17555196682144,1481
485.5131380628919,1586
487.8500820879857,1541
490.1863842543697,1609
492.52204477439034,1693
494.8570638604725,1768
497.1914417251204,1946
499.52517858091653,2135
501.85827464052306,2425
504.19073011668036,2813
506.5225452222086,2931
508.85372017000566,2937
511.18425517304956,3019
513.514150444396,3296
515.8434061971808,4042
518.1720226446176,4899
520.4999999999999,4794
522.8273384766991,4706
525.1540382881666,4186
527.480099647932,3733
529.8055227696037,3007
532.1303078668694,2204
534.454455153496,1849
536.777964843328,1648
539.1008371502907,1554
541.4230722883866,1534
543.744670471698,1474
546.0656319143858,1454
548.3859568306899,1461
550.7056454349294,1484
553.0246979415016,1477
555.3431145648834,1401
557.6608955196306,1432
559.978041020377,1445
562.2945512818363,1437
564.6104265188006,1421
566.9256669461412,1474
569.2402727788082,1408
571.5542442318302,1460
573.8675815203156,1456
576.1802848594508,1446
578.4923544645015,1466
580.8037905508126,1447
583.114593333807,1445
585.4247630289875,1532
587.7342998519354,1427
590.0432040183106,1449
592.3514757438526,1468
594.6591152443794,1412
596.9661227357875,1411
599.2724984340531,1408
601.578242555231,1390
603.8833553154542,1446
606.1878369309362,1420
608.4916876179676,1408
610.7949075929192,1462
613.0974970722403,1372
615.3994562724587,1429
617.7007854101818,1412
620.0014847020951,1426
622.3015543649641,1463
624.6009946156324,1475
626.8998056710224,1439
629.1979877481361,1499
631.4955410640538,1422
633.7924658359349,1418
636.0887622810175,1452
638.3844306166192,1434
640.6794710601358,1395
642.9738838290426,1404
645.2676691408932,1455
647.5608272133207,1474
649.853358264037,1443
652.1452625108324,1483
654.4365401715764,1444
656.7271914642178,1489
659.0172166067838,1491
661.3066158173809,1441
663.5953893141935,1482
665.8835373154867,1448
668.1710600396028,1490
670.4579577049639,1527
672.7442305300709,1460
675.0298787335033,1482
677.3149025339197,1487
679.599302150058,1483
681.8830778007342,1457
684.1662297048437,1538
686.4487580813608,1518
688.7306631493387,1451
691.0119451279091,1512
693.2926042362834,1473
695.5726406937516,1492
697.8520547196814,1491
700.1308465335215,1539
702.4090163547982,1456
704.6865644031171,1473
706.9634908981619,1499
709.2397960596965,1476
711.5154801075631,1498
713.7905432616823,1479
716.0649857420548,1548
718.3388077687592,1553
720.612009561953,1495
722.8845913418733,1503
725.1565533288352,1458
727.427895743234,1453
729.6986188055427,1453
731.9687227363137,1493
734.238207756178,1508
736.5070740858458,1514
738.7753219461066,1484
741.0429515578281,1478
743.3099631419569,1478
745.5763569195191,1428
747.8421331116193,1468
750.1072919394409,1457
752.3718336242467,1443
754.6357583873777,1544
756.8990664502545,1541
759.1617580343765,1482
761.423833361321,1499
763.6852926527457,1515
765.9461361303862,1475
768.206364016058,1541
770.4659765316536,1479
772.7249738991469,1467
774.9833563405886,1554
777.2411240781092,1523
779.4982773339183,1517
781.7548163303044,1537
784.010741289634,1507
786.2660524343538,1537
788.5207499869881,1547
790.7748341701416,1549
793.0283052064964,1483
795.2811633188143,1562
797.5334087299362,1539
799.7850416627813,1565
802.0360623403484,1497
804.2864709857143,1532
806.5362678220353,1547
808.7854530725468,1578
811.0340269605625,1574
813.2819897094754,1610
815.5293415427581,1545
817.77608268396,1545
820.0222133567116,1477
822.2677337847211,1493
824.5126441917765,1545
826.7569448017433,1562
829.0006358385675,1536
831.2437175262731,1464
833.4861900889629,1511
835.7280537508192,1537
837.9693087361026,1552
840.2099552691533,1512
842.4499935743896,1558
844.689423876309,1584
846.9282463994886,1502
849.1664613685833,1444
851.4040690083276,1534
853.6410695435349,1522
855.877463199097,1468
858.1132501999847,1557
860.3484307712487,1546
862.5830051380175,1514
864.8169735254988,1577
867.0503361589791,1541
869.2830932638243,1475
871.5152450654786,1565
873.7467917894654,1511
875.9777336613873,1568
878.2080709069252,1568
880.4378037518389,1503
882.666932421968,1595
884.8954571432301,1526
887.1233781416219,1544
889.3506956432192,1565
891.5774098741766,1467
893.803521060728,1511
896.0290294291852,1496
898.2539352059397,1500
900.4782386174619,1492
902.7019398903011,1534
904.925039251085,1574
907.147536926521,1558
909.3694331433943,1561
911.59072812857,1562
913.8114221089921,1537
916.0315153116827,1498
918.2510079637437,1524
920.4699002923547,1537
922.6881925247761,1539
924.905884888345,1483
927.1229776104793,1495
929.3394709186747,1512
931.555365040506,1517
933.7706602036275,1508
935.9853566357709,1499
938.1994545647489,1496
940.4129542184515,1549
942.6258558248488,1566
944.8381596119883,1571
947.0498658079974,1580
949.2609746410825,1639
951.4714863395287,1552
953.6814011316998,1532
955.8907192460387,1488
958.0994409110671,1512
960.3075663553858,1489
962.5150958076741,1548
964.7220294966913,1559
966.928367651274,1562
969.1341105003388,1532
971.3392582728806,1501
973.5438111979742,1513
975.747769504772,1533
977.9511334225061,1539
980.153903180487,1518
982.3560790081052,1557
984.5576611348289,1479
986.7586497902058,1438
988.9590452038618,1537
991.158847605503,1446
993.3580572249133,1411
995.5566742919558,1382
997.7546990365728,1404
999.952131688785,1353
1002.1489724786926,1378
1004.3452216364743,1306
1006.5408793923874,1326
1008.7359459767691,1287
1010.9304216200343,1380
1013.1243065526781,1312
1015.3176010052733,1319
1017.510305208472,1293
1019.7024193930064,1257
1021.8939437896848,1281
1024.0848786293977,1254
1026.2752241431122,1292
1028.4649805618747,1263
1030.6541481168115,1297
1032.842727039127,1292
1035.0307175601051,1240
1037.2181199111074,1256
1039.4049343235752,1250
1041.591161029029,1260
1043.7768002590683,1262
1045.9618522453698,1238
1048.1463172196918,1284
1050.3301954138697,1218
1052.513487059818,1225
1054.69619238953,1253
1056.8783116350783,1263
1059.0598450286152,1263
1061.2407928023704,1253
1063.4211551886528,1238
1065.6009324198508,1227
1067.780124728432,1243
1069.9587323469414,1260
1072.1367555080046,1223
1074.314194444325,1218
1076.4910493886855,1252
1078.667320573947,1243
1080.843008233051,1192
1083.0181125990161,1219
1085.1926339049414,1193
1087.3665723840027,1231
1089.5399282694575,1221
1091.7127017946405,1214
1093.8848931929647,1179
1096.0565026979243,1213
1098.2275305430899,1224
1100.3979769621128,1202
1102.567842188722,1214
1104.737126456726,1169
1106.9058300000124,1128
1109.0739530525475,1166
1111.2414958483764,1170
1113.4084586216231,1211
1115.5748416064907,1147
1117.7406450372605,1168
1119.9058691482942,1192
1122.0705141740304,1205
1124.2345803489884,1176
1126.3980679077658,1199
1128.5609770850388,1200
1130.7233081155623,1134
1132.8850612341707,1208
1135.0462366757774,1177
1137.2068346753745,1213
1139.3668554680326,1163
1141.526299288901,1220
1143.68516637321,1205
1145.8434569562655,1149
1148.001171273455,1164
1150.158309560244,1121
1152.3148720521767,1138
1154.470858984876,1138
1156.626270594044,1191
1158.7811071154629,1182
1160.9353687849912,1192
1163.089055838569,1198
1165.242168512213,1148
1167.3947070420209,1148
1169.5466716641677,1170
1171.6980626149075,1181
1173.8488801305748,1150
1175.9991244475814,1182
1178.1487958024186,1166
1180.2978944316555,1157
1182.4464205719428,1194
1184.5943744600072,1153
1186.7417563326567,1201
1188.8885664267755,1165
1191.0348049793297,1130
1193.1804722273619,1189
1195.325568407995,1192
1197.4700937584303,1175
1199.614048515948,1163
1201.7574329179074,1183
1203.900247201746,1203
1206.042491604982,1145
1208.1841663652099,1171
1210.3252717201053,1172
1212.465807907422,1172
1214.6057751649923,1191
1216.7451737307279,1206
1218.8840038426192,1164
1221.0222657387353,1183
1223.1599596572241,1209
1225.2970858363137,1196
1227.4336445143094,1248
1229.5696359295966,1206
1231.705060320639,1165
1233.8399179259786,1173
1235.9742089842384,1202
1238.107933734118,1227
1240.2410924143974,1242
1242.373685263935,1213
1244.5057125216676,1195
1246.6371744266116,1261
1248.7680712178621,1257
1250.898403134593,1223
1253.028170416058,1227
1255.1573733015875,1188
1257.2860120305932,1197
1259.4140868425648,1238
1261.54159797707,1213
1263.6685456737569,1236
1265.7949301723515,1290
1267.9207517126597,1234
1270.046010534565,1329
1272.1707068780306,1315
1274.2948409830983,1287
1276.4184130898889,1298
1278.541423438603,1302
1280.6638722695184,1303
1282.785759822993,1297
1284.9070863394636,1351
1287.0278520594447,1366
1289.1480572235314,1293
1291.2677020723963,1343
1293.3867868467923,1299
1295.5053117875495,1352
1297.623277135579,1374
1299.740683131868,1360
1301.8575300174857,1425
1303.973818033578,1417
1306.0895474213703,1389
1308.2047184221678,1492
1310.3193312773528,1465
1312.4333862283888,1402
1314.5468835168163,1487
1316.659823384255,1454
1318.7722060724045,1435
1320.8840318230418,1456
1322.9953008780249,1431
1325.1060134792888,1432
1327.2161698688478,1440
1329.3257702887959,1477
1331.4348149813054,1477
1333.5433041886276,1481
1335.6512381530933,1508
1337.7586171171101,1435
1339.8654413231675,1476
1341.9717110138317,1436
1344.0774264317488,1453
1346.1825878196432,1452
1348.2871954203192,1425
1350.3912494766587,1424
1352.4947502316231,1423
1354.5976979282532,1361
1356.7000928096686,1341
1358.8019351190665,1410
1360.9032250997243,1372
1363.0039629949988,1374
1365.1041490483235,1353
1367.2037835032133,1350
1369.3028666032606,1327
1371.401398592137,1344
1373.4993797135926,1351
1375.5968102114575,1357
1377.6936903296396,1285
1379.7900203121262,1297
1381.8858004029835,1263
1383.9810308463561,1372
1386.075711886469,1328
1388.1698437676241,1345
1390.2634267342032,1343
1392.356461030667,1298
1394.4489469015557,1281
1396.5408845914872,1325
1398.6322743451592,1314
1400.7231164073469,1257
1402.813411022907,1371
1404.903158436773,1285
1406.9923588939578,1281
1409.0810126395531,1348
1411.1691199187303,1322
1413.2566809767386,1298
1415.343696058907,1364
1417.4301654106425,1298
1419.5160892774315,1353
1421.6014679048399,1333
1423.6863015385125,1334
1425.7705904241707,1309
1427.8543348076178,1287
1429.9375349347342,1325
1432.0201910514802,1301
1434.102303403894,1328
1436.1838722380944,1300
1438.2648978002767,1323
1440.3453803367174,1276
1442.4253200937692,1277
1444.5047173178677,1311
1446.5835722555234,1319
1448.6618851533285,1296
1450.739656257952,1314
1452.8168858161434,1312
1454.8935740747306,1293
1456.96972128062,1360
1459.045327680797,1367
1461.120393522327,1358
1463.1949190523528,1357
1465.2689045180973,1357
1467.3423501668608,1409
1469.415256246024,1424
1471.4876230030463,1389
1473.559450685465,1396
1475.6307395408976,1420
1477.7014898170391,1439
1479.771701761665,1455
1481.8413756226287,1455
1483.9105116478618,1466
1485.9791100853772,1454
1488.0471711832643,1446
1490.1146951896926,1502
1492.1816823529098,1451
1494.2481329212433,1513
1496.3140471430984,1458
1498.3794252669609,1523
1500.4442675413939,1551
1502.5085742150404,1512
1504.572345536622,1485
1506.6355817549388,1468
1508.6982831188702,1501
1510.7604498773744,1505
1512.8220822794883,1510
1514.8831805743293,1527
1516.9437450110909,1596
1519.003775839048,1567
1521.0632733075522,1557
1523.1222376660367,1615
1525.1806691640113,1622
1527.2385680510652,1558
1529.2959345768668,1593
1531.3527689911643,1639
1533.4090715437833,1680
1535.4648424846291,1663
1537.5200820636855,1645
1539.5747905310159,1717
1541.6289681367616,1731
1543.6826151311434,1707
1545.7357317644614,1800
1547.7883182870937,1771
1549.8403749494987,1759
1551.8919020022113,1884
1553.9428996958477,1997
1555.9933682811015,1922
1558.0433080087469,1912
1560.0927191296346,2014
1562.1416018946961,1925
1564.1899565549415,1903
1566.2377833614592,2002
1568.2850825654164,2068
1570.3318544180606,2010
1572.3780991707158,2032
1574.423817074788,1924
1576.4690083817595,1899
1578.5136733431923,1924
1580.5578122107272,1883
1582.601425236085,1839
1584.6445126710646,1766
1586.6870747675434,1749
1588.7291117774776,1692
1590.7706239529034,1731
1592.8116115459347,1618
1594.8520748087658,1631
1596.8920139936686,1607
1598.9314293529933,1599
1600.9703211391711,1652
1603.008689604711,1614
1605.0465350022005,1514
1607.0838575843068,1495
1609.1206576037753,1477
1611.1569353134305,1443
1613.1926909661765,1398
1615.2279248149953,1326
1617.2626371129481,1388
1619.2968281131757,1351
1621.3304980688963,1338
1623.3636472334088,1294
1625.39627586009,1290
1627.428384202396,1329
1629.459972513861,1295
1631.4910410480993,1303
1633.5215900588028,1229
1635.551619799744,1260
1637.5811305247717,1277
1639.6101224878166,1225
1641.6385959428862,1248
1643.6665511440683,1211
1645.693988345528,1218
1647.7209078015112,1221
1649.7473097663405,1178
1651.7731944944203,1227
1653.7985622402307,1204
1655.823413258333,1246
1657.847747803366,1251
1659.8715661300494,1252
1661.8948684931793,1178
1663.9176551476316,1196
1665.9399263483624,1213
1667.9616823504057,1145
1669.982923408873,1147
1672.0036497789574,1163
1674.0238617159293,1140
1676.043559475138,1184
1678.0627433120121,1123
1680.081413482059,1182
1682.0995702408654,1119
1684.117213844096,1197
1686.134344547495,1198
1688.1509626068864,1135
1690.1670682781705,1142
1692.182661817329,1163
1694.1977434804217,1203
1696.2123135235875,1151
1698.226372203043,1153
1700.2399197750851,1164
1702.2529564960905,1162
1704.2654826225112,1221
1706.277498410882,1166
1708.2890041178139,1183
1710.2999999999988,1159
1712.3104863142066,1155
1714.3204633172854,1165
1716.329931266163,1222
1718.3388904178469,1196
1720.3473410294214,1167
1722.3552833580516,1160
1724.3627176609807,1150
1726.3696441955308,1167
1728.3760632191033,1167
1730.3819749891782,1125
1732.3873797633146,1136
1734.3922777991502,1138
1736.3966693544012,1138
1738.4005546868639,1178
1740.4039340544127,1128
1742.406807715001,1138
1744.4091759266616,1121
1746.4110389475054,1156
1748.4123970357223,1193
1750.413250449582,1158
1752.4135994474318,1116
1754.4134442876993,1121
1756.4127852288902,1117
1758.4116225295893,1155
1760.4099564484595,1160
1762.407787244244,1191
1764.405115175764,1186
1766.4019405019203,1154
1768.3982634816916,1131
1770.3940843741357,1114
1772.3894034383907,1078
1774.3842209336717,1169
1776.378537119274,1153
1778.372352254571,1153
1780.3656665990156,1126
1782.3584804121397,1130
1784.3507939535534,1120
1786.3426074829463,1174
1788.3339212600863,1145
1790.3247355448211,1125
1792.3150505970766,1176
1794.3048666768573,1157
1796.2941840442477,1164
1798.2830029594106,1109
1800.2713236825884,1172
1802.2591464741004,1128
1804.2464715943465,1090
1806.2332993038058,1171
1808.2196298630352,1149
1810.2054635326708,1152
1812.190800573428,1112
1814.175641246101,1074
1816.1599858115628,1096
1818.1438345307652,1116
1820.127187664738,1182
1822.1100454745924,1129
1824.092408221516,1149
1826.0742761667766,1121
1828.055649571721,1130
1830.0365286977735,1124
1832.0169138064398,1082
1833.9968051593014,1107
1835.9762030180214,1068
1837.9551076443408,1134
1839.9335193000788,1116
1841.9114382471344,1088
1843.888864747485,1138
1845.8657990631878,1087
1847.842241456378,1129
1849.8181921892697,1123
1851.7936515241558,1159
1853.7686197234098,1139
1855.7430970494815,1152
1857.7170837649014,1146
1859.6905801322787,1140
1861.6635864143004,1110
1863.6361028737338,1143
1865.608129773424,1077
1867.5796673762961,1104
1869.5507159453537,1133
1871.521275743678,1160
1873.4913470344313,1113
1875.4609300808534,1140
1877.4300251462632,1145
1879.3986324940588,1133
1881.366752387717,1131
1883.3343850907936,1143
1885.3015308669228,1136
1887.268189979819,1125
1889.2343626932739,1158
1891.2000492711595,1105
1893.1652499774254,1195
1895.1299650761011,1158
1897.0941948312952,1176
1899.0579395071945,1148
1901.0211993680641,1146
1902.98397467825,1188
1904.9462657021745,1120
1906.9080727043415,1116
1908.869395949332,1226
1910.8302357018065,1139
1912.790592226504,1151
1914.7504657882428,1118
1916.7098566519212,1113
1918.6687650825133,1125
1920.6271913450764,1101
1922.5851357047422,1135
1924.5425984267245,1148
1926.499579776314,1148
1928.4560800188833,1159
1930.4120994198802,1168
1932.367638244833,1136
1934.32269675935,1105
1936.2772752291175,1142
1938.231373919899,1090
1940.1849930975404,1150
1942.1381330279637,1138
1944.0907939771696,1105
1946.0429762112412,1137
1947.9946799963363,1080
1949.9459055986945,1129
1951.896653284633,1086
1953.8469233205478,1149
1955.7967159729142,1130
1957.7460315082863,1105
1959.6948701932974,1106
1961.6432322946594,1087
1963.5911180791632,1081
1965.5385278136787,1109
1967.4854617651545,1109
1969.4319202006182,1081
1971.377903387176,1077
1973.3234115920136,1152
1975.268445082395,1101
1977.2130041256642,1120
1979.1570889892423,1117
1981.1006999406304,1076
1983.04383724741,1060
1984.986501177238,1158
1986.928691997853,1067
1988.8704099770712,1142
1990.811655382789,1134
1992.7524284829801,1096
1994.692729545698,1102
1996.6325588390755,1103
1998.5719166313224,1086
2000.5108031907307,1097
2002.4492187856677,1068
2004.387163684583,1121
2006.3246381560011,1080
2008.2616424685298,1101
2010.1981768908527,1110
2012.1342416917332,1105
2014.069837140014,1085
2016.0049635046162,1105
2017.9396210545406,1118
2019.8738100588666,1111
2021.8075307867502,1109
2023.740783507431,1108
2025.6735684902228,1111
2027.6058860045214,1158
2029.5377363198004,1121
2031.4691197056118,1109
2033.4000364315875,1094
2035.3304867674374,1122
2037.260470982952,1083
2039.189989347998,1098
2041.1190421325232,1122
2043.047629606554,1077
2044.9757520401945,1118
2046.9034097036288,1113
2048.8306028671195,1140
2050.7573318010086,1084
2052.683596775716,1098
2054.609398061742,1138
2056.5347359296647,1089
2058.4596106501403,1120
2060.384022493906,1084
2062.3079717317764,1071
2064.231458634646,1114
2066.1544834734873,1106
2068.077046519352,1045
2069.99914804337,1133
2071.9207883167524,1039
2073.8419676107865,1129
2075.7626861968406,1096
2077.6829443463607,1130
2079.6027423308715,1091
2081.522080421977,1084
2083.440958891362,1129
2085.359378010786,1083
2087.2773380520907,1097
2089.194839287196,1120
2091.111881988101,1109
2093.0284664268825,1142
2094.9445928756973,1075
2096.86026160678,1134
2098.775472892446,1141
2100.690227005088,1105
2102.604524217178,1131
2104.5183648012676,1036
2106.431749029985,1116
2108.34467717604,1150
2110.2571495122206,1125
2112.169166311393,1115
2114.080727846503,1130
2115.9918343905747,1120
2117.902486216711,1123
2119.8126835980956,1114
2121.722426807987,1132
2123.6317161197285,1092
2125.5405518067364,1127
2127.448934142509,1077
2129.356863400624,1116
2131.264339854737,1123
2133.1713637785815,1113
2135.077935445972,1154
2136.9840551308002,1169
2138.889723107037,1109
2140.7949396487334,1093
2142.699705030018,1159
2144.6040195250994,1141
2146.507883408264,1136
2148.4112969538774,1053
2150.3142604363848,1126
2152.2167741303097,1148
2154.1188383102535,1090
2156.0204532508997,1149
2157.9216192270064,1146
2159.822336513414,1122
2161.7226053850413,1122
2163.622426116884,1111
2165.5217989840185,1141
2167.4207242616,1111
2169.319202224862,1091
2171.2172331491165,1102
2173.1148173097563,1090
2175.0119549822507,1107
2176.90864644215,1103
2178.8048919650823,1134
2180.7006918267534,1112
2182.596046302952,1165
2184.4909556695407,1101
2186.3854202024645,1098
2188.279440177746,1136
2190.173015871487,1076
2192.066147559868,1149
2193.958835519149,1176
2195.851080025667,1086
2197.7428813558417,1097
2199.6342397861667,1157
2201.5251555932186,1122
2203.415629053651,1135
2205.3056604441986,1126
2207.19525004167,1132
2209.084398122958,1162
2210.9731049650327,1173
2212.861370844941,1162
2214.749196039812,1141
2216.636580826851,1113
2218.523525483344,1152
2220.410030286655,1126
2222.296095514226,1084
2224.1817214435805,1117
2226.066908352319,1148
2227.951656518121,1136
2229.835966218746,1087
2231.71983773203,1153
2233.6032713358913,1128
2235.486267308324,1165
2237.3688259274036,1150
2239.2509474712824,1122
2241.132632218193,1141
2243.013880446447,1145
2244.8946924344323,1141
2246.7750684606203,1148
2248.6550088035574,1149
2250.534513741871,1153
2252.413583554265,1143
2254.292218519526,1143
2256.170418916517,1146
2258.0481850241786,1116
2259.925517121534,1135
2261.8024154876825,1102
2263.678880401803,1123
2265.5549121431536,1168
2267.430510991071,1120
2269.305677224971,1134
2271.180411124348,1101
2273.0547129687766,1174
2274.9285830379076,1127
2276.8020216114737,1095
2278.6750289692845,1126
2280.5476053912294,1180
2282.4197511572766,1173
2284.2914665474727,1167
2286.162751841943,1129
2288.0336073208937,1160
2289.904033264608,1140
2291.774029953448,1097
2293.6435976678554,1152
2295.5127366883517,1153
2297.381447295534,1126
2299.2497297700825,1128
2301.1175843927526,1132
2302.9850114443825,1103
2304.852011205885,1083
2306.7185839582553,1048
2308.5847299825664,1068
2310.4504495599676,1053
2312.3157429716925,1049
2314.1806104990483,1082
2316.0450524234247,1067
2317.9090690262888,1062
2319.772660589186,1093
2321.635827393742,1076
2323.498569721661,1059
2325.3608878547248,1044
2327.2227820747967,1045
2329.0842526638157,1003
2330.945299903803,1062
2332.805924076857,1098
2334.6661254651535,1102
2336.525904350951,1047
2338.3852610165827,1007
2340.244195744464,1044
2342.102708817088,1086
2343.9608005170253,1074
2345.8184711269287,1056
2347.675720929526,1071
2349.532550207628,1054
2351.38895924412,1059
2353.24494832197,1098
2355.100517724223,1052
2356.955667734004,1059
2358.810398634514,1043
2360.664710709037,1060
2362.5186042409337,1093
2364.3720795136437,1036
2366.225136810686,1084
2368.0777764156583,1047
2369.929998612237,1091
2371.7818036841777,1061
2373.633191915315,1076
2375.484163589562,1083
2377.3347189909114,1091
2379.184858403434,1093
2381.03458211128,1082
2382.8838903986775,1123
2384.732783549936,1096
2386.5812618494406,1037
2388.4293255816588,1070
2390.2769750311327,1097
2392.1242104824883,1081
2393.971032220427,1111
2395.8174405297295,1089
2397.6634356952563,1104
2399.509018001947,1057
2401.3541877348193,1087
2403.1989451789705,1069
2405.043290619576,1095
2406.8872243418905,1066
2408.730746631247,1091
2410.5738577730594,1062
2412.4165580528183,1079
2414.258847756095,1042
2416.100727168537,1075
2417.9421965758734,1116
2419.783256263912,1106
2421.623906518538,1101
2423.4641476257157,1083
2425.303979871491,1110
2427.143403541984,1036
2428.9824189233977,1084
2430.821026302012,1075
2432.6592259641866,1068
2434.497018196361,1084
2436.33440328505,1094
2438.171381516851,1071
2440.00795317844,1064
2441.844118556569,1067
2443.6798779380724,1086
2445.5152316098606,1109
2447.3501798589255,1171
2449.1847229723357,1112
2451.0188612372403,1077
2452.8525949408663,1068
2454.6859243705203,1079
2456.518849813587,1063
2458.3513715575314,1069
2460.183489889895,1058
2462.015205098301,1117
2463.8465174704493,1090
2465.67742729412,1072
2467.5079348571717,1095
2469.338040447542,1075
2471.1677443532476,1087
2472.9970468623833,1087
2474.825948263123,1109
2476.6544488437207,1070
2478.482548892508,1071
2480.310248697896,1096
2482.137548548374,1077
2483.9644487325118,1057
2485.790949538956,1117
2487.617051256433,1070
2489.44275417375,1136
2491.26805857979,1099
2493.0929647635157,1122
2494.917473013971,1121
2496.741583620276,1077
2498.5652968716304,1087
2500.3886130573137,1142
2502.2115324666834,1089
2504.0340553891765,1121
2505.856182114308,1116
2507.6779129316733,1110
2509.499248130945,1111
2511.3201880018764,1080
2513.140732834298,1076
2514.9608829181198,1103
2516.780638543331,1142
2518.6,1111
2520.418967578273,1127
2522.237541568376,1119
2524.0557222606144,1148
2525.8735099453706,1108
2527.6909049131086,1101
2529.507907454368,1095
2531.32451785977,1118
2533.140736420014,1116
2534.9565634258774,1150
2536.771999168218,1133
2538.5870439379714,1193
2540.4016980261526,1165
2542.2159617238544,1131
2544.02983532225,1139
2545.8433191125914,1171
2547.656413386209,1167
2549.4691184345115,1161
2551.2814345489874,1094
2553.093362021204,1156
2554.904901142808,1185
2556.716052205523,1157
2558.526815501153,1142
2560.3371913215824,1181
2562.147179958771,1185
2563.956781704761,1163
2565.7659968516705,1197
2567.5748256916986,1216
2569.3832685171224,1175
2571.1913256202984,1200
2572.9989972936614,1203
2574.806283829725,1197
2576.613185521084,1168
2578.4197026604074,1164
2580.2258355404483,1224
2582.031584454035,1208
2583.836949694077,1205
2585.6419315535613,1243
2587.4465303255533,1205
2589.2507463032002,1262
2591.0545797797245,1219
2592.8580310484303,1210
2594.6611004026995,1251
2596.463788135992,1210
2598.266094541849,1223
2600.0680199138874,1226
2601.869564545807,1224
2603.670728731383,1193
2605.4715127644704,1175
2607.2719169390048,1197
2609.071941548998,1266
2610.8715868885433,1192
2612.670853251811,1217
2614.469740933052,1194
2616.268250226594,1212
2618.0663814268455,1228
2619.864134828292,1160
2621.6615107255006,1211
2623.458509413115,1197
2625.2551311858597,1239
2627.0513763385347,1210
2628.8472451660223,1206
2630.6427379632833,1143
2632.4378550253564,1236
2634.232596647359,1159
2636.026963124488,1180
2637.8209547520187,1226
2639.6145718253065,1168
2641.407814639785,1212
2643.200683490966,1172
2644.9931786744414,1168
2646.7853004858807,1179
2648.577049221034,1189
2650.3684251757277,1255
2652.1594286458712,1171
2653.9500599274484,1192
2655.740319316525,1160
2657.5302071092437,1144
2659.3197236018286,1218
2661.10886909058,1154
2662.8976438718782,1185
2664.686048242183,1162
2666.4740824980327,1143
2668.2617469360443,1177
2670.0490418529134,1186
2671.8359675454153,1177
2673.622524310403,1153
2675.408712444811,1161
2677.1945322456495,1125
2678.979984010009,1156
2680.76506803506,1123
2682.5497846180497,1106
2684.334134056306,1096
2686.1181166472343,1122
2687.9017326883213,1105
2689.6849824771293,1106
2691.4678663113013,1131
2693.2503844885596,1163
2695.032537306705,1056
2696.8143250636167,1138
2698.5957480572542,1129
2700.3768065856534,1118
2702.1575009469316,1070
2703.937831439283,1077
2705.717798360982,1071
2707.4974020103837,1088
2709.276642685917,1088
2711.055520686095,1086
2712.834036309506,1133
2714.612189854819,1076
2716.389981620782,1085
2718.1674119062204,1058
2719.944481010041,1096
2721.721189231226,1051
2723.4975368688415,1055
2725.273524222027,1061
2727.0491515900053,1056
2728.824419272075,1072
2730.5993275676146,1055
2732.3738767760838,1060
2734.148067197016,1058
2735.921899130031,1100
2737.6953728748194,1058
2739.468488731156,1097
2741.2412469988926,1071
2743.0136479779617,1078
2744.785691968372,1086
2746.5573792702116,1099
2748.3287101836504,1078
2750.099685008934,1070
2751.870304046388,1103
2753.640567596418,1016
2755.4104759595057,1038
2757.1800294362156,1041
2758.949228327187,1023
2760.7180729331412,1048
2762.486563554877,1076
2764.254700493272,1061
2766.022484049284,1013
2767.789914523947,1045
2769.5569922183786,1039
2771.3237174337705,1091
2773.090090471394,1049
2774.8561116326036,1070
2776.6217812188274,1054
2778.3870995315756,1000
2780.1520668724356,1036
2781.9166835430747,1073
2783.6809498452394,1058
2785.444866080754,1082
2787.2084325515225,1066
2788.971649559527,1066
2790.73451740683,1095
2792.4970363955713,1056
2794.2592068279705,1017
2796.0210290063264,1055
2797.7825032330147,1068
2799.543629810493,1049
2801.304409041296,1031
2803.0648412280366,1078
2804.8249266734088,1068
2806.5846656801846,1088
2808.344058551212,1064
2810.1031055894246,1032
2811.8618070978273,1060
2813.6201633795085,1071
2815.378174737636,1081
2817.1358414754536,1098
2818.893163896285,1067
2820.6501423035334,1011
2822.4067770006814,1080
2824.1630682912883,1045
2825.9190164789957,1081
2827.6746218675207,1065
2829.429884760661,1033
2831.184805462294,1029
2832.9393842763743,1100
2834.693621506936,1036
2836.4475174580916,1006
2838.201072434034,1034
2839.954286739034,1042
2841.707160677441,1066
2843.459694553685,1047
2845.2118886722724,1081
2846.96374333779,1032
2848.7152588549034,1051
2850.4664355283567,1080
2852.217273662973,1046
2853.9677735636546,1082
2855.7179355353833,1077
2857.4677598832186,1070
2859.217246912299,1051
2860.9663969278427,1035
2862.715210235146,1063
2864.4636871395846,1027
2866.211827946614,1050
2867.9596329617652,1014
2869.7071024906536,1067
2871.4542368389684,1058
2873.20103631248,1037
2874.947501217038,1052
2876.6936318585695,1050
2878.4394285430812,1049
2880.1848915766604,1082
2881.9300212654707,1046
2883.6748179157553,1071
2885.4192818338374,1065
2887.1634133261173,1057
2888.907212699077,1085
2890.6506802592744,1124
2892.393816313348,1067
2894.1366211680142,1052
2895.8790951300693,1082
2897.621238506388,1007
2899.363051603925,1045
2901.1045347297118,1027
2902.8456881908596,1080
2904.58651229456,1112
2906.327007348081,1097
2908.067173658772,1010
2909.8070115340597,1081
2911.5465212814497,1045
2913.285703208527,1038
2915.0245576229563,1074
2916.7630848324807,1080
2918.5012851449196,1077
2920.2391588681758,1074
2921.976706310227,1037
2923.7139277791334,1099
2925.4508235830313,1113
2927.187394030137,1061
2928.923639428745,1023
2930.6595600872306,1056
2932.395156314046,1088
2934.1304284177218,1065
2935.8653767068713,1079
2937.6000014901815,1025
2939.3343030764227,1026
2941.068281774442,1034
2942.8019378931644,1025
2944.5352717415976,1045
2946.2682836288236,1121
2948.0009738640065,1043
2949.7333427563885,1063
2951.465390615289,1072
2953.1971177501086,1071
2954.9285244703265,1085
2956.6596110855,1053
2958.3903779052657,1058
2960.1208252393385,1019
2961.8509533975125,1066
2963.5807626896617,1073
2965.3102534257378,1056
2967.0394259157715,1033
2968.768280469873,1040
2970.496817398232,1042
2972.2250370111146,1075
2973.952939618869,1044
2975.6805255319196,1062
2977.4077950607707,1074
2979.134748516006,1070
2980.861386208289,1089
2982.587708448359,1058
2984.313715547037,1035
2986.039407815222,1052
2987.764785563891,1005
2989.489849104102,1030
2991.2145987469908,992
2992.9390348037705,1023
2994.6631575857346,1073
2996.3869674042576,1047
2998.1104645707887,1065
2999.83364939686,1062
3001.5565221940783,1048
3003.2790832741334,1003
3005.0013329487924,986
3006.7232715298996,1025
3008.4448993293804,1061
3010.166216659239,1054
3011.887223831558,1013
3013.607921158498,1029
3015.3283089522993,1069
3017.0483875252826,1021
3018.7681571898443,1060
3020.4876182584626,1061
3022.2067710436927,1008
3023.9256158581707,988
3025.644153014609,1029
3027.362382825801,1061
3029.0803056046193,1042
3030.797921664012,1020
3032.5152313170106,1028
3034.2322348767225,1037
3035.9489326563353,1043
3037.665324969115,1017
3039.3814121284063,1038
3041.097194447633,1066
3042.812672240299,1032
3044.5278458199855,1069
3046.2427155003525,1011
3047.9572815951406,1065
3049.671544418167,1084
3051.38550428333,1024
3053.0991615046073,1008
3054.812516396051,1030
3056.5255692717974,1021
3058.2383204460575,1016
3059.9507702331257,1062
3061.662918947372,1057
3063.3747669032446,1055
3065.0863144152736,1088
3066.7975617980674,1032
3068.508509366309,1033
3070.219157434767,1037
3071.9295063182844,1023
3073.639556331785,1012
3075.3493077902704,1035
3077.058761008821,990
3078.7679163025964,1013
3080.476773986837,1072
3082.1853343768594,1032
3083.89359778806,1026
3085.6015645359153,1034
3087.3092349359786,1014
3089.016609303884,1036
3090.7236879553434,1072
3092.4304712061476,1031
3094.136959372166,1081
3095.843152769349,972
3097.5490517137237,995
3099.2546565213966,987
3100.959967508554,1011
3102.66498499146,1034
3104.3697092864577,1042
3106.0741407099695,1045
3107.778279578498,1061
3109.482126208622,1039
3111.1856809170004,1048
3112.8889440203716,1040
3114.5919158355528,1035
3116.294596679439,1030
3117.996986869006,1074
3119.6990867213062,1053
3121.4008965534726,1042
3123.102416682717,1036
3124.803647426329,1029
3126.5045891016784,1035
3128.205242026213,1026
3129.90560651746,1011
3131.605682893025,1057
3133.3054714705922,1036
3135.0049725679282,1032
3136.7041865028714,970
3138.4031135933465,1024
3140.101754157353,999
3141.800108512971,1077
3143.498176978357,1034
3145.1959598717494,1020
3146.8934575114636,1011
3148.5906702158954,978
3150.2875983035183,1005
3151.9842420928853,1059
3153.680601902627,1081
3155.376678051456,1049
3157.07247085816,1046
3158.767980641609,1001
3160.463207720748,1040
3162.158152414606,1038
3163.8528150422862,1057
3165.5471959229726,1049
3167.2412953759303,1020
3168.9351137204976,1078
3170.628651276098,1037
3172.3219083622307,1060
3174.014885298474,1048
3175.707582404485,1036
3177.4000000000005,1075
3179.092138404835,1065
3180.7839979388846,1031
3182.47557892212,1059
3184.166881674594,1051
3185.8579065164386,1047
3187.5486537678626,1053
3189.2391237491547,997
3190.9293167806827,1000
3192.6192331828934,1040
3194.3088732763117,1053
3195.998237381542,992
3197.687325819268,1024
3199.376138910251,1011
3201.064676975334,1020
3202.7529403354347,1036
3204.4409293115523,990
3206.1286442247647,978
3207.816085396229,1012
3209.5032531471825,979
3211.190147798936,1009
3212.8767696728846,996
3214.5631190905015,1011
3216.2491963733373,956
3217.9350018430214,1023
3219.6205358212637,998
3221.305798629851,1004
3222.990790590651,987
3224.6755120256103,988
3226.359963256751,1008
3228.0441446061795,1033
3229.7280563960758,1015
3231.411698948703,1007
3233.0950725863995,1043
3234.778177631587,1003
3236.461014406761,988
3238.1435832345005,1031
3239.8258844374595,1018
3241.507918338374,1000
3243.1896852600576,1003
3244.8711855254023,1010
3246.552419457381,1024
3248.233387379042,1005
3249.914089613516,1000
3251.59452648401,1037
3253.274698313813,1036
3254.95460542629,1045
3256.6342481448855,1045
3258.313626793125,1017
3259.9927416946084,1001
3261.6715931730196,989
3263.3501815521176,1024
3265.0285071557437,1008
3266.706570307815,995
3268.3843713323286,1021
3270.0619105533615,1011
3271.739188295068,1047
3273.4162048816834,966
3275.0929606375184,986
3276.769455886966,969
3278.445690954498,1004
3280.1216661646613,1045
3281.797381842087,1012
3283.4728383114807,996
3285.1480358976296,1054
3286.8229749253996,1033
3288.4976557197333,970
3290.172078605655,1046
3291.846243908266,1006
3293.5201519527463,1028
3295.193803064357,992
3296.8671975684374,975
3298.5403357904024,944
3300.21321805575,985
3301.8858446900567,977
3303.558216018975,999
3305.23033236824,1057
3306.9021940636603,1019
3308.57380143113,996
3310.2451547966184,1072
3311.916254486174,1063
3313.5871008259246,1063
3315.2576941420766,1022
3316.9280347609147,1000
3318.5981230088046,1000
3320.2679592121895,989
3321.9375436975924,1000
3323.606876791612,1001
3325.27595882093,1000
3326.944790112305,1044
3328.6133709925753,1035
3330.2817017886573,1020
3331.949782827547,968
3333.617614436319,1046
3335.2851969421245,1046
3336.952530672199,1056
3338.619615953853,1039
3340.286453114475,1018
3341.9530424815357,1047
3343.619384382583,1019
3345.2854791452437,997
3346.951327097224,1046
3348.6169285663073,1045
3350.2822838803577,1062
3351.947393367319,1034
3353.61225735521,994
3355.2768761721345,999
3356.9412501462693,1020
3358.605379605873,989
3360.2692648792827,1031
3361.9329062949146,995
3363.596304181263,985
