CollectionTime,9/25/2024 11:49:04 AM
ExposureUsed,3
CalibratedSpectrum
-962.7078968117929,463
-959.9714848408522,484
-957.2358232597828,526
-954.5009119013725,539
-951.7667505983302,534
-949.0333391832855,517
-946.3006774887896,536
-943.5687653473143,520
-940.837602591253,550
-938.1071890529199,515
-935.3775245645503,513
-932.6486089583007,510
-929.9204420662485,520
-927.1930237203925,563
-924.4663537526524,561
-921.7404319948689,553
-919.0152582788041,539
-916.2908324361409,588
-913.5671542984834,584
-910.8442236973568,552
-908.1220404642074,538
-905.4006044304027,561
-902.679915427231,567
-899.959973285902,521
-897.2407778375464,503
-894.5223289132158,513
-891.8046263438832,528
-889.0876699604426,504
-886.3714595937089,481
-883.6559950744183,509
-880.9412762332282,500
-878.2273029007168,518
-875.5140749073835,483
-872.8015920836489,498
-870.0898542598545,472
-867.3788612662631,474
-864.6686129330585,498
-861.9591090903457,521
-859.2503495681506,482
-856.5423341964203,480
-853.8350628050229,466
-851.1285352237478,517
-848.4227512823054,523
-845.7177108103272,531
-843.0134136373656,513
-840.3098595928943,474
-837.6070485063082,493
-834.9049802069229,524
-832.2036545239757,534
-829.5030712866244,510
-826.8032303239481,527
-824.1041314649472,500
-821.4057745385428,492
-818.7081593735775,512
-816.0112857988148,509
-813.3151536429393,515
-810.6197627345566,517
-807.9251129021936,494
-805.2312039742981,507
-802.5380357792392,516
-799.8456081453069,504
-797.1539209007124,506
-794.462973873588,493
-791.772766891987,542
-789.083299783884,510
-786.3945723771743,512
-783.7065844996748,548
-781.0193359791231,532
-778.3328266431781,521
-775.6470563194197,515
-772.9620248353489,487
-770.2777320183878,486
-767.5941776958798,541
-764.9113616950891,501
-762.2292838432011,519
-759.5479439673222,499
-756.8673418944801,521
-754.1874774516235,558
-751.5083504656222,541
-748.8299607632671,510
-746.15230817127,534
-743.475392516264,517
-740.7992136248035,578
-738.1237713233636,566
-735.4490654383407,550
-732.7750957960521,545
-730.1018622227365,550
-727.4293645445534,536
-724.7576025875837,573
-722.0865761778291,508
-719.4162851412126,551
-716.7467293035781,536
-714.0779084906909,544
-711.409822528237,540
-708.7424712418238,556
-706.0758544569796,533
-703.4099719991541,555
-700.7448236937178,557
-698.0804093659622,554
-695.4167288411002,549
-692.7537819442656,575
-690.0915685005134,577
-687.4300883348199,576
-684.7693412720819,569
-682.1093271371178,574
-679.4500457546669,580
-676.7914969493897,552
-674.1336805458676,572
-671.4765963686034,545
-668.8202442420206,541
-666.1646239904642,561
-663.5097354382001,570
-660.8555784094151,542
-658.2021527282176,577
-655.5494582186366,555
-652.8974947046223,570
-650.2462620100463,612
-647.5957599587009,595
-644.9459883742998,571
-642.2969470804776,607
-639.6486359007902,626
-637.0010546587141,608
-634.3542031776476,616
-631.7080812809096,607
-629.0626887917401,596
-626.4180255333008,617
-623.7740913286734,628
-621.1308860008619,665
-618.4884093727904,624
-615.8466612673046,565
-613.2056415071715,612
-610.5653499150785,616
-607.9257863136347,633
-605.28695052537,651
-602.6488423727357,628
-600.0114616781036,627
-597.3748082637674,610
-594.7388819519412,657
-592.1036825647604,654
-589.4692099242818,658
-586.8354638524829,699
-584.2024441712624,699
-581.5701507024403,665
-578.9385832677575,660
-576.3077416888759,718
-573.6776257873787,647
-571.0482353847704,663
-568.4195703024757,697
-565.7916303618415,663
-563.164415384135,677
-560.5379251905453,657
-557.9121596021815,648
-555.2871184400748,641
-552.6628015251767,647
-550.0392086783606,697
-547.4163397204204,675
-544.794194472071,664
-542.1727727539491,681
-539.5520743866118,708
-536.9320991905377,703
-534.3128469861261,751
-531.6943175936979,815
-529.0765108334947,845
-526.4594265256793,885
-523.8430644903358,1023
-521.2274245474689,1185
-518.612506517005,1255
-515.9983102187913,1332
-513.3848354725959,1438
-510.77208209810846,1601
-508.16004991493924,1981
-505.5487387426199,2049
-502.9381484006032,2122
-500.3282787082628,2030
-497.71912948489364,1849
-495.1107005497117,1578
-492.5029917218539,1285
-489.8960028203786,1133
-487.28973366426493,1038
-484.68418407241325,903
-482.07935386364494,861
-479.47524285670266,829
-476.87185087025,856
-474.2691777228715,831
-471.66722323307334,833
-469.0659872192821,866
-466.4654694998459,818
-463.86566989303384,859
-461.26658821703614,832
-458.66822428996414,834
-456.07057792985,804
-453.4736489546475,816
-450.877437182231,808
-448.28194243039627,796
-445.68716451686,822
-443.09310325926003,818
-440.49975847515555,764
-437.9071299820263,780
-435.31521759727354,818
-432.72402113821954,784
-430.13354042210767,819
-427.5437752661022,821
-424.95472548728867,844
-422.36639090267386,841
-419.7787713291855,863
-417.1918665836721,918
-414.60567648290385,909
-412.0202008435715,942
-409.4354394822874,861
-406.8513922155845,853
-404.26805885991723,868
-401.685439231661,894
-399.103533147112,962
-396.522340422488,922
-393.9418608739278,850
-391.3620943174908,906
-388.7830405691583,871
-386.2046994448317,851
-383.6270707603344,878
-381.05015433141045,853
-378.473949973725,762
-375.8984575028645,765
-373.32367673433623,726
-370.74960748356875,739
-368.1762495659117,717
-365.60360279663576,632
-363.03166699093265,579
-360.4604419639154,579
-357.8899275306178,554
-355.32012350599507,551
-352.7510297049233,557
-350.1826459421999,521
-347.61497203254316,515
-345.04800779059235,549
-342.4817530309082,496
-339.91620756797226,592
-337.35137121618743,575
-334.7872437898774,596
-332.22382510328725,592
-329.66111497058273,627
-327.09911320585127,656
-324.53781962310075,578
-321.9772340362607,572
-319.4173562591816,551
-316.8581861056348,538
-314.2997233893127,585
-311.7419679238294,585
-309.1849195227194,566
-306.62857799943856,589
-304.0729431673641,613
-301.51801483979375,603
-298.963792829947,572
-296.41027695096386,581
-293.85746701590574,599
-291.3053628377552,719
-288.7539642294155,747
-286.2032710037115,711
-283.65328297338897,732
-281.1039999511146,824
-278.5554217494762,880
-276.007548180983,776
-273.4603790580651,694
-270.9139141930734,611
-268.3681533982807,560
-265.8230964858798,616
-263.27874326798565,746
-260.7350935566336,783
-258.1921471637804,808
-255.6499039013039,746
-253.10836358100266,727
-250.56752601459698,699
-248.02739101372765,717
-245.48795838995704,900
-242.94922795476816,910
-240.41119951956557,862
-237.8738728956746,868
-235.33724789434166,830
-232.80132432673452,749
-230.2661020039418,741
-227.73158073697357,819
-225.19776033676033,894
-222.66464061415422,1016
-220.1322213799284,934
-217.60050244477725,769
-215.06948361931552,838
-212.53916471408013,928
-210.00954553952818,1012
-207.48062590603843,1075
-204.9524056239104,866
-202.4248845033651,944
-199.8980623545441,1012
-197.37193898751036,990
-194.84651421224817,997
-192.32178783866232,959
-189.79775967657952,922
-187.27442953574644,1038
-184.7517972258321,1109
-182.2298625564256,1021
-179.7086253370378,903
-177.18808537710026,1084
-174.66824248596583,1380
-172.14909647290835,1453
-169.6306471471229,1307
-167.11289431772548,1075
-164.59583779375328,1075
-162.07947738416453,1081
-159.5638128978386,1182
-157.04884414357605,1550
-154.53457093009854,1694
-152.02099306604828,1369
-149.50811035998936,1199
-146.99592262040665,1101
-144.48442965570587,1384
-141.97363127421409,1655
-139.46352728417958,1684
-136.95411749377126,1648
-134.44540171107985,1529
-131.93737974411636,1298
-129.43005140081357,1241
-126.92341648902493,1506
-124.41747481652521,1880
-121.91222619101006,2686
-119.40767042009657,3988
-116.90380731132257,4808
-114.40063667214702,4910
-111.8981583099503,4242
-109.3963720320337,4372
-106.89527764561933,4050
-104.39487495785067,4510
-101.89516377579241,5009
-99.39614390642998,6971
-96.89781515667039,9231
-94.40017733334128,11794
-91.90323024319173,12296
-89.40697369289148,9579
-86.91140748903172,6184
-84.41653143812482,5327
-81.92234534660395,7599
-79.42884902082358,13398
-76.93604226705907,15358
-74.4439248915071,18579
-71.95249670028534,22642
-69.46175749943245,26893
-66.97170709490854,32504
-64.48234529259423,35736
-61.99367189829195,33004
-59.50568671772464,25261
-57.01838955653636,23572
-54.53178022029283,27314
-52.045858514480074,25509
-49.560624244506016,21108
-47.07607721569923,17532
-44.59221723330904,15930
-42.10904410250669,16251
-39.62655762838392,19154
-37.14475761595372,21738
-34.66364387015028,23540
-32.18321619582866,24610
-29.70347439776515,28767
-27.224418280657005,30798
-24.74604764912317,35518
-22.26836230770266,55106
-19.7913620608565,65041
-17.315046712966478,65041
-14.83941606833514,65041
-12.36446993118659,65041
-9.89020810566592,65041
-7.416630395839093,65041
-4.94373660569363,65041
-2.471526539137585,65041
-6.821210263296962E-13,65041
2.47084320796705,65041
4.941003281093458,65041
7.410480415786196,65041
9.879274808531363,65041
12.347386655893956,65041
14.814816154518212,65041
17.28156350112681,65041
19.74762889252179,65041
22.21301252558385,65041
24.67771459727237,22746
27.141735304626195,5887
29.605074844762612,5192
32.06773341487792,5020
34.52971121224755,4294
36.99100843422559,3770
39.45162527824516,5354
41.91156194181792,5451
44.370818622535126,3584
46.82939551806646,3024
49.287292826160524,3223
51.74451074464503,3995
54.201049471426245,4483
56.65690920448981,3202
59.112090141899785,2862
61.56659248179983,2739
64.02041642241159,2449
66.4735621620365,2171
68.92602989905402,2569
71.37781983192338,2860
73.82893215918205,2370
76.27936707944684,2208
78.72912479141326,2304
81.17820549385567,2173
83.62660938562783,1839
86.07433666566146,2153
88.5213875329681,2663
90.96776218663751,2263
93.41346082583925,1829
95.85848364982041,1748
98.30283085790859,1833
100.7465026495089,2258
103.18949922410604,2179
105.63182078126385,1990
108.07346752062438,1567
110.51443964190923,1381
112.95473734491827,1419
115.39436082953114,1518
117.83331029570547,1666
120.27158594347827,1852
122.7091879729652,1603
125.1461165843615,1509
127.58237197794062,1236
130.01795435405518,1253
132.4528639131364,1243
134.88710085569494,1334
137.32066538231982,1558
139.75355769367923,1276
142.1857779905207,1157
144.61732647366978,1216
147.04820334403132,1229
149.47840880258934,1434
151.90794305040674,1281
154.33680628862487,1168
156.76499871846443,1378
159.19252054122433,1470
161.61937195828352,1496
164.04555317109896,1652
166.47106438120693,1910
168.89590579022217,2124
171.320077599839,1963
173.7435800118302,2000
176.16641322804742,2154
178.58857745042144,2147
181.01007288096173,2178
183.43089972175687,2281
185.85105817497413,2295
188.27054844285988,2172
190.6893707277394,2310
193.10752523201643,2325
195.5250121581745,2321
197.9418317087751,2326
200.3579840864594,2276
202.7734694939469,2247
205.18828813403627,2352
207.6024402096051,2329
210.01592592360964,2263
212.42874547908548,2258
214.84089907914665,2402
217.2523869269868,2323
219.66320922587727,2505
222.0733661791695,2392
224.48285799029293,2346
226.8916848627572,2339
229.29984700014882,2474
231.7073446061355,2357
234.11417788446204,2348
236.520347038953,2341
238.92585227351185,2354
241.33069379212054,2315
243.73487179884035,2360
246.1383864978112,2311
248.541238093252,2270
250.9434267894609,2301
253.34495279081432,2363
255.74581630176783,2340
258.1460175268563,2325
260.54555667069314,2334
262.9444339379703,2304
265.3426495334594,2312
267.7402036620107,2377
270.1370965285529,2345
272.53332833809407,2413
274.9288992957214,2367
277.32380960660055,2467
279.718059475976,2429
282.1116491091717,2355
284.5045787115897,2364
286.89684848871195,2372
289.2884586460981,2301
291.67940938938807,2430
294.0697009242996,2453
296.4593334566299,2506
298.84830719225477,2423
301.23662233712923,2502
303.6242790972866,2438
306.01127767884,2393
308.39761828798066,2357
310.78330113097934,2305
313.16832641418534,2152
315.5526943440269,2219
317.9364051270112,2293
320.3194589697242,2261
322.70185607883093,2133
325.0835966610754,2237
327.4646809232805,2207
329.8451090723478,2194
332.2248813152577,2102
334.6039978590701,2112
336.9824589109231,2135
339.36026467803447,2155
341.7374153677,2054
344.113911187295,2002
346.48975234427337,2013
348.8649390461686,1950
351.2394715005918,1980
353.61334991523415,1989
355.9865744978655,2058
358.35914545633375,2037
360.73106299856715,2026
363.10232733257146,1981
365.47293866643247,1985
367.84289720831396,2002
370.2122031664593,1900
372.5808567491905,1920
374.9488581649083,1835
377.31620762209275,1870
379.6829053293021,1848
382.0489514951745,1889
384.4143463284262,1848
386.7790900378528,1853
389.14318283232853,1887
391.50662492080653,1901
393.86941651231916,1865
396.23155781597745,1825
398.5930490409713,1894
400.9538903965696,1895
403.3140820921202,1837
405.6736243370498,1866
408.03251734086336,1830
410.3907613131465,1905
412.74835646356166,1901
415.10530300185144,1854
417.4616011378372,1818
419.81725108141893,1788
422.1722530425758,1816
424.5266072313656,1852
426.880313857925,1790
429.2333731324701,1799
431.58578526529516,1777
433.9375504667738,1779
436.2886689473588,1801
438.63914091758113,1729
440.9889665880513,1715
443.33814616945835,1821
445.68667987257015,1755
448.03456790823395,1773
450.3818104873759,1733
452.72840782100013,1736
455.07436012019105,1782
457.41966759611057,1745
459.7643304600007,1790
462.10834892318155,1822
464.4517231970525,1730
466.79445349309174,1803
469.1365400228566,1808
471.4779829979826,1783
473.81878263018564,1748
476.15893913125876,1794
478.4984527130747,1806
480.8373235875855,1817
483.17555196682144,1945
485.5131380628919,2000
487.8500820879857,2013
490.1863842543697,2098
492.52204477439034,2277
494.8570638604725,2498
497.1914417251204,2820
499.52517858091653,3448
501.85827464052306,3953
504.19073011668036,4580
506.5225452222086,4786
508.85372017000566,4825
511.18425517304956,4890
513.514150444396,5148
515.8434061971808,5785
518.1720226446176,6472
520.4999999999999,6408
522.8273384766991,5963
525.1540382881666,5237
527.480099647932,4648
529.8055227696037,3601
532.1303078668694,2785
534.454455153496,2367
536.777964843328,2121
539.1008371502907,1976
541.4230722883866,1921
543.744670471698,1816
546.0656319143858,1763
548.3859568306899,1810
550.7056454349294,1760
553.0246979415016,1823
555.3431145648834,1855
557.6608955196306,1825
559.978041020377,1749
562.2945512818363,1827
564.6104265188006,1724
566.9256669461412,1758
569.2402727788082,1726
571.5542442318302,1699
573.8675815203156,1765
576.1802848594508,1769
578.4923544645015,1819
580.8037905508126,1743
583.114593333807,1751
585.4247630289875,1813
587.7342998519354,1687
590.0432040183106,1757
592.3514757438526,1732
594.6591152443794,1798
596.9661227357875,1812
599.2724984340531,1806
601.578242555231,1769
603.8833553154542,1761
606.1878369309362,1718
608.4916876179676,1746
610.7949075929192,1766
613.0974970722403,1800
615.3994562724587,1810
617.7007854101818,1757
620.0014847020951,1750
622.3015543649641,1746
624.6009946156324,1701
626.8998056710224,1692
629.1979877481361,1721
631.4955410640538,1725
633.7924658359349,1724
636.0887622810175,1717
638.3844306166192,1661
640.6794710601358,1723
642.9738838290426,1866
645.2676691408932,1738
647.5608272133207,1808
649.853358264037,1755
652.1452625108324,1794
654.4365401715764,1773
656.7271914642178,1717
659.0172166067838,1842
661.3066158173809,1808
663.5953893141935,1762
665.8835373154867,1778
668.1710600396028,1743
670.4579577049639,1745
672.7442305300709,1803
675.0298787335033,1785
677.3149025339197,1783
679.599302150058,1753
681.8830778007342,1717
684.1662297048437,1709
686.4487580813608,1741
688.7306631493387,1786
691.0119451279091,1647
693.2926042362834,1737
695.5726406937516,1734
697.8520547196814,1778
700.1308465335215,1756
702.4090163547982,1719
704.6865644031171,1740
706.9634908981619,1736
709.2397960596965,1726
711.5154801075631,1737
713.7905432616823,1725
716.0649857420548,1779
718.3388077687592,1750
720.612009561953,1755
722.8845913418733,1719
725.1565533288352,1730
727.427895743234,1733
729.6986188055427,1738
731.9687227363137,1810
734.238207756178,1816
736.5070740858458,1776
738.7753219461066,1772
741.0429515578281,1743
743.3099631419569,1762
745.5763569195191,1805
747.8421331116193,1793
750.1072919394409,1702
752.3718336242467,1742
754.6357583873777,1799
756.8990664502545,1747
759.1617580343765,1801
761.423833361321,1822
763.6852926527457,1803
765.9461361303862,1843
768.206364016058,1844
770.4659765316536,1753
772.7249738991469,1757
774.9833563405886,1832
777.2411240781092,1756
779.4982773339183,1820
781.7548163303044,1806
784.010741289634,1865
786.2660524343538,1872
788.5207499869881,1841
790.7748341701416,1877
793.0283052064964,1819
795.2811633188143,1853
797.5334087299362,1829
799.7850416627813,1849
802.0360623403484,1908
804.2864709857143,1828
806.5362678220353,1888
808.7854530725468,1911
811.0340269605625,1887
813.2819897094754,1885
815.5293415427581,1886
817.77608268396,1851
820.0222133567116,1799
822.2677337847211,1752
824.5126441917765,1863
826.7569448017433,1889
829.0006358385675,1824
831.2437175262731,1760
833.4861900889629,1852
835.7280537508192,1814
837.9693087361026,1810
840.2099552691533,1822
842.4499935743896,1763
844.689423876309,1872
846.9282463994886,1857
849.1664613685833,1800
851.4040690083276,1782
853.6410695435349,1837
855.877463199097,1776
858.1132501999847,1762
860.3484307712487,1795
862.5830051380175,1743
864.8169735254988,1853
867.0503361589791,1808
869.2830932638243,1857
871.5152450654786,1896
873.7467917894654,1784
875.9777336613873,1845
878.2080709069252,1904
880.4378037518389,1842
882.666932421968,1811
884.8954571432301,1832
887.1233781416219,1955
889.3506956432192,1898
891.5774098741766,1875
893.803521060728,1871
896.0290294291852,1890
898.2539352059397,1819
900.4782386174619,1837
902.7019398903011,1834
904.925039251085,1907
907.147536926521,1882
909.3694331433943,1905
911.59072812857,1929
913.8114221089921,1883
916.0315153116827,1879
918.2510079637437,1860
920.4699002923547,1858
922.6881925247761,1852
924.905884888345,1913
927.1229776104793,1832
929.3394709186747,1876
931.555365040506,1899
933.7706602036275,1857
935.9853566357709,1945
938.1994545647489,1929
940.4129542184515,1883
942.6258558248488,1857
944.8381596119883,1878
947.0498658079974,1881
949.2609746410825,1997
951.4714863395287,1963
953.6814011316998,1955
955.8907192460387,1880
958.0994409110671,1929
960.3075663553858,1879
962.5150958076741,1867
964.7220294966913,1877
966.928367651274,1862
969.1341105003388,1821
971.3392582728806,1879
973.5438111979742,1838
975.747769504772,1819
977.9511334225061,1771
980.153903180487,1703
982.3560790081052,1814
984.5576611348289,1781
986.7586497902058,1780
988.9590452038618,1730
991.158847605503,1711
993.3580572249133,1714
995.5566742919558,1699
997.7546990365728,1689
999.952131688785,1612
1002.1489724786926,1707
1004.3452216364743,1614
1006.5408793923874,1601
1008.7359459767691,1517
1010.9304216200343,1557
1013.1243065526781,1562
1015.3176010052733,1550
1017.510305208472,1554
1019.7024193930064,1500
1021.8939437896848,1503
1024.0848786293977,1498
1026.2752241431122,1517
1028.4649805618747,1457
1030.6541481168115,1423
1032.842727039127,1432
1035.0307175601051,1393
1037.2181199111074,1439
1039.4049343235752,1418
1041.591161029029,1425
1043.7768002590683,1389
1045.9618522453698,1452
1048.1463172196918,1430
1050.3301954138697,1402
1052.513487059818,1377
1054.69619238953,1336
1056.8783116350783,1418
1059.0598450286152,1370
1061.2407928023704,1373
1063.4211551886528,1470
1065.6009324198508,1391
1067.780124728432,1417
1069.9587323469414,1411
1072.1367555080046,1401
1074.314194444325,1420
1076.4910493886855,1313
1078.667320573947,1373
1080.843008233051,1364
1083.0181125990161,1308
1085.1926339049414,1355
1087.3665723840027,1385
1089.5399282694575,1337
1091.7127017946405,1338
1093.8848931929647,1406
1096.0565026979243,1380
1098.2275305430899,1345
1100.3979769621128,1328
1102.567842188722,1330
1104.737126456726,1295
1106.9058300000124,1328
1109.0739530525475,1293
1111.2414958483764,1327
1113.4084586216231,1307
1115.5748416064907,1339
1117.7406450372605,1321
1119.9058691482942,1333
1122.0705141740304,1367
1124.2345803489884,1346
1126.3980679077658,1353
1128.5609770850388,1336
1130.7233081155623,1305
1132.8850612341707,1359
1135.0462366757774,1339
1137.2068346753745,1306
1139.3668554680326,1344
1141.526299288901,1314
1143.68516637321,1295
1145.8434569562655,1314
1148.001171273455,1279
1150.158309560244,1313
1152.3148720521767,1343
1154.470858984876,1310
1156.626270594044,1306
1158.7811071154629,1282
1160.9353687849912,1305
1163.089055838569,1297
1165.242168512213,1293
1167.3947070420209,1298
1169.5466716641677,1246
1171.6980626149075,1306
1173.8488801305748,1331
1175.9991244475814,1269
1178.1487958024186,1354
1180.2978944316555,1293
1182.4464205719428,1275
1184.5943744600072,1322
1186.7417563326567,1336
1188.8885664267755,1327
1191.0348049793297,1263
1193.1804722273619,1308
1195.325568407995,1307
1197.4700937584303,1317
1199.614048515948,1286
1201.7574329179074,1283
1203.900247201746,1301
1206.042491604982,1303
1208.1841663652099,1308
1210.3252717201053,1317
1212.465807907422,1369
1214.6057751649923,1267
1216.7451737307279,1305
1218.8840038426192,1283
1221.0222657387353,1251
1223.1599596572241,1335
1225.2970858363137,1350
1227.4336445143094,1317
1229.5696359295966,1315
1231.705060320639,1313
1233.8399179259786,1335
1235.9742089842384,1321
1238.107933734118,1338
1240.2410924143974,1348
1242.373685263935,1345
1244.5057125216676,1303
1246.6371744266116,1341
1248.7680712178621,1319
1250.898403134593,1318
1253.028170416058,1236
1255.1573733015875,1357
1257.2860120305932,1304
1259.4140868425648,1329
1261.54159797707,1355
1263.6685456737569,1410
1265.7949301723515,1333
1267.9207517126597,1351
1270.046010534565,1370
1272.1707068780306,1346
1274.2948409830983,1307
1276.4184130898889,1348
1278.541423438603,1402
1280.6638722695184,1377
1282.785759822993,1363
1284.9070863394636,1396
1287.0278520594447,1354
1289.1480572235314,1404
1291.2677020723963,1408
1293.3867868467923,1420
1295.5053117875495,1379
1297.623277135579,1369
1299.740683131868,1381
1301.8575300174857,1360
1303.973818033578,1403
1306.0895474213703,1389
1308.2047184221678,1441
1310.3193312773528,1385
1312.4333862283888,1391
1314.5468835168163,1402
1316.659823384255,1390
1318.7722060724045,1389
1320.8840318230418,1422
1322.9953008780249,1407
1325.1060134792888,1362
1327.2161698688478,1382
1329.3257702887959,1440
1331.4348149813054,1401
1333.5433041886276,1398
1335.6512381530933,1413
1337.7586171171101,1425
1339.8654413231675,1395
1341.9717110138317,1365
1344.0774264317488,1318
1346.1825878196432,1404
1348.2871954203192,1356
1350.3912494766587,1462
1352.4947502316231,1414
1354.5976979282532,1424
1356.7000928096686,1375
1358.8019351190665,1431
1360.9032250997243,1350
1363.0039629949988,1409
1365.1041490483235,1396
1367.2037835032133,1427
1369.3028666032606,1325
1371.401398592137,1413
1373.4993797135926,1392
1375.5968102114575,1415
1377.6936903296396,1416
1379.7900203121262,1446
1381.8858004029835,1369
1383.9810308463561,1344
1386.075711886469,1395
1388.1698437676241,1353
1390.2634267342032,1387
1392.356461030667,1363
1394.4489469015557,1361
1396.5408845914872,1405
1398.6322743451592,1368
1400.7231164073469,1369
1402.813411022907,1318
1404.903158436773,1357
1406.9923588939578,1384
1409.0810126395531,1402
1411.1691199187303,1378
1413.2566809767386,1448
1415.343696058907,1433
1417.4301654106425,1421
1419.5160892774315,1385
1421.6014679048399,1402
1423.6863015385125,1440
1425.7705904241707,1435
1427.8543348076178,1345
1429.9375349347342,1395
1432.0201910514802,1330
1434.102303403894,1381
1436.1838722380944,1390
1438.2648978002767,1361
1440.3453803367174,1343
1442.4253200937692,1361
1444.5047173178677,1367
1446.5835722555234,1367
1448.6618851533285,1364
1450.739656257952,1350
1452.8168858161434,1365
1454.8935740747306,1408
1456.96972128062,1373
1459.045327680797,1357
1461.120393522327,1404
1463.1949190523528,1383
1465.2689045180973,1368
1467.3423501668608,1441
1469.415256246024,1414
1471.4876230030463,1396
1473.559450685465,1386
1475.6307395408976,1370
1477.7014898170391,1368
1479.771701761665,1409
1481.8413756226287,1381
1483.9105116478618,1363
1485.9791100853772,1368
1488.0471711832643,1344
1490.1146951896926,1328
1492.1816823529098,1360
1494.2481329212433,1345
1496.3140471430984,1336
1498.3794252669609,1366
1500.4442675413939,1362
1502.5085742150404,1393
1504.572345536622,1431
1506.6355817549388,1409
1508.6982831188702,1386
1510.7604498773744,1395
1512.8220822794883,1394
1514.8831805743293,1377
1516.9437450110909,1446
1519.003775839048,1466
1521.0632733075522,1346
1523.1222376660367,1444
1525.1806691640113,1457
1527.2385680510652,1430
1529.2959345768668,1384
1531.3527689911643,1375
1533.4090715437833,1442
1535.4648424846291,1471
1537.5200820636855,1379
1539.5747905310159,1381
1541.6289681367616,1431
1543.6826151311434,1461
1545.7357317644614,1453
1547.7883182870937,1397
1549.8403749494987,1396
1551.8919020022113,1480
1553.9428996958477,1423
1555.9933682811015,1523
1558.0433080087469,1513
1560.0927191296346,1495
1562.1416018946961,1508
1564.1899565549415,1448
1566.2377833614592,1521
1568.2850825654164,1474
1570.3318544180606,1451
1572.3780991707158,1490
1574.423817074788,1505
1576.4690083817595,1527
1578.5136733431923,1512
1580.5578122107272,1512
1582.601425236085,1498
1584.6445126710646,1459
1586.6870747675434,1432
1588.7291117774776,1442
1590.7706239529034,1428
1592.8116115459347,1447
1594.8520748087658,1466
1596.8920139936686,1393
1598.9314293529933,1416
1600.9703211391711,1421
1603.008689604711,1395
1605.0465350022005,1414
1607.0838575843068,1396
1609.1206576037753,1383
1611.1569353134305,1408
1613.1926909661765,1348
1615.2279248149953,1408
1617.2626371129481,1360
1619.2968281131757,1355
1621.3304980688963,1323
1623.3636472334088,1365
1625.39627586009,1378
1627.428384202396,1316
1629.459972513861,1361
1631.4910410480993,1367
1633.5215900588028,1275
1635.551619799744,1394
1637.5811305247717,1343
1639.6101224878166,1296
1641.6385959428862,1339
1643.6665511440683,1337
1645.693988345528,1277
1647.7209078015112,1279
1649.7473097663405,1324
1651.7731944944203,1321
1653.7985622402307,1296
1655.823413258333,1332
1657.847747803366,1338
1659.8715661300494,1297
1661.8948684931793,1301
1663.9176551476316,1305
1665.9399263483624,1297
1667.9616823504057,1297
1669.982923408873,1272
1672.0036497789574,1258
1674.0238617159293,1254
1676.043559475138,1308
1678.0627433120121,1302
1680.081413482059,1261
1682.0995702408654,1249
1684.117213844096,1276
1686.134344547495,1214
1688.1509626068864,1323
1690.1670682781705,1283
1692.182661817329,1250
1694.1977434804217,1341
1696.2123135235875,1288
1698.226372203043,1272
1700.2399197750851,1319
1702.2529564960905,1319
1704.2654826225112,1253
1706.277498410882,1305
1708.2890041178139,1331
1710.2999999999988,1262
1712.3104863142066,1286
1714.3204633172854,1250
1716.329931266163,1267
1718.3388904178469,1253
1720.3473410294214,1317
1722.3552833580516,1323
1724.3627176609807,1289
1726.3696441955308,1375
1728.3760632191033,1250
1730.3819749891782,1240
1732.3873797633146,1280
1734.3922777991502,1255
1736.3966693544012,1325
1738.4005546868639,1290
1740.4039340544127,1203
1742.406807715001,1339
1744.4091759266616,1273
1746.4110389475054,1279
1748.4123970357223,1275
1750.413250449582,1301
1752.4135994474318,1320
1754.4134442876993,1278
1756.4127852288902,1285
1758.4116225295893,1286
1760.4099564484595,1275
1762.407787244244,1237
1764.405115175764,1282
1766.4019405019203,1281
1768.3982634816916,1313
1770.3940843741357,1286
1772.3894034383907,1346
1774.3842209336717,1328
1776.378537119274,1357
1778.372352254571,1304
1780.3656665990156,1278
1782.3584804121397,1318
1784.3507939535534,1305
1786.3426074829463,1286
1788.3339212600863,1262
1790.3247355448211,1268
1792.3150505970766,1323
1794.3048666768573,1316
1796.2941840442477,1337
1798.2830029594106,1318
1800.2713236825884,1302
1802.2591464741004,1315
1804.2464715943465,1296
1806.2332993038058,1308
1808.2196298630352,1281
1810.2054635326708,1299
1812.190800573428,1343
1814.175641246101,1327
1816.1599858115628,1302
1818.1438345307652,1295
1820.127187664738,1307
1822.1100454745924,1287
1824.092408221516,1323
1826.0742761667766,1301
1828.055649571721,1303
1830.0365286977735,1373
1832.0169138064398,1319
1833.9968051593014,1283
1835.9762030180214,1309
1837.9551076443408,1276
1839.9335193000788,1315
1841.9114382471344,1331
1843.888864747485,1327
1845.8657990631878,1312
1847.842241456378,1325
1849.8181921892697,1313
1851.7936515241558,1325
1853.7686197234098,1333
1855.7430970494815,1283
1857.7170837649014,1326
1859.6905801322787,1320
1861.6635864143004,1271
1863.6361028737338,1274
1865.608129773424,1307
1867.5796673762961,1249
1869.5507159453537,1337
1871.521275743678,1352
1873.4913470344313,1321
1875.4609300808534,1287
1877.4300251462632,1293
1879.3986324940588,1307
1881.366752387717,1323
1883.3343850907936,1331
1885.3015308669228,1310
1887.268189979819,1330
1889.2343626932739,1359
1891.2000492711595,1322
1893.1652499774254,1332
1895.1299650761011,1262
1897.0941948312952,1323
1899.0579395071945,1343
1901.0211993680641,1241
1902.98397467825,1288
1904.9462657021745,1304
1906.9080727043415,1312
1908.869395949332,1310
1910.8302357018065,1330
1912.790592226504,1327
1914.7504657882428,1350
1916.7098566519212,1209
1918.6687650825133,1289
1920.6271913450764,1318
1922.5851357047422,1312
1924.5425984267245,1268
1926.499579776314,1308
1928.4560800188833,1271
1930.4120994198802,1305
1932.367638244833,1277
1934.32269675935,1292
1936.2772752291175,1307
1938.231373919899,1301
1940.1849930975404,1301
1942.1381330279637,1328
1944.0907939771696,1261
1946.0429762112412,1357
1947.9946799963363,1242
1949.9459055986945,1283
1951.896653284633,1303
1953.8469233205478,1279
1955.7967159729142,1318
1957.7460315082863,1321
1959.6948701932974,1352
1961.6432322946594,1306
1963.5911180791632,1305
1965.5385278136787,1295
1967.4854617651545,1322
1969.4319202006182,1300
1971.377903387176,1257
1973.3234115920136,1295
1975.268445082395,1296
1977.2130041256642,1308
1979.1570889892423,1298
1981.1006999406304,1313
1983.04383724741,1313
1984.986501177238,1306
1986.928691997853,1262
1988.8704099770712,1327
1990.811655382789,1319
1992.7524284829801,1298
1994.692729545698,1320
1996.6325588390755,1326
1998.5719166313224,1326
2000.5108031907307,1353
2002.4492187856677,1257
2004.387163684583,1286
2006.3246381560011,1305
2008.2616424685298,1294
2010.1981768908527,1318
2012.1342416917332,1311
2014.069837140014,1318
2016.0049635046162,1316
2017.9396210545406,1314
2019.8738100588666,1344
2021.8075307867502,1296
2023.740783507431,1300
2025.6735684902228,1305
2027.6058860045214,1278
2029.5377363198004,1316
2031.4691197056118,1284
2033.4000364315875,1289
2035.3304867674374,1305
2037.260470982952,1306
2039.189989347998,1236
2041.1190421325232,1258
2043.047629606554,1301
2044.9757520401945,1261
2046.9034097036288,1251
2048.8306028671195,1299
2050.7573318010086,1247
2052.683596775716,1297
2054.609398061742,1244
2056.5347359296647,1300
2058.4596106501403,1294
2060.384022493906,1264
2062.3079717317764,1325
2064.231458634646,1309
2066.1544834734873,1312
2068.077046519352,1293
2069.99914804337,1297
2071.9207883167524,1347
2073.8419676107865,1229
2075.7626861968406,1290
2077.6829443463607,1319
2079.6027423308715,1285
2081.522080421977,1258
2083.440958891362,1300
2085.359378010786,1248
2087.2773380520907,1260
2089.194839287196,1257
2091.111881988101,1303
2093.0284664268825,1277
2094.9445928756973,1281
2096.86026160678,1254
2098.775472892446,1246
2100.690227005088,1307
2102.604524217178,1303
2104.5183648012676,1298
2106.431749029985,1318
2108.34467717604,1350
2110.2571495122206,1284
2112.169166311393,1322
2114.080727846503,1296
2115.9918343905747,1268
2117.902486216711,1273
2119.8126835980956,1288
2121.722426807987,1328
2123.6317161197285,1297
2125.5405518067364,1363
2127.448934142509,1307
2129.356863400624,1304
2131.264339854737,1317
2133.1713637785815,1311
2135.077935445972,1288
2136.9840551308002,1281
2138.889723107037,1311
2140.7949396487334,1362
2142.699705030018,1269
2144.6040195250994,1300
2146.507883408264,1318
2148.4112969538774,1336
2150.3142604363848,1269
2152.2167741303097,1241
2154.1188383102535,1310
2156.0204532508997,1273
2157.9216192270064,1313
2159.822336513414,1324
2161.7226053850413,1302
2163.622426116884,1288
2165.5217989840185,1335
2167.4207242616,1268
2169.319202224862,1327
2171.2172331491165,1360
2173.1148173097563,1312
2175.0119549822507,1296
2176.90864644215,1342
2178.8048919650823,1379
2180.7006918267534,1296
2182.596046302952,1337
2184.4909556695407,1385
2186.3854202024645,1309
2188.279440177746,1301
2190.173015871487,1302
2192.066147559868,1369
2193.958835519149,1247
2195.851080025667,1291
2197.7428813558417,1254
2199.6342397861667,1321
2201.5251555932186,1321
2203.415629053651,1289
2205.3056604441986,1306
2207.19525004167,1326
2209.084398122958,1344
2210.9731049650327,1302
2212.861370844941,1299
2214.749196039812,1330
2216.636580826851,1307
2218.523525483344,1347
2220.410030286655,1370
2222.296095514226,1326
2224.1817214435805,1350
2226.066908352319,1301
2227.951656518121,1333
2229.835966218746,1321
2231.71983773203,1293
2233.6032713358913,1338
2235.486267308324,1328
2237.3688259274036,1355
2239.2509474712824,1402
2241.132632218193,1346
2243.013880446447,1398
2244.8946924344323,1391
2246.7750684606203,1350
2248.6550088035574,1321
2250.534513741871,1281
2252.413583554265,1298
2254.292218519526,1383
2256.170418916517,1339
2258.0481850241786,1354
2259.925517121534,1293
2261.8024154876825,1379
2263.678880401803,1322
2265.5549121431536,1317
2267.430510991071,1355
2269.305677224971,1325
2271.180411124348,1342
2273.0547129687766,1326
2274.9285830379076,1373
2276.8020216114737,1304
2278.6750289692845,1277
2280.5476053912294,1351
2282.4197511572766,1364
2284.2914665474727,1375
2286.162751841943,1374
2288.0336073208937,1402
2289.904033264608,1411
2291.774029953448,1342
2293.6435976678554,1409
2295.5127366883517,1406
2297.381447295534,1376
2299.2497297700825,1319
2301.1175843927526,1332
2302.9850114443825,1245
2304.852011205885,1242
2306.7185839582553,1204
2308.5847299825664,1210
2310.4504495599676,1197
2312.3157429716925,1171
2314.1806104990483,1233
2316.0450524234247,1211
2317.9090690262888,1147
2319.772660589186,1162
2321.635827393742,1128
2323.498569721661,1164
2325.3608878547248,1156
2327.2227820747967,1173
2329.0842526638157,1177
2330.945299903803,1168
2332.805924076857,1169
2334.6661254651535,1157
2336.525904350951,1202
2338.3852610165827,1163
2340.244195744464,1115
2342.102708817088,1154
2343.9608005170253,1148
2345.8184711269287,1175
2347.675720929526,1165
2349.532550207628,1180
2351.38895924412,1224
2353.24494832197,1157
2355.100517724223,1210
2356.955667734004,1194
2358.810398634514,1236
2360.664710709037,1186
2362.5186042409337,1182
2364.3720795136437,1218
2366.225136810686,1237
2368.0777764156583,1238
2369.929998612237,1197
2371.7818036841777,1196
2373.633191915315,1164
2375.484163589562,1217
2377.3347189909114,1162
2379.184858403434,1207
2381.03458211128,1172
2382.8838903986775,1166
2384.732783549936,1149
2386.5812618494406,1190
2388.4293255816588,1230
2390.2769750311327,1167
2392.1242104824883,1179
2393.971032220427,1149
2395.8174405297295,1201
2397.6634356952563,1173
2399.509018001947,1177
2401.3541877348193,1134
2403.1989451789705,1192
2405.043290619576,1181
2406.8872243418905,1197
2408.730746631247,1148
2410.5738577730594,1180
2412.4165580528183,1166
2414.258847756095,1156
2416.100727168537,1199
2417.9421965758734,1150
2419.783256263912,1144
2421.623906518538,1124
2423.4641476257157,1187
2425.303979871491,1211
2427.143403541984,1192
2428.9824189233977,1207
2430.821026302012,1188
2432.6592259641866,1147
2434.497018196361,1167
2436.33440328505,1229
2438.171381516851,1214
2440.00795317844,1194
2441.844118556569,1169
2443.6798779380724,1263
2445.5152316098606,1158
2447.3501798589255,1172
2449.1847229723357,1191
2451.0188612372403,1202
2452.8525949408663,1170
2454.6859243705203,1161
2456.518849813587,1197
2458.3513715575314,1188
2460.183489889895,1190
2462.015205098301,1169
2463.8465174704493,1181
2465.67742729412,1211
2467.5079348571717,1171
2469.338040447542,1191
2471.1677443532476,1199
2472.9970468623833,1191
2474.825948263123,1164
2476.6544488437207,1161
2478.482548892508,1179
2480.310248697896,1149
2482.137548548374,1195
2483.9644487325118,1177
2485.790949538956,1173
2487.617051256433,1177
2489.44275417375,1148
2491.26805857979,1195
2493.0929647635157,1171
2494.917473013971,1163
2496.741583620276,1222
2498.5652968716304,1187
2500.3886130573137,1190
2502.2115324666834,1213
2504.0340553891765,1137
2505.856182114308,1211
2507.6779129316733,1166
2509.499248130945,1170
2511.3201880018764,1175
2513.140732834298,1155
2514.9608829181198,1114
2516.780638543331,1209
2518.6,1168
2520.418967578273,1161
2522.237541568376,1177
2524.0557222606144,1192
2525.8735099453706,1152
2527.6909049131086,1216
2529.507907454368,1192
2531.32451785977,1161
2533.140736420014,1148
2534.9565634258774,1203
2536.771999168218,1220
2538.5870439379714,1247
2540.4016980261526,1182
2542.2159617238544,1219
2544.02983532225,1194
2545.8433191125914,1196
2547.656413386209,1176
2549.4691184345115,1207
2551.2814345489874,1211
2553.093362021204,1127
2554.904901142808,1167
2556.716052205523,1180
2558.526815501153,1181
2560.3371913215824,1218
2562.147179958771,1194
2563.956781704761,1176
2565.7659968516705,1183
2567.5748256916986,1216
2569.3832685171224,1150
2571.1913256202984,1126
2572.9989972936614,1173
2574.806283829725,1230
2576.613185521084,1202
2578.4197026604074,1185
2580.2258355404483,1185
2582.031584454035,1216
2583.836949694077,1210
2585.6419315535613,1239
2587.4465303255533,1223
2589.2507463032002,1218
2591.0545797797245,1193
2592.8580310484303,1148
2594.6611004026995,1184
2596.463788135992,1162
2598.266094541849,1206
2600.0680199138874,1195
2601.869564545807,1178
2603.670728731383,1199
2605.4715127644704,1195
2607.2719169390048,1181
2609.071941548998,1242
2610.8715868885433,1208
2612.670853251811,1247
2614.469740933052,1174
2616.268250226594,1226
2618.0663814268455,1185
2619.864134828292,1207
2621.6615107255006,1238
2623.458509413115,1220
2625.2551311858597,1192
2627.0513763385347,1216
2628.8472451660223,1184
2630.6427379632833,1168
2632.4378550253564,1237
2634.232596647359,1161
2636.026963124488,1131
2637.8209547520187,1161
2639.6145718253065,1214
2641.407814639785,1224
2643.200683490966,1241
2644.9931786744414,1216
2646.7853004858807,1231
2648.577049221034,1155
2650.3684251757277,1181
2652.1594286458712,1189
2653.9500599274484,1216
2655.740319316525,1211
2657.5302071092437,1212
2659.3197236018286,1191
2661.10886909058,1197
2662.8976438718782,1189
2664.686048242183,1201
2666.4740824980327,1161
2668.2617469360443,1178
2670.0490418529134,1128
2671.8359675454153,1188
2673.622524310403,1210
2675.408712444811,1173
2677.1945322456495,1202
2678.979984010009,1222
2680.76506803506,1162
2682.5497846180497,1198
2684.334134056306,1246
2686.1181166472343,1148
2687.9017326883213,1176
2689.6849824771293,1233
2691.4678663113013,1179
2693.2503844885596,1165
2695.032537306705,1215
2696.8143250636167,1208
2698.5957480572542,1187
2700.3768065856534,1199
2702.1575009469316,1167
2703.937831439283,1155
2705.717798360982,1218
2707.4974020103837,1173
2709.276642685917,1223
2711.055520686095,1194
2712.834036309506,1147
2714.612189854819,1197
2716.389981620782,1209
2718.1674119062204,1172
2719.944481010041,1171
2721.721189231226,1109
2723.4975368688415,1151
2725.273524222027,1151
2727.0491515900053,1184
2728.824419272075,1162
2730.5993275676146,1166
2732.3738767760838,1205
2734.148067197016,1164
2735.921899130031,1138
2737.6953728748194,1161
2739.468488731156,1196
2741.2412469988926,1173
2743.0136479779617,1152
2744.785691968372,1139
2746.5573792702116,1177
2748.3287101836504,1159
2750.099685008934,1180
2751.870304046388,1204
2753.640567596418,1175
2755.4104759595057,1190
2757.1800294362156,1139
2758.949228327187,1115
2760.7180729331412,1197
2762.486563554877,1146
2764.254700493272,1171
2766.022484049284,1159
2767.789914523947,1193
2769.5569922183786,1141
2771.3237174337705,1174
2773.090090471394,1182
2774.8561116326036,1155
2776.6217812188274,1223
2778.3870995315756,1188
2780.1520668724356,1193
2781.9166835430747,1168
2783.6809498452394,1173
2785.444866080754,1165
2787.2084325515225,1178
2788.971649559527,1191
2790.73451740683,1193
2792.4970363955713,1179
2794.2592068279705,1235
2796.0210290063264,1165
2797.7825032330147,1204
2799.543629810493,1195
2801.304409041296,1240
2803.0648412280366,1166
2804.8249266734088,1129
2806.5846656801846,1188
2808.344058551212,1135
2810.1031055894246,1197
2811.8618070978273,1165
2813.6201633795085,1184
2815.378174737636,1203
2817.1358414754536,1140
2818.893163896285,1163
2820.6501423035334,1134
2822.4067770006814,1172
2824.1630682912883,1174
2825.9190164789957,1182
2827.6746218675207,1179
2829.429884760661,1204
2831.184805462294,1199
2832.9393842763743,1206
2834.693621506936,1202
2836.4475174580916,1135
2838.201072434034,1173
2839.954286739034,1224
2841.707160677441,1216
2843.459694553685,1196
2845.2118886722724,1227
2846.96374333779,1151
2848.7152588549034,1190
2850.4664355283567,1154
2852.217273662973,1131
2853.9677735636546,1130
2855.7179355353833,1211
2857.4677598832186,1209
2859.217246912299,1186
2860.9663969278427,1181
2862.715210235146,1185
2864.4636871395846,1213
2866.211827946614,1190
2867.9596329617652,1175
2869.7071024906536,1161
2871.4542368389684,1207
2873.20103631248,1131
2874.947501217038,1185
2876.6936318585695,1183
2878.4394285430812,1177
2880.1848915766604,1125
2881.9300212654707,1180
2883.6748179157553,1186
2885.4192818338374,1164
2887.1634133261173,1222
2888.907212699077,1172
2890.6506802592744,1146
2892.393816313348,1148
2894.1366211680142,1200
2895.8790951300693,1205
2897.621238506388,1154
2899.363051603925,1202
2901.1045347297118,1221
2902.8456881908596,1219
2904.58651229456,1231
2906.327007348081,1167
2908.067173658772,1207
2909.8070115340597,1167
2911.5465212814497,1224
2913.285703208527,1237
2915.0245576229563,1154
2916.7630848324807,1137
2918.5012851449196,1188
2920.2391588681758,1150
2921.976706310227,1177
2923.7139277791334,1153
2925.4508235830313,1207
2927.187394030137,1197
2928.923639428745,1153
2930.6595600872306,1171
2932.395156314046,1199
2934.1304284177218,1138
2935.8653767068713,1187
2937.6000014901815,1209
2939.3343030764227,1228
2941.068281774442,1221
2942.8019378931644,1200
2944.5352717415976,1182
2946.2682836288236,1195
2948.0009738640065,1208
2949.7333427563885,1217
2951.465390615289,1237
2953.1971177501086,1230
2954.9285244703265,1170
2956.6596110855,1195
2958.3903779052657,1214
2960.1208252393385,1194
2961.8509533975125,1204
2963.5807626896617,1207
2965.3102534257378,1185
2967.0394259157715,1148
2968.768280469873,1217
2970.496817398232,1211
2972.2250370111146,1174
2973.952939618869,1198
2975.6805255319196,1229
2977.4077950607707,1230
2979.134748516006,1205
2980.861386208289,1202
2982.587708448359,1180
2984.313715547037,1146
2986.039407815222,1256
2987.764785563891,1162
2989.489849104102,1215
2991.2145987469908,1236
2992.9390348037705,1178
2994.6631575857346,1217
2996.3869674042576,1181
2998.1104645707887,1189
2999.83364939686,1183
3001.5565221940783,1166
3003.2790832741334,1161
3005.0013329487924,1139
3006.7232715298996,1154
3008.4448993293804,1187
3010.166216659239,1186
3011.887223831558,1162
3013.607921158498,1135
3015.3283089522993,1181
3017.0483875252826,1158
3018.7681571898443,1162
3020.4876182584626,1165
3022.2067710436927,1103
3023.9256158581707,1188
3025.644153014609,1137
3027.362382825801,1181
3029.0803056046193,1143
3030.797921664012,1130
3032.5152313170106,1172
3034.2322348767225,1189
3035.9489326563353,1163
3037.665324969115,1209
3039.3814121284063,1211
3041.097194447633,1175
3042.812672240299,1218
3044.5278458199855,1249
3046.2427155003525,1226
3047.9572815951406,1172
3049.671544418167,1211
3051.38550428333,1177
3053.0991615046073,1175
3054.812516396051,1173
3056.5255692717974,1165
3058.2383204460575,1219
3059.9507702331257,1120
3061.662918947372,1184
3063.3747669032446,1201
3065.0863144152736,1210
3066.7975617980674,1209
3068.508509366309,1181
3070.219157434767,1144
3071.9295063182844,1183
3073.639556331785,1173
3075.3493077902704,1134
3077.058761008821,1160
3078.7679163025964,1197
3080.476773986837,1185
3082.1853343768594,1142
3083.89359778806,1128
3085.6015645359153,1179
3087.3092349359786,1186
3089.016609303884,1180
3090.7236879553434,1180
3092.4304712061476,1178
3094.136959372166,1127
3095.843152769349,1209
3097.5490517137237,1163
3099.2546565213966,1117
3100.959967508554,1158
3102.66498499146,1143
3104.3697092864577,1154
3106.0741407099695,1175
3107.778279578498,1129
3109.482126208622,1179
3111.1856809170004,1156
3112.8889440203716,1164
3114.5919158355528,1178
3116.294596679439,1242
3117.996986869006,1192
3119.6990867213062,1219
3121.4008965534726,1155
3123.102416682717,1172
3124.803647426329,1246
3126.5045891016784,1206
3128.205242026213,1192
3129.90560651746,1209
3131.605682893025,1205
3133.3054714705922,1152
3135.0049725679282,1170
3136.7041865028714,1186
3138.4031135933465,1136
3140.101754157353,1194
3141.800108512971,1131
3143.498176978357,1146
3145.1959598717494,1198
3146.8934575114636,1144
3148.5906702158954,1166
3150.2875983035183,1150
3151.9842420928853,1166
3153.680601902627,1175
3155.376678051456,1162
3157.07247085816,1130
3158.767980641609,1122
3160.463207720748,1200
3162.158152414606,1185
3163.8528150422862,1139
3165.5471959229726,1150
3167.2412953759303,1181
3168.9351137204976,1213
3170.628651276098,1185
3172.3219083622307,1156
3174.014885298474,1157
3175.707582404485,1122
3177.4000000000005,1143
3179.092138404835,1135
3180.7839979388846,1138
3182.47557892212,1117
3184.166881674594,1182
3185.8579065164386,1183
3187.5486537678626,1158
3189.2391237491547,1176
3190.9293167806827,1167
3192.6192331828934,1135
3194.3088732763117,1169
3195.998237381542,1169
3197.687325819268,1154
3199.376138910251,1202
3201.064676975334,1121
3202.7529403354347,1169
3204.4409293115523,1112
3206.1286442247647,1090
3207.816085396229,1135
3209.5032531471825,1099
3211.190147798936,1132
3212.8767696728846,1117
3214.5631190905015,1136
3216.2491963733373,1145
3217.9350018430214,1189
3219.6205358212637,1085
3221.305798629851,1092
3222.990790590651,1103
3224.6755120256103,1103
3226.359963256751,1163
3228.0441446061795,1196
3229.7280563960758,1085
3231.411698948703,1164
3233.0950725863995,1157
3234.778177631587,1192
3236.461014406761,1169
3238.1435832345005,1165
3239.8258844374595,1137
3241.507918338374,1140
3243.1896852600576,1167
3244.8711855254023,1202
3246.552419457381,1112
3248.233387379042,1212
3249.914089613516,1206
3251.59452648401,1170
3253.274698313813,1177
3254.95460542629,1161
3256.6342481448855,1145
3258.313626793125,1172
3259.9927416946084,1135
3261.6715931730196,1140
3263.3501815521176,1123
3265.0285071557437,1139
3266.706570307815,1159
3268.3843713323286,1118
3270.0619105533615,1137
3271.739188295068,1122
3273.4162048816834,1134
3275.0929606375184,1160
3276.769455886966,1206
3278.445690954498,1186
3280.1216661646613,1177
3281.797381842087,1128
3283.4728383114807,1178
3285.1480358976296,1147
3286.8229749253996,1165
3288.4976557197333,1160
3290.172078605655,1162
3291.846243908266,1159
3293.5201519527463,1160
3295.193803064357,1185
3296.8671975684374,1196
3298.5403357904024,1171
3300.21321805575,1206
3301.8858446900567,1155
3303.558216018975,1104
3305.23033236824,1181
3306.9021940636603,1196
3308.57380143113,1200
3310.2451547966184,1202
3311.916254486174,1194
3313.5871008259246,1242
3315.2576941420766,1206
3316.9280347609147,1156
3318.5981230088046,1180
3320.2679592121895,1148
3321.9375436975924,1139
3323.606876791612,1125
3325.27595882093,1080
3326.944790112305,1105
3328.6133709925753,1132
3330.2817017886573,1149
3331.949782827547,1085
3333.617614436319,1188
3335.2851969421245,1193
3336.952530672199,1201
3338.619615953853,1166
3340.286453114475,1166
3341.9530424815357,1164
3343.619384382583,1155
3345.2854791452437,1134
3346.951327097224,1170
3348.6169285663073,1150
3350.2822838803577,1190
3351.947393367319,1212
3353.61225735521,1131
3355.2768761721345,1179
3356.9412501462693,1131
3358.605379605873,1120
3360.2692648792827,1128
3361.9329062949146,1128
3363.596304181263,1140
