CollectionTime,6/28/2024 1:40:32 PM
ExposureUsed,3
CalibratedSpectrum
-962.7078968117929,520
-959.9714848408522,499
-957.2358232597828,484
-954.5009119013725,475
-951.7667505983302,529
-949.0333391832855,549
-946.3006774887896,526
-943.5687653473143,519
-940.837602591253,521
-938.1071890529199,514
-935.3775245645503,516
-932.6486089583007,508
-929.9204420662485,520
-927.1930237203925,551
-924.4663537526524,536
-921.7404319948689,541
-919.0152582788041,526
-916.2908324361409,572
-913.5671542984834,574
-910.8442236973568,546
-908.1220404642074,528
-905.4006044304027,547
-902.679915427231,537
-899.959973285902,526
-897.2407778375464,535
-894.5223289132158,492
-891.8046263438832,506
-889.0876699604426,499
-886.3714595937089,478
-883.6559950744183,493
-880.9412762332282,477
-878.2273029007168,484
-875.5140749073835,519
-872.8015920836489,492
-870.0898542598545,475
-867.3788612662631,481
-864.6686129330585,499
-861.9591090903457,480
-859.2503495681506,468
-856.5423341964203,496
-853.8350628050229,494
-851.1285352237478,531
-848.4227512823054,504
-845.7177108103272,504
-843.0134136373656,465
-840.3098595928943,501
-837.6070485063082,507
-834.9049802069229,512
-832.2036545239757,500
-829.5030712866244,508
-826.8032303239481,489
-824.1041314649472,491
-821.4057745385428,474
-818.7081593735775,512
-816.0112857988148,488
-813.3151536429393,490
-810.6197627345566,503
-807.9251129021936,509
-805.2312039742981,519
-802.5380357792392,526
-799.8456081453069,520
-797.1539209007124,516
-794.462973873588,532
-791.772766891987,522
-789.083299783884,509
-786.3945723771743,498
-783.7065844996748,506
-781.0193359791231,526
-778.3328266431781,527
-775.6470563194197,541
-772.9620248353489,523
-770.2777320183878,515
-767.5941776958798,496
-764.9113616950891,528
-762.2292838432011,540
-759.5479439673222,510
-756.8673418944801,491
-754.1874774516235,555
-751.5083504656222,539
-748.8299607632671,518
-746.15230817127,518
-743.475392516264,517
-740.7992136248035,515
-738.1237713233636,506
-735.4490654383407,533
-732.7750957960521,508
-730.1018622227365,475
-727.4293645445534,512
-724.7576025875837,532
-722.0865761778291,517
-719.4162851412126,525
-716.7467293035781,522
-714.0779084906909,534
-711.409822528237,530
-708.7424712418238,531
-706.0758544569796,565
-703.4099719991541,529
-700.7448236937178,535
-698.0804093659622,510
-695.4167288411002,557
-692.7537819442656,523
-690.0915685005134,520
-687.4300883348199,531
-684.7693412720819,552
-682.1093271371178,549
-679.4500457546669,556
-676.7914969493897,582
-674.1336805458676,566
-671.4765963686034,547
-668.8202442420206,554
-666.1646239904642,580
-663.5097354382001,546
-660.8555784094151,537
-658.2021527282176,572
-655.5494582186366,576
-652.8974947046223,603
-650.2462620100463,564
-647.5957599587009,563
-644.9459883742998,602
-642.2969470804776,634
-639.6486359007902,623
-637.0010546587141,677
-634.3542031776476,592
-631.7080812809096,630
-629.0626887917401,589
-626.4180255333008,582
-623.7740913286734,559
-621.1308860008619,556
-618.4884093727904,542
-615.8466612673046,587
-613.2056415071715,548
-610.5653499150785,567
-607.9257863136347,583
-605.28695052537,565
-602.6488423727357,572
-600.0114616781036,613
-597.3748082637674,634
-594.7388819519412,599
-592.1036825647604,585
-589.4692099242818,608
-586.8354638524829,574
-584.2024441712624,616
-581.5701507024403,590
-578.9385832677575,580
-576.3077416888759,590
-573.6776257873787,584
-571.0482353847704,588
-568.4195703024757,616
-565.7916303618415,647
-563.164415384135,651
-560.5379251905453,635
-557.9121596021815,620
-555.2871184400748,598
-552.6628015251767,621
-550.0392086783606,627
-547.4163397204204,628
-544.794194472071,616
-542.1727727539491,618
-539.5520743866118,669
-536.9320991905377,651
-534.3128469861261,705
-531.6943175936979,697
-529.0765108334947,731
-526.4594265256793,805
-523.8430644903358,921
-521.2274245474689,1078
-518.612506517005,1227
-515.9983102187913,1285
-513.3848354725959,1476
-510.77208209810846,1742
-508.16004991493924,1873
-505.5487387426199,2094
-502.9381484006032,2131
-500.3282787082628,2152
-497.71912948489364,2094
-495.1107005497117,1792
-492.5029917218539,1536
-489.8960028203786,1205
-487.28973366426493,1066
-484.68418407241325,971
-482.07935386364494,869
-479.47524285670266,901
-476.87185087025,874
-474.2691777228715,854
-471.66722323307334,825
-469.0659872192821,837
-466.4654694998459,873
-463.86566989303384,779
-461.26658821703614,776
-458.66822428996414,776
-456.07057792985,817
-453.4736489546475,773
-450.877437182231,752
-448.28194243039627,767
-445.68716451686,755
-443.09310325926003,802
-440.49975847515555,735
-437.9071299820263,759
-435.31521759727354,783
-432.72402113821954,772
-430.13354042210767,797
-427.5437752661022,787
-424.95472548728867,827
-422.36639090267386,856
-419.7787713291855,836
-417.1918665836721,835
-414.60567648290385,836
-412.0202008435715,780
-409.4354394822874,830
-406.8513922155845,859
-404.26805885991723,851
-401.685439231661,834
-399.103533147112,830
-396.522340422488,822
-393.9418608739278,833
-391.3620943174908,772
-388.7830405691583,862
-386.2046994448317,809
-383.6270707603344,757
-381.05015433141045,702
-378.473949973725,683
-375.8984575028645,678
-373.32367673433623,632
-370.74960748356875,639
-368.1762495659117,598
-365.60360279663576,539
-363.03166699093265,549
-360.4604419639154,566
-357.8899275306178,525
-355.32012350599507,538
-352.7510297049233,520
-350.1826459421999,501
-347.61497203254316,491
-345.04800779059235,498
-342.4817530309082,505
-339.91620756797226,483
-337.35137121618743,506
-334.7872437898774,484
-332.22382510328725,499
-329.66111497058273,555
-327.09911320585127,547
-324.53781962310075,518
-321.9772340362607,523
-319.4173562591816,530
-316.8581861056348,541
-314.2997233893127,525
-311.7419679238294,627
-309.1849195227194,610
-306.62857799943856,507
-304.0729431673641,561
-301.51801483979375,548
-298.963792829947,552
-296.41027695096386,521
-293.85746701590574,551
-291.3053628377552,704
-288.7539642294155,662
-286.2032710037115,591
-283.65328297338897,593
-281.1039999511146,592
-278.5554217494762,621
-276.007548180983,593
-273.4603790580651,557
-270.9139141930734,579
-268.3681533982807,643
-265.8230964858798,609
-263.27874326798565,590
-260.7350935566336,675
-258.1921471637804,627
-255.6499039013039,594
-253.10836358100266,569
-250.56752601459698,673
-248.02739101372765,720
-245.48795838995704,700
-242.94922795476816,679
-240.41119951956557,679
-237.8738728956746,787
-235.33724789434166,875
-232.80132432673452,935
-230.2661020039418,846
-227.73158073697357,753
-225.19776033676033,788
-222.66464061415422,744
-220.1322213799284,685
-217.60050244477725,728
-215.06948361931552,751
-212.53916471408013,720
-210.00954553952818,794
-207.48062590603843,876
-204.9524056239104,842
-202.4248845033651,776
-199.8980623545441,767
-197.37193898751036,732
-194.84651421224817,804
-192.32178783866232,855
-189.79775967657952,821
-187.27442953574644,835
-184.7517972258321,845
-182.2298625564256,811
-179.7086253370378,859
-177.18808537710026,825
-174.66824248596583,854
-172.14909647290835,874
-169.6306471471229,944
-167.11289431772548,854
-164.59583779375328,859
-162.07947738416453,962
-159.5638128978386,1060
-157.04884414357605,1127
-154.53457093009854,1106
-152.02099306604828,1073
-149.50811035998936,1055
-146.99592262040665,1015
-144.48442965570587,1062
-141.97363127421409,1111
-139.46352728417958,1061
-136.95411749377126,1066
-134.44540171107985,1238
-131.93737974411636,1255
-129.43005140081357,1180
-126.92341648902493,1194
-124.41747481652521,1217
-121.91222619101006,1246
-119.40767042009657,1234
-116.90380731132257,1253
-114.40063667214702,1374
-111.8981583099503,1437
-109.3963720320337,1516
-106.89527764561933,1716
-104.39487495785067,1730
-101.89516377579241,1685
-99.39614390642998,1692
-96.89781515667039,1580
-94.40017733334128,1814
-91.90323024319173,1683
-89.40697369289148,1815
-86.91140748903172,1736
-84.41653143812482,1716
-81.92234534660395,1915
-79.42884902082358,2186
-76.93604226705907,2203
-74.4439248915071,1959
-71.95249670028534,1938
-69.46175749943245,2074
-66.97170709490854,2591
-64.48234529259423,2951
-61.99367189829195,2308
-59.50568671772464,2417
-57.01838955653636,2740
-54.53178022029283,3067
-52.045858514480074,2980
-49.560624244506016,3022
-47.07607721569923,3051
-44.59221723330904,3189
-42.10904410250669,3301
-39.62655762838392,4114
-37.14475761595372,5230
-34.66364387015028,5656
-32.18321619582866,6316
-29.70347439776515,7454
-27.224418280657005,9559
-24.74604764912317,14699
-22.26836230770266,25577
-19.7913620608565,43050
-17.315046712966478,52299
-14.83941606833514,55200
-12.36446993118659,65031
-9.89020810566592,65031
-7.416630395839093,65031
-4.94373660569363,65031
-2.471526539137585,65031
-6.821210263296962E-13,65031
2.47084320796705,65031
4.941003281093458,65031
7.410480415786196,65031
9.879274808531363,65031
12.347386655893956,65031
14.814816154518212,65031
17.28156350112681,65031
19.74762889252179,65031
22.21301252558385,65031
24.67771459727237,37289
27.141735304626195,12427
29.605074844762612,8883
32.06773341487792,9284
34.52971121224755,8501
36.99100843422559,6851
39.45162527824516,7518
41.91156194181792,8649
44.370818622535126,13610
46.82939551806646,17409
49.287292826160524,17706
51.74451074464503,16396
54.201049471426245,12040
56.65690920448981,7647
59.112090141899785,5663
61.56659248179983,5582
64.02041642241159,4077
66.4735621620365,2961
68.92602989905402,2508
71.37781983192338,2470
73.82893215918205,2695
76.27936707944684,2711
78.72912479141326,3125
81.17820549385567,3259
83.62660938562783,2496
86.07433666566146,2352
88.5213875329681,2564
90.96776218663751,2367
93.41346082583925,2167
95.85848364982041,1885
98.30283085790859,2016
100.7465026495089,2089
103.18949922410604,1970
105.63182078126385,1892
108.07346752062438,1885
110.51443964190923,1563
112.95473734491827,1403
115.39436082953114,1517
117.83331029570547,1720
120.27158594347827,1767
122.7091879729652,1391
125.1461165843615,1499
127.58237197794062,1551
130.01795435405518,1334
132.4528639131364,1254
134.88710085569494,1410
137.32066538231982,1408
139.75355769367923,1300
142.1857779905207,1407
144.61732647366978,1512
147.04820334403132,1397
149.47840880258934,1299
151.90794305040674,1478
154.33680628862487,1486
156.76499871846443,1324
159.19252054122433,1581
161.61937195828352,1515
164.04555317109896,1617
166.47106438120693,1791
168.89590579022217,2053
171.320077599839,1914
173.7435800118302,1976
176.16641322804742,1923
178.58857745042144,1994
181.01007288096173,2042
183.43089972175687,2014
185.85105817497413,2023
188.27054844285988,2026
190.6893707277394,1920
193.10752523201643,1996
195.5250121581745,2040
197.9418317087751,2161
200.3579840864594,2110
202.7734694939469,2102
205.18828813403627,2071
207.6024402096051,1982
210.01592592360964,2120
212.42874547908548,2027
214.84089907914665,2042
217.2523869269868,2035
219.66320922587727,2056
222.0733661791695,2078
224.48285799029293,2116
226.8916848627572,2086
229.29984700014882,2153
231.7073446061355,2141
234.11417788446204,2212
236.520347038953,2220
238.92585227351185,2272
241.33069379212054,2253
243.73487179884035,2264
246.1383864978112,2213
248.541238093252,2218
250.9434267894609,2105
253.34495279081432,2192
255.74581630176783,2291
258.1460175268563,2204
260.54555667069314,2282
262.9444339379703,2274
265.3426495334594,2238
267.7402036620107,2196
270.1370965285529,2153
272.53332833809407,2128
274.9288992957214,2274
277.32380960660055,2169
279.718059475976,2071
282.1116491091717,2086
284.5045787115897,2145
286.89684848871195,2192
289.2884586460981,2225
291.67940938938807,2200
294.0697009242996,2204
296.4593334566299,2269
298.84830719225477,2209
301.23662233712923,2171
303.6242790972866,2242
306.01127767884,2271
308.39761828798066,2216
310.78330113097934,2124
313.16832641418534,2114
315.5526943440269,2116
317.9364051270112,1964
320.3194589697242,2096
322.70185607883093,1997
325.0835966610754,1990
327.4646809232805,2018
329.8451090723478,1968
332.2248813152577,1962
334.6039978590701,2017
336.9824589109231,2024
339.36026467803447,1940
341.7374153677,1958
344.113911187295,1896
346.48975234427337,1834
348.8649390461686,1871
351.2394715005918,1920
353.61334991523415,1782
355.9865744978655,1803
358.35914545633375,1798
360.73106299856715,1854
363.10232733257146,1816
365.47293866643247,1845
367.84289720831396,1851
370.2122031664593,1800
372.5808567491905,1794
374.9488581649083,1848
377.31620762209275,1755
379.6829053293021,1712
382.0489514951745,1752
384.4143463284262,1750
386.7790900378528,1735
389.14318283232853,1700
391.50662492080653,1777
393.86941651231916,1758
396.23155781597745,1750
398.5930490409713,1726
400.9538903965696,1644
403.3140820921202,1766
405.6736243370498,1674
408.03251734086336,1720
410.3907613131465,1719
412.74835646356166,1742
415.10530300185144,1715
417.4616011378372,1715
419.81725108141893,1753
422.1722530425758,1795
424.5266072313656,1694
426.880313857925,1660
429.2333731324701,1665
431.58578526529516,1658
433.9375504667738,1608
436.2886689473588,1688
438.63914091758113,1666
440.9889665880513,1702
443.33814616945835,1622
445.68667987257015,1625
448.03456790823395,1614
450.3818104873759,1626
452.72840782100013,1622
455.07436012019105,1670
457.41966759611057,1582
459.7643304600007,1683
462.10834892318155,1630
464.4517231970525,1650
466.79445349309174,1651
469.1365400228566,1685
471.4779829979826,1662
473.81878263018564,1676
476.15893913125876,1658
478.4984527130747,1726
480.8373235875855,1732
483.17555196682144,1761
485.5131380628919,1838
487.8500820879857,1910
490.1863842543697,1988
492.52204477439034,2142
494.8570638604725,2343
497.1914417251204,2714
499.52517858091653,3032
501.85827464052306,3464
504.19073011668036,3806
506.5225452222086,4113
508.85372017000566,4022
511.18425517304956,4058
513.514150444396,4173
515.8434061971808,4299
518.1720226446176,4411
520.4999999999999,4346
522.8273384766991,4508
525.1540382881666,4477
527.480099647932,4301
529.8055227696037,3291
532.1303078668694,2318
534.454455153496,1919
536.777964843328,1709
539.1008371502907,1658
541.4230722883866,1696
543.744670471698,1639
546.0656319143858,1559
548.3859568306899,1584
550.7056454349294,1558
553.0246979415016,1486
555.3431145648834,1482
557.6608955196306,1452
559.978041020377,1471
562.2945512818363,1478
564.6104265188006,1487
566.9256669461412,1469
569.2402727788082,1494
571.5542442318302,1410
573.8675815203156,1466
576.1802848594508,1454
578.4923544645015,1484
580.8037905508126,1477
583.114593333807,1461
585.4247630289875,1466
587.7342998519354,1424
590.0432040183106,1451
592.3514757438526,1462
594.6591152443794,1491
596.9661227357875,1511
599.2724984340531,1508
601.578242555231,1506
603.8833553154542,1476
606.1878369309362,1540
608.4916876179676,1514
610.7949075929192,1561
613.0974970722403,1528
615.3994562724587,1482
617.7007854101818,1408
620.0014847020951,1452
622.3015543649641,1494
624.6009946156324,1515
626.8998056710224,1518
629.1979877481361,1511
631.4955410640538,1515
633.7924658359349,1488
636.0887622810175,1499
638.3844306166192,1448
640.6794710601358,1510
642.9738838290426,1500
645.2676691408932,1450
647.5608272133207,1472
649.853358264037,1443
652.1452625108324,1483
654.4365401715764,1519
656.7271914642178,1533
659.0172166067838,1442
661.3066158173809,1501
663.5953893141935,1512
665.8835373154867,1456
668.1710600396028,1533
670.4579577049639,1513
672.7442305300709,1575
675.0298787335033,1512
677.3149025339197,1502
679.599302150058,1524
681.8830778007342,1524
684.1662297048437,1483
686.4487580813608,1553
688.7306631493387,1504
691.0119451279091,1543
693.2926042362834,1520
695.5726406937516,1571
697.8520547196814,1508
700.1308465335215,1462
702.4090163547982,1481
704.6865644031171,1477
706.9634908981619,1479
709.2397960596965,1501
711.5154801075631,1546
713.7905432616823,1475
716.0649857420548,1484
718.3388077687592,1492
720.612009561953,1504
722.8845913418733,1492
725.1565533288352,1504
727.427895743234,1508
729.6986188055427,1612
731.9687227363137,1581
734.238207756178,1520
736.5070740858458,1537
738.7753219461066,1499
741.0429515578281,1476
743.3099631419569,1525
745.5763569195191,1520
747.8421331116193,1463
750.1072919394409,1589
752.3718336242467,1504
754.6357583873777,1551
756.8990664502545,1476
759.1617580343765,1521
761.423833361321,1557
763.6852926527457,1574
765.9461361303862,1563
768.206364016058,1539
770.4659765316536,1524
772.7249738991469,1565
774.9833563405886,1585
777.2411240781092,1582
779.4982773339183,1516
781.7548163303044,1572
784.010741289634,1584
786.2660524343538,1591
788.5207499869881,1539
790.7748341701416,1528
793.0283052064964,1525
795.2811633188143,1522
797.5334087299362,1560
799.7850416627813,1560
802.0360623403484,1567
804.2864709857143,1594
806.5362678220353,1595
808.7854530725468,1508
811.0340269605625,1572
813.2819897094754,1569
815.5293415427581,1604
817.77608268396,1565
820.0222133567116,1575
822.2677337847211,1561
824.5126441917765,1525
826.7569448017433,1535
829.0006358385675,1588
831.2437175262731,1559
833.4861900889629,1525
835.7280537508192,1580
837.9693087361026,1573
840.2099552691533,1614
842.4499935743896,1565
844.689423876309,1573
846.9282463994886,1458
849.1664613685833,1555
851.4040690083276,1546
853.6410695435349,1577
855.877463199097,1550
858.1132501999847,1543
860.3484307712487,1596
862.5830051380175,1593
864.8169735254988,1551
867.0503361589791,1569
869.2830932638243,1536
871.5152450654786,1563
873.7467917894654,1622
875.9777336613873,1580
878.2080709069252,1602
880.4378037518389,1578
882.666932421968,1528
884.8954571432301,1537
887.1233781416219,1587
889.3506956432192,1575
891.5774098741766,1616
893.803521060728,1540
896.0290294291852,1553
898.2539352059397,1553
900.4782386174619,1685
902.7019398903011,1555
904.925039251085,1540
907.147536926521,1626
909.3694331433943,1601
911.59072812857,1652
913.8114221089921,1530
916.0315153116827,1622
918.2510079637437,1617
920.4699002923547,1599
922.6881925247761,1532
924.905884888345,1612
927.1229776104793,1560
929.3394709186747,1611
931.555365040506,1573
933.7706602036275,1615
935.9853566357709,1578
938.1994545647489,1567
940.4129542184515,1656
942.6258558248488,1586
944.8381596119883,1700
947.0498658079974,1618
949.2609746410825,1588
951.4714863395287,1593
953.6814011316998,1542
955.8907192460387,1593
958.0994409110671,1582
960.3075663553858,1561
962.5150958076741,1562
964.7220294966913,1524
966.928367651274,1571
969.1341105003388,1456
971.3392582728806,1481
973.5438111979742,1520
975.747769504772,1492
977.9511334225061,1492
980.153903180487,1463
982.3560790081052,1461
984.5576611348289,1474
986.7586497902058,1438
988.9590452038618,1511
991.158847605503,1411
993.3580572249133,1384
995.5566742919558,1315
997.7546990365728,1331
999.952131688785,1351
1002.1489724786926,1357
1004.3452216364743,1313
1006.5408793923874,1284
1008.7359459767691,1347
1010.9304216200343,1338
1013.1243065526781,1303
1015.3176010052733,1282
1017.510305208472,1249
1019.7024193930064,1253
1021.8939437896848,1254
1024.0848786293977,1268
1026.2752241431122,1265
1028.4649805618747,1231
1030.6541481168115,1259
1032.842727039127,1199
1035.0307175601051,1191
1037.2181199111074,1168
1039.4049343235752,1217
1041.591161029029,1244
1043.7768002590683,1175
1045.9618522453698,1215
1048.1463172196918,1248
1050.3301954138697,1222
1052.513487059818,1213
1054.69619238953,1229
1056.8783116350783,1191
1059.0598450286152,1223
1061.2407928023704,1240
1063.4211551886528,1230
1065.6009324198508,1195
1067.780124728432,1211
1069.9587323469414,1187
1072.1367555080046,1164
1074.314194444325,1212
1076.4910493886855,1157
1078.667320573947,1182
1080.843008233051,1167
1083.0181125990161,1162
1085.1926339049414,1167
1087.3665723840027,1130
1089.5399282694575,1179
1091.7127017946405,1200
1093.8848931929647,1107
1096.0565026979243,1123
1098.2275305430899,1145
1100.3979769621128,1136
1102.567842188722,1126
1104.737126456726,1131
1106.9058300000124,1179
1109.0739530525475,1125
1111.2414958483764,1160
1113.4084586216231,1156
1115.5748416064907,1146
1117.7406450372605,1098
1119.9058691482942,1118
1122.0705141740304,1161
1124.2345803489884,1113
1126.3980679077658,1116
1128.5609770850388,1097
1130.7233081155623,1116
1132.8850612341707,1137
1135.0462366757774,1108
1137.2068346753745,1093
1139.3668554680326,1132
1141.526299288901,1158
1143.68516637321,1120
1145.8434569562655,1126
1148.001171273455,1105
1150.158309560244,1109
1152.3148720521767,1118
1154.470858984876,1114
1156.626270594044,1096
1158.7811071154629,1127
1160.9353687849912,1116
1163.089055838569,1131
1165.242168512213,1108
1167.3947070420209,1116
1169.5466716641677,1102
1171.6980626149075,1105
1173.8488801305748,1094
1175.9991244475814,1057
1178.1487958024186,1064
1180.2978944316555,1086
1182.4464205719428,1098
1184.5943744600072,1087
1186.7417563326567,1074
1188.8885664267755,1090
1191.0348049793297,1134
1193.1804722273619,1115
1195.325568407995,1085
1197.4700937584303,1107
1199.614048515948,1119
1201.7574329179074,1151
1203.900247201746,1173
1206.042491604982,1084
1208.1841663652099,1115
1210.3252717201053,1154
1212.465807907422,1127
1214.6057751649923,1092
1216.7451737307279,1112
1218.8840038426192,1131
1221.0222657387353,1097
1223.1599596572241,1143
1225.2970858363137,1113
1227.4336445143094,1120
1229.5696359295966,1085
1231.705060320639,1144
1233.8399179259786,1160
1235.9742089842384,1136
1238.107933734118,1162
1240.2410924143974,1138
1242.373685263935,1120
1244.5057125216676,1134
1246.6371744266116,1167
1248.7680712178621,1072
1250.898403134593,1080
1253.028170416058,1087
1255.1573733015875,1128
1257.2860120305932,1149
1259.4140868425648,1155
1261.54159797707,1109
1263.6685456737569,1112
1265.7949301723515,1070
1267.9207517126597,1139
1270.046010534565,1099
1272.1707068780306,1131
1274.2948409830983,1121
1276.4184130898889,1138
1278.541423438603,1136
1280.6638722695184,1121
1282.785759822993,1085
1284.9070863394636,1136
1287.0278520594447,1178
1289.1480572235314,1148
1291.2677020723963,1115
1293.3867868467923,1100
1295.5053117875495,1167
1297.623277135579,1168
1299.740683131868,1144
1301.8575300174857,1170
1303.973818033578,1142
1306.0895474213703,1153
1308.2047184221678,1163
1310.3193312773528,1163
1312.4333862283888,1148
1314.5468835168163,1130
1316.659823384255,1163
1318.7722060724045,1181
1320.8840318230418,1233
1322.9953008780249,1164
1325.1060134792888,1176
1327.2161698688478,1163
1329.3257702887959,1231
1331.4348149813054,1271
1333.5433041886276,1161
1335.6512381530933,1149
1337.7586171171101,1162
1339.8654413231675,1166
1341.9717110138317,1153
1344.0774264317488,1183
1346.1825878196432,1151
1348.2871954203192,1157
1350.3912494766587,1155
1352.4947502316231,1160
1354.5976979282532,1163
1356.7000928096686,1175
1358.8019351190665,1208
1360.9032250997243,1153
1363.0039629949988,1147
1365.1041490483235,1174
1367.2037835032133,1210
1369.3028666032606,1138
1371.401398592137,1156
1373.4993797135926,1153
1375.5968102114575,1197
1377.6936903296396,1126
1379.7900203121262,1177
1381.8858004029835,1160
1383.9810308463561,1164
1386.075711886469,1204
1388.1698437676241,1166
1390.2634267342032,1179
1392.356461030667,1192
1394.4489469015557,1194
1396.5408845914872,1168
1398.6322743451592,1155
1400.7231164073469,1152
1402.813411022907,1153
1404.903158436773,1145
1406.9923588939578,1165
1409.0810126395531,1146
1411.1691199187303,1152
1413.2566809767386,1104
1415.343696058907,1114
1417.4301654106425,1114
1419.5160892774315,1149
1421.6014679048399,1124
1423.6863015385125,1131
1425.7705904241707,1183
1427.8543348076178,1153
1429.9375349347342,1155
1432.0201910514802,1159
1434.102303403894,1134
1436.1838722380944,1138
1438.2648978002767,1119
1440.3453803367174,1195
1442.4253200937692,1162
1444.5047173178677,1186
1446.5835722555234,1171
1448.6618851533285,1146
1450.739656257952,1135
1452.8168858161434,1133
1454.8935740747306,1118
1456.96972128062,1128
1459.045327680797,1137
1461.120393522327,1146
1463.1949190523528,1144
1465.2689045180973,1184
1467.3423501668608,1174
1469.415256246024,1191
1471.4876230030463,1158
1473.559450685465,1162
1475.6307395408976,1174
1477.7014898170391,1150
1479.771701761665,1195
1481.8413756226287,1209
1483.9105116478618,1156
1485.9791100853772,1186
1488.0471711832643,1168
1490.1146951896926,1191
1492.1816823529098,1194
1494.2481329212433,1151
1496.3140471430984,1192
1498.3794252669609,1185
1500.4442675413939,1216
1502.5085742150404,1251
1504.572345536622,1209
1506.6355817549388,1142
1508.6982831188702,1211
1510.7604498773744,1171
1512.8220822794883,1240
1514.8831805743293,1154
1516.9437450110909,1211
1519.003775839048,1194
1521.0632733075522,1204
1523.1222376660367,1200
1525.1806691640113,1200
1527.2385680510652,1217
1529.2959345768668,1205
1531.3527689911643,1248
1533.4090715437833,1168
1535.4648424846291,1327
1537.5200820636855,1249
1539.5747905310159,1234
1541.6289681367616,1202
1543.6826151311434,1235
1545.7357317644614,1251
1547.7883182870937,1239
1549.8403749494987,1245
1551.8919020022113,1276
1553.9428996958477,1338
1555.9933682811015,1308
1558.0433080087469,1312
1560.0927191296346,1248
1562.1416018946961,1247
1564.1899565549415,1359
1566.2377833614592,1299
1568.2850825654164,1288
1570.3318544180606,1320
1572.3780991707158,1352
1574.423817074788,1278
1576.4690083817595,1317
1578.5136733431923,1301
1580.5578122107272,1290
1582.601425236085,1322
1584.6445126710646,1295
1586.6870747675434,1232
1588.7291117774776,1237
1590.7706239529034,1212
1592.8116115459347,1241
1594.8520748087658,1263
1596.8920139936686,1187
1598.9314293529933,1249
1600.9703211391711,1231
1603.008689604711,1174
1605.0465350022005,1189
1607.0838575843068,1198
1609.1206576037753,1148
1611.1569353134305,1187
1613.1926909661765,1199
1615.2279248149953,1162
1617.2626371129481,1161
1619.2968281131757,1195
1621.3304980688963,1163
1623.3636472334088,1125
1625.39627586009,1158
1627.428384202396,1176
1629.459972513861,1124
1631.4910410480993,1189
1633.5215900588028,1193
1635.551619799744,1134
1637.5811305247717,1140
1639.6101224878166,1128
1641.6385959428862,1190
1643.6665511440683,1166
1645.693988345528,1172
1647.7209078015112,1095
1649.7473097663405,1072
1651.7731944944203,1102
1653.7985622402307,1181
1655.823413258333,1104
1657.847747803366,1172
1659.8715661300494,1117
1661.8948684931793,1147
1663.9176551476316,1083
1665.9399263483624,1121
1667.9616823504057,1121
1669.982923408873,1116
1672.0036497789574,1109
1674.0238617159293,1097
1676.043559475138,1119
1678.0627433120121,1091
1680.081413482059,1146
1682.0995702408654,1115
1684.117213844096,1083
1686.134344547495,1147
1688.1509626068864,1075
1690.1670682781705,1091
1692.182661817329,1079
1694.1977434804217,1082
1696.2123135235875,1127
1698.226372203043,1063
1700.2399197750851,1134
1702.2529564960905,1139
1704.2654826225112,1140
1706.277498410882,1117
1708.2890041178139,1159
1710.2999999999988,1120
1712.3104863142066,1131
1714.3204633172854,1138
1716.329931266163,1158
1718.3388904178469,1144
1720.3473410294214,1092
1722.3552833580516,1100
1724.3627176609807,1103
1726.3696441955308,1109
1728.3760632191033,1116
1730.3819749891782,1157
1732.3873797633146,1111
1734.3922777991502,1131
1736.3966693544012,1155
1738.4005546868639,1086
1740.4039340544127,1130
1742.406807715001,1134
1744.4091759266616,1111
1746.4110389475054,1083
1748.4123970357223,1159
1750.413250449582,1166
1752.4135994474318,1097
1754.4134442876993,1150
1756.4127852288902,1103
1758.4116225295893,1037
1760.4099564484595,1145
1762.407787244244,1115
1764.405115175764,1118
1766.4019405019203,1076
1768.3982634816916,1077
1770.3940843741357,1114
1772.3894034383907,1108
1774.3842209336717,1121
1776.378537119274,1144
1778.372352254571,1136
1780.3656665990156,1072
1782.3584804121397,1135
1784.3507939535534,1083
1786.3426074829463,1131
1788.3339212600863,1104
1790.3247355448211,1108
1792.3150505970766,1077
1794.3048666768573,1105
1796.2941840442477,1090
1798.2830029594106,1080
1800.2713236825884,1088
1802.2591464741004,1102
1804.2464715943465,1035
1806.2332993038058,1101
1808.2196298630352,1115
1810.2054635326708,1118
1812.190800573428,1119
1814.175641246101,1091
1816.1599858115628,1145
1818.1438345307652,1142
1820.127187664738,1120
1822.1100454745924,1062
1824.092408221516,1151
1826.0742761667766,1105
1828.055649571721,1082
1830.0365286977735,1126
1832.0169138064398,1105
1833.9968051593014,1096
1835.9762030180214,1091
1837.9551076443408,1077
1839.9335193000788,1088
1841.9114382471344,1085
1843.888864747485,1060
1845.8657990631878,1108
1847.842241456378,1118
1849.8181921892697,1096
1851.7936515241558,1075
1853.7686197234098,1088
1855.7430970494815,1178
1857.7170837649014,1129
1859.6905801322787,1120
1861.6635864143004,1123
1863.6361028737338,1097
1865.608129773424,1114
1867.5796673762961,1103
1869.5507159453537,1078
1871.521275743678,1137
1873.4913470344313,1140
1875.4609300808534,1138
1877.4300251462632,1112
1879.3986324940588,1114
1881.366752387717,1110
1883.3343850907936,1127
1885.3015308669228,1145
1887.268189979819,1109
1889.2343626932739,1136
1891.2000492711595,1127
1893.1652499774254,1121
1895.1299650761011,1141
1897.0941948312952,1155
1899.0579395071945,1169
1901.0211993680641,1176
1902.98397467825,1083
1904.9462657021745,1157
1906.9080727043415,1093
1908.869395949332,1100
1910.8302357018065,1160
1912.790592226504,1142
1914.7504657882428,1118
1916.7098566519212,1153
1918.6687650825133,1126
1920.6271913450764,1181
1922.5851357047422,1152
1924.5425984267245,1127
1926.499579776314,1097
1928.4560800188833,1113
1930.4120994198802,1157
1932.367638244833,1094
1934.32269675935,1134
1936.2772752291175,1136
1938.231373919899,1145
1940.1849930975404,1132
1942.1381330279637,1141
1944.0907939771696,1116
1946.0429762112412,1071
1947.9946799963363,1150
1949.9459055986945,1117
1951.896653284633,1113
1953.8469233205478,1148
1955.7967159729142,1099
1957.7460315082863,1144
1959.6948701932974,1121
1961.6432322946594,1139
1963.5911180791632,1132
1965.5385278136787,1122
1967.4854617651545,1137
1969.4319202006182,1120
1971.377903387176,1099
1973.3234115920136,1112
1975.268445082395,1139
1977.2130041256642,1118
1979.1570889892423,1136
1981.1006999406304,1134
1983.04383724741,1091
1984.986501177238,1119
1986.928691997853,1122
1988.8704099770712,1149
1990.811655382789,1082
1992.7524284829801,1154
1994.692729545698,1117
1996.6325588390755,1143
1998.5719166313224,1111
2000.5108031907307,1154
2002.4492187856677,1101
2004.387163684583,1125
2006.3246381560011,1125
2008.2616424685298,1099
2010.1981768908527,1098
2012.1342416917332,1105
2014.069837140014,1097
2016.0049635046162,1112
2017.9396210545406,1117
2019.8738100588666,1100
2021.8075307867502,1134
2023.740783507431,1148
2025.6735684902228,1084
2027.6058860045214,1091
2029.5377363198004,1090
2031.4691197056118,1122
2033.4000364315875,1130
2035.3304867674374,1151
2037.260470982952,1113
2039.189989347998,1091
2041.1190421325232,1081
2043.047629606554,1133
2044.9757520401945,1159
2046.9034097036288,1141
2048.8306028671195,1138
2050.7573318010086,1096
2052.683596775716,1164
2054.609398061742,1111
2056.5347359296647,1100
2058.4596106501403,1088
2060.384022493906,1076
2062.3079717317764,1157
2064.231458634646,1118
2066.1544834734873,1113
2068.077046519352,1090
2069.99914804337,1121
2071.9207883167524,1136
2073.8419676107865,1106
2075.7626861968406,1159
2077.6829443463607,1146
2079.6027423308715,1202
2081.522080421977,1113
2083.440958891362,1136
2085.359378010786,1134
2087.2773380520907,1064
2089.194839287196,1124
2091.111881988101,1197
2093.0284664268825,1088
2094.9445928756973,1129
2096.86026160678,1134
2098.775472892446,1090
2100.690227005088,1103
2102.604524217178,1090
2104.5183648012676,1084
2106.431749029985,1149
2108.34467717604,1125
2110.2571495122206,1090
2112.169166311393,1137
2114.080727846503,1131
2115.9918343905747,1103
2117.902486216711,1130
2119.8126835980956,1115
2121.722426807987,1081
2123.6317161197285,1088
2125.5405518067364,1152
2127.448934142509,1081
2129.356863400624,1137
2131.264339854737,1167
2133.1713637785815,1142
2135.077935445972,1106
2136.9840551308002,1118
2138.889723107037,1144
2140.7949396487334,1108
2142.699705030018,1151
2144.6040195250994,1122
2146.507883408264,1157
2148.4112969538774,1096
2150.3142604363848,1153
2152.2167741303097,1120
2154.1188383102535,1126
2156.0204532508997,1117
2157.9216192270064,1096
2159.822336513414,1103
2161.7226053850413,1091
2163.622426116884,1069
2165.5217989840185,1085
2167.4207242616,1125
2169.319202224862,1149
2171.2172331491165,1171
2173.1148173097563,1152
2175.0119549822507,1121
2176.90864644215,1142
2178.8048919650823,1124
2180.7006918267534,1153
2182.596046302952,1182
2184.4909556695407,1130
2186.3854202024645,1109
2188.279440177746,1148
2190.173015871487,1102
2192.066147559868,1100
2193.958835519149,1112
2195.851080025667,1079
2197.7428813558417,1115
2199.6342397861667,1097
2201.5251555932186,1172
2203.415629053651,1120
2205.3056604441986,1107
2207.19525004167,1139
2209.084398122958,1094
2210.9731049650327,1074
2212.861370844941,1121
2214.749196039812,1104
2216.636580826851,1141
2218.523525483344,1176
2220.410030286655,1091
2222.296095514226,1132
2224.1817214435805,1135
2226.066908352319,1157
2227.951656518121,1150
2229.835966218746,1131
2231.71983773203,1099
2233.6032713358913,1128
2235.486267308324,1156
2237.3688259274036,1156
2239.2509474712824,1147
2241.132632218193,1128
2243.013880446447,1139
2244.8946924344323,1145
2246.7750684606203,1153
2248.6550088035574,1107
2250.534513741871,1136
2252.413583554265,1069
2254.292218519526,1123
2256.170418916517,1114
2258.0481850241786,1100
2259.925517121534,1135
2261.8024154876825,1104
2263.678880401803,1121
2265.5549121431536,1130
2267.430510991071,1138
2269.305677224971,1093
2271.180411124348,1117
2273.0547129687766,1087
2274.9285830379076,1083
2276.8020216114737,1163
2278.6750289692845,1110
2280.5476053912294,1154
2282.4197511572766,1096
2284.2914665474727,1096
2286.162751841943,1133
2288.0336073208937,1128
2289.904033264608,1111
2291.774029953448,1152
2293.6435976678554,1175
2295.5127366883517,1118
2297.381447295534,1134
2299.2497297700825,1128
2301.1175843927526,1138
2302.9850114443825,1098
2304.852011205885,1102
2306.7185839582553,1108
2308.5847299825664,1156
2310.4504495599676,1133
2312.3157429716925,1114
2314.1806104990483,1131
2316.0450524234247,1052
2317.9090690262888,1121
2319.772660589186,1125
2321.635827393742,1057
2323.498569721661,1137
2325.3608878547248,1158
2327.2227820747967,1090
2329.0842526638157,1103
2330.945299903803,1069
2332.805924076857,1146
2334.6661254651535,1120
2336.525904350951,1146
2338.3852610165827,1125
2340.244195744464,1092
2342.102708817088,1146
2343.9608005170253,1164
2345.8184711269287,1107
2347.675720929526,1111
2349.532550207628,1117
2351.38895924412,1150
2353.24494832197,1129
2355.100517724223,1121
2356.955667734004,1122
2358.810398634514,1138
2360.664710709037,1122
2362.5186042409337,1135
2364.3720795136437,1148
2366.225136810686,1103
2368.0777764156583,1108
2369.929998612237,1118
2371.7818036841777,1117
2373.633191915315,1112
2375.484163589562,1115
2377.3347189909114,1136
2379.184858403434,1178
2381.03458211128,1119
2382.8838903986775,1144
2384.732783549936,1106
2386.5812618494406,1096
2388.4293255816588,1185
2390.2769750311327,1120
2392.1242104824883,1127
2393.971032220427,1135
2395.8174405297295,1130
2397.6634356952563,1127
2399.509018001947,1160
2401.3541877348193,1140
2403.1989451789705,1130
2405.043290619576,1151
2406.8872243418905,1145
2408.730746631247,1116
2410.5738577730594,1151
2412.4165580528183,1151
2414.258847756095,1137
2416.100727168537,1120
2417.9421965758734,1147
2419.783256263912,1087
2421.623906518538,1152
2423.4641476257157,1150
2425.303979871491,1142
2427.143403541984,1136
2428.9824189233977,1147
2430.821026302012,1162
2432.6592259641866,1164
2434.497018196361,1154
2436.33440328505,1142
2438.171381516851,1138
2440.00795317844,1160
2441.844118556569,1137
2443.6798779380724,1129
2445.5152316098606,1155
2447.3501798589255,1147
2449.1847229723357,1162
2451.0188612372403,1147
2452.8525949408663,1248
2454.6859243705203,1146
2456.518849813587,1149
2458.3513715575314,1087
2460.183489889895,1111
2462.015205098301,1117
2463.8465174704493,1145
2465.67742729412,1133
2467.5079348571717,1140
2469.338040447542,1151
2471.1677443532476,1120
2472.9970468623833,1131
2474.825948263123,1130
2476.6544488437207,1132
2478.482548892508,1208
2480.310248697896,1151
2482.137548548374,1127
2483.9644487325118,1148
2485.790949538956,1094
2487.617051256433,1178
2489.44275417375,1135
2491.26805857979,1137
2493.0929647635157,1099
2494.917473013971,1165
2496.741583620276,1117
2498.5652968716304,1059
2500.3886130573137,1135
2502.2115324666834,1155
2504.0340553891765,1131
2505.856182114308,1176
2507.6779129316733,1130
2509.499248130945,1137
2511.3201880018764,1107
2513.140732834298,1175
2514.9608829181198,1177
2516.780638543331,1174
2518.6,1132
2520.418967578273,1124
2522.237541568376,1088
2524.0557222606144,1112
2525.8735099453706,1134
2527.6909049131086,1131
2529.507907454368,1115
2531.32451785977,1137
2533.140736420014,1115
2534.9565634258774,1110
2536.771999168218,1105
2538.5870439379714,1147
2540.4016980261526,1145
2542.2159617238544,1155
2544.02983532225,1132
2545.8433191125914,1139
2547.656413386209,1153
2549.4691184345115,1179
2551.2814345489874,1124
2553.093362021204,1179
2554.904901142808,1124
2556.716052205523,1148
2558.526815501153,1101
2560.3371913215824,1173
2562.147179958771,1157
2563.956781704761,1112
2565.7659968516705,1135
2567.5748256916986,1096
2569.3832685171224,1173
2571.1913256202984,1132
2572.9989972936614,1138
2574.806283829725,1168
2576.613185521084,1116
2578.4197026604074,1178
2580.2258355404483,1197
2582.031584454035,1201
2583.836949694077,1162
2585.6419315535613,1162
2587.4465303255533,1152
2589.2507463032002,1141
2591.0545797797245,1178
2592.8580310484303,1152
2594.6611004026995,1162
2596.463788135992,1125
2598.266094541849,1203
2600.0680199138874,1148
2601.869564545807,1176
2603.670728731383,1188
2605.4715127644704,1165
2607.2719169390048,1144
2609.071941548998,1182
2610.8715868885433,1158
2612.670853251811,1128
2614.469740933052,1108
2616.268250226594,1080
2618.0663814268455,1116
2619.864134828292,1152
2621.6615107255006,1163
2623.458509413115,1137
2625.2551311858597,1192
2627.0513763385347,1124
2628.8472451660223,1101
2630.6427379632833,1199
2632.4378550253564,1164
2634.232596647359,1181
2636.026963124488,1100
2637.8209547520187,1129
2639.6145718253065,1104
2641.407814639785,1139
2643.200683490966,1181
2644.9931786744414,1168
2646.7853004858807,1083
2648.577049221034,1105
2650.3684251757277,1103
2652.1594286458712,1120
2653.9500599274484,1081
2655.740319316525,1155
2657.5302071092437,1171
2659.3197236018286,1183
2661.10886909058,1127
2662.8976438718782,1122
2664.686048242183,1087
2666.4740824980327,1166
2668.2617469360443,1110
2670.0490418529134,1112
2671.8359675454153,1140
2673.622524310403,1156
2675.408712444811,1114
2677.1945322456495,1134
2678.979984010009,1125
2680.76506803506,1187
2682.5497846180497,1155
2684.334134056306,1098
2686.1181166472343,1108
2687.9017326883213,1117
2689.6849824771293,1087
2691.4678663113013,1149
2693.2503844885596,1113
2695.032537306705,1149
2696.8143250636167,1124
2698.5957480572542,1097
2700.3768065856534,1117
2702.1575009469316,1092
2703.937831439283,1088
2705.717798360982,1079
2707.4974020103837,1140
2709.276642685917,1129
2711.055520686095,1120
2712.834036309506,1098
2714.612189854819,1125
2716.389981620782,1140
2718.1674119062204,1086
2719.944481010041,1103
2721.721189231226,1075
2723.4975368688415,1064
2725.273524222027,1120
2727.0491515900053,1109
2728.824419272075,1106
2730.5993275676146,1099
2732.3738767760838,1105
2734.148067197016,1102
2735.921899130031,1071
2737.6953728748194,1083
2739.468488731156,1156
2741.2412469988926,1137
2743.0136479779617,1047
2744.785691968372,1105
2746.5573792702116,1065
2748.3287101836504,1169
2750.099685008934,1119
2751.870304046388,1123
2753.640567596418,1156
2755.4104759595057,1081
2757.1800294362156,1077
2758.949228327187,1120
2760.7180729331412,1143
2762.486563554877,1077
2764.254700493272,1087
2766.022484049284,1122
2767.789914523947,1164
2769.5569922183786,1123
2771.3237174337705,1159
2773.090090471394,1073
2774.8561116326036,1104
2776.6217812188274,1139
2778.3870995315756,1177
2780.1520668724356,1091
2781.9166835430747,1138
2783.6809498452394,1087
2785.444866080754,1121
2787.2084325515225,1106
2788.971649559527,1116
2790.73451740683,1128
2792.4970363955713,1103
2794.2592068279705,1087
2796.0210290063264,1114
2797.7825032330147,1101
2799.543629810493,1100
2801.304409041296,1088
2803.0648412280366,1083
2804.8249266734088,1068
2806.5846656801846,1168
2808.344058551212,1111
2810.1031055894246,1093
2811.8618070978273,1066
2813.6201633795085,1154
2815.378174737636,1100
2817.1358414754536,1063
2818.893163896285,1119
2820.6501423035334,1107
2822.4067770006814,1045
2824.1630682912883,1150
2825.9190164789957,1099
2827.6746218675207,1113
2829.429884760661,1114
2831.184805462294,1133
2832.9393842763743,1123
2834.693621506936,1145
2836.4475174580916,1103
2838.201072434034,1123
2839.954286739034,1126
2841.707160677441,1154
2843.459694553685,1175
2845.2118886722724,1092
2846.96374333779,1167
2848.7152588549034,1087
2850.4664355283567,1102
2852.217273662973,1108
2853.9677735636546,1091
2855.7179355353833,1095
2857.4677598832186,1171
2859.217246912299,1084
2860.9663969278427,1110
2862.715210235146,1146
2864.4636871395846,1114
2866.211827946614,1121
2867.9596329617652,1103
2869.7071024906536,1146
2871.4542368389684,1067
2873.20103631248,1118
2874.947501217038,1083
2876.6936318585695,1129
2878.4394285430812,1127
2880.1848915766604,1167
2881.9300212654707,1114
2883.6748179157553,1137
2885.4192818338374,1085
2887.1634133261173,1063
2888.907212699077,1104
2890.6506802592744,1120
2892.393816313348,1141
2894.1366211680142,1084
2895.8790951300693,1141
2897.621238506388,1141
2899.363051603925,1145
2901.1045347297118,1097
2902.8456881908596,1121
2904.58651229456,1117
2906.327007348081,1123
2908.067173658772,1092
2909.8070115340597,1123
2911.5465212814497,1084
2913.285703208527,1121
2915.0245576229563,1115
2916.7630848324807,1169
2918.5012851449196,1118
2920.2391588681758,1138
2921.976706310227,1118
2923.7139277791334,1087
2925.4508235830313,1108
2927.187394030137,1142
2928.923639428745,1112
2930.6595600872306,1170
2932.395156314046,1111
2934.1304284177218,1113
2935.8653767068713,1155
2937.6000014901815,1106
2939.3343030764227,1139
2941.068281774442,1141
2942.8019378931644,1125
2944.5352717415976,1141
2946.2682836288236,1098
2948.0009738640065,1100
2949.7333427563885,1144
2951.465390615289,1136
2953.1971177501086,1097
2954.9285244703265,1086
2956.6596110855,1129
2958.3903779052657,1114
2960.1208252393385,1069
2961.8509533975125,1151
2963.5807626896617,1118
2965.3102534257378,1174
2967.0394259157715,1086
2968.768280469873,1083
2970.496817398232,1107
2972.2250370111146,1098
2973.952939618869,1096
2975.6805255319196,1105
2977.4077950607707,1077
2979.134748516006,1099
2980.861386208289,1176
2982.587708448359,1150
2984.313715547037,1127
2986.039407815222,1123
2987.764785563891,1055
2989.489849104102,1102
2991.2145987469908,1128
2992.9390348037705,1121
2994.6631575857346,1135
2996.3869674042576,1099
2998.1104645707887,1097
2999.83364939686,1057
3001.5565221940783,1049
3003.2790832741334,1124
3005.0013329487924,1104
3006.7232715298996,1048
3008.4448993293804,1044
3010.166216659239,1088
3011.887223831558,1088
3013.607921158498,1099
3015.3283089522993,1136
3017.0483875252826,1076
3018.7681571898443,1089
3020.4876182584626,1087
3022.2067710436927,1102
3023.9256158581707,1042
3025.644153014609,1110
3027.362382825801,1127
3029.0803056046193,1089
3030.797921664012,1137
3032.5152313170106,1150
3034.2322348767225,1113
3035.9489326563353,1121
3037.665324969115,1143
3039.3814121284063,1149
3041.097194447633,1084
3042.812672240299,1062
3044.5278458199855,1118
3046.2427155003525,1087
3047.9572815951406,1095
3049.671544418167,1101
3051.38550428333,1102
3053.0991615046073,1111
3054.812516396051,1139
3056.5255692717974,1096
3058.2383204460575,1154
3059.9507702331257,1140
3061.662918947372,1110
3063.3747669032446,1080
3065.0863144152736,1099
3066.7975617980674,1111
3068.508509366309,1091
3070.219157434767,1105
3071.9295063182844,1153
3073.639556331785,1100
3075.3493077902704,1114
3077.058761008821,1078
3078.7679163025964,1113
3080.476773986837,1046
3082.1853343768594,1096
3083.89359778806,1130
3085.6015645359153,1087
3087.3092349359786,1087
3089.016609303884,1053
3090.7236879553434,1126
3092.4304712061476,1057
3094.136959372166,1096
3095.843152769349,1084
3097.5490517137237,1122
3099.2546565213966,1105
3100.959967508554,1111
3102.66498499146,1113
3104.3697092864577,1108
3106.0741407099695,1085
3107.778279578498,1138
3109.482126208622,1068
3111.1856809170004,1091
3112.8889440203716,1148
3114.5919158355528,1114
3116.294596679439,1101
3117.996986869006,1140
3119.6990867213062,1094
3121.4008965534726,1164
3123.102416682717,1112
3124.803647426329,1069
3126.5045891016784,1107
3128.205242026213,1123
3129.90560651746,1017
3131.605682893025,1111
3133.3054714705922,1118
3135.0049725679282,1143
3136.7041865028714,1072
3138.4031135933465,1100
3140.101754157353,1099
3141.800108512971,1075
3143.498176978357,1078
3145.1959598717494,1109
3146.8934575114636,1074
3148.5906702158954,1138
3150.2875983035183,1100
3151.9842420928853,1118
3153.680601902627,1091
3155.376678051456,1108
3157.07247085816,1133
3158.767980641609,1123
3160.463207720748,1094
3162.158152414606,1115
3163.8528150422862,1147
3165.5471959229726,1111
3167.2412953759303,1115
3168.9351137204976,1086
3170.628651276098,1076
3172.3219083622307,1154
3174.014885298474,1097
3175.707582404485,1090
3177.4000000000005,1082
3179.092138404835,1097
3180.7839979388846,1064
3182.47557892212,1125
3184.166881674594,1088
3185.8579065164386,1086
3187.5486537678626,1105
3189.2391237491547,1146
3190.9293167806827,1096
3192.6192331828934,1060
3194.3088732763117,1103
3195.998237381542,1075
3197.687325819268,1094
3199.376138910251,1101
3201.064676975334,1128
3202.7529403354347,1127
3204.4409293115523,1135
3206.1286442247647,1100
3207.816085396229,1113
3209.5032531471825,1099
3211.190147798936,1085
3212.8767696728846,1058
3214.5631190905015,1060
3216.2491963733373,1128
3217.9350018430214,1093
3219.6205358212637,1083
3221.305798629851,1161
3222.990790590651,1085
3224.6755120256103,1113
3226.359963256751,1066
3228.0441446061795,1088
3229.7280563960758,1111
3231.411698948703,1094
3233.0950725863995,1108
3234.778177631587,1061
3236.461014406761,1053
3238.1435832345005,1105
3239.8258844374595,1102
3241.507918338374,1148
3243.1896852600576,1086
3244.8711855254023,1090
3246.552419457381,1107
3248.233387379042,1109
3249.914089613516,1095
3251.59452648401,1117
3253.274698313813,1096
3254.95460542629,1121
3256.6342481448855,1134
3258.313626793125,1076
3259.9927416946084,1120
3261.6715931730196,1067
3263.3501815521176,1044
3265.0285071557437,1067
3266.706570307815,1098
3268.3843713323286,1104
3270.0619105533615,1091
3271.739188295068,1085
3273.4162048816834,1091
3275.0929606375184,1038
3276.769455886966,1107
3278.445690954498,1139
3280.1216661646613,1086
3281.797381842087,1124
3283.4728383114807,1104
3285.1480358976296,1075
3286.8229749253996,1085
3288.4976557197333,1095
3290.172078605655,1048
3291.846243908266,1086
3293.5201519527463,1049
3295.193803064357,1082
3296.8671975684374,1047
3298.5403357904024,1089
3300.21321805575,1099
3301.8858446900567,1097
3303.558216018975,1081
3305.23033236824,1094
3306.9021940636603,1092
3308.57380143113,1097
3310.2451547966184,1101
3311.916254486174,1071
3313.5871008259246,1074
3315.2576941420766,1087
3316.9280347609147,1070
3318.5981230088046,1070
3320.2679592121895,1081
3321.9375436975924,1069
3323.606876791612,1111
3325.27595882093,1045
3326.944790112305,1084
3328.6133709925753,1029
3330.2817017886573,1045
3331.949782827547,1055
3333.617614436319,1064
3335.2851969421245,1073
3336.952530672199,1095
3338.619615953853,1093
3340.286453114475,1092
3341.9530424815357,1090
3343.619384382583,1094
3345.2854791452437,1131
3346.951327097224,1111
3348.6169285663073,1104
3350.2822838803577,1043
3351.947393367319,1099
3353.61225735521,1110
3355.2768761721345,1080
3356.9412501462693,1057
3358.605379605873,1114
3360.2692648792827,1083
3361.9329062949146,1116
3363.596304181263,1055
