CollectionTime,6/28/2024 1:42:01 PM
ExposureUsed,3
CalibratedSpectrum
-962.7078968117929,556
-959.9714848408522,564
-957.2358232597828,562
-954.5009119013725,571
-951.7667505983302,586
-949.0333391832855,592
-946.3006774887896,572
-943.5687653473143,585
-940.837602591253,567
-938.1071890529199,591
-935.3775245645503,572
-932.6486089583007,586
-929.9204420662485,585
-927.1930237203925,576
-924.4663537526524,595
-921.7404319948689,568
-919.0152582788041,578
-916.2908324361409,621
-913.5671542984834,622
-910.8442236973568,611
-908.1220404642074,600
-905.4006044304027,599
-902.679915427231,599
-899.959973285902,585
-897.2407778375464,579
-894.5223289132158,550
-891.8046263438832,537
-889.0876699604426,571
-886.3714595937089,565
-883.6559950744183,556
-880.9412762332282,561
-878.2273029007168,559
-875.5140749073835,562
-872.8015920836489,523
-870.0898542598545,572
-867.3788612662631,568
-864.6686129330585,544
-861.9591090903457,560
-859.2503495681506,554
-856.5423341964203,538
-853.8350628050229,543
-851.1285352237478,525
-848.4227512823054,522
-845.7177108103272,547
-843.0134136373656,565
-840.3098595928943,568
-837.6070485063082,579
-834.9049802069229,586
-832.2036545239757,569
-829.5030712866244,559
-826.8032303239481,535
-824.1041314649472,556
-821.4057745385428,529
-818.7081593735775,554
-816.0112857988148,547
-813.3151536429393,547
-810.6197627345566,587
-807.9251129021936,576
-805.2312039742981,553
-802.5380357792392,590
-799.8456081453069,565
-797.1539209007124,590
-794.462973873588,558
-791.772766891987,602
-789.083299783884,622
-786.3945723771743,561
-783.7065844996748,578
-781.0193359791231,543
-778.3328266431781,587
-775.6470563194197,581
-772.9620248353489,563
-770.2777320183878,573
-767.5941776958798,561
-764.9113616950891,566
-762.2292838432011,595
-759.5479439673222,563
-756.8673418944801,561
-754.1874774516235,575
-751.5083504656222,555
-748.8299607632671,573
-746.15230817127,565
-743.475392516264,554
-740.7992136248035,578
-738.1237713233636,575
-735.4490654383407,578
-732.7750957960521,604
-730.1018622227365,574
-727.4293645445534,598
-724.7576025875837,590
-722.0865761778291,583
-719.4162851412126,582
-716.7467293035781,623
-714.0779084906909,585
-711.409822528237,592
-708.7424712418238,558
-706.0758544569796,602
-703.4099719991541,593
-700.7448236937178,612
-698.0804093659622,625
-695.4167288411002,592
-692.7537819442656,619
-690.0915685005134,604
-687.4300883348199,614
-684.7693412720819,615
-682.1093271371178,618
-679.4500457546669,616
-676.7914969493897,633
-674.1336805458676,647
-671.4765963686034,629
-668.8202442420206,618
-666.1646239904642,606
-663.5097354382001,632
-660.8555784094151,594
-658.2021527282176,620
-655.5494582186366,679
-652.8974947046223,656
-650.2462620100463,638
-647.5957599587009,654
-644.9459883742998,660
-642.2969470804776,664
-639.6486359007902,655
-637.0010546587141,665
-634.3542031776476,676
-631.7080812809096,669
-629.0626887917401,639
-626.4180255333008,662
-623.7740913286734,593
-621.1308860008619,626
-618.4884093727904,641
-615.8466612673046,659
-613.2056415071715,630
-610.5653499150785,634
-607.9257863136347,651
-605.28695052537,664
-602.6488423727357,663
-600.0114616781036,654
-597.3748082637674,678
-594.7388819519412,688
-592.1036825647604,648
-589.4692099242818,683
-586.8354638524829,679
-584.2024441712624,647
-581.5701507024403,663
-578.9385832677575,655
-576.3077416888759,669
-573.6776257873787,657
-571.0482353847704,663
-568.4195703024757,671
-565.7916303618415,699
-563.164415384135,690
-560.5379251905453,635
-557.9121596021815,644
-555.2871184400748,629
-552.6628015251767,651
-550.0392086783606,657
-547.4163397204204,671
-544.794194472071,688
-542.1727727539491,666
-539.5520743866118,703
-536.9320991905377,694
-534.3128469861261,760
-531.6943175936979,711
-529.0765108334947,748
-526.4594265256793,887
-523.8430644903358,956
-521.2274245474689,1064
-518.612506517005,1170
-515.9983102187913,1188
-513.3848354725959,1247
-510.77208209810846,1363
-508.16004991493924,1482
-505.5487387426199,1549
-502.9381484006032,1596
-500.3282787082628,1683
-497.71912948489364,1638
-495.1107005497117,1511
-492.5029917218539,1396
-489.8960028203786,1171
-487.28973366426493,1074
-484.68418407241325,942
-482.07935386364494,900
-479.47524285670266,896
-476.87185087025,946
-474.2691777228715,873
-471.66722323307334,896
-469.0659872192821,885
-466.4654694998459,859
-463.86566989303384,833
-461.26658821703614,818
-458.66822428996414,858
-456.07057792985,848
-453.4736489546475,881
-450.877437182231,830
-448.28194243039627,780
-445.68716451686,797
-443.09310325926003,827
-440.49975847515555,750
-437.9071299820263,788
-435.31521759727354,808
-432.72402113821954,852
-430.13354042210767,842
-427.5437752661022,830
-424.95472548728867,887
-422.36639090267386,853
-419.7787713291855,873
-417.1918665836721,851
-414.60567648290385,837
-412.0202008435715,868
-409.4354394822874,863
-406.8513922155845,866
-404.26805885991723,876
-401.685439231661,859
-399.103533147112,895
-396.522340422488,849
-393.9418608739278,805
-391.3620943174908,842
-388.7830405691583,866
-386.2046994448317,872
-383.6270707603344,796
-381.05015433141045,739
-378.473949973725,704
-375.8984575028645,682
-373.32367673433623,591
-370.74960748356875,591
-368.1762495659117,594
-365.60360279663576,523
-363.03166699093265,525
-360.4604419639154,503
-357.8899275306178,488
-355.32012350599507,494
-352.7510297049233,458
-350.1826459421999,465
-347.61497203254316,468
-345.04800779059235,433
-342.4817530309082,427
-339.91620756797226,445
-337.35137121618743,454
-334.7872437898774,461
-332.22382510328725,423
-329.66111497058273,445
-327.09911320585127,503
-324.53781962310075,484
-321.9772340362607,473
-319.4173562591816,483
-316.8581861056348,495
-314.2997233893127,467
-311.7419679238294,503
-309.1849195227194,490
-306.62857799943856,480
-304.0729431673641,464
-301.51801483979375,495
-298.963792829947,478
-296.41027695096386,478
-293.85746701590574,503
-291.3053628377552,514
-288.7539642294155,524
-286.2032710037115,509
-283.65328297338897,529
-281.1039999511146,538
-278.5554217494762,559
-276.007548180983,519
-273.4603790580651,508
-270.9139141930734,541
-268.3681533982807,585
-265.8230964858798,558
-263.27874326798565,532
-260.7350935566336,569
-258.1921471637804,547
-255.6499039013039,519
-253.10836358100266,546
-250.56752601459698,560
-248.02739101372765,647
-245.48795838995704,673
-242.94922795476816,631
-240.41119951956557,589
-237.8738728956746,666
-235.33724789434166,742
-232.80132432673452,727
-230.2661020039418,691
-227.73158073697357,615
-225.19776033676033,614
-222.66464061415422,611
-220.1322213799284,631
-217.60050244477725,630
-215.06948361931552,643
-212.53916471408013,624
-210.00954553952818,587
-207.48062590603843,677
-204.9524056239104,693
-202.4248845033651,616
-199.8980623545441,629
-197.37193898751036,665
-194.84651421224817,686
-192.32178783866232,684
-189.79775967657952,773
-187.27442953574644,720
-184.7517972258321,692
-182.2298625564256,655
-179.7086253370378,702
-177.18808537710026,673
-174.66824248596583,676
-172.14909647290835,806
-169.6306471471229,793
-167.11289431772548,684
-164.59583779375328,689
-162.07947738416453,741
-159.5638128978386,782
-157.04884414357605,835
-154.53457093009854,861
-152.02099306604828,861
-149.50811035998936,798
-146.99592262040665,839
-144.48442965570587,874
-141.97363127421409,911
-139.46352728417958,870
-136.95411749377126,851
-134.44540171107985,978
-131.93737974411636,983
-129.43005140081357,915
-126.92341648902493,964
-124.41747481652521,967
-121.91222619101006,975
-119.40767042009657,1001
-116.90380731132257,976
-114.40063667214702,1074
-111.8981583099503,1177
-109.3963720320337,1165
-106.89527764561933,1348
-104.39487495785067,1322
-101.89516377579241,1195
-99.39614390642998,1247
-96.89781515667039,1207
-94.40017733334128,1372
-91.90323024319173,1326
-89.40697369289148,1367
-86.91140748903172,1392
-84.41653143812482,1319
-81.92234534660395,1508
-79.42884902082358,1709
-76.93604226705907,1806
-74.4439248915071,1545
-71.95249670028534,1502
-69.46175749943245,1773
-66.97170709490854,1922
-64.48234529259423,2230
-61.99367189829195,1926
-59.50568671772464,1962
-57.01838955653636,2107
-54.53178022029283,2264
-52.045858514480074,2289
-49.560624244506016,2310
-47.07607721569923,2370
-44.59221723330904,2526
-42.10904410250669,2544
-39.62655762838392,2967
-37.14475761595372,3436
-34.66364387015028,4110
-32.18321619582866,4672
-29.70347439776515,5208
-27.224418280657005,7133
-24.74604764912317,11083
-22.26836230770266,20447
-19.7913620608565,35040
-17.315046712966478,43775
-14.83941606833514,44199
-12.36446993118659,65030
-9.89020810566592,65030
-7.416630395839093,65030
-4.94373660569363,65030
-2.471526539137585,65030
-6.821210263296962E-13,65030
2.47084320796705,65030
4.941003281093458,65030
7.410480415786196,65030
9.879274808531363,65030
12.347386655893956,65030
14.814816154518212,65030
17.28156350112681,65030
19.74762889252179,65030
22.21301252558385,34600
24.67771459727237,11931
27.141735304626195,8157
29.605074844762612,6644
32.06773341487792,6356
34.52971121224755,6404
36.99100843422559,5146
39.45162527824516,4780
41.91156194181792,5624
44.370818622535126,9476
46.82939551806646,12157
49.287292826160524,12258
51.74451074464503,11760
54.201049471426245,8828
56.65690920448981,5348
59.112090141899785,4112
61.56659248179983,3984
64.02041642241159,3058
66.4735621620365,2303
68.92602989905402,2001
71.37781983192338,1790
73.82893215918205,1853
76.27936707944684,1918
78.72912479141326,2315
81.17820549385567,2370
83.62660938562783,1931
86.07433666566146,1731
88.5213875329681,1982
90.96776218663751,1870
93.41346082583925,1653
95.85848364982041,1625
98.30283085790859,1519
100.7465026495089,1531
103.18949922410604,1588
105.63182078126385,1489
108.07346752062438,1381
110.51443964190923,1286
112.95473734491827,1141
115.39436082953114,1134
117.83331029570547,1319
120.27158594347827,1342
122.7091879729652,1126
125.1461165843615,1137
127.58237197794062,1106
130.01795435405518,1065
132.4528639131364,957
134.88710085569494,1080
137.32066538231982,1101
139.75355769367923,1066
142.1857779905207,997
144.61732647366978,1075
147.04820334403132,1181
149.47840880258934,1050
151.90794305040674,1226
154.33680628862487,1361
156.76499871846443,1218
159.19252054122433,1384
161.61937195828352,1433
164.04555317109896,1410
166.47106438120693,1573
168.89590579022217,1863
171.320077599839,1802
173.7435800118302,1819
176.16641322804742,1777
178.58857745042144,1921
181.01007288096173,2017
183.43089972175687,1987
185.85105817497413,1984
188.27054844285988,1988
190.6893707277394,2037
193.10752523201643,2026
195.5250121581745,2068
197.9418317087751,2142
200.3579840864594,2042
202.7734694939469,2110
205.18828813403627,2056
207.6024402096051,2093
210.01592592360964,2143
212.42874547908548,2112
214.84089907914665,2107
217.2523869269868,2170
219.66320922587727,2133
222.0733661791695,2228
224.48285799029293,2133
226.8916848627572,2221
229.29984700014882,2197
231.7073446061355,2231
234.11417788446204,2279
236.520347038953,2341
238.92585227351185,2457
241.33069379212054,2538
243.73487179884035,2474
246.1383864978112,2447
248.541238093252,2484
250.9434267894609,2433
253.34495279081432,2415
255.74581630176783,2500
258.1460175268563,2607
260.54555667069314,2612
262.9444339379703,2522
265.3426495334594,2520
267.7402036620107,2536
270.1370965285529,2406
272.53332833809407,2381
274.9288992957214,2269
277.32380960660055,2254
279.718059475976,2130
282.1116491091717,2181
284.5045787115897,2154
286.89684848871195,2094
289.2884586460981,2239
291.67940938938807,2193
294.0697009242996,2147
296.4593334566299,2103
298.84830719225477,2160
301.23662233712923,2197
303.6242790972866,2113
306.01127767884,2097
308.39761828798066,2109
310.78330113097934,2105
313.16832641418534,2078
315.5526943440269,1993
317.9364051270112,2021
320.3194589697242,1948
322.70185607883093,1987
325.0835966610754,1908
327.4646809232805,1961
329.8451090723478,1854
332.2248813152577,1887
334.6039978590701,1935
336.9824589109231,1911
339.36026467803447,1831
341.7374153677,1874
344.113911187295,1847
346.48975234427337,1762
348.8649390461686,1810
351.2394715005918,1779
353.61334991523415,1784
355.9865744978655,1805
358.35914545633375,1802
360.73106299856715,1795
363.10232733257146,1813
365.47293866643247,1720
367.84289720831396,1769
370.2122031664593,1727
372.5808567491905,1753
374.9488581649083,1727
377.31620762209275,1694
379.6829053293021,1772
382.0489514951745,1789
384.4143463284262,1685
386.7790900378528,1707
389.14318283232853,1711
391.50662492080653,1678
393.86941651231916,1709
396.23155781597745,1679
398.5930490409713,1664
400.9538903965696,1688
403.3140820921202,1674
405.6736243370498,1688
408.03251734086336,1632
410.3907613131465,1701
412.74835646356166,1664
415.10530300185144,1674
417.4616011378372,1669
419.81725108141893,1673
422.1722530425758,1696
424.5266072313656,1669
426.880313857925,1653
429.2333731324701,1635
431.58578526529516,1623
433.9375504667738,1699
436.2886689473588,1629
438.63914091758113,1600
440.9889665880513,1569
443.33814616945835,1543
445.68667987257015,1605
448.03456790823395,1616
450.3818104873759,1584
452.72840782100013,1591
455.07436012019105,1591
457.41966759611057,1610
459.7643304600007,1618
462.10834892318155,1609
464.4517231970525,1584
466.79445349309174,1595
469.1365400228566,1641
471.4779829979826,1585
473.81878263018564,1604
476.15893913125876,1619
478.4984527130747,1677
480.8373235875855,1710
483.17555196682144,1731
485.5131380628919,1689
487.8500820879857,1846
490.1863842543697,1956
492.52204477439034,2007
494.8570638604725,2160
497.1914417251204,2397
499.52517858091653,2584
501.85827464052306,2921
504.19073011668036,3040
506.5225452222086,3172
508.85372017000566,3090
511.18425517304956,3062
513.514150444396,3268
515.8434061971808,3486
518.1720226446176,3745
520.4999999999999,3952
522.8273384766991,4009
525.1540382881666,4087
527.480099647932,3974
529.8055227696037,2967
532.1303078668694,2232
534.454455153496,1868
536.777964843328,1655
539.1008371502907,1586
541.4230722883866,1564
543.744670471698,1619
546.0656319143858,1562
548.3859568306899,1541
550.7056454349294,1530
553.0246979415016,1501
555.3431145648834,1491
557.6608955196306,1470
559.978041020377,1510
562.2945512818363,1477
564.6104265188006,1463
566.9256669461412,1466
569.2402727788082,1488
571.5542442318302,1426
573.8675815203156,1467
576.1802848594508,1412
578.4923544645015,1492
580.8037905508126,1487
583.114593333807,1478
585.4247630289875,1426
587.7342998519354,1490
590.0432040183106,1498
592.3514757438526,1484
594.6591152443794,1462
596.9661227357875,1460
599.2724984340531,1446
601.578242555231,1460
603.8833553154542,1513
606.1878369309362,1450
608.4916876179676,1479
610.7949075929192,1511
613.0974970722403,1480
615.3994562724587,1427
617.7007854101818,1500
620.0014847020951,1428
622.3015543649641,1418
624.6009946156324,1488
626.8998056710224,1526
629.1979877481361,1468
631.4955410640538,1487
633.7924658359349,1465
636.0887622810175,1446
638.3844306166192,1490
640.6794710601358,1523
642.9738838290426,1512
645.2676691408932,1522
647.5608272133207,1461
649.853358264037,1543
652.1452625108324,1493
654.4365401715764,1542
656.7271914642178,1509
659.0172166067838,1541
661.3066158173809,1496
663.5953893141935,1561
665.8835373154867,1484
668.1710600396028,1535
670.4579577049639,1593
672.7442305300709,1612
675.0298787335033,1527
677.3149025339197,1522
679.599302150058,1534
681.8830778007342,1560
684.1662297048437,1509
686.4487580813608,1535
688.7306631493387,1518
691.0119451279091,1525
693.2926042362834,1528
695.5726406937516,1551
697.8520547196814,1552
700.1308465335215,1520
702.4090163547982,1526
704.6865644031171,1540
706.9634908981619,1535
709.2397960596965,1484
711.5154801075631,1534
713.7905432616823,1544
716.0649857420548,1545
718.3388077687592,1509
720.612009561953,1483
722.8845913418733,1525
725.1565533288352,1498
727.427895743234,1534
729.6986188055427,1476
731.9687227363137,1514
734.238207756178,1457
736.5070740858458,1499
738.7753219461066,1528
741.0429515578281,1503
743.3099631419569,1505
745.5763569195191,1461
747.8421331116193,1515
750.1072919394409,1477
752.3718336242467,1574
754.6357583873777,1510
756.8990664502545,1519
759.1617580343765,1555
761.423833361321,1560
763.6852926527457,1503
765.9461361303862,1540
768.206364016058,1622
770.4659765316536,1575
772.7249738991469,1538
774.9833563405886,1521
777.2411240781092,1525
779.4982773339183,1550
781.7548163303044,1561
784.010741289634,1500
786.2660524343538,1635
788.5207499869881,1516
790.7748341701416,1540
793.0283052064964,1572
795.2811633188143,1518
797.5334087299362,1558
799.7850416627813,1552
802.0360623403484,1633
804.2864709857143,1524
806.5362678220353,1583
808.7854530725468,1559
811.0340269605625,1552
813.2819897094754,1617
815.5293415427581,1572
817.77608268396,1570
820.0222133567116,1539
822.2677337847211,1523
824.5126441917765,1557
826.7569448017433,1543
829.0006358385675,1498
831.2437175262731,1620
833.4861900889629,1572
835.7280537508192,1597
837.9693087361026,1618
840.2099552691533,1541
842.4499935743896,1538
844.689423876309,1523
846.9282463994886,1544
849.1664613685833,1543
851.4040690083276,1546
853.6410695435349,1572
855.877463199097,1514
858.1132501999847,1554
860.3484307712487,1526
862.5830051380175,1604
864.8169735254988,1533
867.0503361589791,1554
869.2830932638243,1610
871.5152450654786,1575
873.7467917894654,1634
875.9777336613873,1611
878.2080709069252,1594
880.4378037518389,1581
882.666932421968,1534
884.8954571432301,1587
887.1233781416219,1603
889.3506956432192,1624
891.5774098741766,1586
893.803521060728,1544
896.0290294291852,1583
898.2539352059397,1583
900.4782386174619,1614
902.7019398903011,1648
904.925039251085,1622
907.147536926521,1628
909.3694331433943,1562
911.59072812857,1574
913.8114221089921,1552
916.0315153116827,1590
918.2510079637437,1620
920.4699002923547,1582
922.6881925247761,1557
924.905884888345,1555
927.1229776104793,1570
929.3394709186747,1553
931.555365040506,1573
933.7706602036275,1601
935.9853566357709,1588
938.1994545647489,1608
940.4129542184515,1579
942.6258558248488,1553
944.8381596119883,1583
947.0498658079974,1496
949.2609746410825,1608
951.4714863395287,1506
953.6814011316998,1547
955.8907192460387,1546
958.0994409110671,1537
960.3075663553858,1554
962.5150958076741,1536
964.7220294966913,1581
966.928367651274,1480
969.1341105003388,1490
971.3392582728806,1485
973.5438111979742,1453
975.747769504772,1530
977.9511334225061,1502
980.153903180487,1464
982.3560790081052,1512
984.5576611348289,1518
986.7586497902058,1472
988.9590452038618,1469
991.158847605503,1441
993.3580572249133,1444
995.5566742919558,1428
997.7546990365728,1433
999.952131688785,1383
1002.1489724786926,1364
1004.3452216364743,1383
1006.5408793923874,1356
1008.7359459767691,1285
1010.9304216200343,1302
1013.1243065526781,1360
1015.3176010052733,1279
1017.510305208472,1288
1019.7024193930064,1323
1021.8939437896848,1274
1024.0848786293977,1281
1026.2752241431122,1278
1028.4649805618747,1290
1030.6541481168115,1280
1032.842727039127,1281
1035.0307175601051,1225
1037.2181199111074,1252
1039.4049343235752,1260
1041.591161029029,1259
1043.7768002590683,1270
1045.9618522453698,1274
1048.1463172196918,1325
1050.3301954138697,1224
1052.513487059818,1305
1054.69619238953,1302
1056.8783116350783,1211
1059.0598450286152,1243
1061.2407928023704,1287
1063.4211551886528,1278
1065.6009324198508,1232
1067.780124728432,1260
1069.9587323469414,1235
1072.1367555080046,1254
1074.314194444325,1270
1076.4910493886855,1238
1078.667320573947,1238
1080.843008233051,1201
1083.0181125990161,1200
1085.1926339049414,1221
1087.3665723840027,1261
1089.5399282694575,1235
1091.7127017946405,1249
1093.8848931929647,1202
1096.0565026979243,1234
1098.2275305430899,1208
1100.3979769621128,1204
1102.567842188722,1170
1104.737126456726,1176
1106.9058300000124,1185
1109.0739530525475,1204
1111.2414958483764,1169
1113.4084586216231,1204
1115.5748416064907,1153
1117.7406450372605,1134
1119.9058691482942,1184
1122.0705141740304,1198
1124.2345803489884,1200
1126.3980679077658,1194
1128.5609770850388,1181
1130.7233081155623,1161
1132.8850612341707,1165
1135.0462366757774,1185
1137.2068346753745,1181
1139.3668554680326,1163
1141.526299288901,1173
1143.68516637321,1181
1145.8434569562655,1151
1148.001171273455,1149
1150.158309560244,1113
1152.3148720521767,1228
1154.470858984876,1162
1156.626270594044,1212
1158.7811071154629,1183
1160.9353687849912,1154
1163.089055838569,1132
1165.242168512213,1164
1167.3947070420209,1195
1169.5466716641677,1180
1171.6980626149075,1135
1173.8488801305748,1197
1175.9991244475814,1138
1178.1487958024186,1105
1180.2978944316555,1184
1182.4464205719428,1148
1184.5943744600072,1089
1186.7417563326567,1164
1188.8885664267755,1128
1191.0348049793297,1126
1193.1804722273619,1149
1195.325568407995,1170
1197.4700937584303,1165
1199.614048515948,1164
1201.7574329179074,1157
1203.900247201746,1131
1206.042491604982,1129
1208.1841663652099,1192
1210.3252717201053,1193
1212.465807907422,1183
1214.6057751649923,1113
1216.7451737307279,1163
1218.8840038426192,1176
1221.0222657387353,1129
1223.1599596572241,1189
1225.2970858363137,1176
1227.4336445143094,1210
1229.5696359295966,1168
1231.705060320639,1169
1233.8399179259786,1152
1235.9742089842384,1203
1238.107933734118,1202
1240.2410924143974,1240
1242.373685263935,1199
1244.5057125216676,1240
1246.6371744266116,1228
1248.7680712178621,1191
1250.898403134593,1211
1253.028170416058,1196
1255.1573733015875,1173
1257.2860120305932,1171
1259.4140868425648,1241
1261.54159797707,1185
1263.6685456737569,1207
1265.7949301723515,1224
1267.9207517126597,1223
1270.046010534565,1221
1272.1707068780306,1220
1274.2948409830983,1236
1276.4184130898889,1246
1278.541423438603,1247
1280.6638722695184,1200
1282.785759822993,1266
1284.9070863394636,1293
1287.0278520594447,1220
1289.1480572235314,1258
1291.2677020723963,1306
1293.3867868467923,1279
1295.5053117875495,1322
1297.623277135579,1280
1299.740683131868,1275
1301.8575300174857,1295
1303.973818033578,1298
1306.0895474213703,1294
1308.2047184221678,1297
1310.3193312773528,1328
1312.4333862283888,1272
1314.5468835168163,1289
1316.659823384255,1350
1318.7722060724045,1337
1320.8840318230418,1371
1322.9953008780249,1338
1325.1060134792888,1344
1327.2161698688478,1416
1329.3257702887959,1388
1331.4348149813054,1357
1333.5433041886276,1343
1335.6512381530933,1400
1337.7586171171101,1386
1339.8654413231675,1347
1341.9717110138317,1299
1344.0774264317488,1281
1346.1825878196432,1382
1348.2871954203192,1341
1350.3912494766587,1270
1352.4947502316231,1312
1354.5976979282532,1255
1356.7000928096686,1233
1358.8019351190665,1301
1360.9032250997243,1295
1363.0039629949988,1284
1365.1041490483235,1343
1367.2037835032133,1348
1369.3028666032606,1322
1371.401398592137,1297
1373.4993797135926,1243
1375.5968102114575,1273
1377.6936903296396,1292
1379.7900203121262,1277
1381.8858004029835,1255
1383.9810308463561,1290
1386.075711886469,1271
1388.1698437676241,1267
1390.2634267342032,1304
1392.356461030667,1295
1394.4489469015557,1296
1396.5408845914872,1281
1398.6322743451592,1288
1400.7231164073469,1302
1402.813411022907,1316
1404.903158436773,1329
1406.9923588939578,1292
1409.0810126395531,1280
1411.1691199187303,1263
1413.2566809767386,1283
1415.343696058907,1333
1417.4301654106425,1296
1419.5160892774315,1266
1421.6014679048399,1367
1423.6863015385125,1300
1425.7705904241707,1330
1427.8543348076178,1331
1429.9375349347342,1354
1432.0201910514802,1323
1434.102303403894,1304
1436.1838722380944,1353
1438.2648978002767,1345
1440.3453803367174,1378
1442.4253200937692,1406
1444.5047173178677,1365
1446.5835722555234,1411
1448.6618851533285,1406
1450.739656257952,1443
1452.8168858161434,1400
1454.8935740747306,1474
1456.96972128062,1453
1459.045327680797,1446
1461.120393522327,1428
1463.1949190523528,1494
1465.2689045180973,1460
1467.3423501668608,1562
1469.415256246024,1522
1471.4876230030463,1506
1473.559450685465,1549
1475.6307395408976,1607
1477.7014898170391,1574
1479.771701761665,1549
1481.8413756226287,1607
1483.9105116478618,1609
1485.9791100853772,1634
1488.0471711832643,1604
1490.1146951896926,1625
1492.1816823529098,1671
1494.2481329212433,1728
1496.3140471430984,1642
1498.3794252669609,1683
1500.4442675413939,1661
1502.5085742150404,1705
1504.572345536622,1700
1506.6355817549388,1727
1508.6982831188702,1620
1510.7604498773744,1694
1512.8220822794883,1740
1514.8831805743293,1710
1516.9437450110909,1721
1519.003775839048,1686
1521.0632733075522,1825
1523.1222376660367,1715
1525.1806691640113,1834
1527.2385680510652,1766
1529.2959345768668,1734
1531.3527689911643,1763
1533.4090715437833,1794
1535.4648424846291,1828
1537.5200820636855,1774
1539.5747905310159,1894
1541.6289681367616,1845
1543.6826151311434,1868
1545.7357317644614,1877
1547.7883182870937,1895
1549.8403749494987,1974
1551.8919020022113,1920
1553.9428996958477,1958
1555.9933682811015,1953
1558.0433080087469,2059
1560.0927191296346,2042
1562.1416018946961,2060
1564.1899565549415,2153
1566.2377833614592,2100
1568.2850825654164,2113
1570.3318544180606,2114
1572.3780991707158,2078
1574.423817074788,1949
1576.4690083817595,2046
1578.5136733431923,1968
1580.5578122107272,1825
1582.601425236085,1922
1584.6445126710646,1771
1586.6870747675434,1756
1588.7291117774776,1734
1590.7706239529034,1687
1592.8116115459347,1611
1594.8520748087658,1554
1596.8920139936686,1530
1598.9314293529933,1549
1600.9703211391711,1510
1603.008689604711,1461
1605.0465350022005,1448
1607.0838575843068,1470
1609.1206576037753,1448
1611.1569353134305,1424
1613.1926909661765,1389
1615.2279248149953,1348
1617.2626371129481,1349
1619.2968281131757,1358
1621.3304980688963,1316
1623.3636472334088,1275
1625.39627586009,1267
1627.428384202396,1290
1629.459972513861,1269
1631.4910410480993,1262
1633.5215900588028,1281
1635.551619799744,1187
1637.5811305247717,1270
1639.6101224878166,1269
1641.6385959428862,1222
1643.6665511440683,1235
1645.693988345528,1199
1647.7209078015112,1240
1649.7473097663405,1170
1651.7731944944203,1193
1653.7985622402307,1204
1655.823413258333,1196
1657.847747803366,1172
1659.8715661300494,1223
1661.8948684931793,1196
1663.9176551476316,1215
1665.9399263483624,1172
1667.9616823504057,1177
1669.982923408873,1176
1672.0036497789574,1162
1674.0238617159293,1188
1676.043559475138,1190
1678.0627433120121,1198
1680.081413482059,1242
1682.0995702408654,1156
1684.117213844096,1174
1686.134344547495,1138
1688.1509626068864,1194
1690.1670682781705,1170
1692.182661817329,1164
1694.1977434804217,1148
1696.2123135235875,1189
1698.226372203043,1144
1700.2399197750851,1155
1702.2529564960905,1150
1704.2654826225112,1171
1706.277498410882,1157
1708.2890041178139,1170
1710.2999999999988,1163
1712.3104863142066,1166
1714.3204633172854,1129
1716.329931266163,1158
1718.3388904178469,1138
1720.3473410294214,1117
1722.3552833580516,1175
1724.3627176609807,1157
1726.3696441955308,1172
1728.3760632191033,1128
1730.3819749891782,1201
1732.3873797633146,1156
1734.3922777991502,1136
1736.3966693544012,1108
1738.4005546868639,1133
1740.4039340544127,1157
1742.406807715001,1175
1744.4091759266616,1155
1746.4110389475054,1188
1748.4123970357223,1170
1750.413250449582,1128
1752.4135994474318,1162
1754.4134442876993,1119
1756.4127852288902,1105
1758.4116225295893,1140
1760.4099564484595,1109
1762.407787244244,1089
1764.405115175764,1107
1766.4019405019203,1135
1768.3982634816916,1128
1770.3940843741357,1084
1772.3894034383907,1123
1774.3842209336717,1152
1776.378537119274,1152
1778.372352254571,1110
1780.3656665990156,1056
1782.3584804121397,1098
1784.3507939535534,1094
1786.3426074829463,1106
1788.3339212600863,1050
1790.3247355448211,1127
1792.3150505970766,1089
1794.3048666768573,1083
1796.2941840442477,1153
1798.2830029594106,1091
1800.2713236825884,1126
1802.2591464741004,1116
1804.2464715943465,1133
1806.2332993038058,1123
1808.2196298630352,1125
1810.2054635326708,1144
1812.190800573428,1102
1814.175641246101,1114
1816.1599858115628,1060
1818.1438345307652,1103
1820.127187664738,1095
1822.1100454745924,1154
1824.092408221516,1122
1826.0742761667766,1056
1828.055649571721,1119
1830.0365286977735,1115
1832.0169138064398,1062
1833.9968051593014,1092
1835.9762030180214,1084
1837.9551076443408,1103
1839.9335193000788,1085
1841.9114382471344,1058
1843.888864747485,1098
1845.8657990631878,1147
1847.842241456378,1103
1849.8181921892697,1140
1851.7936515241558,1139
1853.7686197234098,1051
1855.7430970494815,1102
1857.7170837649014,1090
1859.6905801322787,1119
1861.6635864143004,1081
1863.6361028737338,1109
1865.608129773424,1066
1867.5796673762961,1123
1869.5507159453537,1130
1871.521275743678,1104
1873.4913470344313,1063
1875.4609300808534,1097
1877.4300251462632,1096
1879.3986324940588,1144
1881.366752387717,1129
1883.3343850907936,1133
1885.3015308669228,1155
1887.268189979819,1199
1889.2343626932739,1141
1891.2000492711595,1111
1893.1652499774254,1131
1895.1299650761011,1102
1897.0941948312952,1158
1899.0579395071945,1130
1901.0211993680641,1158
1902.98397467825,1127
1904.9462657021745,1100
1906.9080727043415,1168
1908.869395949332,1158
1910.8302357018065,1162
1912.790592226504,1112
1914.7504657882428,1135
1916.7098566519212,1167
1918.6687650825133,1141
1920.6271913450764,1052
1922.5851357047422,1067
1924.5425984267245,1165
1926.499579776314,1134
1928.4560800188833,1088
1930.4120994198802,1080
1932.367638244833,1115
1934.32269675935,1118
1936.2772752291175,1172
1938.231373919899,1118
1940.1849930975404,1097
1942.1381330279637,1079
1944.0907939771696,1088
1946.0429762112412,1157
1947.9946799963363,1122
1949.9459055986945,1095
1951.896653284633,1134
1953.8469233205478,1076
1955.7967159729142,1092
1957.7460315082863,1072
1959.6948701932974,1137
1961.6432322946594,1101
1963.5911180791632,1117
1965.5385278136787,1104
1967.4854617651545,1113
1969.4319202006182,1122
1971.377903387176,1103
1973.3234115920136,1060
1975.268445082395,1110
1977.2130041256642,1109
1979.1570889892423,1128
1981.1006999406304,1067
1983.04383724741,1094
1984.986501177238,1091
1986.928691997853,1147
1988.8704099770712,1096
1990.811655382789,1124
1992.7524284829801,1129
1994.692729545698,1101
1996.6325588390755,1091
1998.5719166313224,1099
2000.5108031907307,1133
2002.4492187856677,1106
2004.387163684583,1071
2006.3246381560011,1083
2008.2616424685298,1109
2010.1981768908527,1077
2012.1342416917332,1086
2014.069837140014,1050
2016.0049635046162,1089
2017.9396210545406,1077
2019.8738100588666,1074
2021.8075307867502,1087
2023.740783507431,1057
2025.6735684902228,1155
2027.6058860045214,1080
2029.5377363198004,1126
2031.4691197056118,1096
2033.4000364315875,1077
2035.3304867674374,1066
2037.260470982952,1093
2039.189989347998,1099
2041.1190421325232,1115
2043.047629606554,1097
2044.9757520401945,1120
2046.9034097036288,1121
2048.8306028671195,1089
2050.7573318010086,1136
2052.683596775716,1084
2054.609398061742,1072
2056.5347359296647,1062
2058.4596106501403,1052
2060.384022493906,1009
2062.3079717317764,1109
2064.231458634646,1088
2066.1544834734873,1097
2068.077046519352,1117
2069.99914804337,1100
2071.9207883167524,1095
2073.8419676107865,1086
2075.7626861968406,1069
2077.6829443463607,1088
2079.6027423308715,1099
2081.522080421977,1091
2083.440958891362,1057
2085.359378010786,1101
2087.2773380520907,1066
2089.194839287196,1167
2091.111881988101,1084
2093.0284664268825,1037
2094.9445928756973,1093
2096.86026160678,1091
2098.775472892446,1103
2100.690227005088,1147
2102.604524217178,1106
2104.5183648012676,1122
2106.431749029985,1070
2108.34467717604,1087
2110.2571495122206,1070
2112.169166311393,1100
2114.080727846503,1110
2115.9918343905747,1109
2117.902486216711,1080
2119.8126835980956,1096
2121.722426807987,1064
2123.6317161197285,1071
2125.5405518067364,1051
2127.448934142509,1105
2129.356863400624,1061
2131.264339854737,1113
2133.1713637785815,1073
2135.077935445972,1043
2136.9840551308002,1048
2138.889723107037,1109
2140.7949396487334,1145
2142.699705030018,1120
2144.6040195250994,1094
2146.507883408264,1074
2148.4112969538774,1112
2150.3142604363848,1063
2152.2167741303097,1078
2154.1188383102535,1097
2156.0204532508997,1133
2157.9216192270064,1094
2159.822336513414,1083
2161.7226053850413,1057
2163.622426116884,1112
2165.5217989840185,1135
2167.4207242616,1049
2169.319202224862,1073
2171.2172331491165,1082
2173.1148173097563,1085
2175.0119549822507,1113
2176.90864644215,1100
2178.8048919650823,1061
2180.7006918267534,1104
2182.596046302952,1070
2184.4909556695407,1138
2186.3854202024645,1071
2188.279440177746,1054
2190.173015871487,1053
2192.066147559868,1075
2193.958835519149,1120
2195.851080025667,1065
2197.7428813558417,1094
2199.6342397861667,1085
2201.5251555932186,1061
2203.415629053651,1145
2205.3056604441986,1130
2207.19525004167,1065
2209.084398122958,1072
2210.9731049650327,1093
2212.861370844941,1086
2214.749196039812,1091
2216.636580826851,1073
2218.523525483344,1125
2220.410030286655,1107
2222.296095514226,1115
2224.1817214435805,1111
2226.066908352319,1114
2227.951656518121,1111
2229.835966218746,1085
2231.71983773203,1132
2233.6032713358913,1167
2235.486267308324,1123
2237.3688259274036,1088
2239.2509474712824,1080
2241.132632218193,1138
2243.013880446447,1055
2244.8946924344323,1073
2246.7750684606203,1070
2248.6550088035574,1135
2250.534513741871,1079
2252.413583554265,1075
2254.292218519526,1047
2256.170418916517,1073
2258.0481850241786,1086
2259.925517121534,1105
2261.8024154876825,1111
2263.678880401803,1017
2265.5549121431536,1077
2267.430510991071,1068
2269.305677224971,1056
2271.180411124348,1054
2273.0547129687766,1078
2274.9285830379076,1086
2276.8020216114737,1104
2278.6750289692845,1089
2280.5476053912294,1077
2282.4197511572766,1072
2284.2914665474727,1129
2286.162751841943,1112
2288.0336073208937,1114
2289.904033264608,1097
2291.774029953448,1079
2293.6435976678554,1086
2295.5127366883517,1098
2297.381447295534,1086
2299.2497297700825,1101
2301.1175843927526,1107
2302.9850114443825,1084
2304.852011205885,1064
2306.7185839582553,1117
2308.5847299825664,1074
2310.4504495599676,1122
2312.3157429716925,1142
2314.1806104990483,1054
2316.0450524234247,1109
2317.9090690262888,1096
2319.772660589186,1100
2321.635827393742,1133
2323.498569721661,1128
2325.3608878547248,1100
2327.2227820747967,1153
2329.0842526638157,1178
2330.945299903803,1112
2332.805924076857,1109
2334.6661254651535,1109
2336.525904350951,1127
2338.3852610165827,1082
2340.244195744464,1073
2342.102708817088,1109
2343.9608005170253,1070
2345.8184711269287,1081
2347.675720929526,1096
2349.532550207628,1122
2351.38895924412,1101
2353.24494832197,1100
2355.100517724223,1089
2356.955667734004,1107
2358.810398634514,1056
2360.664710709037,1128
2362.5186042409337,1089
2364.3720795136437,1151
2366.225136810686,1118
2368.0777764156583,1083
2369.929998612237,1132
2371.7818036841777,1131
2373.633191915315,1136
2375.484163589562,1058
2377.3347189909114,1084
2379.184858403434,1030
2381.03458211128,1073
2382.8838903986775,1124
2384.732783549936,1137
2386.5812618494406,1119
2388.4293255816588,1107
2390.2769750311327,1142
2392.1242104824883,1105
2393.971032220427,1155
2395.8174405297295,1099
2397.6634356952563,1112
2399.509018001947,1098
2401.3541877348193,1108
2403.1989451789705,1151
2405.043290619576,1137
2406.8872243418905,1102
2408.730746631247,1099
2410.5738577730594,1098
2412.4165580528183,1088
2414.258847756095,1100
2416.100727168537,1147
2417.9421965758734,1103
2419.783256263912,1111
2421.623906518538,1139
2423.4641476257157,1191
2425.303979871491,1153
2427.143403541984,1177
2428.9824189233977,1131
2430.821026302012,1151
2432.6592259641866,1123
2434.497018196361,1142
2436.33440328505,1150
2438.171381516851,1140
2440.00795317844,1111
2441.844118556569,1172
2443.6798779380724,1097
2445.5152316098606,1149
2447.3501798589255,1164
2449.1847229723357,1128
2451.0188612372403,1150
2452.8525949408663,1158
2454.6859243705203,1130
2456.518849813587,1158
2458.3513715575314,1158
2460.183489889895,1123
2462.015205098301,1157
2463.8465174704493,1099
2465.67742729412,1138
2467.5079348571717,1119
2469.338040447542,1204
2471.1677443532476,1167
2472.9970468623833,1120
2474.825948263123,1164
2476.6544488437207,1132
2478.482548892508,1123
2480.310248697896,1112
2482.137548548374,1102
2483.9644487325118,1185
2485.790949538956,1148
2487.617051256433,1155
2489.44275417375,1136
2491.26805857979,1081
2493.0929647635157,1126
2494.917473013971,1131
2496.741583620276,1146
2498.5652968716304,1188
2500.3886130573137,1148
2502.2115324666834,1189
2504.0340553891765,1152
2505.856182114308,1144
2507.6779129316733,1121
2509.499248130945,1154
2511.3201880018764,1166
2513.140732834298,1125
2514.9608829181198,1117
2516.780638543331,1119
2518.6,1144
2520.418967578273,1156
2522.237541568376,1145
2524.0557222606144,1100
2525.8735099453706,1153
2527.6909049131086,1190
2529.507907454368,1197
2531.32451785977,1155
2533.140736420014,1144
2534.9565634258774,1187
2536.771999168218,1189
2538.5870439379714,1205
2540.4016980261526,1121
2542.2159617238544,1168
2544.02983532225,1164
2545.8433191125914,1204
2547.656413386209,1236
2549.4691184345115,1212
2551.2814345489874,1171
2553.093362021204,1254
2554.904901142808,1218
2556.716052205523,1218
2558.526815501153,1164
2560.3371913215824,1243
2562.147179958771,1251
2563.956781704761,1210
2565.7659968516705,1224
2567.5748256916986,1219
2569.3832685171224,1195
2571.1913256202984,1201
2572.9989972936614,1239
2574.806283829725,1249
2576.613185521084,1256
2578.4197026604074,1294
2580.2258355404483,1274
2582.031584454035,1256
2583.836949694077,1283
2585.6419315535613,1276
2587.4465303255533,1258
2589.2507463032002,1279
2591.0545797797245,1278
2592.8580310484303,1216
2594.6611004026995,1291
2596.463788135992,1288
2598.266094541849,1278
2600.0680199138874,1269
2601.869564545807,1282
2603.670728731383,1306
2605.4715127644704,1319
2607.2719169390048,1289
2609.071941548998,1227
2610.8715868885433,1234
2612.670853251811,1285
2614.469740933052,1234
2616.268250226594,1234
2618.0663814268455,1280
2619.864134828292,1306
2621.6615107255006,1276
2623.458509413115,1238
2625.2551311858597,1207
2627.0513763385347,1251
2628.8472451660223,1243
2630.6427379632833,1296
2632.4378550253564,1211
2634.232596647359,1182
2636.026963124488,1228
2637.8209547520187,1213
2639.6145718253065,1205
2641.407814639785,1129
2643.200683490966,1206
2644.9931786744414,1210
2646.7853004858807,1214
2648.577049221034,1196
2650.3684251757277,1201
2652.1594286458712,1188
2653.9500599274484,1238
2655.740319316525,1209
2657.5302071092437,1113
2659.3197236018286,1176
2661.10886909058,1192
2662.8976438718782,1145
2664.686048242183,1169
2666.4740824980327,1174
2668.2617469360443,1216
2670.0490418529134,1158
2671.8359675454153,1139
2673.622524310403,1132
2675.408712444811,1100
2677.1945322456495,1134
2678.979984010009,1200
2680.76506803506,1178
2682.5497846180497,1145
2684.334134056306,1122
2686.1181166472343,1115
2687.9017326883213,1160
2689.6849824771293,1105
2691.4678663113013,1130
2693.2503844885596,1168
2695.032537306705,1133
2696.8143250636167,1118
2698.5957480572542,1150
2700.3768065856534,1125
2702.1575009469316,1137
2703.937831439283,1079
2705.717798360982,1103
2707.4974020103837,1136
2709.276642685917,1132
2711.055520686095,1116
2712.834036309506,1078
2714.612189854819,1072
2716.389981620782,1114
2718.1674119062204,1077
2719.944481010041,1083
2721.721189231226,1073
2723.4975368688415,1116
2725.273524222027,1059
2727.0491515900053,1103
2728.824419272075,1095
2730.5993275676146,1115
2732.3738767760838,1132
2734.148067197016,1096
2735.921899130031,1099
2737.6953728748194,1076
2739.468488731156,1067
2741.2412469988926,1118
2743.0136479779617,1094
2744.785691968372,1080
2746.5573792702116,1055
2748.3287101836504,1074
2750.099685008934,1113
2751.870304046388,1059
2753.640567596418,1059
2755.4104759595057,1105
2757.1800294362156,1075
2758.949228327187,1091
2760.7180729331412,1050
2762.486563554877,1047
2764.254700493272,1048
2766.022484049284,1089
2767.789914523947,1051
2769.5569922183786,1058
2771.3237174337705,1039
2773.090090471394,1082
2774.8561116326036,1058
2776.6217812188274,1033
2778.3870995315756,1047
2780.1520668724356,1034
2781.9166835430747,1088
2783.6809498452394,1047
2785.444866080754,1123
2787.2084325515225,1058
2788.971649559527,1075
2790.73451740683,1087
2792.4970363955713,1085
2794.2592068279705,1058
2796.0210290063264,1046
2797.7825032330147,1068
2799.543629810493,1034
2801.304409041296,1106
2803.0648412280366,1062
2804.8249266734088,1064
2806.5846656801846,1102
2808.344058551212,1101
2810.1031055894246,1064
2811.8618070978273,1079
2813.6201633795085,1103
2815.378174737636,1060
2817.1358414754536,1069
2818.893163896285,1042
2820.6501423035334,1066
2822.4067770006814,1072
2824.1630682912883,1088
2825.9190164789957,1058
2827.6746218675207,1100
2829.429884760661,1050
2831.184805462294,1086
2832.9393842763743,1097
2834.693621506936,1071
2836.4475174580916,1110
2838.201072434034,1044
2839.954286739034,1083
2841.707160677441,1104
2843.459694553685,1073
2845.2118886722724,1077
2846.96374333779,1066
2848.7152588549034,1087
2850.4664355283567,1049
2852.217273662973,1067
2853.9677735636546,1031
2855.7179355353833,1045
2857.4677598832186,1073
2859.217246912299,1057
2860.9663969278427,1095
2862.715210235146,1061
2864.4636871395846,1033
2866.211827946614,1060
2867.9596329617652,1118
2869.7071024906536,1053
2871.4542368389684,1045
2873.20103631248,1074
2874.947501217038,1090
2876.6936318585695,1101
2878.4394285430812,1144
2880.1848915766604,1050
2881.9300212654707,1075
2883.6748179157553,1065
2885.4192818338374,1056
2887.1634133261173,1088
2888.907212699077,1073
2890.6506802592744,1042
2892.393816313348,1110
2894.1366211680142,1102
2895.8790951300693,1082
2897.621238506388,1086
2899.363051603925,1035
2901.1045347297118,1087
2902.8456881908596,1116
2904.58651229456,1086
2906.327007348081,1070
2908.067173658772,1082
2909.8070115340597,1074
2911.5465212814497,1070
2913.285703208527,1070
2915.0245576229563,1091
2916.7630848324807,1062
2918.5012851449196,1078
2920.2391588681758,1093
2921.976706310227,1018
2923.7139277791334,1077
2925.4508235830313,1054
2927.187394030137,1111
2928.923639428745,1105
2930.6595600872306,1069
2932.395156314046,1085
2934.1304284177218,1074
2935.8653767068713,1033
2937.6000014901815,1074
2939.3343030764227,1123
2941.068281774442,1082
2942.8019378931644,1081
2944.5352717415976,1124
2946.2682836288236,1097
2948.0009738640065,1137
2949.7333427563885,1119
2951.465390615289,1137
2953.1971177501086,1062
2954.9285244703265,1026
2956.6596110855,1111
2958.3903779052657,1029
2960.1208252393385,1049
2961.8509533975125,1046
2963.5807626896617,1042
2965.3102534257378,1060
2967.0394259157715,1092
2968.768280469873,1111
2970.496817398232,1085
2972.2250370111146,1044
2973.952939618869,1073
2975.6805255319196,1037
2977.4077950607707,1062
2979.134748516006,1059
2980.861386208289,1086
2982.587708448359,1080
2984.313715547037,1066
2986.039407815222,1124
2987.764785563891,1041
2989.489849104102,1066
2991.2145987469908,1061
2992.9390348037705,1074
2994.6631575857346,1058
2996.3869674042576,1028
2998.1104645707887,1043
2999.83364939686,1074
3001.5565221940783,1063
3003.2790832741334,1062
3005.0013329487924,1081
3006.7232715298996,1108
3008.4448993293804,1082
3010.166216659239,1043
3011.887223831558,1106
3013.607921158498,1074
3015.3283089522993,1044
3017.0483875252826,1086
3018.7681571898443,1089
3020.4876182584626,1043
3022.2067710436927,1043
3023.9256158581707,1038
3025.644153014609,1058
3027.362382825801,1062
3029.0803056046193,1047
3030.797921664012,1076
3032.5152313170106,1051
3034.2322348767225,1102
3035.9489326563353,1070
3037.665324969115,1046
3039.3814121284063,1041
3041.097194447633,1076
3042.812672240299,1060
3044.5278458199855,1070
3046.2427155003525,1094
3047.9572815951406,1089
3049.671544418167,1067
3051.38550428333,1030
3053.0991615046073,1076
3054.812516396051,1054
3056.5255692717974,1103
3058.2383204460575,1043
3059.9507702331257,1019
3061.662918947372,1052
3063.3747669032446,1020
3065.0863144152736,1051
3066.7975617980674,1049
3068.508509366309,1074
3070.219157434767,1066
3071.9295063182844,1060
3073.639556331785,1039
3075.3493077902704,1077
3077.058761008821,1089
3078.7679163025964,1141
3080.476773986837,1082
3082.1853343768594,1025
3083.89359778806,1050
3085.6015645359153,1069
3087.3092349359786,1040
3089.016609303884,1064
3090.7236879553434,1081
3092.4304712061476,1043
3094.136959372166,1005
3095.843152769349,1100
3097.5490517137237,1062
3099.2546565213966,1097
3100.959967508554,1064
3102.66498499146,1085
3104.3697092864577,1070
3106.0741407099695,1100
3107.778279578498,1043
3109.482126208622,1059
3111.1856809170004,1050
3112.8889440203716,1045
3114.5919158355528,1047
3116.294596679439,1064
3117.996986869006,1032
3119.6990867213062,1094
3121.4008965534726,1098
3123.102416682717,1071
3124.803647426329,1069
3126.5045891016784,1074
3128.205242026213,1071
3129.90560651746,1084
3131.605682893025,1072
3133.3054714705922,1061
3135.0049725679282,1111
3136.7041865028714,1094
3138.4031135933465,1078
3140.101754157353,1080
3141.800108512971,1069
3143.498176978357,1088
3145.1959598717494,1056
3146.8934575114636,1042
3148.5906702158954,1075
3150.2875983035183,1042
3151.9842420928853,1038
3153.680601902627,1089
3155.376678051456,1067
3157.07247085816,1023
3158.767980641609,1076
3160.463207720748,1059
3162.158152414606,1060
3163.8528150422862,1059
3165.5471959229726,1050
3167.2412953759303,1015
3168.9351137204976,1030
3170.628651276098,1066
3172.3219083622307,1077
3174.014885298474,1096
3175.707582404485,1052
3177.4000000000005,1099
3179.092138404835,1065
3180.7839979388846,1097
3182.47557892212,1061
3184.166881674594,1119
3185.8579065164386,1057
3187.5486537678626,1011
3189.2391237491547,1040
3190.9293167806827,1065
3192.6192331828934,1118
3194.3088732763117,1054
3195.998237381542,1091
3197.687325819268,1050
3199.376138910251,1057
3201.064676975334,1110
3202.7529403354347,1014
3204.4409293115523,1039
3206.1286442247647,1053
3207.816085396229,1024
3209.5032531471825,1030
3211.190147798936,1051
3212.8767696728846,1014
3214.5631190905015,1026
3216.2491963733373,1046
3217.9350018430214,1087
3219.6205358212637,1012
3221.305798629851,1014
3222.990790590651,1031
3224.6755120256103,1078
3226.359963256751,1029
3228.0441446061795,1024
3229.7280563960758,1067
3231.411698948703,1003
3233.0950725863995,1028
3234.778177631587,1051
3236.461014406761,1089
3238.1435832345005,1082
3239.8258844374595,1079
3241.507918338374,1029
3243.1896852600576,1080
3244.8711855254023,1070
3246.552419457381,1038
3248.233387379042,1058
3249.914089613516,1068
3251.59452648401,1072
3253.274698313813,1052
3254.95460542629,1039
3256.6342481448855,1022
3258.313626793125,1038
3259.9927416946084,1020
3261.6715931730196,1017
3263.3501815521176,1056
3265.0285071557437,1050
3266.706570307815,1026
3268.3843713323286,1002
3270.0619105533615,1022
3271.739188295068,1051
3273.4162048816834,1074
3275.0929606375184,1040
3276.769455886966,1067
3278.445690954498,1015
3280.1216661646613,1075
3281.797381842087,1072
3283.4728383114807,1096
3285.1480358976296,1055
3286.8229749253996,1034
3288.4976557197333,995
3290.172078605655,1027
3291.846243908266,1052
3293.5201519527463,1047
3295.193803064357,982
3296.8671975684374,1077
3298.5403357904024,1032
3300.21321805575,1052
3301.8858446900567,1032
3303.558216018975,1042
3305.23033236824,1058
3306.9021940636603,1053
3308.57380143113,1049
3310.2451547966184,1045
3311.916254486174,1062
3313.5871008259246,1025
3315.2576941420766,1038
3316.9280347609147,1024
3318.5981230088046,1067
3320.2679592121895,1015
3321.9375436975924,1019
3323.606876791612,1053
3325.27595882093,986
3326.944790112305,1037
3328.6133709925753,1040
3330.2817017886573,1035
3331.949782827547,1025
3333.617614436319,1028
3335.2851969421245,1018
3336.952530672199,1024
3338.619615953853,1030
3340.286453114475,1057
3341.9530424815357,1075
3343.619384382583,1058
3345.2854791452437,1023
3346.951327097224,1079
3348.6169285663073,1141
3350.2822838803577,1068
3351.947393367319,1096
3353.61225735521,1057
3355.2768761721345,1049
3356.9412501462693,1033
3358.605379605873,1048
3360.2692648792827,1068
3361.9329062949146,1024
3363.596304181263,1026
