CollectionTime,6/28/2024 1:42:20 PM
ExposureUsed,3
CalibratedSpectrum
-962.7078968117929,585
-959.9714848408522,579
-957.2358232597828,548
-954.5009119013725,569
-951.7667505983302,579
-949.0333391832855,619
-946.3006774887896,600
-943.5687653473143,575
-940.837602591253,571
-938.1071890529199,597
-935.3775245645503,593
-932.6486089583007,582
-929.9204420662485,592
-927.1930237203925,574
-924.4663537526524,605
-921.7404319948689,585
-919.0152582788041,560
-916.2908324361409,612
-913.5671542984834,578
-910.8442236973568,594
-908.1220404642074,613
-905.4006044304027,570
-902.679915427231,578
-899.959973285902,618
-897.2407778375464,586
-894.5223289132158,602
-891.8046263438832,583
-889.0876699604426,584
-886.3714595937089,547
-883.6559950744183,594
-880.9412762332282,561
-878.2273029007168,558
-875.5140749073835,554
-872.8015920836489,544
-870.0898542598545,562
-867.3788612662631,539
-864.6686129330585,565
-861.9591090903457,558
-859.2503495681506,551
-856.5423341964203,553
-853.8350628050229,582
-851.1285352237478,598
-848.4227512823054,546
-845.7177108103272,552
-843.0134136373656,542
-840.3098595928943,584
-837.6070485063082,563
-834.9049802069229,556
-832.2036545239757,551
-829.5030712866244,562
-826.8032303239481,562
-824.1041314649472,564
-821.4057745385428,573
-818.7081593735775,575
-816.0112857988148,577
-813.3151536429393,568
-810.6197627345566,560
-807.9251129021936,570
-805.2312039742981,590
-802.5380357792392,555
-799.8456081453069,597
-797.1539209007124,575
-794.462973873588,562
-791.772766891987,565
-789.083299783884,579
-786.3945723771743,565
-783.7065844996748,574
-781.0193359791231,561
-778.3328266431781,582
-775.6470563194197,574
-772.9620248353489,602
-770.2777320183878,575
-767.5941776958798,580
-764.9113616950891,592
-762.2292838432011,571
-759.5479439673222,590
-756.8673418944801,602
-754.1874774516235,564
-751.5083504656222,584
-748.8299607632671,580
-746.15230817127,587
-743.475392516264,578
-740.7992136248035,560
-738.1237713233636,548
-735.4490654383407,587
-732.7750957960521,593
-730.1018622227365,595
-727.4293645445534,590
-724.7576025875837,592
-722.0865761778291,581
-719.4162851412126,609
-716.7467293035781,605
-714.0779084906909,633
-711.409822528237,609
-708.7424712418238,602
-706.0758544569796,637
-703.4099719991541,623
-700.7448236937178,607
-698.0804093659622,607
-695.4167288411002,613
-692.7537819442656,609
-690.0915685005134,611
-687.4300883348199,628
-684.7693412720819,604
-682.1093271371178,640
-679.4500457546669,617
-676.7914969493897,624
-674.1336805458676,616
-671.4765963686034,643
-668.8202442420206,647
-666.1646239904642,657
-663.5097354382001,603
-660.8555784094151,630
-658.2021527282176,643
-655.5494582186366,679
-652.8974947046223,654
-650.2462620100463,655
-647.5957599587009,640
-644.9459883742998,677
-642.2969470804776,666
-639.6486359007902,662
-637.0010546587141,671
-634.3542031776476,669
-631.7080812809096,671
-629.0626887917401,665
-626.4180255333008,665
-623.7740913286734,624
-621.1308860008619,638
-618.4884093727904,666
-615.8466612673046,684
-613.2056415071715,646
-610.5653499150785,651
-607.9257863136347,662
-605.28695052537,640
-602.6488423727357,662
-600.0114616781036,670
-597.3748082637674,634
-594.7388819519412,672
-592.1036825647604,706
-589.4692099242818,673
-586.8354638524829,679
-584.2024441712624,644
-581.5701507024403,629
-578.9385832677575,658
-576.3077416888759,649
-573.6776257873787,664
-571.0482353847704,655
-568.4195703024757,683
-565.7916303618415,713
-563.164415384135,707
-560.5379251905453,701
-557.9121596021815,690
-555.2871184400748,669
-552.6628015251767,670
-550.0392086783606,658
-547.4163397204204,678
-544.794194472071,685
-542.1727727539491,723
-539.5520743866118,685
-536.9320991905377,742
-534.3128469861261,739
-531.6943175936979,744
-529.0765108334947,792
-526.4594265256793,865
-523.8430644903358,972
-521.2274245474689,1009
-518.612506517005,1131
-515.9983102187913,1226
-513.3848354725959,1316
-510.77208209810846,1410
-508.16004991493924,1478
-505.5487387426199,1550
-502.9381484006032,1621
-500.3282787082628,1616
-497.71912948489364,1668
-495.1107005497117,1574
-492.5029917218539,1399
-489.8960028203786,1214
-487.28973366426493,1113
-484.68418407241325,981
-482.07935386364494,917
-479.47524285670266,929
-476.87185087025,896
-474.2691777228715,875
-471.66722323307334,888
-469.0659872192821,869
-466.4654694998459,911
-463.86566989303384,870
-461.26658821703614,869
-458.66822428996414,820
-456.07057792985,838
-453.4736489546475,841
-450.877437182231,847
-448.28194243039627,829
-445.68716451686,827
-443.09310325926003,836
-440.49975847515555,806
-437.9071299820263,813
-435.31521759727354,838
-432.72402113821954,831
-430.13354042210767,814
-427.5437752661022,839
-424.95472548728867,860
-422.36639090267386,864
-419.7787713291855,855
-417.1918665836721,875
-414.60567648290385,894
-412.0202008435715,835
-409.4354394822874,897
-406.8513922155845,908
-404.26805885991723,883
-401.685439231661,931
-399.103533147112,864
-396.522340422488,850
-393.9418608739278,884
-391.3620943174908,846
-388.7830405691583,848
-386.2046994448317,818
-383.6270707603344,766
-381.05015433141045,749
-378.473949973725,707
-375.8984575028645,689
-373.32367673433623,613
-370.74960748356875,624
-368.1762495659117,560
-365.60360279663576,536
-363.03166699093265,516
-360.4604419639154,490
-357.8899275306178,464
-355.32012350599507,502
-352.7510297049233,486
-350.1826459421999,469
-347.61497203254316,468
-345.04800779059235,467
-342.4817530309082,477
-339.91620756797226,484
-337.35137121618743,464
-334.7872437898774,430
-332.22382510328725,438
-329.66111497058273,447
-327.09911320585127,468
-324.53781962310075,481
-321.9772340362607,499
-319.4173562591816,498
-316.8581861056348,477
-314.2997233893127,518
-311.7419679238294,521
-309.1849195227194,494
-306.62857799943856,482
-304.0729431673641,497
-301.51801483979375,485
-298.963792829947,459
-296.41027695096386,477
-293.85746701590574,499
-291.3053628377552,529
-288.7539642294155,509
-286.2032710037115,497
-283.65328297338897,497
-281.1039999511146,513
-278.5554217494762,543
-276.007548180983,548
-273.4603790580651,561
-270.9139141930734,524
-268.3681533982807,570
-265.8230964858798,567
-263.27874326798565,565
-260.7350935566336,582
-258.1921471637804,577
-255.6499039013039,597
-253.10836358100266,611
-250.56752601459698,599
-248.02739101372765,651
-245.48795838995704,687
-242.94922795476816,660
-240.41119951956557,638
-237.8738728956746,605
-235.33724789434166,683
-232.80132432673452,777
-230.2661020039418,710
-227.73158073697357,640
-225.19776033676033,620
-222.66464061415422,625
-220.1322213799284,634
-217.60050244477725,651
-215.06948361931552,642
-212.53916471408013,666
-210.00954553952818,655
-207.48062590603843,684
-204.9524056239104,711
-202.4248845033651,714
-199.8980623545441,653
-197.37193898751036,650
-194.84651421224817,708
-192.32178783866232,745
-189.79775967657952,709
-187.27442953574644,665
-184.7517972258321,675
-182.2298625564256,757
-179.7086253370378,753
-177.18808537710026,678
-174.66824248596583,684
-172.14909647290835,739
-169.6306471471229,728
-167.11289431772548,712
-164.59583779375328,688
-162.07947738416453,753
-159.5638128978386,758
-157.04884414357605,757
-154.53457093009854,815
-152.02099306604828,881
-149.50811035998936,801
-146.99592262040665,867
-144.48442965570587,892
-141.97363127421409,891
-139.46352728417958,837
-136.95411749377126,821
-134.44540171107985,897
-131.93737974411636,914
-129.43005140081357,830
-126.92341648902493,914
-124.41747481652521,986
-121.91222619101006,970
-119.40767042009657,906
-116.90380731132257,948
-114.40063667214702,832
-111.8981583099503,1025
-109.3963720320337,1194
-106.89527764561933,1256
-104.39487495785067,1218
-101.89516377579241,1215
-99.39614390642998,1177
-96.89781515667039,1278
-94.40017733334128,1411
-91.90323024319173,1364
-89.40697369289148,1349
-86.91140748903172,1374
-84.41653143812482,1248
-81.92234534660395,1326
-79.42884902082358,1552
-76.93604226705907,1698
-74.4439248915071,1461
-71.95249670028534,1340
-69.46175749943245,1523
-66.97170709490854,1821
-64.48234529259423,2126
-61.99367189829195,1703
-59.50568671772464,1717
-57.01838955653636,1920
-54.53178022029283,2161
-52.045858514480074,2173
-49.560624244506016,2260
-47.07607721569923,2314
-44.59221723330904,2180
-42.10904410250669,2309
-39.62655762838392,3045
-37.14475761595372,3742
-34.66364387015028,3779
-32.18321619582866,4294
-29.70347439776515,4948
-27.224418280657005,6485
-24.74604764912317,9442
-22.26836230770266,15967
-19.7913620608565,26704
-17.315046712966478,34895
-14.83941606833514,36159
-12.36446993118659,65030
-9.89020810566592,65030
-7.416630395839093,65030
-4.94373660569363,65030
-2.471526539137585,65030
-6.821210263296962E-13,65030
2.47084320796705,65030
4.941003281093458,65030
7.410480415786196,65030
9.879274808531363,65030
12.347386655893956,65030
14.814816154518212,65030
17.28156350112681,65030
19.74762889252179,65030
22.21301252558385,35278
24.67771459727237,10592
27.141735304626195,6699
29.605074844762612,6178
32.06773341487792,5937
34.52971121224755,5991
36.99100843422559,5046
39.45162527824516,5357
41.91156194181792,6131
44.370818622535126,9856
46.82939551806646,12748
49.287292826160524,12295
51.74451074464503,11990
54.201049471426245,9515
56.65690920448981,5708
59.112090141899785,3989
61.56659248179983,3723
64.02041642241159,3102
66.4735621620365,2483
68.92602989905402,2035
71.37781983192338,1802
73.82893215918205,1807
76.27936707944684,1841
78.72912479141326,2045
81.17820549385567,2029
83.62660938562783,1985
86.07433666566146,1664
88.5213875329681,1842
90.96776218663751,1805
93.41346082583925,1505
95.85848364982041,1440
98.30283085790859,1382
100.7465026495089,1364
103.18949922410604,1567
105.63182078126385,1501
108.07346752062438,1232
110.51443964190923,1260
112.95473734491827,1177
115.39436082953114,1050
117.83331029570547,1285
120.27158594347827,1376
122.7091879729652,1037
125.1461165843615,1052
127.58237197794062,1018
130.01795435405518,1092
132.4528639131364,1087
134.88710085569494,1083
137.32066538231982,1109
139.75355769367923,1213
142.1857779905207,1118
144.61732647366978,1025
147.04820334403132,1174
149.47840880258934,1114
151.90794305040674,1197
154.33680628862487,1339
156.76499871846443,1354
159.19252054122433,1363
161.61937195828352,1438
164.04555317109896,1536
166.47106438120693,1607
168.89590579022217,1781
171.320077599839,1896
173.7435800118302,1920
176.16641322804742,1874
178.58857745042144,1858
181.01007288096173,2028
183.43089972175687,2052
185.85105817497413,2000
188.27054844285988,2012
190.6893707277394,1953
193.10752523201643,1944
195.5250121581745,2171
197.9418317087751,2198
200.3579840864594,2075
202.7734694939469,2123
205.18828813403627,2011
207.6024402096051,2059
210.01592592360964,2180
212.42874547908548,2149
214.84089907914665,2193
217.2523869269868,2114
219.66320922587727,2144
222.0733661791695,2141
224.48285799029293,2173
226.8916848627572,2307
229.29984700014882,2306
231.7073446061355,2358
234.11417788446204,2382
236.520347038953,2404
238.92585227351185,2498
241.33069379212054,2511
243.73487179884035,2441
246.1383864978112,2405
248.541238093252,2476
250.9434267894609,2510
253.34495279081432,2488
255.74581630176783,2582
258.1460175268563,2615
260.54555667069314,2665
262.9444339379703,2432
265.3426495334594,2525
267.7402036620107,2495
270.1370965285529,2360
272.53332833809407,2276
274.9288992957214,2270
277.32380960660055,2244
279.718059475976,2224
282.1116491091717,2267
284.5045787115897,2183
286.89684848871195,2208
289.2884586460981,2249
291.67940938938807,2235
294.0697009242996,2119
296.4593334566299,2098
298.84830719225477,2191
301.23662233712923,2152
303.6242790972866,2151
306.01127767884,2153
308.39761828798066,2069
310.78330113097934,2060
313.16832641418534,2136
315.5526943440269,2021
317.9364051270112,2033
320.3194589697242,1969
322.70185607883093,1961
325.0835966610754,1945
327.4646809232805,1959
329.8451090723478,1973
332.2248813152577,1915
334.6039978590701,1881
336.9824589109231,1877
339.36026467803447,1867
341.7374153677,1866
344.113911187295,1819
346.48975234427337,1796
348.8649390461686,1789
351.2394715005918,1839
353.61334991523415,1783
355.9865744978655,1819
358.35914545633375,1866
360.73106299856715,1806
363.10232733257146,1815
365.47293866643247,1800
367.84289720831396,1788
370.2122031664593,1723
372.5808567491905,1776
374.9488581649083,1769
377.31620762209275,1674
379.6829053293021,1783
382.0489514951745,1722
384.4143463284262,1730
386.7790900378528,1733
389.14318283232853,1726
391.50662492080653,1680
393.86941651231916,1693
396.23155781597745,1718
398.5930490409713,1727
400.9538903965696,1663
403.3140820921202,1704
405.6736243370498,1676
408.03251734086336,1679
410.3907613131465,1702
412.74835646356166,1635
415.10530300185144,1636
417.4616011378372,1677
419.81725108141893,1712
422.1722530425758,1709
424.5266072313656,1672
426.880313857925,1616
429.2333731324701,1592
431.58578526529516,1578
433.9375504667738,1691
436.2886689473588,1698
438.63914091758113,1679
440.9889665880513,1679
443.33814616945835,1615
445.68667987257015,1649
448.03456790823395,1640
450.3818104873759,1625
452.72840782100013,1670
455.07436012019105,1588
457.41966759611057,1599
459.7643304600007,1636
462.10834892318155,1582
464.4517231970525,1630
466.79445349309174,1656
469.1365400228566,1680
471.4779829979826,1618
473.81878263018564,1609
476.15893913125876,1698
478.4984527130747,1646
480.8373235875855,1703
483.17555196682144,1713
485.5131380628919,1819
487.8500820879857,1818
490.1863842543697,1955
492.52204477439034,1982
494.8570638604725,2209
497.1914417251204,2379
499.52517858091653,2611
501.85827464052306,2873
504.19073011668036,3054
506.5225452222086,3033
508.85372017000566,3073
511.18425517304956,3026
513.514150444396,3069
515.8434061971808,3426
518.1720226446176,3751
520.4999999999999,4018
522.8273384766991,4107
525.1540382881666,4194
527.480099647932,4038
529.8055227696037,3187
532.1303078668694,2178
534.454455153496,1883
536.777964843328,1696
539.1008371502907,1639
541.4230722883866,1562
543.744670471698,1552
546.0656319143858,1578
548.3859568306899,1490
550.7056454349294,1554
553.0246979415016,1522
555.3431145648834,1486
557.6608955196306,1444
559.978041020377,1423
562.2945512818363,1505
564.6104265188006,1470
566.9256669461412,1454
569.2402727788082,1521
571.5542442318302,1464
573.8675815203156,1466
576.1802848594508,1512
578.4923544645015,1464
580.8037905508126,1440
583.114593333807,1478
585.4247630289875,1462
587.7342998519354,1485
590.0432040183106,1514
592.3514757438526,1460
594.6591152443794,1512
596.9661227357875,1444
599.2724984340531,1445
601.578242555231,1455
603.8833553154542,1510
606.1878369309362,1475
608.4916876179676,1508
610.7949075929192,1524
613.0974970722403,1511
615.3994562724587,1507
617.7007854101818,1520
620.0014847020951,1511
622.3015543649641,1541
624.6009946156324,1584
626.8998056710224,1474
629.1979877481361,1529
631.4955410640538,1520
633.7924658359349,1511
636.0887622810175,1528
638.3844306166192,1527
640.6794710601358,1596
642.9738838290426,1534
645.2676691408932,1502
647.5608272133207,1556
649.853358264037,1499
652.1452625108324,1542
654.4365401715764,1526
656.7271914642178,1528
659.0172166067838,1510
661.3066158173809,1524
663.5953893141935,1591
665.8835373154867,1542
668.1710600396028,1585
670.4579577049639,1595
672.7442305300709,1495
675.0298787335033,1571
677.3149025339197,1589
679.599302150058,1583
681.8830778007342,1545
684.1662297048437,1531
686.4487580813608,1634
688.7306631493387,1567
691.0119451279091,1543
693.2926042362834,1524
695.5726406937516,1600
697.8520547196814,1540
700.1308465335215,1567
702.4090163547982,1541
704.6865644031171,1589
706.9634908981619,1575
709.2397960596965,1573
711.5154801075631,1566
713.7905432616823,1548
716.0649857420548,1517
718.3388077687592,1580
720.612009561953,1449
722.8845913418733,1538
725.1565533288352,1536
727.427895743234,1547
729.6986188055427,1534
731.9687227363137,1550
734.238207756178,1576
736.5070740858458,1480
738.7753219461066,1574
741.0429515578281,1542
743.3099631419569,1559
745.5763569195191,1535
747.8421331116193,1550
750.1072919394409,1502
752.3718336242467,1586
754.6357583873777,1514
756.8990664502545,1524
759.1617580343765,1563
761.423833361321,1522
763.6852926527457,1538
765.9461361303862,1546
768.206364016058,1561
770.4659765316536,1561
772.7249738991469,1524
774.9833563405886,1544
777.2411240781092,1567
779.4982773339183,1535
781.7548163303044,1588
784.010741289634,1535
786.2660524343538,1629
788.5207499869881,1549
790.7748341701416,1526
793.0283052064964,1553
795.2811633188143,1558
797.5334087299362,1551
799.7850416627813,1605
802.0360623403484,1585
804.2864709857143,1565
806.5362678220353,1573
808.7854530725468,1563
811.0340269605625,1618
813.2819897094754,1619
815.5293415427581,1636
817.77608268396,1671
820.0222133567116,1618
822.2677337847211,1576
824.5126441917765,1614
826.7569448017433,1544
829.0006358385675,1585
831.2437175262731,1604
833.4861900889629,1592
835.7280537508192,1551
837.9693087361026,1579
840.2099552691533,1572
842.4499935743896,1587
844.689423876309,1572
846.9282463994886,1587
849.1664613685833,1559
851.4040690083276,1531
853.6410695435349,1523
855.877463199097,1613
858.1132501999847,1559
860.3484307712487,1593
862.5830051380175,1558
864.8169735254988,1636
867.0503361589791,1561
869.2830932638243,1553
871.5152450654786,1550
873.7467917894654,1608
875.9777336613873,1543
878.2080709069252,1601
880.4378037518389,1593
882.666932421968,1615
884.8954571432301,1597
887.1233781416219,1582
889.3506956432192,1653
891.5774098741766,1572
893.803521060728,1648
896.0290294291852,1616
898.2539352059397,1605
900.4782386174619,1596
902.7019398903011,1602
904.925039251085,1638
907.147536926521,1622
909.3694331433943,1562
911.59072812857,1633
913.8114221089921,1630
916.0315153116827,1576
918.2510079637437,1594
920.4699002923547,1568
922.6881925247761,1560
924.905884888345,1536
927.1229776104793,1580
929.3394709186747,1590
931.555365040506,1585
933.7706602036275,1551
935.9853566357709,1582
938.1994545647489,1584
940.4129542184515,1607
942.6258558248488,1552
944.8381596119883,1627
947.0498658079974,1611
949.2609746410825,1611
951.4714863395287,1547
953.6814011316998,1586
955.8907192460387,1548
958.0994409110671,1578
960.3075663553858,1587
962.5150958076741,1555
964.7220294966913,1553
966.928367651274,1522
969.1341105003388,1504
971.3392582728806,1541
973.5438111979742,1539
975.747769504772,1561
977.9511334225061,1538
980.153903180487,1492
982.3560790081052,1565
984.5576611348289,1556
986.7586497902058,1498
988.9590452038618,1481
991.158847605503,1500
993.3580572249133,1455
995.5566742919558,1445
997.7546990365728,1436
999.952131688785,1398
1002.1489724786926,1371
1004.3452216364743,1367
1006.5408793923874,1368
1008.7359459767691,1385
1010.9304216200343,1366
1013.1243065526781,1322
1015.3176010052733,1359
1017.510305208472,1337
1019.7024193930064,1270
1021.8939437896848,1300
1024.0848786293977,1307
1026.2752241431122,1337
1028.4649805618747,1286
1030.6541481168115,1260
1032.842727039127,1309
1035.0307175601051,1253
1037.2181199111074,1250
1039.4049343235752,1295
1041.591161029029,1283
1043.7768002590683,1246
1045.9618522453698,1302
1048.1463172196918,1284
1050.3301954138697,1277
1052.513487059818,1295
1054.69619238953,1253
1056.8783116350783,1277
1059.0598450286152,1266
1061.2407928023704,1259
1063.4211551886528,1258
1065.6009324198508,1252
1067.780124728432,1215
1069.9587323469414,1228
1072.1367555080046,1245
1074.314194444325,1244
1076.4910493886855,1244
1078.667320573947,1234
1080.843008233051,1284
1083.0181125990161,1266
1085.1926339049414,1214
1087.3665723840027,1233
1089.5399282694575,1229
1091.7127017946405,1175
1093.8848931929647,1183
1096.0565026979243,1182
1098.2275305430899,1208
1100.3979769621128,1182
1102.567842188722,1221
1104.737126456726,1221
1106.9058300000124,1190
1109.0739530525475,1202
1111.2414958483764,1171
1113.4084586216231,1173
1115.5748416064907,1222
1117.7406450372605,1198
1119.9058691482942,1253
1122.0705141740304,1198
1124.2345803489884,1202
1126.3980679077658,1194
1128.5609770850388,1164
1130.7233081155623,1226
1132.8850612341707,1191
1135.0462366757774,1155
1137.2068346753745,1237
1139.3668554680326,1185
1141.526299288901,1112
1143.68516637321,1164
1145.8434569562655,1188
1148.001171273455,1166
1150.158309560244,1165
1152.3148720521767,1164
1154.470858984876,1199
1156.626270594044,1212
1158.7811071154629,1208
1160.9353687849912,1208
1163.089055838569,1170
1165.242168512213,1187
1167.3947070420209,1186
1169.5466716641677,1211
1171.6980626149075,1157
1173.8488801305748,1177
1175.9991244475814,1210
1178.1487958024186,1184
1180.2978944316555,1180
1182.4464205719428,1154
1184.5943744600072,1212
1186.7417563326567,1180
1188.8885664267755,1214
1191.0348049793297,1169
1193.1804722273619,1196
1195.325568407995,1180
1197.4700937584303,1223
1199.614048515948,1133
1201.7574329179074,1129
1203.900247201746,1156
1206.042491604982,1204
1208.1841663652099,1204
1210.3252717201053,1211
1212.465807907422,1187
1214.6057751649923,1137
1216.7451737307279,1159
1218.8840038426192,1117
1221.0222657387353,1155
1223.1599596572241,1210
1225.2970858363137,1206
1227.4336445143094,1156
1229.5696359295966,1212
1231.705060320639,1157
1233.8399179259786,1220
1235.9742089842384,1211
1238.107933734118,1217
1240.2410924143974,1188
1242.373685263935,1238
1244.5057125216676,1250
1246.6371744266116,1202
1248.7680712178621,1222
1250.898403134593,1222
1253.028170416058,1193
1255.1573733015875,1202
1257.2860120305932,1202
1259.4140868425648,1231
1261.54159797707,1205
1263.6685456737569,1211
1265.7949301723515,1183
1267.9207517126597,1225
1270.046010534565,1262
1272.1707068780306,1183
1274.2948409830983,1256
1276.4184130898889,1229
1278.541423438603,1206
1280.6638722695184,1279
1282.785759822993,1282
1284.9070863394636,1276
1287.0278520594447,1264
1289.1480572235314,1315
1291.2677020723963,1288
1293.3867868467923,1303
1295.5053117875495,1293
1297.623277135579,1324
1299.740683131868,1317
1301.8575300174857,1263
1303.973818033578,1310
1306.0895474213703,1330
1308.2047184221678,1378
1310.3193312773528,1343
1312.4333862283888,1294
1314.5468835168163,1405
1316.659823384255,1361
1318.7722060724045,1325
1320.8840318230418,1314
1322.9953008780249,1358
1325.1060134792888,1367
1327.2161698688478,1397
1329.3257702887959,1346
1331.4348149813054,1383
1333.5433041886276,1360
1335.6512381530933,1388
1337.7586171171101,1374
1339.8654413231675,1394
1341.9717110138317,1324
1344.0774264317488,1297
1346.1825878196432,1320
1348.2871954203192,1352
1350.3912494766587,1304
1352.4947502316231,1316
1354.5976979282532,1337
1356.7000928096686,1348
1358.8019351190665,1290
1360.9032250997243,1344
1363.0039629949988,1343
1365.1041490483235,1293
1367.2037835032133,1278
1369.3028666032606,1342
1371.401398592137,1301
1373.4993797135926,1313
1375.5968102114575,1254
1377.6936903296396,1267
1379.7900203121262,1228
1381.8858004029835,1331
1383.9810308463561,1336
1386.075711886469,1320
1388.1698437676241,1320
1390.2634267342032,1281
1392.356461030667,1285
1394.4489469015557,1310
1396.5408845914872,1310
1398.6322743451592,1378
1400.7231164073469,1316
1402.813411022907,1335
1404.903158436773,1334
1406.9923588939578,1319
1409.0810126395531,1274
1411.1691199187303,1315
1413.2566809767386,1329
1415.343696058907,1333
1417.4301654106425,1301
1419.5160892774315,1352
1421.6014679048399,1309
1423.6863015385125,1298
1425.7705904241707,1352
1427.8543348076178,1359
1429.9375349347342,1376
1432.0201910514802,1358
1434.102303403894,1350
1436.1838722380944,1413
1438.2648978002767,1381
1440.3453803367174,1374
1442.4253200937692,1375
1444.5047173178677,1378
1446.5835722555234,1414
1448.6618851533285,1371
1450.739656257952,1467
1452.8168858161434,1417
1454.8935740747306,1431
1456.96972128062,1448
1459.045327680797,1510
1461.120393522327,1491
1463.1949190523528,1494
1465.2689045180973,1495
1467.3423501668608,1560
1469.415256246024,1532
1471.4876230030463,1537
1473.559450685465,1562
1475.6307395408976,1553
1477.7014898170391,1613
1479.771701761665,1644
1481.8413756226287,1657
1483.9105116478618,1657
1485.9791100853772,1688
1488.0471711832643,1610
1490.1146951896926,1655
1492.1816823529098,1689
1494.2481329212433,1675
1496.3140471430984,1752
1498.3794252669609,1672
1500.4442675413939,1732
1502.5085742150404,1661
1504.572345536622,1738
1506.6355817549388,1729
1508.6982831188702,1721
1510.7604498773744,1735
1512.8220822794883,1759
1514.8831805743293,1789
1516.9437450110909,1742
1519.003775839048,1732
1521.0632733075522,1810
1523.1222376660367,1785
1525.1806691640113,1789
1527.2385680510652,1812
1529.2959345768668,1886
1531.3527689911643,1808
1533.4090715437833,1793
1535.4648424846291,1870
1537.5200820636855,1858
1539.5747905310159,1932
1541.6289681367616,1937
1543.6826151311434,1909
1545.7357317644614,1972
1547.7883182870937,1918
1549.8403749494987,1904
1551.8919020022113,1963
1553.9428996958477,2017
1555.9933682811015,2079
1558.0433080087469,1972
1560.0927191296346,2119
1562.1416018946961,2119
1564.1899565549415,2177
1566.2377833614592,2193
1568.2850825654164,2078
1570.3318544180606,2151
1572.3780991707158,2138
1574.423817074788,2004
1576.4690083817595,2049
1578.5136733431923,1980
1580.5578122107272,1895
1582.601425236085,1842
1584.6445126710646,1894
1586.6870747675434,1727
1588.7291117774776,1732
1590.7706239529034,1643
1592.8116115459347,1641
1594.8520748087658,1598
1596.8920139936686,1594
1598.9314293529933,1510
1600.9703211391711,1520
1603.008689604711,1445
1605.0465350022005,1453
1607.0838575843068,1489
1609.1206576037753,1419
1611.1569353134305,1426
1613.1926909661765,1360
1615.2279248149953,1349
1617.2626371129481,1394
1619.2968281131757,1323
1621.3304980688963,1300
1623.3636472334088,1312
1625.39627586009,1337
1627.428384202396,1291
1629.459972513861,1263
1631.4910410480993,1294
1633.5215900588028,1277
1635.551619799744,1260
1637.5811305247717,1265
1639.6101224878166,1198
1641.6385959428862,1219
1643.6665511440683,1286
1645.693988345528,1220
1647.7209078015112,1211
1649.7473097663405,1194
1651.7731944944203,1189
1653.7985622402307,1236
1655.823413258333,1166
1657.847747803366,1222
1659.8715661300494,1151
1661.8948684931793,1194
1663.9176551476316,1170
1665.9399263483624,1210
1667.9616823504057,1228
1669.982923408873,1263
1672.0036497789574,1154
1674.0238617159293,1160
1676.043559475138,1227
1678.0627433120121,1186
1680.081413482059,1178
1682.0995702408654,1181
1684.117213844096,1208
1686.134344547495,1173
1688.1509626068864,1193
1690.1670682781705,1186
1692.182661817329,1168
1694.1977434804217,1196
1696.2123135235875,1129
1698.226372203043,1145
1700.2399197750851,1191
1702.2529564960905,1188
1704.2654826225112,1181
1706.277498410882,1222
1708.2890041178139,1227
1710.2999999999988,1183
1712.3104863142066,1216
1714.3204633172854,1207
1716.329931266163,1145
1718.3388904178469,1134
1720.3473410294214,1167
1722.3552833580516,1189
1724.3627176609807,1169
1726.3696441955308,1201
1728.3760632191033,1115
1730.3819749891782,1183
1732.3873797633146,1148
1734.3922777991502,1202
1736.3966693544012,1114
1738.4005546868639,1157
1740.4039340544127,1161
1742.406807715001,1187
1744.4091759266616,1111
1746.4110389475054,1114
1748.4123970357223,1171
1750.413250449582,1129
1752.4135994474318,1102
1754.4134442876993,1104
1756.4127852288902,1112
1758.4116225295893,1159
1760.4099564484595,1139
1762.407787244244,1100
1764.405115175764,1089
1766.4019405019203,1171
1768.3982634816916,1168
1770.3940843741357,1128
1772.3894034383907,1126
1774.3842209336717,1099
1776.378537119274,1155
1778.372352254571,1107
1780.3656665990156,1133
1782.3584804121397,1122
1784.3507939535534,1175
1786.3426074829463,1131
1788.3339212600863,1129
1790.3247355448211,1144
1792.3150505970766,1122
1794.3048666768573,1125
1796.2941840442477,1097
1798.2830029594106,1126
1800.2713236825884,1091
1802.2591464741004,1108
1804.2464715943465,1095
1806.2332993038058,1142
1808.2196298630352,1151
1810.2054635326708,1078
1812.190800573428,1123
1814.175641246101,1130
1816.1599858115628,1142
1818.1438345307652,1107
1820.127187664738,1139
1822.1100454745924,1112
1824.092408221516,1122
1826.0742761667766,1089
1828.055649571721,1099
1830.0365286977735,1142
1832.0169138064398,1150
1833.9968051593014,1127
1835.9762030180214,1101
1837.9551076443408,1146
1839.9335193000788,1116
1841.9114382471344,1115
1843.888864747485,1112
1845.8657990631878,1141
1847.842241456378,1100
1849.8181921892697,1077
1851.7936515241558,1120
1853.7686197234098,1095
1855.7430970494815,1114
1857.7170837649014,1147
1859.6905801322787,1147
1861.6635864143004,1150
1863.6361028737338,1087
1865.608129773424,1095
1867.5796673762961,1088
1869.5507159453537,1121
1871.521275743678,1121
1873.4913470344313,1147
1875.4609300808534,1067
1877.4300251462632,1144
1879.3986324940588,1158
1881.366752387717,1166
1883.3343850907936,1145
1885.3015308669228,1145
1887.268189979819,1116
1889.2343626932739,1115
1891.2000492711595,1123
1893.1652499774254,1150
1895.1299650761011,1144
1897.0941948312952,1175
1899.0579395071945,1135
1901.0211993680641,1122
1902.98397467825,1114
1904.9462657021745,1147
1906.9080727043415,1086
1908.869395949332,1141
1910.8302357018065,1080
1912.790592226504,1185
1914.7504657882428,1138
1916.7098566519212,1128
1918.6687650825133,1126
1920.6271913450764,1161
1922.5851357047422,1107
1924.5425984267245,1140
1926.499579776314,1130
1928.4560800188833,1155
1930.4120994198802,1140
1932.367638244833,1115
1934.32269675935,1105
1936.2772752291175,1142
1938.231373919899,1087
1940.1849930975404,1102
1942.1381330279637,1126
1944.0907939771696,1138
1946.0429762112412,1114
1947.9946799963363,1150
1949.9459055986945,1108
1951.896653284633,1074
1953.8469233205478,1110
1955.7967159729142,1157
1957.7460315082863,1130
1959.6948701932974,1166
1961.6432322946594,1085
1963.5911180791632,1079
1965.5385278136787,1130
1967.4854617651545,1109
1969.4319202006182,1115
1971.377903387176,1113
1973.3234115920136,1095
1975.268445082395,1172
1977.2130041256642,1122
1979.1570889892423,1147
1981.1006999406304,1081
1983.04383724741,1082
1984.986501177238,1105
1986.928691997853,1095
1988.8704099770712,1080
1990.811655382789,1126
1992.7524284829801,1147
1994.692729545698,1099
1996.6325588390755,1077
1998.5719166313224,1091
2000.5108031907307,1102
2002.4492187856677,1076
2004.387163684583,1079
2006.3246381560011,1057
2008.2616424685298,1047
2010.1981768908527,1106
2012.1342416917332,1028
2014.069837140014,1100
2016.0049635046162,1114
2017.9396210545406,1115
2019.8738100588666,1052
2021.8075307867502,1125
2023.740783507431,1115
2025.6735684902228,1087
2027.6058860045214,1104
2029.5377363198004,1089
2031.4691197056118,1103
2033.4000364315875,1143
2035.3304867674374,1079
2037.260470982952,1042
2039.189989347998,1103
2041.1190421325232,1091
2043.047629606554,1083
2044.9757520401945,1111
2046.9034097036288,1131
2048.8306028671195,1136
2050.7573318010086,1117
2052.683596775716,1127
2054.609398061742,1137
2056.5347359296647,1108
2058.4596106501403,1109
2060.384022493906,1068
2062.3079717317764,1101
2064.231458634646,1095
2066.1544834734873,1142
2068.077046519352,1085
2069.99914804337,1081
2071.9207883167524,1097
2073.8419676107865,1105
2075.7626861968406,1112
2077.6829443463607,1097
2079.6027423308715,1050
2081.522080421977,1101
2083.440958891362,1072
2085.359378010786,1109
2087.2773380520907,1117
2089.194839287196,1108
2091.111881988101,1066
2093.0284664268825,1070
2094.9445928756973,1086
2096.86026160678,1064
2098.775472892446,1123
2100.690227005088,1075
2102.604524217178,1043
2104.5183648012676,1091
2106.431749029985,1089
2108.34467717604,1089
2110.2571495122206,1114
2112.169166311393,1118
2114.080727846503,1094
2115.9918343905747,1082
2117.902486216711,1076
2119.8126835980956,1125
2121.722426807987,1095
2123.6317161197285,1134
2125.5405518067364,1049
2127.448934142509,1135
2129.356863400624,1060
2131.264339854737,1110
2133.1713637785815,1105
2135.077935445972,1087
2136.9840551308002,1108
2138.889723107037,1102
2140.7949396487334,1059
2142.699705030018,1121
2144.6040195250994,1085
2146.507883408264,1082
2148.4112969538774,1085
2150.3142604363848,1109
2152.2167741303097,1090
2154.1188383102535,1108
2156.0204532508997,1083
2157.9216192270064,1070
2159.822336513414,1108
2161.7226053850413,1105
2163.622426116884,1078
2165.5217989840185,1092
2167.4207242616,1085
2169.319202224862,1118
2171.2172331491165,1087
2173.1148173097563,1090
2175.0119549822507,1086
2176.90864644215,1118
2178.8048919650823,1044
2180.7006918267534,1102
2182.596046302952,1064
2184.4909556695407,1106
2186.3854202024645,1058
2188.279440177746,1102
2190.173015871487,1046
2192.066147559868,1097
2193.958835519149,1101
2195.851080025667,1108
2197.7428813558417,1096
2199.6342397861667,1079
2201.5251555932186,1100
2203.415629053651,1093
2205.3056604441986,1103
2207.19525004167,1096
2209.084398122958,1114
2210.9731049650327,1112
2212.861370844941,1090
2214.749196039812,1136
2216.636580826851,1094
2218.523525483344,1086
2220.410030286655,1098
2222.296095514226,1119
2224.1817214435805,1125
2226.066908352319,1098
2227.951656518121,1121
2229.835966218746,1125
2231.71983773203,1089
2233.6032713358913,1123
2235.486267308324,1033
2237.3688259274036,1107
2239.2509474712824,1113
2241.132632218193,1107
2243.013880446447,1133
2244.8946924344323,1087
2246.7750684606203,1082
2248.6550088035574,1123
2250.534513741871,1091
2252.413583554265,1085
2254.292218519526,1110
2256.170418916517,1066
2258.0481850241786,1088
2259.925517121534,1042
2261.8024154876825,1141
2263.678880401803,1054
2265.5549121431536,1079
2267.430510991071,1113
2269.305677224971,1093
2271.180411124348,1131
2273.0547129687766,1086
2274.9285830379076,1081
2276.8020216114737,1077
2278.6750289692845,1141
2280.5476053912294,1103
2282.4197511572766,1101
2284.2914665474727,1090
2286.162751841943,1063
2288.0336073208937,1086
2289.904033264608,1055
2291.774029953448,1052
2293.6435976678554,1092
2295.5127366883517,1074
2297.381447295534,1086
2299.2497297700825,1125
2301.1175843927526,1134
2302.9850114443825,1100
2304.852011205885,1133
2306.7185839582553,1103
2308.5847299825664,1074
2310.4504495599676,1114
2312.3157429716925,1058
2314.1806104990483,1097
2316.0450524234247,1055
2317.9090690262888,1143
2319.772660589186,1134
2321.635827393742,1148
2323.498569721661,1135
2325.3608878547248,1149
2327.2227820747967,1095
2329.0842526638157,1038
2330.945299903803,1037
2332.805924076857,1098
2334.6661254651535,1070
2336.525904350951,1076
2338.3852610165827,1089
2340.244195744464,1129
2342.102708817088,1176
2343.9608005170253,1057
2345.8184711269287,1170
2347.675720929526,1125
2349.532550207628,1115
2351.38895924412,1149
2353.24494832197,1059
2355.100517724223,1146
2356.955667734004,1089
2358.810398634514,1148
2360.664710709037,1122
2362.5186042409337,1117
2364.3720795136437,1100
2366.225136810686,1117
2368.0777764156583,1156
2369.929998612237,1162
2371.7818036841777,1133
2373.633191915315,1165
2375.484163589562,1154
2377.3347189909114,1138
2379.184858403434,1081
2381.03458211128,1123
2382.8838903986775,1138
2384.732783549936,1156
2386.5812618494406,1131
2388.4293255816588,1106
2390.2769750311327,1090
2392.1242104824883,1127
2393.971032220427,1152
2395.8174405297295,1162
2397.6634356952563,1084
2399.509018001947,1140
2401.3541877348193,1154
2403.1989451789705,1142
2405.043290619576,1162
2406.8872243418905,1164
2408.730746631247,1167
2410.5738577730594,1119
2412.4165580528183,1095
2414.258847756095,1143
2416.100727168537,1113
2417.9421965758734,1177
2419.783256263912,1100
2421.623906518538,1138
2423.4641476257157,1158
2425.303979871491,1140
2427.143403541984,1149
2428.9824189233977,1166
2430.821026302012,1119
2432.6592259641866,1180
2434.497018196361,1164
2436.33440328505,1155
2438.171381516851,1145
2440.00795317844,1134
2441.844118556569,1145
2443.6798779380724,1187
2445.5152316098606,1168
2447.3501798589255,1174
2449.1847229723357,1166
2451.0188612372403,1156
2452.8525949408663,1102
2454.6859243705203,1163
2456.518849813587,1137
2458.3513715575314,1141
2460.183489889895,1152
2462.015205098301,1183
2463.8465174704493,1097
2465.67742729412,1119
2467.5079348571717,1116
2469.338040447542,1168
2471.1677443532476,1121
2472.9970468623833,1131
2474.825948263123,1116
2476.6544488437207,1105
2478.482548892508,1156
2480.310248697896,1119
2482.137548548374,1161
2483.9644487325118,1158
2485.790949538956,1134
2487.617051256433,1116
2489.44275417375,1119
2491.26805857979,1131
2493.0929647635157,1122
2494.917473013971,1159
2496.741583620276,1104
2498.5652968716304,1202
2500.3886130573137,1169
2502.2115324666834,1244
2504.0340553891765,1154
2505.856182114308,1172
2507.6779129316733,1147
2509.499248130945,1141
2511.3201880018764,1164
2513.140732834298,1154
2514.9608829181198,1208
2516.780638543331,1208
2518.6,1162
2520.418967578273,1157
2522.237541568376,1179
2524.0557222606144,1186
2525.8735099453706,1202
2527.6909049131086,1195
2529.507907454368,1239
2531.32451785977,1188
2533.140736420014,1212
2534.9565634258774,1167
2536.771999168218,1222
2538.5870439379714,1170
2540.4016980261526,1256
2542.2159617238544,1237
2544.02983532225,1220
2545.8433191125914,1197
2547.656413386209,1233
2549.4691184345115,1244
2551.2814345489874,1192
2553.093362021204,1225
2554.904901142808,1204
2556.716052205523,1196
2558.526815501153,1215
2560.3371913215824,1245
2562.147179958771,1198
2563.956781704761,1198
2565.7659968516705,1260
2567.5748256916986,1255
2569.3832685171224,1250
2571.1913256202984,1251
2572.9989972936614,1286
2574.806283829725,1287
2576.613185521084,1299
2578.4197026604074,1267
2580.2258355404483,1321
2582.031584454035,1295
2583.836949694077,1297
2585.6419315535613,1232
2587.4465303255533,1257
2589.2507463032002,1253
2591.0545797797245,1256
2592.8580310484303,1295
2594.6611004026995,1304
2596.463788135992,1300
2598.266094541849,1288
2600.0680199138874,1351
2601.869564545807,1241
2603.670728731383,1277
2605.4715127644704,1331
2607.2719169390048,1265
2609.071941548998,1286
2610.8715868885433,1278
2612.670853251811,1291
2614.469740933052,1271
2616.268250226594,1242
2618.0663814268455,1311
2619.864134828292,1253
2621.6615107255006,1263
2623.458509413115,1183
2625.2551311858597,1246
2627.0513763385347,1242
2628.8472451660223,1217
2630.6427379632833,1283
2632.4378550253564,1211
2634.232596647359,1240
2636.026963124488,1207
2637.8209547520187,1232
2639.6145718253065,1211
2641.407814639785,1222
2643.200683490966,1273
2644.9931786744414,1236
2646.7853004858807,1201
2648.577049221034,1143
2650.3684251757277,1210
2652.1594286458712,1230
2653.9500599274484,1201
2655.740319316525,1174
2657.5302071092437,1145
2659.3197236018286,1189
2661.10886909058,1207
2662.8976438718782,1197
2664.686048242183,1238
2666.4740824980327,1138
2668.2617469360443,1157
2670.0490418529134,1132
2671.8359675454153,1167
2673.622524310403,1177
2675.408712444811,1127
2677.1945322456495,1152
2678.979984010009,1195
2680.76506803506,1152
2682.5497846180497,1138
2684.334134056306,1161
2686.1181166472343,1151
2687.9017326883213,1116
2689.6849824771293,1138
2691.4678663113013,1084
2693.2503844885596,1099
2695.032537306705,1089
2696.8143250636167,1119
2698.5957480572542,1131
2700.3768065856534,1118
2702.1575009469316,1123
2703.937831439283,1166
2705.717798360982,1123
2707.4974020103837,1171
2709.276642685917,1138
2711.055520686095,1088
2712.834036309506,1120
2714.612189854819,1083
2716.389981620782,1130
2718.1674119062204,1156
2719.944481010041,1128
2721.721189231226,1113
2723.4975368688415,1126
2725.273524222027,1118
2727.0491515900053,1155
2728.824419272075,1108
2730.5993275676146,1110
2732.3738767760838,1115
2734.148067197016,1096
2735.921899130031,1102
2737.6953728748194,1072
2739.468488731156,1064
2741.2412469988926,1154
2743.0136479779617,1057
2744.785691968372,1098
2746.5573792702116,1112
2748.3287101836504,1126
2750.099685008934,1102
2751.870304046388,1111
2753.640567596418,1076
2755.4104759595057,1104
2757.1800294362156,1127
2758.949228327187,1118
2760.7180729331412,1072
2762.486563554877,1042
2764.254700493272,1066
2766.022484049284,1073
2767.789914523947,1084
2769.5569922183786,1032
2771.3237174337705,1060
2773.090090471394,1069
2774.8561116326036,1117
2776.6217812188274,1057
2778.3870995315756,1106
2780.1520668724356,1053
2781.9166835430747,1080
2783.6809498452394,1082
2785.444866080754,1104
2787.2084325515225,1069
2788.971649559527,1106
2790.73451740683,1074
2792.4970363955713,1040
2794.2592068279705,1115
2796.0210290063264,1080
2797.7825032330147,1085
2799.543629810493,1135
2801.304409041296,1070
2803.0648412280366,1087
2804.8249266734088,1075
2806.5846656801846,1096
2808.344058551212,1092
2810.1031055894246,1109
2811.8618070978273,1130
2813.6201633795085,1140
2815.378174737636,1059
2817.1358414754536,1122
2818.893163896285,1090
2820.6501423035334,1102
2822.4067770006814,1105
2824.1630682912883,1122
2825.9190164789957,1094
2827.6746218675207,1123
2829.429884760661,1082
2831.184805462294,1076
2832.9393842763743,1113
2834.693621506936,1081
2836.4475174580916,1119
2838.201072434034,1079
2839.954286739034,1102
2841.707160677441,1110
2843.459694553685,1141
2845.2118886722724,1118
2846.96374333779,1101
2848.7152588549034,1090
2850.4664355283567,1113
2852.217273662973,1068
2853.9677735636546,1084
2855.7179355353833,1044
2857.4677598832186,1086
2859.217246912299,1024
2860.9663969278427,1085
2862.715210235146,1087
2864.4636871395846,1110
2866.211827946614,1076
2867.9596329617652,1080
2869.7071024906536,1068
2871.4542368389684,1113
2873.20103631248,1091
2874.947501217038,1080
2876.6936318585695,1125
2878.4394285430812,1052
2880.1848915766604,1115
2881.9300212654707,1089
2883.6748179157553,1095
2885.4192818338374,1086
2887.1634133261173,1076
2888.907212699077,1090
2890.6506802592744,1095
2892.393816313348,1119
2894.1366211680142,1076
2895.8790951300693,1097
2897.621238506388,1048
2899.363051603925,1117
2901.1045347297118,1098
2902.8456881908596,1120
2904.58651229456,1105
2906.327007348081,1033
2908.067173658772,1109
2909.8070115340597,1105
2911.5465212814497,1069
2913.285703208527,1081
2915.0245576229563,1109
2916.7630848324807,1116
2918.5012851449196,1091
2920.2391588681758,1116
2921.976706310227,1089
2923.7139277791334,1064
2925.4508235830313,1068
2927.187394030137,1096
2928.923639428745,1089
2930.6595600872306,1103
2932.395156314046,1077
2934.1304284177218,1050
2935.8653767068713,1061
2937.6000014901815,1158
2939.3343030764227,1108
2941.068281774442,1111
2942.8019378931644,1061
2944.5352717415976,1077
2946.2682836288236,1150
2948.0009738640065,1055
2949.7333427563885,1103
2951.465390615289,1064
2953.1971177501086,1113
2954.9285244703265,1039
2956.6596110855,1070
2958.3903779052657,1057
2960.1208252393385,1059
2961.8509533975125,1096
2963.5807626896617,1029
2965.3102534257378,1062
2967.0394259157715,1094
2968.768280469873,1100
2970.496817398232,1066
2972.2250370111146,1104
2973.952939618869,1056
2975.6805255319196,1040
2977.4077950607707,1021
2979.134748516006,1056
2980.861386208289,1078
2982.587708448359,1095
2984.313715547037,1116
2986.039407815222,1073
2987.764785563891,1065
2989.489849104102,1089
2991.2145987469908,1053
2992.9390348037705,1060
2994.6631575857346,1110
2996.3869674042576,1081
2998.1104645707887,1048
2999.83364939686,1088
3001.5565221940783,1119
3003.2790832741334,1044
3005.0013329487924,1026
3006.7232715298996,1076
3008.4448993293804,1063
3010.166216659239,1062
3011.887223831558,1059
3013.607921158498,1053
3015.3283089522993,1100
3017.0483875252826,1038
3018.7681571898443,1086
3020.4876182584626,1042
3022.2067710436927,1080
3023.9256158581707,1090
3025.644153014609,1078
3027.362382825801,1085
3029.0803056046193,1067
3030.797921664012,1097
3032.5152313170106,1020
3034.2322348767225,1074
3035.9489326563353,1090
3037.665324969115,1073
3039.3814121284063,1063
3041.097194447633,1074
3042.812672240299,1076
3044.5278458199855,1126
3046.2427155003525,1098
3047.9572815951406,1064
3049.671544418167,1069
3051.38550428333,1077
3053.0991615046073,1058
3054.812516396051,1056
3056.5255692717974,1092
3058.2383204460575,1100
3059.9507702331257,1075
3061.662918947372,1088
3063.3747669032446,1062
3065.0863144152736,1049
3066.7975617980674,1075
3068.508509366309,1082
3070.219157434767,1013
3071.9295063182844,1072
3073.639556331785,1061
3075.3493077902704,1092
3077.058761008821,1109
3078.7679163025964,1052
3080.476773986837,1048
3082.1853343768594,1045
3083.89359778806,1028
3085.6015645359153,1094
3087.3092349359786,1030
3089.016609303884,1086
3090.7236879553434,1020
3092.4304712061476,1088
3094.136959372166,1037
3095.843152769349,1049
3097.5490517137237,1035
3099.2546565213966,1085
3100.959967508554,1068
3102.66498499146,1138
3104.3697092864577,1058
3106.0741407099695,1077
3107.778279578498,1077
3109.482126208622,1043
3111.1856809170004,1106
3112.8889440203716,1084
3114.5919158355528,1098
3116.294596679439,1046
3117.996986869006,1050
3119.6990867213062,1044
3121.4008965534726,1135
3123.102416682717,1104
3124.803647426329,1054
3126.5045891016784,1066
3128.205242026213,1077
3129.90560651746,1077
3131.605682893025,1086
3133.3054714705922,1083
3135.0049725679282,1112
3136.7041865028714,1091
3138.4031135933465,1094
3140.101754157353,1068
3141.800108512971,1048
3143.498176978357,1109
3145.1959598717494,1045
3146.8934575114636,1029
3148.5906702158954,1055
3150.2875983035183,1055
3151.9842420928853,1045
3153.680601902627,1078
3155.376678051456,1042
3157.07247085816,1118
3158.767980641609,1059
3160.463207720748,1056
3162.158152414606,1045
3163.8528150422862,1091
3165.5471959229726,1050
3167.2412953759303,1058
3168.9351137204976,1054
3170.628651276098,1147
3172.3219083622307,1071
3174.014885298474,1056
3175.707582404485,1034
3177.4000000000005,1051
3179.092138404835,1078
3180.7839979388846,1110
3182.47557892212,1051
3184.166881674594,1093
3185.8579065164386,1032
3187.5486537678626,1041
3189.2391237491547,1121
3190.9293167806827,1064
3192.6192331828934,1075
3194.3088732763117,1081
3195.998237381542,1112
3197.687325819268,1057
3199.376138910251,1081
3201.064676975334,1068
3202.7529403354347,1083
3204.4409293115523,1091
3206.1286442247647,1058
3207.816085396229,1092
3209.5032531471825,1075
3211.190147798936,1066
3212.8767696728846,997
3214.5631190905015,1024
3216.2491963733373,1053
3217.9350018430214,1014
3219.6205358212637,1008
3221.305798629851,1077
3222.990790590651,1020
3224.6755120256103,1011
3226.359963256751,1064
3228.0441446061795,1063
3229.7280563960758,1014
3231.411698948703,1030
3233.0950725863995,1037
3234.778177631587,1053
3236.461014406761,1041
3238.1435832345005,1075
3239.8258844374595,1056
3241.507918338374,1112
3243.1896852600576,1087
3244.8711855254023,1044
3246.552419457381,1070
3248.233387379042,1066
3249.914089613516,1053
3251.59452648401,1058
3253.274698313813,1023
3254.95460542629,1039
3256.6342481448855,1032
3258.313626793125,1038
3259.9927416946084,1077
3261.6715931730196,999
3263.3501815521176,999
3265.0285071557437,1033
3266.706570307815,1054
3268.3843713323286,1016
3270.0619105533615,1030
3271.739188295068,1048
3273.4162048816834,1102
3275.0929606375184,1083
3276.769455886966,1052
3278.445690954498,1062
3280.1216661646613,1095
3281.797381842087,1039
3283.4728383114807,1096
3285.1480358976296,1055
3286.8229749253996,1047
3288.4976557197333,1080
3290.172078605655,1061
3291.846243908266,1098
3293.5201519527463,1014
3295.193803064357,1047
3296.8671975684374,1088
3298.5403357904024,1080
3300.21321805575,1014
3301.8858446900567,1049
3303.558216018975,1002
3305.23033236824,1036
3306.9021940636603,1108
3308.57380143113,1080
3310.2451547966184,1061
3311.916254486174,1043
3313.5871008259246,1037
3315.2576941420766,1033
3316.9280347609147,1006
3318.5981230088046,1020
3320.2679592121895,1000
3321.9375436975924,1055
3323.606876791612,1065
3325.27595882093,1021
3326.944790112305,1030
3328.6133709925753,1042
3330.2817017886573,1044
3331.949782827547,994
3333.617614436319,1010
3335.2851969421245,1044
3336.952530672199,1028
3338.619615953853,1007
3340.286453114475,1067
3341.9530424815357,1056
3343.619384382583,1057
3345.2854791452437,1110
3346.951327097224,1066
3348.6169285663073,1055
3350.2822838803577,1065
3351.947393367319,1047
3353.61225735521,1054
3355.2768761721345,1070
3356.9412501462693,1042
3358.605379605873,1038
3360.2692648792827,1024
3361.9329062949146,1030
3363.596304181263,1068
