CollectionTime,6/28/2024 1:40:35 PM
ExposureUsed,3
CalibratedSpectrum
-962.7078968117929,501
-959.9714848408522,537
-957.2358232597828,523
-954.5009119013725,516
-951.7667505983302,547
-949.0333391832855,566
-946.3006774887896,538
-943.5687653473143,502
-940.837602591253,521
-938.1071890529199,528
-935.3775245645503,525
-932.6486089583007,520
-929.9204420662485,561
-927.1930237203925,550
-924.4663537526524,546
-921.7404319948689,532
-919.0152582788041,544
-916.2908324361409,571
-913.5671542984834,553
-910.8442236973568,559
-908.1220404642074,556
-905.4006044304027,540
-902.679915427231,566
-899.959973285902,536
-897.2407778375464,534
-894.5223289132158,529
-891.8046263438832,511
-889.0876699604426,507
-886.3714595937089,488
-883.6559950744183,508
-880.9412762332282,502
-878.2273029007168,519
-875.5140749073835,499
-872.8015920836489,491
-870.0898542598545,487
-867.3788612662631,486
-864.6686129330585,478
-861.9591090903457,485
-859.2503495681506,492
-856.5423341964203,499
-853.8350628050229,531
-851.1285352237478,510
-848.4227512823054,519
-845.7177108103272,512
-843.0134136373656,522
-840.3098595928943,506
-837.6070485063082,516
-834.9049802069229,506
-832.2036545239757,493
-829.5030712866244,494
-826.8032303239481,465
-824.1041314649472,472
-821.4057745385428,505
-818.7081593735775,493
-816.0112857988148,515
-813.3151536429393,502
-810.6197627345566,516
-807.9251129021936,495
-805.2312039742981,529
-802.5380357792392,518
-799.8456081453069,531
-797.1539209007124,517
-794.462973873588,513
-791.772766891987,511
-789.083299783884,526
-786.3945723771743,557
-783.7065844996748,516
-781.0193359791231,509
-778.3328266431781,552
-775.6470563194197,552
-772.9620248353489,529
-770.2777320183878,520
-767.5941776958798,483
-764.9113616950891,518
-762.2292838432011,528
-759.5479439673222,522
-756.8673418944801,529
-754.1874774516235,543
-751.5083504656222,511
-748.8299607632671,519
-746.15230817127,488
-743.475392516264,546
-740.7992136248035,522
-738.1237713233636,518
-735.4490654383407,508
-732.7750957960521,537
-730.1018622227365,518
-727.4293645445534,533
-724.7576025875837,522
-722.0865761778291,538
-719.4162851412126,541
-716.7467293035781,519
-714.0779084906909,536
-711.409822528237,524
-708.7424712418238,568
-706.0758544569796,535
-703.4099719991541,570
-700.7448236937178,528
-698.0804093659622,523
-695.4167288411002,543
-692.7537819442656,535
-690.0915685005134,526
-687.4300883348199,541
-684.7693412720819,538
-682.1093271371178,551
-679.4500457546669,535
-676.7914969493897,516
-674.1336805458676,593
-671.4765963686034,579
-668.8202442420206,563
-666.1646239904642,552
-663.5097354382001,585
-660.8555784094151,562
-658.2021527282176,568
-655.5494582186366,585
-652.8974947046223,583
-650.2462620100463,605
-647.5957599587009,601
-644.9459883742998,608
-642.2969470804776,602
-639.6486359007902,627
-637.0010546587141,637
-634.3542031776476,610
-631.7080812809096,595
-629.0626887917401,563
-626.4180255333008,586
-623.7740913286734,583
-621.1308860008619,580
-618.4884093727904,573
-615.8466612673046,583
-613.2056415071715,582
-610.5653499150785,562
-607.9257863136347,557
-605.28695052537,572
-602.6488423727357,562
-600.0114616781036,570
-597.3748082637674,583
-594.7388819519412,611
-592.1036825647604,613
-589.4692099242818,575
-586.8354638524829,596
-584.2024441712624,624
-581.5701507024403,600
-578.9385832677575,621
-576.3077416888759,622
-573.6776257873787,618
-571.0482353847704,604
-568.4195703024757,648
-565.7916303618415,627
-563.164415384135,676
-560.5379251905453,636
-557.9121596021815,632
-555.2871184400748,607
-552.6628015251767,620
-550.0392086783606,654
-547.4163397204204,650
-544.794194472071,659
-542.1727727539491,624
-539.5520743866118,629
-536.9320991905377,656
-534.3128469861261,699
-531.6943175936979,721
-529.0765108334947,735
-526.4594265256793,833
-523.8430644903358,927
-521.2274245474689,1071
-518.612506517005,1191
-515.9983102187913,1320
-513.3848354725959,1525
-510.77208209810846,1685
-508.16004991493924,1862
-505.5487387426199,2078
-502.9381484006032,2187
-500.3282787082628,2121
-497.71912948489364,2079
-495.1107005497117,1840
-492.5029917218539,1525
-489.8960028203786,1252
-487.28973366426493,1064
-484.68418407241325,946
-482.07935386364494,893
-479.47524285670266,883
-476.87185087025,898
-474.2691777228715,855
-471.66722323307334,877
-469.0659872192821,874
-466.4654694998459,821
-463.86566989303384,823
-461.26658821703614,849
-458.66822428996414,852
-456.07057792985,804
-453.4736489546475,764
-450.877437182231,794
-448.28194243039627,836
-445.68716451686,783
-443.09310325926003,784
-440.49975847515555,769
-437.9071299820263,744
-435.31521759727354,781
-432.72402113821954,775
-430.13354042210767,844
-427.5437752661022,797
-424.95472548728867,819
-422.36639090267386,858
-419.7787713291855,859
-417.1918665836721,808
-414.60567648290385,832
-412.0202008435715,849
-409.4354394822874,843
-406.8513922155845,829
-404.26805885991723,842
-401.685439231661,859
-399.103533147112,817
-396.522340422488,835
-393.9418608739278,830
-391.3620943174908,831
-388.7830405691583,865
-386.2046994448317,848
-383.6270707603344,808
-381.05015433141045,757
-378.473949973725,676
-375.8984575028645,678
-373.32367673433623,632
-370.74960748356875,648
-368.1762495659117,595
-365.60360279663576,601
-363.03166699093265,567
-360.4604419639154,545
-357.8899275306178,516
-355.32012350599507,523
-352.7510297049233,490
-350.1826459421999,514
-347.61497203254316,520
-345.04800779059235,487
-342.4817530309082,479
-339.91620756797226,474
-337.35137121618743,504
-334.7872437898774,497
-332.22382510328725,502
-329.66111497058273,533
-327.09911320585127,570
-324.53781962310075,531
-321.9772340362607,533
-319.4173562591816,536
-316.8581861056348,533
-314.2997233893127,530
-311.7419679238294,603
-309.1849195227194,575
-306.62857799943856,548
-304.0729431673641,546
-301.51801483979375,562
-298.963792829947,552
-296.41027695096386,563
-293.85746701590574,556
-291.3053628377552,642
-288.7539642294155,621
-286.2032710037115,599
-283.65328297338897,591
-281.1039999511146,616
-278.5554217494762,600
-276.007548180983,591
-273.4603790580651,583
-270.9139141930734,576
-268.3681533982807,629
-265.8230964858798,648
-263.27874326798565,606
-260.7350935566336,655
-258.1921471637804,643
-255.6499039013039,623
-253.10836358100266,617
-250.56752601459698,655
-248.02739101372765,757
-245.48795838995704,739
-242.94922795476816,731
-240.41119951956557,719
-237.8738728956746,759
-235.33724789434166,903
-232.80132432673452,1015
-230.2661020039418,835
-227.73158073697357,743
-225.19776033676033,731
-222.66464061415422,721
-220.1322213799284,706
-217.60050244477725,710
-215.06948361931552,743
-212.53916471408013,765
-210.00954553952818,765
-207.48062590603843,789
-204.9524056239104,803
-202.4248845033651,716
-199.8980623545441,753
-197.37193898751036,758
-194.84651421224817,816
-192.32178783866232,805
-189.79775967657952,829
-187.27442953574644,866
-184.7517972258321,841
-182.2298625564256,868
-179.7086253370378,831
-177.18808537710026,818
-174.66824248596583,871
-172.14909647290835,935
-169.6306471471229,951
-167.11289431772548,907
-164.59583779375328,922
-162.07947738416453,930
-159.5638128978386,1006
-157.04884414357605,1075
-154.53457093009854,1114
-152.02099306604828,1111
-149.50811035998936,1019
-146.99592262040665,1015
-144.48442965570587,1059
-141.97363127421409,1146
-139.46352728417958,1118
-136.95411749377126,1038
-134.44540171107985,1210
-131.93737974411636,1268
-129.43005140081357,1172
-126.92341648902493,1250
-124.41747481652521,1332
-121.91222619101006,1234
-119.40767042009657,1202
-116.90380731132257,1261
-114.40063667214702,1324
-111.8981583099503,1458
-109.3963720320337,1548
-106.89527764561933,1696
-104.39487495785067,1705
-101.89516377579241,1555
-99.39614390642998,1571
-96.89781515667039,1550
-94.40017733334128,1732
-91.90323024319173,1714
-89.40697369289148,1791
-86.91140748903172,1795
-84.41653143812482,1775
-81.92234534660395,1976
-79.42884902082358,2249
-76.93604226705907,2326
-74.4439248915071,2006
-71.95249670028534,2104
-69.46175749943245,2179
-66.97170709490854,2698
-64.48234529259423,3062
-61.99367189829195,2408
-59.50568671772464,2462
-57.01838955653636,2833
-54.53178022029283,3116
-52.045858514480074,2954
-49.560624244506016,3080
-47.07607721569923,3070
-44.59221723330904,3198
-42.10904410250669,3319
-39.62655762838392,4097
-37.14475761595372,5094
-34.66364387015028,5781
-32.18321619582866,6306
-29.70347439776515,7118
-27.224418280657005,9441
-24.74604764912317,14641
-22.26836230770266,25521
-19.7913620608565,42737
-17.315046712966478,52652
-14.83941606833514,55762
-12.36446993118659,65031
-9.89020810566592,65031
-7.416630395839093,65031
-4.94373660569363,65031
-2.471526539137585,65031
-6.821210263296962E-13,65031
2.47084320796705,65031
4.941003281093458,65031
7.410480415786196,65031
9.879274808531363,65031
12.347386655893956,65031
14.814816154518212,65031
17.28156350112681,65031
19.74762889252179,65031
22.21301252558385,65031
24.67771459727237,37696
27.141735304626195,13280
29.605074844762612,9231
32.06773341487792,9573
34.52971121224755,9105
36.99100843422559,7161
39.45162527824516,7491
41.91156194181792,8945
44.370818622535126,14454
46.82939551806646,18480
49.287292826160524,18381
51.74451074464503,17501
54.201049471426245,12613
56.65690920448981,7828
59.112090141899785,5850
61.56659248179983,5796
64.02041642241159,4229
66.4735621620365,3038
68.92602989905402,2521
71.37781983192338,2361
73.82893215918205,2528
76.27936707944684,2613
78.72912479141326,3126
81.17820549385567,3251
83.62660938562783,2595
86.07433666566146,2367
88.5213875329681,2860
90.96776218663751,2554
93.41346082583925,2254
95.85848364982041,2037
98.30283085790859,2019
100.7465026495089,2081
103.18949922410604,2001
105.63182078126385,1867
108.07346752062438,1905
110.51443964190923,1618
112.95473734491827,1461
115.39436082953114,1522
117.83331029570547,1889
120.27158594347827,1770
122.7091879729652,1454
125.1461165843615,1475
127.58237197794062,1534
130.01795435405518,1393
132.4528639131364,1305
134.88710085569494,1385
137.32066538231982,1450
139.75355769367923,1325
142.1857779905207,1393
144.61732647366978,1367
147.04820334403132,1445
149.47840880258934,1356
151.90794305040674,1491
154.33680628862487,1536
156.76499871846443,1445
159.19252054122433,1480
161.61937195828352,1565
164.04555317109896,1526
166.47106438120693,1776
168.89590579022217,2071
171.320077599839,1940
173.7435800118302,1889
176.16641322804742,1876
178.58857745042144,1970
181.01007288096173,2040
183.43089972175687,2103
185.85105817497413,1948
188.27054844285988,1968
190.6893707277394,1984
193.10752523201643,2064
195.5250121581745,2117
197.9418317087751,2153
200.3579840864594,2064
202.7734694939469,2155
205.18828813403627,2069
207.6024402096051,2022
210.01592592360964,2161
212.42874547908548,2022
214.84089907914665,1997
217.2523869269868,2047
219.66320922587727,2064
222.0733661791695,2094
224.48285799029293,2079
226.8916848627572,2065
229.29984700014882,2158
231.7073446061355,2159
234.11417788446204,2240
236.520347038953,2286
238.92585227351185,2291
241.33069379212054,2352
243.73487179884035,2343
246.1383864978112,2257
248.541238093252,2128
250.9434267894609,2158
253.34495279081432,2153
255.74581630176783,2188
258.1460175268563,2322
260.54555667069314,2263
262.9444339379703,2272
265.3426495334594,2331
267.7402036620107,2231
270.1370965285529,2118
272.53332833809407,2037
274.9288992957214,2217
277.32380960660055,2213
279.718059475976,2183
282.1116491091717,2152
284.5045787115897,2208
286.89684848871195,2154
289.2884586460981,2251
291.67940938938807,2241
294.0697009242996,2270
296.4593334566299,2225
298.84830719225477,2169
301.23662233712923,2147
303.6242790972866,2114
306.01127767884,2212
308.39761828798066,2131
310.78330113097934,2160
313.16832641418534,2157
315.5526943440269,2005
317.9364051270112,2017
320.3194589697242,1967
322.70185607883093,1991
325.0835966610754,2017
327.4646809232805,1990
329.8451090723478,1970
332.2248813152577,1956
334.6039978590701,1940
336.9824589109231,1974
339.36026467803447,1936
341.7374153677,1959
344.113911187295,1856
346.48975234427337,1864
348.8649390461686,1839
351.2394715005918,1779
353.61334991523415,1747
355.9865744978655,1852
358.35914545633375,1929
360.73106299856715,1949
363.10232733257146,1899
365.47293866643247,1855
367.84289720831396,1846
370.2122031664593,1824
372.5808567491905,1782
374.9488581649083,1759
377.31620762209275,1785
379.6829053293021,1780
382.0489514951745,1837
384.4143463284262,1826
386.7790900378528,1726
389.14318283232853,1778
391.50662492080653,1769
393.86941651231916,1697
396.23155781597745,1732
398.5930490409713,1692
400.9538903965696,1665
403.3140820921202,1785
405.6736243370498,1779
408.03251734086336,1764
410.3907613131465,1761
412.74835646356166,1715
415.10530300185144,1701
417.4616011378372,1747
419.81725108141893,1722
422.1722530425758,1781
424.5266072313656,1740
426.880313857925,1718
429.2333731324701,1704
431.58578526529516,1658
433.9375504667738,1762
436.2886689473588,1671
438.63914091758113,1607
440.9889665880513,1638
443.33814616945835,1646
445.68667987257015,1684
448.03456790823395,1603
450.3818104873759,1670
452.72840782100013,1605
455.07436012019105,1613
457.41966759611057,1570
459.7643304600007,1619
462.10834892318155,1609
464.4517231970525,1656
466.79445349309174,1683
469.1365400228566,1631
471.4779829979826,1638
473.81878263018564,1737
476.15893913125876,1729
478.4984527130747,1725
480.8373235875855,1804
483.17555196682144,1765
485.5131380628919,1816
487.8500820879857,1928
490.1863842543697,1983
492.52204477439034,2176
494.8570638604725,2349
497.1914417251204,2665
499.52517858091653,3115
501.85827464052306,3546
504.19073011668036,3783
506.5225452222086,4026
508.85372017000566,3975
511.18425517304956,3946
513.514150444396,4056
515.8434061971808,4266
518.1720226446176,4290
520.4999999999999,4410
522.8273384766991,4619
525.1540382881666,4531
527.480099647932,4208
529.8055227696037,3412
532.1303078668694,2400
534.454455153496,1917
536.777964843328,1828
539.1008371502907,1652
541.4230722883866,1661
543.744670471698,1612
546.0656319143858,1618
548.3859568306899,1602
550.7056454349294,1587
553.0246979415016,1547
555.3431145648834,1526
557.6608955196306,1530
559.978041020377,1523
562.2945512818363,1449
564.6104265188006,1514
566.9256669461412,1514
569.2402727788082,1511
571.5542442318302,1496
573.8675815203156,1465
576.1802848594508,1428
578.4923544645015,1417
580.8037905508126,1487
583.114593333807,1460
585.4247630289875,1501
587.7342998519354,1452
590.0432040183106,1495
592.3514757438526,1516
594.6591152443794,1464
596.9661227357875,1502
599.2724984340531,1526
601.578242555231,1452
603.8833553154542,1517
606.1878369309362,1502
608.4916876179676,1549
610.7949075929192,1564
613.0974970722403,1464
615.3994562724587,1449
617.7007854101818,1528
620.0014847020951,1443
622.3015543649641,1507
624.6009946156324,1422
626.8998056710224,1512
629.1979877481361,1523
631.4955410640538,1500
633.7924658359349,1519
636.0887622810175,1483
638.3844306166192,1492
640.6794710601358,1558
642.9738838290426,1504
645.2676691408932,1487
647.5608272133207,1476
649.853358264037,1472
652.1452625108324,1503
654.4365401715764,1508
656.7271914642178,1498
659.0172166067838,1522
661.3066158173809,1500
663.5953893141935,1507
665.8835373154867,1497
668.1710600396028,1497
670.4579577049639,1568
672.7442305300709,1544
675.0298787335033,1542
677.3149025339197,1540
679.599302150058,1607
681.8830778007342,1600
684.1662297048437,1525
686.4487580813608,1523
688.7306631493387,1493
691.0119451279091,1509
693.2926042362834,1570
695.5726406937516,1544
697.8520547196814,1580
700.1308465335215,1519
702.4090163547982,1521
704.6865644031171,1573
706.9634908981619,1502
709.2397960596965,1482
711.5154801075631,1516
713.7905432616823,1545
716.0649857420548,1534
718.3388077687592,1530
720.612009561953,1539
722.8845913418733,1496
725.1565533288352,1508
727.427895743234,1511
729.6986188055427,1507
731.9687227363137,1482
734.238207756178,1506
736.5070740858458,1471
738.7753219461066,1536
741.0429515578281,1513
743.3099631419569,1579
745.5763569195191,1582
747.8421331116193,1646
750.1072919394409,1584
752.3718336242467,1547
754.6357583873777,1542
756.8990664502545,1555
759.1617580343765,1543
761.423833361321,1564
763.6852926527457,1540
765.9461361303862,1535
768.206364016058,1516
770.4659765316536,1536
772.7249738991469,1594
774.9833563405886,1543
777.2411240781092,1553
779.4982773339183,1613
781.7548163303044,1602
784.010741289634,1608
786.2660524343538,1650
788.5207499869881,1611
790.7748341701416,1529
793.0283052064964,1567
795.2811633188143,1513
797.5334087299362,1578
799.7850416627813,1640
802.0360623403484,1567
804.2864709857143,1601
806.5362678220353,1616
808.7854530725468,1554
811.0340269605625,1601
813.2819897094754,1651
815.5293415427581,1546
817.77608268396,1570
820.0222133567116,1565
822.2677337847211,1524
824.5126441917765,1550
826.7569448017433,1606
829.0006358385675,1583
831.2437175262731,1536
833.4861900889629,1555
835.7280537508192,1565
837.9693087361026,1544
840.2099552691533,1541
842.4499935743896,1533
844.689423876309,1584
846.9282463994886,1593
849.1664613685833,1592
851.4040690083276,1545
853.6410695435349,1512
855.877463199097,1609
858.1132501999847,1539
860.3484307712487,1588
862.5830051380175,1561
864.8169735254988,1627
867.0503361589791,1573
869.2830932638243,1627
871.5152450654786,1552
873.7467917894654,1612
875.9777336613873,1551
878.2080709069252,1640
880.4378037518389,1606
882.666932421968,1580
884.8954571432301,1565
887.1233781416219,1567
889.3506956432192,1563
891.5774098741766,1603
893.803521060728,1536
896.0290294291852,1590
898.2539352059397,1648
900.4782386174619,1613
902.7019398903011,1643
904.925039251085,1650
907.147536926521,1592
909.3694331433943,1618
911.59072812857,1631
913.8114221089921,1669
916.0315153116827,1568
918.2510079637437,1665
920.4699002923547,1583
922.6881925247761,1618
924.905884888345,1542
927.1229776104793,1608
929.3394709186747,1615
931.555365040506,1607
933.7706602036275,1572
935.9853566357709,1590
938.1994545647489,1646
940.4129542184515,1648
942.6258558248488,1608
944.8381596119883,1661
947.0498658079974,1609
949.2609746410825,1628
951.4714863395287,1580
953.6814011316998,1567
955.8907192460387,1586
958.0994409110671,1608
960.3075663553858,1550
962.5150958076741,1556
964.7220294966913,1609
966.928367651274,1509
969.1341105003388,1496
971.3392582728806,1596
973.5438111979742,1513
975.747769504772,1449
977.9511334225061,1472
980.153903180487,1472
982.3560790081052,1498
984.5576611348289,1479
986.7586497902058,1461
988.9590452038618,1476
991.158847605503,1503
993.3580572249133,1397
995.5566742919558,1418
997.7546990365728,1413
999.952131688785,1376
1002.1489724786926,1351
1004.3452216364743,1316
1006.5408793923874,1310
1008.7359459767691,1302
1010.9304216200343,1345
1013.1243065526781,1362
1015.3176010052733,1255
1017.510305208472,1248
1019.7024193930064,1252
1021.8939437896848,1270
1024.0848786293977,1259
1026.2752241431122,1283
1028.4649805618747,1224
1030.6541481168115,1249
1032.842727039127,1292
1035.0307175601051,1199
1037.2181199111074,1277
1039.4049343235752,1237
1041.591161029029,1214
1043.7768002590683,1235
1045.9618522453698,1237
1048.1463172196918,1220
1050.3301954138697,1273
1052.513487059818,1220
1054.69619238953,1251
1056.8783116350783,1191
1059.0598450286152,1275
1061.2407928023704,1217
1063.4211551886528,1205
1065.6009324198508,1168
1067.780124728432,1171
1069.9587323469414,1197
1072.1367555080046,1204
1074.314194444325,1170
1076.4910493886855,1179
1078.667320573947,1216
1080.843008233051,1161
1083.0181125990161,1208
1085.1926339049414,1165
1087.3665723840027,1197
1089.5399282694575,1157
1091.7127017946405,1194
1093.8848931929647,1216
1096.0565026979243,1161
1098.2275305430899,1154
1100.3979769621128,1149
1102.567842188722,1145
1104.737126456726,1159
1106.9058300000124,1146
1109.0739530525475,1155
1111.2414958483764,1151
1113.4084586216231,1150
1115.5748416064907,1172
1117.7406450372605,1147
1119.9058691482942,1148
1122.0705141740304,1185
1124.2345803489884,1128
1126.3980679077658,1147
1128.5609770850388,1143
1130.7233081155623,1123
1132.8850612341707,1130
1135.0462366757774,1139
1137.2068346753745,1153
1139.3668554680326,1170
1141.526299288901,1168
1143.68516637321,1162
1145.8434569562655,1150
1148.001171273455,1107
1150.158309560244,1128
1152.3148720521767,1126
1154.470858984876,1086
1156.626270594044,1077
1158.7811071154629,1137
1160.9353687849912,1083
1163.089055838569,1111
1165.242168512213,1133
1167.3947070420209,1138
1169.5466716641677,1138
1171.6980626149075,1119
1173.8488801305748,1098
1175.9991244475814,1093
1178.1487958024186,1083
1180.2978944316555,1157
1182.4464205719428,1120
1184.5943744600072,1071
1186.7417563326567,1114
1188.8885664267755,1064
1191.0348049793297,1134
1193.1804722273619,1129
1195.325568407995,1127
1197.4700937584303,1112
1199.614048515948,1115
1201.7574329179074,1147
1203.900247201746,1085
1206.042491604982,1114
1208.1841663652099,1137
1210.3252717201053,1150
1212.465807907422,1096
1214.6057751649923,1121
1216.7451737307279,1157
1218.8840038426192,1152
1221.0222657387353,1186
1223.1599596572241,1167
1225.2970858363137,1152
1227.4336445143094,1067
1229.5696359295966,1105
1231.705060320639,1131
1233.8399179259786,1131
1235.9742089842384,1132
1238.107933734118,1167
1240.2410924143974,1139
1242.373685263935,1152
1244.5057125216676,1085
1246.6371744266116,1151
1248.7680712178621,1097
1250.898403134593,1108
1253.028170416058,1154
1255.1573733015875,1138
1257.2860120305932,1115
1259.4140868425648,1086
1261.54159797707,1103
1263.6685456737569,1124
1265.7949301723515,1132
1267.9207517126597,1115
1270.046010534565,1113
1272.1707068780306,1141
1274.2948409830983,1128
1276.4184130898889,1167
1278.541423438603,1130
1280.6638722695184,1161
1282.785759822993,1150
1284.9070863394636,1166
1287.0278520594447,1147
1289.1480572235314,1157
1291.2677020723963,1180
1293.3867868467923,1148
1295.5053117875495,1154
1297.623277135579,1180
1299.740683131868,1157
1301.8575300174857,1195
1303.973818033578,1223
1306.0895474213703,1167
1308.2047184221678,1241
1310.3193312773528,1240
1312.4333862283888,1240
1314.5468835168163,1161
1316.659823384255,1152
1318.7722060724045,1188
1320.8840318230418,1206
1322.9953008780249,1161
1325.1060134792888,1153
1327.2161698688478,1227
1329.3257702887959,1192
1331.4348149813054,1185
1333.5433041886276,1178
1335.6512381530933,1148
1337.7586171171101,1231
1339.8654413231675,1201
1341.9717110138317,1151
1344.0774264317488,1195
1346.1825878196432,1199
1348.2871954203192,1129
1350.3912494766587,1134
1352.4947502316231,1198
1354.5976979282532,1203
1356.7000928096686,1194
1358.8019351190665,1175
1360.9032250997243,1171
1363.0039629949988,1111
1365.1041490483235,1216
1367.2037835032133,1176
1369.3028666032606,1150
1371.401398592137,1137
1373.4993797135926,1184
1375.5968102114575,1187
1377.6936903296396,1183
1379.7900203121262,1200
1381.8858004029835,1151
1383.9810308463561,1161
1386.075711886469,1192
1388.1698437676241,1162
1390.2634267342032,1182
1392.356461030667,1152
1394.4489469015557,1163
1396.5408845914872,1129
1398.6322743451592,1192
1400.7231164073469,1196
1402.813411022907,1144
1404.903158436773,1164
1406.9923588939578,1181
1409.0810126395531,1176
1411.1691199187303,1134
1413.2566809767386,1187
1415.343696058907,1122
1417.4301654106425,1158
1419.5160892774315,1160
1421.6014679048399,1150
1423.6863015385125,1108
1425.7705904241707,1153
1427.8543348076178,1196
1429.9375349347342,1189
1432.0201910514802,1194
1434.102303403894,1195
1436.1838722380944,1145
1438.2648978002767,1146
1440.3453803367174,1172
1442.4253200937692,1129
1444.5047173178677,1197
1446.5835722555234,1193
1448.6618851533285,1163
1450.739656257952,1143
1452.8168858161434,1168
1454.8935740747306,1162
1456.96972128062,1181
1459.045327680797,1201
1461.120393522327,1225
1463.1949190523528,1193
1465.2689045180973,1147
1467.3423501668608,1146
1469.415256246024,1190
1471.4876230030463,1179
1473.559450685465,1177
1475.6307395408976,1231
1477.7014898170391,1199
1479.771701761665,1212
1481.8413756226287,1168
1483.9105116478618,1213
1485.9791100853772,1174
1488.0471711832643,1220
1490.1146951896926,1232
1492.1816823529098,1231
1494.2481329212433,1184
1496.3140471430984,1181
1498.3794252669609,1228
1500.4442675413939,1215
1502.5085742150404,1231
1504.572345536622,1234
1506.6355817549388,1179
1508.6982831188702,1222
1510.7604498773744,1253
1512.8220822794883,1152
1514.8831805743293,1240
1516.9437450110909,1219
1519.003775839048,1253
1521.0632733075522,1231
1523.1222376660367,1238
1525.1806691640113,1198
1527.2385680510652,1230
1529.2959345768668,1220
1531.3527689911643,1257
1533.4090715437833,1248
1535.4648424846291,1221
1537.5200820636855,1270
1539.5747905310159,1275
1541.6289681367616,1285
1543.6826151311434,1219
1545.7357317644614,1250
1547.7883182870937,1273
1549.8403749494987,1282
1551.8919020022113,1283
1553.9428996958477,1276
1555.9933682811015,1268
1558.0433080087469,1288
1560.0927191296346,1299
1562.1416018946961,1303
1564.1899565549415,1325
1566.2377833614592,1360
1568.2850825654164,1353
1570.3318544180606,1361
1572.3780991707158,1329
1574.423817074788,1310
1576.4690083817595,1361
1578.5136733431923,1357
1580.5578122107272,1339
1582.601425236085,1342
1584.6445126710646,1329
1586.6870747675434,1311
1588.7291117774776,1266
1590.7706239529034,1240
1592.8116115459347,1247
1594.8520748087658,1314
1596.8920139936686,1260
1598.9314293529933,1241
1600.9703211391711,1210
1603.008689604711,1151
1605.0465350022005,1178
1607.0838575843068,1209
1609.1206576037753,1193
1611.1569353134305,1206
1613.1926909661765,1187
1615.2279248149953,1177
1617.2626371129481,1167
1619.2968281131757,1149
1621.3304980688963,1155
1623.3636472334088,1155
1625.39627586009,1150
1627.428384202396,1176
1629.459972513861,1204
1631.4910410480993,1142
1633.5215900588028,1085
1635.551619799744,1142
1637.5811305247717,1165
1639.6101224878166,1178
1641.6385959428862,1123
1643.6665511440683,1144
1645.693988345528,1129
1647.7209078015112,1155
1649.7473097663405,1165
1651.7731944944203,1151
1653.7985622402307,1135
1655.823413258333,1160
1657.847747803366,1137
1659.8715661300494,1112
1661.8948684931793,1157
1663.9176551476316,1132
1665.9399263483624,1117
1667.9616823504057,1091
1669.982923408873,1127
1672.0036497789574,1095
1674.0238617159293,1126
1676.043559475138,1140
1678.0627433120121,1091
1680.081413482059,1144
1682.0995702408654,1130
1684.117213844096,1153
1686.134344547495,1168
1688.1509626068864,1135
1690.1670682781705,1108
1692.182661817329,1105
1694.1977434804217,1087
1696.2123135235875,1123
1698.226372203043,1096
1700.2399197750851,1157
1702.2529564960905,1163
1704.2654826225112,1108
1706.277498410882,1169
1708.2890041178139,1146
1710.2999999999988,1178
1712.3104863142066,1175
1714.3204633172854,1119
1716.329931266163,1126
1718.3388904178469,1122
1720.3473410294214,1129
1722.3552833580516,1154
1724.3627176609807,1176
1726.3696441955308,1132
1728.3760632191033,1167
1730.3819749891782,1152
1732.3873797633146,1105
1734.3922777991502,1096
1736.3966693544012,1113
1738.4005546868639,1075
1740.4039340544127,1092
1742.406807715001,1111
1744.4091759266616,1100
1746.4110389475054,1125
1748.4123970357223,1182
1750.413250449582,1105
1752.4135994474318,1152
1754.4134442876993,1095
1756.4127852288902,1135
1758.4116225295893,1124
1760.4099564484595,1172
1762.407787244244,1112
1764.405115175764,1118
1766.4019405019203,1115
1768.3982634816916,1105
1770.3940843741357,1083
1772.3894034383907,1136
1774.3842209336717,1063
1776.378537119274,1067
1778.372352254571,1056
1780.3656665990156,1119
1782.3584804121397,1091
1784.3507939535534,1115
1786.3426074829463,1109
1788.3339212600863,1146
1790.3247355448211,1165
1792.3150505970766,1129
1794.3048666768573,1114
1796.2941840442477,1084
1798.2830029594106,1130
1800.2713236825884,1162
1802.2591464741004,1152
1804.2464715943465,1129
1806.2332993038058,1103
1808.2196298630352,1132
1810.2054635326708,1104
1812.190800573428,1127
1814.175641246101,1121
1816.1599858115628,1098
1818.1438345307652,1114
1820.127187664738,1123
1822.1100454745924,1091
1824.092408221516,1127
1826.0742761667766,1151
1828.055649571721,1094
1830.0365286977735,1088
1832.0169138064398,1101
1833.9968051593014,1075
1835.9762030180214,1120
1837.9551076443408,1108
1839.9335193000788,1114
1841.9114382471344,1115
1843.888864747485,1077
1845.8657990631878,1088
1847.842241456378,1104
1849.8181921892697,1100
1851.7936515241558,1143
1853.7686197234098,1151
1855.7430970494815,1107
1857.7170837649014,1142
1859.6905801322787,1096
1861.6635864143004,1135
1863.6361028737338,1126
1865.608129773424,1139
1867.5796673762961,1140
1869.5507159453537,1111
1871.521275743678,1099
1873.4913470344313,1129
1875.4609300808534,1127
1877.4300251462632,1145
1879.3986324940588,1131
1881.366752387717,1099
1883.3343850907936,1129
1885.3015308669228,1172
1887.268189979819,1127
1889.2343626932739,1163
1891.2000492711595,1123
1893.1652499774254,1161
1895.1299650761011,1162
1897.0941948312952,1102
1899.0579395071945,1170
1901.0211993680641,1175
1902.98397467825,1153
1904.9462657021745,1166
1906.9080727043415,1188
1908.869395949332,1104
1910.8302357018065,1124
1912.790592226504,1149
1914.7504657882428,1161
1916.7098566519212,1111
1918.6687650825133,1146
1920.6271913450764,1155
1922.5851357047422,1144
1924.5425984267245,1148
1926.499579776314,1117
1928.4560800188833,1076
1930.4120994198802,1168
1932.367638244833,1122
1934.32269675935,1134
1936.2772752291175,1174
1938.231373919899,1167
1940.1849930975404,1156
1942.1381330279637,1130
1944.0907939771696,1126
1946.0429762112412,1107
1947.9946799963363,1147
1949.9459055986945,1170
1951.896653284633,1119
1953.8469233205478,1151
1955.7967159729142,1064
1957.7460315082863,1150
1959.6948701932974,1140
1961.6432322946594,1149
1963.5911180791632,1145
1965.5385278136787,1127
1967.4854617651545,1146
1969.4319202006182,1120
1971.377903387176,1112
1973.3234115920136,1093
1975.268445082395,1149
1977.2130041256642,1152
1979.1570889892423,1122
1981.1006999406304,1087
1983.04383724741,1134
1984.986501177238,1119
1986.928691997853,1113
1988.8704099770712,1112
1990.811655382789,1114
1992.7524284829801,1063
1994.692729545698,1124
1996.6325588390755,1135
1998.5719166313224,1117
2000.5108031907307,1109
2002.4492187856677,1108
2004.387163684583,1089
2006.3246381560011,1087
2008.2616424685298,1111
2010.1981768908527,1101
2012.1342416917332,1132
2014.069837140014,1135
2016.0049635046162,1166
2017.9396210545406,1103
2019.8738100588666,1116
2021.8075307867502,1115
2023.740783507431,1123
2025.6735684902228,1072
2027.6058860045214,1102
2029.5377363198004,1140
2031.4691197056118,1162
2033.4000364315875,1142
2035.3304867674374,1144
2037.260470982952,1087
2039.189989347998,1095
2041.1190421325232,1106
2043.047629606554,1146
2044.9757520401945,1093
2046.9034097036288,1128
2048.8306028671195,1130
2050.7573318010086,1092
2052.683596775716,1139
2054.609398061742,1128
2056.5347359296647,1142
2058.4596106501403,1161
2060.384022493906,1072
2062.3079717317764,1110
2064.231458634646,1171
2066.1544834734873,1102
2068.077046519352,1098
2069.99914804337,1149
2071.9207883167524,1099
2073.8419676107865,1129
2075.7626861968406,1095
2077.6829443463607,1094
2079.6027423308715,1116
2081.522080421977,1142
2083.440958891362,1112
2085.359378010786,1138
2087.2773380520907,1145
2089.194839287196,1114
2091.111881988101,1083
2093.0284664268825,1132
2094.9445928756973,1103
2096.86026160678,1141
2098.775472892446,1139
2100.690227005088,1099
2102.604524217178,1200
2104.5183648012676,1196
2106.431749029985,1128
2108.34467717604,1142
2110.2571495122206,1167
2112.169166311393,1133
2114.080727846503,1117
2115.9918343905747,1119
2117.902486216711,1155
2119.8126835980956,1090
2121.722426807987,1064
2123.6317161197285,1147
2125.5405518067364,1089
2127.448934142509,1136
2129.356863400624,1158
2131.264339854737,1142
2133.1713637785815,1136
2135.077935445972,1107
2136.9840551308002,1146
2138.889723107037,1170
2140.7949396487334,1184
2142.699705030018,1149
2144.6040195250994,1134
2146.507883408264,1175
2148.4112969538774,1106
2150.3142604363848,1144
2152.2167741303097,1150
2154.1188383102535,1171
2156.0204532508997,1159
2157.9216192270064,1121
2159.822336513414,1113
2161.7226053850413,1136
2163.622426116884,1093
2165.5217989840185,1146
2167.4207242616,1189
2169.319202224862,1093
2171.2172331491165,1122
2173.1148173097563,1111
2175.0119549822507,1147
2176.90864644215,1108
2178.8048919650823,1146
2180.7006918267534,1151
2182.596046302952,1135
2184.4909556695407,1123
2186.3854202024645,1154
2188.279440177746,1089
2190.173015871487,1108
2192.066147559868,1144
2193.958835519149,1078
2195.851080025667,1072
2197.7428813558417,1095
2199.6342397861667,1083
2201.5251555932186,1105
2203.415629053651,1106
2205.3056604441986,1159
2207.19525004167,1158
2209.084398122958,1148
2210.9731049650327,1184
2212.861370844941,1147
2214.749196039812,1145
2216.636580826851,1133
2218.523525483344,1126
2220.410030286655,1099
2222.296095514226,1137
2224.1817214435805,1119
2226.066908352319,1113
2227.951656518121,1081
2229.835966218746,1162
2231.71983773203,1105
2233.6032713358913,1122
2235.486267308324,1127
2237.3688259274036,1123
2239.2509474712824,1112
2241.132632218193,1102
2243.013880446447,1135
2244.8946924344323,1117
2246.7750684606203,1121
2248.6550088035574,1122
2250.534513741871,1140
2252.413583554265,1110
2254.292218519526,1093
2256.170418916517,1130
2258.0481850241786,1097
2259.925517121534,1129
2261.8024154876825,1117
2263.678880401803,1111
2265.5549121431536,1138
2267.430510991071,1131
2269.305677224971,1091
2271.180411124348,1127
2273.0547129687766,1077
2274.9285830379076,1117
2276.8020216114737,1127
2278.6750289692845,1103
2280.5476053912294,1127
2282.4197511572766,1140
2284.2914665474727,1194
2286.162751841943,1104
2288.0336073208937,1096
2289.904033264608,1141
2291.774029953448,1140
2293.6435976678554,1143
2295.5127366883517,1116
2297.381447295534,1166
2299.2497297700825,1143
2301.1175843927526,1165
2302.9850114443825,1146
2304.852011205885,1125
2306.7185839582553,1055
2308.5847299825664,1150
2310.4504495599676,1113
2312.3157429716925,1090
2314.1806104990483,1185
2316.0450524234247,1141
2317.9090690262888,1146
2319.772660589186,1123
2321.635827393742,1131
2323.498569721661,1115
2325.3608878547248,1122
2327.2227820747967,1132
2329.0842526638157,1152
2330.945299903803,1107
2332.805924076857,1139
2334.6661254651535,1171
2336.525904350951,1097
2338.3852610165827,1123
2340.244195744464,1152
2342.102708817088,1131
2343.9608005170253,1123
2345.8184711269287,1145
2347.675720929526,1164
2349.532550207628,1110
2351.38895924412,1161
2353.24494832197,1094
2355.100517724223,1141
2356.955667734004,1143
2358.810398634514,1139
2360.664710709037,1111
2362.5186042409337,1163
2364.3720795136437,1102
2366.225136810686,1196
2368.0777764156583,1101
2369.929998612237,1194
2371.7818036841777,1126
2373.633191915315,1152
2375.484163589562,1112
2377.3347189909114,1149
2379.184858403434,1194
2381.03458211128,1182
2382.8838903986775,1140
2384.732783549936,1178
2386.5812618494406,1149
2388.4293255816588,1150
2390.2769750311327,1088
2392.1242104824883,1134
2393.971032220427,1109
2395.8174405297295,1144
2397.6634356952563,1159
2399.509018001947,1157
2401.3541877348193,1178
2403.1989451789705,1173
2405.043290619576,1133
2406.8872243418905,1148
2408.730746631247,1231
2410.5738577730594,1072
2412.4165580528183,1127
2414.258847756095,1185
2416.100727168537,1133
2417.9421965758734,1189
2419.783256263912,1169
2421.623906518538,1142
2423.4641476257157,1154
2425.303979871491,1165
2427.143403541984,1194
2428.9824189233977,1102
2430.821026302012,1169
2432.6592259641866,1126
2434.497018196361,1165
2436.33440328505,1155
2438.171381516851,1142
2440.00795317844,1125
2441.844118556569,1112
2443.6798779380724,1150
2445.5152316098606,1167
2447.3501798589255,1140
2449.1847229723357,1188
2451.0188612372403,1151
2452.8525949408663,1193
2454.6859243705203,1112
2456.518849813587,1128
2458.3513715575314,1115
2460.183489889895,1078
2462.015205098301,1083
2463.8465174704493,1151
2465.67742729412,1168
2467.5079348571717,1161
2469.338040447542,1181
2471.1677443532476,1189
2472.9970468623833,1146
2474.825948263123,1127
2476.6544488437207,1200
2478.482548892508,1123
2480.310248697896,1124
2482.137548548374,1167
2483.9644487325118,1152
2485.790949538956,1145
2487.617051256433,1133
2489.44275417375,1187
2491.26805857979,1095
2493.0929647635157,1182
2494.917473013971,1131
2496.741583620276,1161
2498.5652968716304,1144
2500.3886130573137,1145
2502.2115324666834,1199
2504.0340553891765,1168
2505.856182114308,1169
2507.6779129316733,1113
2509.499248130945,1128
2511.3201880018764,1161
2513.140732834298,1193
2514.9608829181198,1168
2516.780638543331,1121
2518.6,1185
2520.418967578273,1092
2522.237541568376,1152
2524.0557222606144,1149
2525.8735099453706,1160
2527.6909049131086,1185
2529.507907454368,1134
2531.32451785977,1171
2533.140736420014,1171
2534.9565634258774,1153
2536.771999168218,1140
2538.5870439379714,1145
2540.4016980261526,1193
2542.2159617238544,1187
2544.02983532225,1168
2545.8433191125914,1173
2547.656413386209,1259
2549.4691184345115,1131
2551.2814345489874,1152
2553.093362021204,1149
2554.904901142808,1119
2556.716052205523,1151
2558.526815501153,1173
2560.3371913215824,1155
2562.147179958771,1179
2563.956781704761,1176
2565.7659968516705,1143
2567.5748256916986,1169
2569.3832685171224,1196
2571.1913256202984,1152
2572.9989972936614,1126
2574.806283829725,1217
2576.613185521084,1184
2578.4197026604074,1167
2580.2258355404483,1122
2582.031584454035,1167
2583.836949694077,1188
2585.6419315535613,1135
2587.4465303255533,1213
2589.2507463032002,1168
2591.0545797797245,1142
2592.8580310484303,1141
2594.6611004026995,1213
2596.463788135992,1142
2598.266094541849,1167
2600.0680199138874,1182
2601.869564545807,1148
2603.670728731383,1170
2605.4715127644704,1145
2607.2719169390048,1156
2609.071941548998,1182
2610.8715868885433,1141
2612.670853251811,1156
2614.469740933052,1193
2616.268250226594,1207
2618.0663814268455,1138
2619.864134828292,1213
2621.6615107255006,1152
2623.458509413115,1142
2625.2551311858597,1192
2627.0513763385347,1163
2628.8472451660223,1162
2630.6427379632833,1175
2632.4378550253564,1135
2634.232596647359,1130
2636.026963124488,1142
2637.8209547520187,1155
2639.6145718253065,1133
2641.407814639785,1185
2643.200683490966,1153
2644.9931786744414,1146
2646.7853004858807,1172
2648.577049221034,1178
2650.3684251757277,1152
2652.1594286458712,1138
2653.9500599274484,1134
2655.740319316525,1198
2657.5302071092437,1165
2659.3197236018286,1134
2661.10886909058,1125
2662.8976438718782,1107
2664.686048242183,1137
2666.4740824980327,1142
2668.2617469360443,1145
2670.0490418529134,1125
2671.8359675454153,1128
2673.622524310403,1136
2675.408712444811,1119
2677.1945322456495,1154
2678.979984010009,1143
2680.76506803506,1117
2682.5497846180497,1154
2684.334134056306,1168
2686.1181166472343,1114
2687.9017326883213,1134
2689.6849824771293,1151
2691.4678663113013,1122
2693.2503844885596,1127
2695.032537306705,1150
2696.8143250636167,1131
2698.5957480572542,1098
2700.3768065856534,1125
2702.1575009469316,1149
2703.937831439283,1084
2705.717798360982,1164
2707.4974020103837,1172
2709.276642685917,1123
2711.055520686095,1144
2712.834036309506,1163
2714.612189854819,1116
2716.389981620782,1120
2718.1674119062204,1087
2719.944481010041,1184
2721.721189231226,1078
2723.4975368688415,1105
2725.273524222027,1097
2727.0491515900053,1088
2728.824419272075,1089
2730.5993275676146,1085
2732.3738767760838,1098
2734.148067197016,1142
2735.921899130031,1089
2737.6953728748194,1123
2739.468488731156,1099
2741.2412469988926,1141
2743.0136479779617,1106
2744.785691968372,1130
2746.5573792702116,1116
2748.3287101836504,1127
2750.099685008934,1071
2751.870304046388,1092
2753.640567596418,1126
2755.4104759595057,1157
2757.1800294362156,1093
2758.949228327187,1095
2760.7180729331412,1130
2762.486563554877,1119
2764.254700493272,1058
2766.022484049284,1097
2767.789914523947,1088
2769.5569922183786,1072
2771.3237174337705,1107
2773.090090471394,1132
2774.8561116326036,1125
2776.6217812188274,1131
2778.3870995315756,1098
2780.1520668724356,1093
2781.9166835430747,1131
2783.6809498452394,1095
2785.444866080754,1135
2787.2084325515225,1151
2788.971649559527,1148
2790.73451740683,1123
2792.4970363955713,1114
2794.2592068279705,1094
2796.0210290063264,1154
2797.7825032330147,1144
2799.543629810493,1131
2801.304409041296,1088
2803.0648412280366,1093
2804.8249266734088,1112
2806.5846656801846,1135
2808.344058551212,1171
2810.1031055894246,1145
2811.8618070978273,1134
2813.6201633795085,1121
2815.378174737636,1084
2817.1358414754536,1115
2818.893163896285,1098
2820.6501423035334,1128
2822.4067770006814,1125
2824.1630682912883,1124
2825.9190164789957,1105
2827.6746218675207,1127
2829.429884760661,1133
2831.184805462294,1146
2832.9393842763743,1118
2834.693621506936,1125
2836.4475174580916,1143
2838.201072434034,1128
2839.954286739034,1137
2841.707160677441,1109
2843.459694553685,1084
2845.2118886722724,1073
2846.96374333779,1148
2848.7152588549034,1142
2850.4664355283567,1111
2852.217273662973,1131
2853.9677735636546,1119
2855.7179355353833,1173
2857.4677598832186,1141
2859.217246912299,1063
2860.9663969278427,1150
2862.715210235146,1142
2864.4636871395846,1098
2866.211827946614,1105
2867.9596329617652,1103
2869.7071024906536,1093
2871.4542368389684,1171
2873.20103631248,1114
2874.947501217038,1113
2876.6936318585695,1151
2878.4394285430812,1092
2880.1848915766604,1115
2881.9300212654707,1115
2883.6748179157553,1105
2885.4192818338374,1115
2887.1634133261173,1100
2888.907212699077,1125
2890.6506802592744,1096
2892.393816313348,1119
2894.1366211680142,1114
2895.8790951300693,1135
2897.621238506388,1119
2899.363051603925,1128
2901.1045347297118,1104
2902.8456881908596,1169
2904.58651229456,1162
2906.327007348081,1141
2908.067173658772,1160
2909.8070115340597,1096
2911.5465212814497,1154
2913.285703208527,1109
2915.0245576229563,1141
2916.7630848324807,1149
2918.5012851449196,1082
2920.2391588681758,1135
2921.976706310227,1154
2923.7139277791334,1120
2925.4508235830313,1138
2927.187394030137,1099
2928.923639428745,1072
2930.6595600872306,1121
2932.395156314046,1141
2934.1304284177218,1087
2935.8653767068713,1146
2937.6000014901815,1155
2939.3343030764227,1184
2941.068281774442,1103
2942.8019378931644,1103
2944.5352717415976,1117
2946.2682836288236,1172
2948.0009738640065,1109
2949.7333427563885,1123
2951.465390615289,1115
2953.1971177501086,1105
2954.9285244703265,1105
2956.6596110855,1178
2958.3903779052657,1125
2960.1208252393385,1091
2961.8509533975125,1135
2963.5807626896617,1099
2965.3102534257378,1122
2967.0394259157715,1107
2968.768280469873,1076
2970.496817398232,1110
2972.2250370111146,1120
2973.952939618869,1073
2975.6805255319196,1133
2977.4077950607707,1114
2979.134748516006,1129
2980.861386208289,1144
2982.587708448359,1105
2984.313715547037,1131
2986.039407815222,1059
2987.764785563891,1123
2989.489849104102,1140
2991.2145987469908,1136
2992.9390348037705,1128
2994.6631575857346,1156
2996.3869674042576,1129
2998.1104645707887,1070
2999.83364939686,1104
3001.5565221940783,1125
3003.2790832741334,1086
3005.0013329487924,1121
3006.7232715298996,1107
3008.4448993293804,1117
3010.166216659239,1088
3011.887223831558,1094
3013.607921158498,1133
3015.3283089522993,1141
3017.0483875252826,1106
3018.7681571898443,1132
3020.4876182584626,1074
3022.2067710436927,1124
3023.9256158581707,1118
3025.644153014609,1075
3027.362382825801,1075
3029.0803056046193,1141
3030.797921664012,1064
3032.5152313170106,1098
3034.2322348767225,1133
3035.9489326563353,1097
3037.665324969115,1098
3039.3814121284063,1110
3041.097194447633,1072
3042.812672240299,1141
3044.5278458199855,1119
3046.2427155003525,1111
3047.9572815951406,1091
3049.671544418167,1093
3051.38550428333,1104
3053.0991615046073,1093
3054.812516396051,1088
3056.5255692717974,1102
3058.2383204460575,1087
3059.9507702331257,1108
3061.662918947372,1095
3063.3747669032446,1150
3065.0863144152736,1081
3066.7975617980674,1101
3068.508509366309,1114
3070.219157434767,1094
3071.9295063182844,1122
3073.639556331785,1122
3075.3493077902704,1123
3077.058761008821,1145
3078.7679163025964,1117
3080.476773986837,1116
3082.1853343768594,1090
3083.89359778806,1105
3085.6015645359153,1090
3087.3092349359786,1118
3089.016609303884,1058
3090.7236879553434,1100
3092.4304712061476,1102
3094.136959372166,1071
3095.843152769349,1113
3097.5490517137237,1095
3099.2546565213966,1165
3100.959967508554,1116
3102.66498499146,1115
3104.3697092864577,1086
3106.0741407099695,1107
3107.778279578498,1109
3109.482126208622,1110
3111.1856809170004,1100
3112.8889440203716,1086
3114.5919158355528,1081
3116.294596679439,1134
3117.996986869006,1066
3119.6990867213062,1093
3121.4008965534726,1096
3123.102416682717,1115
3124.803647426329,1110
3126.5045891016784,1115
3128.205242026213,1092
3129.90560651746,1089
3131.605682893025,1094
3133.3054714705922,1106
3135.0049725679282,1186
3136.7041865028714,1049
3138.4031135933465,1107
3140.101754157353,1119
3141.800108512971,1080
3143.498176978357,1109
3145.1959598717494,1128
3146.8934575114636,1086
3148.5906702158954,1115
3150.2875983035183,1100
3151.9842420928853,1061
3153.680601902627,1098
3155.376678051456,1073
3157.07247085816,1085
3158.767980641609,1103
3160.463207720748,1148
3162.158152414606,1070
3163.8528150422862,1098
3165.5471959229726,1088
3167.2412953759303,1155
3168.9351137204976,1120
3170.628651276098,1095
3172.3219083622307,1130
3174.014885298474,1086
3175.707582404485,1108
3177.4000000000005,1114
3179.092138404835,1101
3180.7839979388846,1088
3182.47557892212,1110
3184.166881674594,1099
3185.8579065164386,1110
3187.5486537678626,1089
3189.2391237491547,1119
3190.9293167806827,1135
3192.6192331828934,1128
3194.3088732763117,1075
3195.998237381542,1117
3197.687325819268,1088
3199.376138910251,1139
3201.064676975334,1106
3202.7529403354347,1091
3204.4409293115523,1105
3206.1286442247647,1146
3207.816085396229,1150
3209.5032531471825,1108
3211.190147798936,1125
3212.8767696728846,1102
3214.5631190905015,1109
3216.2491963733373,1111
3217.9350018430214,1095
3219.6205358212637,1077
3221.305798629851,1126
3222.990790590651,1154
3224.6755120256103,1077
3226.359963256751,1064
3228.0441446061795,1119
3229.7280563960758,1084
3231.411698948703,1071
3233.0950725863995,1063
3234.778177631587,1108
3236.461014406761,1132
3238.1435832345005,1154
3239.8258844374595,1119
3241.507918338374,1128
3243.1896852600576,1108
3244.8711855254023,1051
3246.552419457381,1169
3248.233387379042,1118
3249.914089613516,1086
3251.59452648401,1099
3253.274698313813,1101
3254.95460542629,1048
3256.6342481448855,1114
3258.313626793125,1067
3259.9927416946084,1082
3261.6715931730196,1085
3263.3501815521176,1099
3265.0285071557437,1107
3266.706570307815,1057
3268.3843713323286,1095
3270.0619105533615,1072
3271.739188295068,1130
3273.4162048816834,1095
3275.0929606375184,1094
3276.769455886966,1075
3278.445690954498,1101
3280.1216661646613,1125
3281.797381842087,1082
3283.4728383114807,1090
3285.1480358976296,1060
3286.8229749253996,1124
3288.4976557197333,1087
3290.172078605655,1079
3291.846243908266,1057
3293.5201519527463,1051
3295.193803064357,1125
3296.8671975684374,1095
3298.5403357904024,1092
3300.21321805575,1107
3301.8858446900567,1090
3303.558216018975,1077
3305.23033236824,1070
3306.9021940636603,1110
3308.57380143113,1032
3310.2451547966184,1082
3311.916254486174,1104
3313.5871008259246,1112
3315.2576941420766,1139
3316.9280347609147,1104
3318.5981230088046,1082
3320.2679592121895,1087
3321.9375436975924,1068
3323.606876791612,1099
3325.27595882093,1076
3326.944790112305,1130
3328.6133709925753,1107
3330.2817017886573,1122
3331.949782827547,1051
3333.617614436319,1089
3335.2851969421245,1118
3336.952530672199,1092
3338.619615953853,1080
3340.286453114475,1090
3341.9530424815357,1113
3343.619384382583,1106
3345.2854791452437,1098
3346.951327097224,1098
3348.6169285663073,1115
3350.2822838803577,1145
3351.947393367319,1142
3353.61225735521,1087
3355.2768761721345,1064
3356.9412501462693,1126
3358.605379605873,1123
3360.2692648792827,1138
3361.9329062949146,1091
3363.596304181263,1073
