CollectionTime,6/28/2024 1:43:43 PM
ExposureUsed,3
CalibratedSpectrum
-962.7078968117929,556
-959.9714848408522,582
-957.2358232597828,552
-954.5009119013725,549
-951.7667505983302,565
-949.0333391832855,618
-946.3006774887896,570
-943.5687653473143,566
-940.837602591253,557
-938.1071890529199,565
-935.3775245645503,570
-932.6486089583007,595
-929.9204420662485,586
-927.1930237203925,580
-924.4663537526524,572
-921.7404319948689,571
-919.0152582788041,570
-916.2908324361409,600
-913.5671542984834,590
-910.8442236973568,574
-908.1220404642074,557
-905.4006044304027,586
-902.679915427231,593
-899.959973285902,577
-897.2407778375464,595
-894.5223289132158,543
-891.8046263438832,559
-889.0876699604426,564
-886.3714595937089,560
-883.6559950744183,566
-880.9412762332282,546
-878.2273029007168,536
-875.5140749073835,576
-872.8015920836489,543
-870.0898542598545,530
-867.3788612662631,517
-864.6686129330585,545
-861.9591090903457,541
-859.2503495681506,556
-856.5423341964203,539
-853.8350628050229,568
-851.1285352237478,531
-848.4227512823054,542
-845.7177108103272,554
-843.0134136373656,543
-840.3098595928943,567
-837.6070485063082,588
-834.9049802069229,571
-832.2036545239757,573
-829.5030712866244,554
-826.8032303239481,560
-824.1041314649472,573
-821.4057745385428,559
-818.7081593735775,574
-816.0112857988148,584
-813.3151536429393,582
-810.6197627345566,546
-807.9251129021936,542
-805.2312039742981,563
-802.5380357792392,550
-799.8456081453069,558
-797.1539209007124,551
-794.462973873588,602
-791.772766891987,577
-789.083299783884,543
-786.3945723771743,563
-783.7065844996748,559
-781.0193359791231,552
-778.3328266431781,574
-775.6470563194197,590
-772.9620248353489,575
-770.2777320183878,550
-767.5941776958798,586
-764.9113616950891,567
-762.2292838432011,522
-759.5479439673222,569
-756.8673418944801,558
-754.1874774516235,572
-751.5083504656222,573
-748.8299607632671,591
-746.15230817127,567
-743.475392516264,564
-740.7992136248035,618
-738.1237713233636,585
-735.4490654383407,579
-732.7750957960521,613
-730.1018622227365,585
-727.4293645445534,589
-724.7576025875837,575
-722.0865761778291,618
-719.4162851412126,602
-716.7467293035781,603
-714.0779084906909,590
-711.409822528237,589
-708.7424712418238,591
-706.0758544569796,593
-703.4099719991541,591
-700.7448236937178,607
-698.0804093659622,581
-695.4167288411002,617
-692.7537819442656,610
-690.0915685005134,583
-687.4300883348199,605
-684.7693412720819,604
-682.1093271371178,648
-679.4500457546669,622
-676.7914969493897,618
-674.1336805458676,648
-671.4765963686034,639
-668.8202442420206,640
-666.1646239904642,660
-663.5097354382001,610
-660.8555784094151,646
-658.2021527282176,648
-655.5494582186366,637
-652.8974947046223,615
-650.2462620100463,636
-647.5957599587009,647
-644.9459883742998,657
-642.2969470804776,648
-639.6486359007902,650
-637.0010546587141,709
-634.3542031776476,660
-631.7080812809096,662
-629.0626887917401,678
-626.4180255333008,659
-623.7740913286734,635
-621.1308860008619,649
-618.4884093727904,633
-615.8466612673046,638
-613.2056415071715,673
-610.5653499150785,674
-607.9257863136347,660
-605.28695052537,626
-602.6488423727357,637
-600.0114616781036,637
-597.3748082637674,625
-594.7388819519412,651
-592.1036825647604,646
-589.4692099242818,638
-586.8354638524829,655
-584.2024441712624,646
-581.5701507024403,626
-578.9385832677575,628
-576.3077416888759,662
-573.6776257873787,657
-571.0482353847704,649
-568.4195703024757,653
-565.7916303618415,701
-563.164415384135,674
-560.5379251905453,683
-557.9121596021815,656
-555.2871184400748,669
-552.6628015251767,698
-550.0392086783606,682
-547.4163397204204,667
-544.794194472071,668
-542.1727727539491,690
-539.5520743866118,714
-536.9320991905377,700
-534.3128469861261,739
-531.6943175936979,730
-529.0765108334947,756
-526.4594265256793,811
-523.8430644903358,880
-521.2274245474689,978
-518.612506517005,1066
-515.9983102187913,1140
-513.3848354725959,1245
-510.77208209810846,1290
-508.16004991493924,1370
-505.5487387426199,1459
-502.9381484006032,1516
-500.3282787082628,1533
-497.71912948489364,1540
-495.1107005497117,1399
-492.5029917218539,1281
-489.8960028203786,1098
-487.28973366426493,951
-484.68418407241325,940
-482.07935386364494,872
-479.47524285670266,848
-476.87185087025,875
-474.2691777228715,832
-471.66722323307334,835
-469.0659872192821,872
-466.4654694998459,813
-463.86566989303384,831
-461.26658821703614,804
-458.66822428996414,804
-456.07057792985,828
-453.4736489546475,826
-450.877437182231,849
-448.28194243039627,786
-445.68716451686,787
-443.09310325926003,798
-440.49975847515555,788
-437.9071299820263,810
-435.31521759727354,801
-432.72402113821954,798
-430.13354042210767,805
-427.5437752661022,824
-424.95472548728867,787
-422.36639090267386,851
-419.7787713291855,841
-417.1918665836721,827
-414.60567648290385,838
-412.0202008435715,837
-409.4354394822874,819
-406.8513922155845,843
-404.26805885991723,821
-401.685439231661,894
-399.103533147112,901
-396.522340422488,826
-393.9418608739278,826
-391.3620943174908,813
-388.7830405691583,798
-386.2046994448317,770
-383.6270707603344,764
-381.05015433141045,699
-378.473949973725,646
-375.8984575028645,651
-373.32367673433623,607
-370.74960748356875,602
-368.1762495659117,575
-365.60360279663576,508
-363.03166699093265,491
-360.4604419639154,485
-357.8899275306178,454
-355.32012350599507,462
-352.7510297049233,448
-350.1826459421999,457
-347.61497203254316,466
-345.04800779059235,434
-342.4817530309082,459
-339.91620756797226,451
-337.35137121618743,446
-334.7872437898774,433
-332.22382510328725,435
-329.66111497058273,446
-327.09911320585127,477
-324.53781962310075,472
-321.9772340362607,469
-319.4173562591816,460
-316.8581861056348,485
-314.2997233893127,489
-311.7419679238294,498
-309.1849195227194,469
-306.62857799943856,462
-304.0729431673641,464
-301.51801483979375,461
-298.963792829947,469
-296.41027695096386,467
-293.85746701590574,518
-291.3053628377552,509
-288.7539642294155,497
-286.2032710037115,495
-283.65328297338897,490
-281.1039999511146,512
-278.5554217494762,513
-276.007548180983,553
-273.4603790580651,546
-270.9139141930734,506
-268.3681533982807,532
-265.8230964858798,549
-263.27874326798565,573
-260.7350935566336,573
-258.1921471637804,571
-255.6499039013039,555
-253.10836358100266,602
-250.56752601459698,543
-248.02739101372765,587
-245.48795838995704,592
-242.94922795476816,623
-240.41119951956557,618
-237.8738728956746,627
-235.33724789434166,653
-232.80132432673452,739
-230.2661020039418,749
-227.73158073697357,613
-225.19776033676033,607
-222.66464061415422,608
-220.1322213799284,638
-217.60050244477725,609
-215.06948361931552,610
-212.53916471408013,615
-210.00954553952818,612
-207.48062590603843,627
-204.9524056239104,689
-202.4248845033651,653
-199.8980623545441,610
-197.37193898751036,603
-194.84651421224817,643
-192.32178783866232,713
-189.79775967657952,657
-187.27442953574644,674
-184.7517972258321,688
-182.2298625564256,716
-179.7086253370378,643
-177.18808537710026,691
-174.66824248596583,731
-172.14909647290835,734
-169.6306471471229,730
-167.11289431772548,671
-164.59583779375328,685
-162.07947738416453,699
-159.5638128978386,720
-157.04884414357605,774
-154.53457093009854,803
-152.02099306604828,794
-149.50811035998936,747
-146.99592262040665,779
-144.48442965570587,870
-141.97363127421409,801
-139.46352728417958,786
-136.95411749377126,789
-134.44540171107985,860
-131.93737974411636,882
-129.43005140081357,741
-126.92341648902493,846
-124.41747481652521,918
-121.91222619101006,867
-119.40767042009657,801
-116.90380731132257,830
-114.40063667214702,803
-111.8981583099503,976
-109.3963720320337,1051
-106.89527764561933,1145
-104.39487495785067,1109
-101.89516377579241,1064
-99.39614390642998,1076
-96.89781515667039,1194
-94.40017733334128,1318
-91.90323024319173,1217
-89.40697369289148,1171
-86.91140748903172,1229
-84.41653143812482,1164
-81.92234534660395,1152
-79.42884902082358,1385
-76.93604226705907,1573
-74.4439248915071,1354
-71.95249670028534,1221
-69.46175749943245,1466
-66.97170709490854,1612
-64.48234529259423,1890
-61.99367189829195,1560
-59.50568671772464,1555
-57.01838955653636,1688
-54.53178022029283,1955
-52.045858514480074,2050
-49.560624244506016,2025
-47.07607721569923,2151
-44.59221723330904,2011
-42.10904410250669,2152
-39.62655762838392,2653
-37.14475761595372,3315
-34.66364387015028,3485
-32.18321619582866,4051
-29.70347439776515,4626
-27.224418280657005,5813
-24.74604764912317,8861
-22.26836230770266,15170
-19.7913620608565,26541
-17.315046712966478,34817
-14.83941606833514,34817
-12.36446993118659,65030
-9.89020810566592,65030
-7.416630395839093,65030
-4.94373660569363,65030
-2.471526539137585,65030
-6.821210263296962E-13,65030
2.47084320796705,65030
4.941003281093458,65030
7.410480415786196,65030
9.879274808531363,65030
12.347386655893956,65030
14.814816154518212,65030
17.28156350112681,65030
19.74762889252179,65030
22.21301252558385,32404
24.67771459727237,9668
27.141735304626195,6135
29.605074844762612,5496
32.06773341487792,5344
34.52971121224755,5549
36.99100843422559,4668
39.45162527824516,4879
41.91156194181792,5432
44.370818622535126,8562
46.82939551806646,11064
49.287292826160524,10430
51.74451074464503,9903
54.201049471426245,7799
56.65690920448981,4746
59.112090141899785,3586
61.56659248179983,3426
64.02041642241159,2725
66.4735621620365,2215
68.92602989905402,1914
71.37781983192338,1745
73.82893215918205,1687
76.27936707944684,1604
78.72912479141326,1748
81.17820549385567,1977
83.62660938562783,1840
86.07433666566146,1552
88.5213875329681,1640
90.96776218663751,1630
93.41346082583925,1359
95.85848364982041,1280
98.30283085790859,1210
100.7465026495089,1242
103.18949922410604,1446
105.63182078126385,1412
108.07346752062438,1200
110.51443964190923,1161
112.95473734491827,1093
115.39436082953114,992
117.83331029570547,1122
120.27158594347827,1258
122.7091879729652,966
125.1461165843615,949
127.58237197794062,950
130.01795435405518,959
132.4528639131364,1033
134.88710085569494,1073
137.32066538231982,1041
139.75355769367923,1146
142.1857779905207,1034
144.61732647366978,963
147.04820334403132,1069
149.47840880258934,1133
151.90794305040674,1084
154.33680628862487,1283
156.76499871846443,1295
159.19252054122433,1354
161.61937195828352,1405
164.04555317109896,1403
166.47106438120693,1566
168.89590579022217,1707
171.320077599839,1771
173.7435800118302,1789
176.16641322804742,1694
178.58857745042144,1684
181.01007288096173,1819
183.43089972175687,2057
185.85105817497413,1977
188.27054844285988,2013
190.6893707277394,1830
193.10752523201643,1958
195.5250121581745,2012
197.9418317087751,2115
200.3579840864594,2035
202.7734694939469,1938
205.18828813403627,2042
207.6024402096051,2041
210.01592592360964,1971
212.42874547908548,2109
214.84089907914665,2020
217.2523869269868,2079
219.66320922587727,2101
222.0733661791695,2090
224.48285799029293,2114
226.8916848627572,2259
229.29984700014882,2244
231.7073446061355,2177
234.11417788446204,2315
236.520347038953,2386
238.92585227351185,2397
241.33069379212054,2489
243.73487179884035,2397
246.1383864978112,2294
248.541238093252,2408
250.9434267894609,2347
253.34495279081432,2444
255.74581630176783,2460
258.1460175268563,2582
260.54555667069314,2561
262.9444339379703,2547
265.3426495334594,2522
267.7402036620107,2410
270.1370965285529,2337
272.53332833809407,2242
274.9288992957214,2176
277.32380960660055,2110
279.718059475976,2134
282.1116491091717,2126
284.5045787115897,2106
286.89684848871195,2112
289.2884586460981,2134
291.67940938938807,2091
294.0697009242996,2140
296.4593334566299,2119
298.84830719225477,2061
301.23662233712923,2064
303.6242790972866,2051
306.01127767884,2043
308.39761828798066,1993
310.78330113097934,1936
313.16832641418534,1998
315.5526943440269,1935
317.9364051270112,1961
320.3194589697242,1889
322.70185607883093,1874
325.0835966610754,1856
327.4646809232805,1867
329.8451090723478,1764
332.2248813152577,1825
334.6039978590701,1790
336.9824589109231,1746
339.36026467803447,1792
341.7374153677,1858
344.113911187295,1822
346.48975234427337,1803
348.8649390461686,1807
351.2394715005918,1773
353.61334991523415,1754
355.9865744978655,1806
358.35914545633375,1723
360.73106299856715,1722
363.10232733257146,1809
365.47293866643247,1702
367.84289720831396,1648
370.2122031664593,1745
372.5808567491905,1750
374.9488581649083,1784
377.31620762209275,1636
379.6829053293021,1619
382.0489514951745,1635
384.4143463284262,1659
386.7790900378528,1671
389.14318283232853,1649
391.50662492080653,1587
393.86941651231916,1621
396.23155781597745,1580
398.5930490409713,1683
400.9538903965696,1655
403.3140820921202,1613
405.6736243370498,1561
408.03251734086336,1614
410.3907613131465,1606
412.74835646356166,1550
415.10530300185144,1547
417.4616011378372,1663
419.81725108141893,1561
422.1722530425758,1649
424.5266072313656,1647
426.880313857925,1577
429.2333731324701,1578
431.58578526529516,1555
433.9375504667738,1569
436.2886689473588,1578
438.63914091758113,1548
440.9889665880513,1568
443.33814616945835,1519
445.68667987257015,1607
448.03456790823395,1574
450.3818104873759,1566
452.72840782100013,1588
455.07436012019105,1569
457.41966759611057,1566
459.7643304600007,1481
462.10834892318155,1519
464.4517231970525,1571
466.79445349309174,1548
469.1365400228566,1556
471.4779829979826,1543
473.81878263018564,1619
476.15893913125876,1613
478.4984527130747,1586
480.8373235875855,1607
483.17555196682144,1665
485.5131380628919,1726
487.8500820879857,1713
490.1863842543697,1761
492.52204477439034,1881
494.8570638604725,1942
497.1914417251204,2254
499.52517858091653,2389
501.85827464052306,2564
504.19073011668036,2800
506.5225452222086,2817
508.85372017000566,2879
511.18425517304956,2787
513.514150444396,2959
515.8434061971808,3289
518.1720226446176,3550
520.4999999999999,3661
522.8273384766991,3727
525.1540382881666,3884
527.480099647932,3615
529.8055227696037,2921
532.1303078668694,2164
534.454455153496,1794
536.777964843328,1636
539.1008371502907,1531
541.4230722883866,1550
543.744670471698,1513
546.0656319143858,1496
548.3859568306899,1482
550.7056454349294,1461
553.0246979415016,1517
555.3431145648834,1457
557.6608955196306,1453
559.978041020377,1453
562.2945512818363,1425
564.6104265188006,1451
566.9256669461412,1490
569.2402727788082,1438
571.5542442318302,1443
573.8675815203156,1427
576.1802848594508,1388
578.4923544645015,1418
580.8037905508126,1450
583.114593333807,1464
585.4247630289875,1412
587.7342998519354,1384
590.0432040183106,1428
592.3514757438526,1490
594.6591152443794,1424
596.9661227357875,1433
599.2724984340531,1460
601.578242555231,1473
603.8833553154542,1516
606.1878369309362,1413
608.4916876179676,1462
610.7949075929192,1404
613.0974970722403,1463
615.3994562724587,1437
617.7007854101818,1423
620.0014847020951,1425
622.3015543649641,1440
624.6009946156324,1432
626.8998056710224,1448
629.1979877481361,1442
631.4955410640538,1464
633.7924658359349,1410
636.0887622810175,1470
638.3844306166192,1495
640.6794710601358,1535
642.9738838290426,1429
645.2676691408932,1439
647.5608272133207,1397
649.853358264037,1487
652.1452625108324,1500
654.4365401715764,1535
656.7271914642178,1523
659.0172166067838,1477
661.3066158173809,1455
663.5953893141935,1544
665.8835373154867,1535
668.1710600396028,1514
670.4579577049639,1499
672.7442305300709,1466
675.0298787335033,1489
677.3149025339197,1513
679.599302150058,1566
681.8830778007342,1474
684.1662297048437,1516
686.4487580813608,1496
688.7306631493387,1503
691.0119451279091,1501
693.2926042362834,1500
695.5726406937516,1536
697.8520547196814,1516
700.1308465335215,1461
702.4090163547982,1436
704.6865644031171,1481
706.9634908981619,1489
709.2397960596965,1474
711.5154801075631,1503
713.7905432616823,1516
716.0649857420548,1477
718.3388077687592,1443
720.612009561953,1574
722.8845913418733,1429
725.1565533288352,1518
727.427895743234,1423
729.6986188055427,1460
731.9687227363137,1472
734.238207756178,1509
736.5070740858458,1482
738.7753219461066,1410
741.0429515578281,1463
743.3099631419569,1390
745.5763569195191,1478
747.8421331116193,1441
750.1072919394409,1515
752.3718336242467,1454
754.6357583873777,1500
756.8990664502545,1439
759.1617580343765,1465
761.423833361321,1452
763.6852926527457,1476
765.9461361303862,1497
768.206364016058,1477
770.4659765316536,1475
772.7249738991469,1499
774.9833563405886,1518
777.2411240781092,1458
779.4982773339183,1456
781.7548163303044,1518
784.010741289634,1497
786.2660524343538,1583
788.5207499869881,1485
790.7748341701416,1540
793.0283052064964,1498
795.2811633188143,1497
797.5334087299362,1592
799.7850416627813,1564
802.0360623403484,1512
804.2864709857143,1554
806.5362678220353,1534
808.7854530725468,1518
811.0340269605625,1514
813.2819897094754,1531
815.5293415427581,1581
817.77608268396,1468
820.0222133567116,1580
822.2677337847211,1521
824.5126441917765,1486
826.7569448017433,1484
829.0006358385675,1578
831.2437175262731,1580
833.4861900889629,1554
835.7280537508192,1510
837.9693087361026,1516
840.2099552691533,1543
842.4499935743896,1501
844.689423876309,1509
846.9282463994886,1587
849.1664613685833,1519
851.4040690083276,1502
853.6410695435349,1536
855.877463199097,1566
858.1132501999847,1564
860.3484307712487,1516
862.5830051380175,1506
864.8169735254988,1558
867.0503361589791,1497
869.2830932638243,1473
871.5152450654786,1463
873.7467917894654,1574
875.9777336613873,1486
878.2080709069252,1509
880.4378037518389,1567
882.666932421968,1527
884.8954571432301,1534
887.1233781416219,1548
889.3506956432192,1519
891.5774098741766,1565
893.803521060728,1548
896.0290294291852,1580
898.2539352059397,1545
900.4782386174619,1520
902.7019398903011,1533
904.925039251085,1519
907.147536926521,1525
909.3694331433943,1541
911.59072812857,1573
913.8114221089921,1506
916.0315153116827,1550
918.2510079637437,1497
920.4699002923547,1510
922.6881925247761,1544
924.905884888345,1466
927.1229776104793,1500
929.3394709186747,1446
931.555365040506,1487
933.7706602036275,1521
935.9853566357709,1525
938.1994545647489,1496
940.4129542184515,1518
942.6258558248488,1485
944.8381596119883,1481
947.0498658079974,1546
949.2609746410825,1520
951.4714863395287,1536
953.6814011316998,1536
955.8907192460387,1498
958.0994409110671,1483
960.3075663553858,1441
962.5150958076741,1504
964.7220294966913,1495
966.928367651274,1450
969.1341105003388,1438
971.3392582728806,1536
973.5438111979742,1501
975.747769504772,1499
977.9511334225061,1437
980.153903180487,1472
982.3560790081052,1525
984.5576611348289,1487
986.7586497902058,1471
988.9590452038618,1433
991.158847605503,1389
993.3580572249133,1388
995.5566742919558,1396
997.7546990365728,1319
999.952131688785,1351
1002.1489724786926,1330
1004.3452216364743,1352
1006.5408793923874,1339
1008.7359459767691,1283
1010.9304216200343,1300
1013.1243065526781,1290
1015.3176010052733,1278
1017.510305208472,1308
1019.7024193930064,1236
1021.8939437896848,1240
1024.0848786293977,1258
1026.2752241431122,1229
1028.4649805618747,1237
1030.6541481168115,1264
1032.842727039127,1241
1035.0307175601051,1226
1037.2181199111074,1253
1039.4049343235752,1196
1041.591161029029,1264
1043.7768002590683,1242
1045.9618522453698,1246
1048.1463172196918,1283
1050.3301954138697,1270
1052.513487059818,1289
1054.69619238953,1233
1056.8783116350783,1242
1059.0598450286152,1237
1061.2407928023704,1202
1063.4211551886528,1218
1065.6009324198508,1223
1067.780124728432,1235
1069.9587323469414,1268
1072.1367555080046,1221
1074.314194444325,1216
1076.4910493886855,1193
1078.667320573947,1179
1080.843008233051,1217
1083.0181125990161,1194
1085.1926339049414,1197
1087.3665723840027,1212
1089.5399282694575,1178
1091.7127017946405,1151
1093.8848931929647,1185
1096.0565026979243,1180
1098.2275305430899,1177
1100.3979769621128,1219
1102.567842188722,1181
1104.737126456726,1168
1106.9058300000124,1149
1109.0739530525475,1145
1111.2414958483764,1175
1113.4084586216231,1124
1115.5748416064907,1166
1117.7406450372605,1140
1119.9058691482942,1166
1122.0705141740304,1160
1124.2345803489884,1167
1126.3980679077658,1146
1128.5609770850388,1167
1130.7233081155623,1160
1132.8850612341707,1217
1135.0462366757774,1118
1137.2068346753745,1147
1139.3668554680326,1116
1141.526299288901,1135
1143.68516637321,1086
1145.8434569562655,1151
1148.001171273455,1134
1150.158309560244,1096
1152.3148720521767,1107
1154.470858984876,1137
1156.626270594044,1175
1158.7811071154629,1138
1160.9353687849912,1140
1163.089055838569,1161
1165.242168512213,1165
1167.3947070420209,1138
1169.5466716641677,1154
1171.6980626149075,1181
1173.8488801305748,1113
1175.9991244475814,1147
1178.1487958024186,1123
1180.2978944316555,1164
1182.4464205719428,1174
1184.5943744600072,1105
1186.7417563326567,1110
1188.8885664267755,1146
1191.0348049793297,1146
1193.1804722273619,1151
1195.325568407995,1186
1197.4700937584303,1183
1199.614048515948,1153
1201.7574329179074,1130
1203.900247201746,1159
1206.042491604982,1112
1208.1841663652099,1155
1210.3252717201053,1166
1212.465807907422,1098
1214.6057751649923,1146
1216.7451737307279,1144
1218.8840038426192,1185
1221.0222657387353,1126
1223.1599596572241,1171
1225.2970858363137,1189
1227.4336445143094,1177
1229.5696359295966,1153
1231.705060320639,1206
1233.8399179259786,1202
1235.9742089842384,1135
1238.107933734118,1143
1240.2410924143974,1151
1242.373685263935,1185
1244.5057125216676,1212
1246.6371744266116,1148
1248.7680712178621,1181
1250.898403134593,1177
1253.028170416058,1178
1255.1573733015875,1154
1257.2860120305932,1205
1259.4140868425648,1192
1261.54159797707,1202
1263.6685456737569,1201
1265.7949301723515,1219
1267.9207517126597,1229
1270.046010534565,1220
1272.1707068780306,1216
1274.2948409830983,1237
1276.4184130898889,1250
1278.541423438603,1232
1280.6638722695184,1206
1282.785759822993,1277
1284.9070863394636,1209
1287.0278520594447,1223
1289.1480572235314,1281
1291.2677020723963,1252
1293.3867868467923,1300
1295.5053117875495,1232
1297.623277135579,1350
1299.740683131868,1304
1301.8575300174857,1334
1303.973818033578,1270
1306.0895474213703,1246
1308.2047184221678,1301
1310.3193312773528,1332
1312.4333862283888,1276
1314.5468835168163,1316
1316.659823384255,1296
1318.7722060724045,1356
1320.8840318230418,1319
1322.9953008780249,1346
1325.1060134792888,1313
1327.2161698688478,1373
1329.3257702887959,1395
1331.4348149813054,1337
1333.5433041886276,1324
1335.6512381530933,1361
1337.7586171171101,1330
1339.8654413231675,1391
1341.9717110138317,1347
1344.0774264317488,1312
1346.1825878196432,1313
1348.2871954203192,1343
1350.3912494766587,1290
1352.4947502316231,1273
1354.5976979282532,1322
1356.7000928096686,1291
1358.8019351190665,1310
1360.9032250997243,1323
1363.0039629949988,1270
1365.1041490483235,1253
1367.2037835032133,1222
1369.3028666032606,1277
1371.401398592137,1295
1373.4993797135926,1268
1375.5968102114575,1268
1377.6936903296396,1280
1379.7900203121262,1238
1381.8858004029835,1274
1383.9810308463561,1233
1386.075711886469,1253
1388.1698437676241,1296
1390.2634267342032,1288
1392.356461030667,1270
1394.4489469015557,1223
1396.5408845914872,1279
1398.6322743451592,1293
1400.7231164073469,1300
1402.813411022907,1333
1404.903158436773,1236
1406.9923588939578,1282
1409.0810126395531,1319
1411.1691199187303,1283
1413.2566809767386,1312
1415.343696058907,1215
1417.4301654106425,1312
1419.5160892774315,1317
1421.6014679048399,1282
1423.6863015385125,1332
1425.7705904241707,1288
1427.8543348076178,1311
1429.9375349347342,1323
1432.0201910514802,1357
1434.102303403894,1314
1436.1838722380944,1362
1438.2648978002767,1423
1440.3453803367174,1358
1442.4253200937692,1408
1444.5047173178677,1382
1446.5835722555234,1426
1448.6618851533285,1383
1450.739656257952,1435
1452.8168858161434,1504
1454.8935740747306,1433
1456.96972128062,1452
1459.045327680797,1489
1461.120393522327,1476
1463.1949190523528,1553
1465.2689045180973,1538
1467.3423501668608,1528
1469.415256246024,1568
1471.4876230030463,1587
1473.559450685465,1534
1475.6307395408976,1572
1477.7014898170391,1620
1479.771701761665,1631
1481.8413756226287,1676
1483.9105116478618,1647
1485.9791100853772,1676
1488.0471711832643,1642
1490.1146951896926,1710
1492.1816823529098,1694
1494.2481329212433,1719
1496.3140471430984,1721
1498.3794252669609,1714
1500.4442675413939,1797
1502.5085742150404,1780
1504.572345536622,1775
1506.6355817549388,1765
1508.6982831188702,1799
1510.7604498773744,1797
1512.8220822794883,1750
1514.8831805743293,1830
1516.9437450110909,1763
1519.003775839048,1784
1521.0632733075522,1759
1523.1222376660367,1755
1525.1806691640113,1840
1527.2385680510652,1875
1529.2959345768668,1768
1531.3527689911643,1821
1533.4090715437833,1903
1535.4648424846291,1812
1537.5200820636855,1901
1539.5747905310159,1999
1541.6289681367616,1993
1543.6826151311434,1966
1545.7357317644614,2011
1547.7883182870937,1970
1549.8403749494987,2047
1551.8919020022113,2085
1553.9428996958477,2055
1555.9933682811015,2209
1558.0433080087469,2159
1560.0927191296346,2270
1562.1416018946961,2207
1564.1899565549415,2310
1566.2377833614592,2199
1568.2850825654164,2263
1570.3318544180606,2173
1572.3780991707158,2171
1574.423817074788,2060
1576.4690083817595,2098
1578.5136733431923,2007
1580.5578122107272,2037
1582.601425236085,1868
1584.6445126710646,1829
1586.6870747675434,1843
1588.7291117774776,1805
1590.7706239529034,1702
1592.8116115459347,1682
1594.8520748087658,1593
1596.8920139936686,1576
1598.9314293529933,1586
1600.9703211391711,1522
1603.008689604711,1500
1605.0465350022005,1514
1607.0838575843068,1482
1609.1206576037753,1449
1611.1569353134305,1368
1613.1926909661765,1415
1615.2279248149953,1333
1617.2626371129481,1350
1619.2968281131757,1309
1621.3304980688963,1249
1623.3636472334088,1268
1625.39627586009,1305
1627.428384202396,1294
1629.459972513861,1276
1631.4910410480993,1258
1633.5215900588028,1299
1635.551619799744,1247
1637.5811305247717,1264
1639.6101224878166,1258
1641.6385959428862,1229
1643.6665511440683,1154
1645.693988345528,1205
1647.7209078015112,1205
1649.7473097663405,1188
1651.7731944944203,1177
1653.7985622402307,1200
1655.823413258333,1217
1657.847747803366,1135
1659.8715661300494,1209
1661.8948684931793,1150
1663.9176551476316,1189
1665.9399263483624,1162
1667.9616823504057,1141
1669.982923408873,1139
1672.0036497789574,1179
1674.0238617159293,1160
1676.043559475138,1176
1678.0627433120121,1142
1680.081413482059,1138
1682.0995702408654,1184
1684.117213844096,1170
1686.134344547495,1161
1688.1509626068864,1105
1690.1670682781705,1134
1692.182661817329,1148
1694.1977434804217,1145
1696.2123135235875,1143
1698.226372203043,1153
1700.2399197750851,1183
1702.2529564960905,1126
1704.2654826225112,1160
1706.277498410882,1150
1708.2890041178139,1106
1710.2999999999988,1182
1712.3104863142066,1194
1714.3204633172854,1147
1716.329931266163,1126
1718.3388904178469,1131
1720.3473410294214,1095
1722.3552833580516,1139
1724.3627176609807,1138
1726.3696441955308,1165
1728.3760632191033,1153
1730.3819749891782,1113
1732.3873797633146,1096
1734.3922777991502,1148
1736.3966693544012,1083
1738.4005546868639,1127
1740.4039340544127,1152
1742.406807715001,1128
1744.4091759266616,1138
1746.4110389475054,1146
1748.4123970357223,1118
1750.413250449582,1040
1752.4135994474318,1112
1754.4134442876993,1086
1756.4127852288902,1105
1758.4116225295893,1138
1760.4099564484595,1123
1762.407787244244,1135
1764.405115175764,1044
1766.4019405019203,1085
1768.3982634816916,1138
1770.3940843741357,1107
1772.3894034383907,1077
1774.3842209336717,1134
1776.378537119274,1114
1778.372352254571,1149
1780.3656665990156,1087
1782.3584804121397,1044
1784.3507939535534,1087
1786.3426074829463,1127
1788.3339212600863,1014
1790.3247355448211,1047
1792.3150505970766,1114
1794.3048666768573,1116
1796.2941840442477,1119
1798.2830029594106,1094
1800.2713236825884,1106
1802.2591464741004,1032
1804.2464715943465,1049
1806.2332993038058,1062
1808.2196298630352,1093
1810.2054635326708,1041
1812.190800573428,1072
1814.175641246101,1057
1816.1599858115628,1083
1818.1438345307652,1099
1820.127187664738,1136
1822.1100454745924,1088
1824.092408221516,1102
1826.0742761667766,1090
1828.055649571721,1066
1830.0365286977735,1066
1832.0169138064398,1062
1833.9968051593014,1053
1835.9762030180214,1078
1837.9551076443408,1059
1839.9335193000788,1079
1841.9114382471344,1066
1843.888864747485,1114
1845.8657990631878,1098
1847.842241456378,1099
1849.8181921892697,1097
1851.7936515241558,1115
1853.7686197234098,1091
1855.7430970494815,1037
1857.7170837649014,1090
1859.6905801322787,1101
1861.6635864143004,1074
1863.6361028737338,1091
1865.608129773424,1100
1867.5796673762961,1054
1869.5507159453537,1092
1871.521275743678,1113
1873.4913470344313,1056
1875.4609300808534,1114
1877.4300251462632,1110
1879.3986324940588,1027
1881.366752387717,1147
1883.3343850907936,1092
1885.3015308669228,1100
1887.268189979819,1082
1889.2343626932739,1126
1891.2000492711595,1093
1893.1652499774254,1098
1895.1299650761011,1085
1897.0941948312952,1127
1899.0579395071945,1096
1901.0211993680641,1100
1902.98397467825,1095
1904.9462657021745,1103
1906.9080727043415,1081
1908.869395949332,1142
1910.8302357018065,1111
1912.790592226504,1129
1914.7504657882428,1123
1916.7098566519212,1088
1918.6687650825133,1115
1920.6271913450764,1127
1922.5851357047422,1120
1924.5425984267245,1077
1926.499579776314,1086
1928.4560800188833,1123
1930.4120994198802,1045
1932.367638244833,1101
1934.32269675935,1124
1936.2772752291175,1124
1938.231373919899,1117
1940.1849930975404,1098
1942.1381330279637,1050
1944.0907939771696,1046
1946.0429762112412,1062
1947.9946799963363,1073
1949.9459055986945,1110
1951.896653284633,1088
1953.8469233205478,1070
1955.7967159729142,1069
1957.7460315082863,1069
1959.6948701932974,1066
1961.6432322946594,1063
1963.5911180791632,1084
1965.5385278136787,1106
1967.4854617651545,1099
1969.4319202006182,1112
1971.377903387176,1059
1973.3234115920136,1073
1975.268445082395,1123
1977.2130041256642,1128
1979.1570889892423,1113
1981.1006999406304,1045
1983.04383724741,1034
1984.986501177238,1065
1986.928691997853,1118
1988.8704099770712,1030
1990.811655382789,1054
1992.7524284829801,1142
1994.692729545698,1080
1996.6325588390755,1073
1998.5719166313224,1047
2000.5108031907307,1076
2002.4492187856677,1045
2004.387163684583,1018
2006.3246381560011,1028
2008.2616424685298,1069
2010.1981768908527,1038
2012.1342416917332,1056
2014.069837140014,1057
2016.0049635046162,1057
2017.9396210545406,1062
2019.8738100588666,1034
2021.8075307867502,1057
2023.740783507431,1077
2025.6735684902228,1011
2027.6058860045214,1067
2029.5377363198004,1101
2031.4691197056118,1058
2033.4000364315875,1070
2035.3304867674374,1013
2037.260470982952,1079
2039.189989347998,1053
2041.1190421325232,1094
2043.047629606554,1080
2044.9757520401945,1079
2046.9034097036288,1071
2048.8306028671195,1092
2050.7573318010086,1056
2052.683596775716,1061
2054.609398061742,1054
2056.5347359296647,1069
2058.4596106501403,1063
2060.384022493906,1035
2062.3079717317764,1075
2064.231458634646,1080
2066.1544834734873,1079
2068.077046519352,1059
2069.99914804337,1094
2071.9207883167524,1056
2073.8419676107865,1065
2075.7626861968406,1031
2077.6829443463607,1056
2079.6027423308715,1002
2081.522080421977,1003
2083.440958891362,1030
2085.359378010786,1013
2087.2773380520907,1072
2089.194839287196,1047
2091.111881988101,1076
2093.0284664268825,1059
2094.9445928756973,1072
2096.86026160678,1039
2098.775472892446,1044
2100.690227005088,1053
2102.604524217178,1042
2104.5183648012676,1079
2106.431749029985,1065
2108.34467717604,1107
2110.2571495122206,1065
2112.169166311393,1102
2114.080727846503,1044
2115.9918343905747,1066
2117.902486216711,1047
2119.8126835980956,1058
2121.722426807987,1038
2123.6317161197285,1052
2125.5405518067364,1091
2127.448934142509,1072
2129.356863400624,1100
2131.264339854737,1050
2133.1713637785815,1035
2135.077935445972,1058
2136.9840551308002,1100
2138.889723107037,1051
2140.7949396487334,1038
2142.699705030018,1031
2144.6040195250994,1102
2146.507883408264,1033
2148.4112969538774,1070
2150.3142604363848,1084
2152.2167741303097,1019
2154.1188383102535,1083
2156.0204532508997,1018
2157.9216192270064,1055
2159.822336513414,1036
2161.7226053850413,1034
2163.622426116884,1088
2165.5217989840185,1075
2167.4207242616,1027
2169.319202224862,1089
2171.2172331491165,1064
2173.1148173097563,1060
2175.0119549822507,1071
2176.90864644215,1027
2178.8048919650823,1095
2180.7006918267534,1033
2182.596046302952,1063
2184.4909556695407,1063
2186.3854202024645,1034
2188.279440177746,1091
2190.173015871487,1087
2192.066147559868,1093
2193.958835519149,1091
2195.851080025667,1030
2197.7428813558417,1031
2199.6342397861667,1008
2201.5251555932186,1100
2203.415629053651,1086
2205.3056604441986,1034
2207.19525004167,1056
2209.084398122958,1064
2210.9731049650327,1039
2212.861370844941,1050
2214.749196039812,1062
2216.636580826851,1112
2218.523525483344,1074
2220.410030286655,1064
2222.296095514226,1056
2224.1817214435805,1076
2226.066908352319,1074
2227.951656518121,1087
2229.835966218746,1063
2231.71983773203,1058
2233.6032713358913,1034
2235.486267308324,1108
2237.3688259274036,1055
2239.2509474712824,1051
2241.132632218193,1048
2243.013880446447,1140
2244.8946924344323,1066
2246.7750684606203,1040
2248.6550088035574,1060
2250.534513741871,1064
2252.413583554265,1009
2254.292218519526,1068
2256.170418916517,1025
2258.0481850241786,999
2259.925517121534,1028
2261.8024154876825,1121
2263.678880401803,1061
2265.5549121431536,1111
2267.430510991071,1050
2269.305677224971,1069
2271.180411124348,1044
2273.0547129687766,1054
2274.9285830379076,1081
2276.8020216114737,1055
2278.6750289692845,1051
2280.5476053912294,1053
2282.4197511572766,1051
2284.2914665474727,1038
2286.162751841943,1074
2288.0336073208937,1018
2289.904033264608,1096
2291.774029953448,1072
2293.6435976678554,1135
2295.5127366883517,1085
2297.381447295534,1057
2299.2497297700825,1036
2301.1175843927526,1047
2302.9850114443825,1061
2304.852011205885,1123
2306.7185839582553,1047
2308.5847299825664,1058
2310.4504495599676,1094
2312.3157429716925,1088
2314.1806104990483,1066
2316.0450524234247,1094
2317.9090690262888,1075
2319.772660589186,1061
2321.635827393742,1073
2323.498569721661,1104
2325.3608878547248,1054
2327.2227820747967,1098
2329.0842526638157,1074
2330.945299903803,1040
2332.805924076857,1079
2334.6661254651535,1087
2336.525904350951,1111
2338.3852610165827,1063
2340.244195744464,1063
2342.102708817088,1121
2343.9608005170253,1069
2345.8184711269287,1116
2347.675720929526,1033
2349.532550207628,1080
2351.38895924412,1067
2353.24494832197,1095
2355.100517724223,1084
2356.955667734004,1106
2358.810398634514,1102
2360.664710709037,1067
2362.5186042409337,1127
2364.3720795136437,1107
2366.225136810686,1062
2368.0777764156583,1064
2369.929998612237,1064
2371.7818036841777,1095
2373.633191915315,1093
2375.484163589562,1102
2377.3347189909114,1039
2379.184858403434,1114
2381.03458211128,1053
2382.8838903986775,1037
2384.732783549936,1101
2386.5812618494406,1086
2388.4293255816588,1105
2390.2769750311327,1087
2392.1242104824883,1073
2393.971032220427,1030
2395.8174405297295,1086
2397.6634356952563,1133
2399.509018001947,1091
2401.3541877348193,1062
2403.1989451789705,1135
2405.043290619576,1106
2406.8872243418905,1079
2408.730746631247,1091
2410.5738577730594,1104
2412.4165580528183,1110
2414.258847756095,1086
2416.100727168537,1138
2417.9421965758734,1097
2419.783256263912,1138
2421.623906518538,1145
2423.4641476257157,1084
2425.303979871491,1133
2427.143403541984,1105
2428.9824189233977,1151
2430.821026302012,1126
2432.6592259641866,1132
2434.497018196361,1147
2436.33440328505,1088
2438.171381516851,1082
2440.00795317844,1125
2441.844118556569,1114
2443.6798779380724,1132
2445.5152316098606,1119
2447.3501798589255,1133
2449.1847229723357,1094
2451.0188612372403,1108
2452.8525949408663,1129
2454.6859243705203,1064
2456.518849813587,1102
2458.3513715575314,1077
2460.183489889895,1089
2462.015205098301,1106
2463.8465174704493,1105
2465.67742729412,1093
2467.5079348571717,1074
2469.338040447542,1114
2471.1677443532476,1062
2472.9970468623833,1110
2474.825948263123,1112
2476.6544488437207,1132
2478.482548892508,1134
2480.310248697896,1093
2482.137548548374,1120
2483.9644487325118,1113
2485.790949538956,1134
2487.617051256433,1170
2489.44275417375,1111
2491.26805857979,1135
2493.0929647635157,1080
2494.917473013971,1107
2496.741583620276,1104
2498.5652968716304,1107
2500.3886130573137,1125
2502.2115324666834,1126
2504.0340553891765,1088
2505.856182114308,1151
2507.6779129316733,1116
2509.499248130945,1191
2511.3201880018764,1179
2513.140732834298,1148
2514.9608829181198,1131
2516.780638543331,1111
2518.6,1137
2520.418967578273,1172
2522.237541568376,1112
2524.0557222606144,1182
2525.8735099453706,1111
2527.6909049131086,1145
2529.507907454368,1153
2531.32451785977,1156
2533.140736420014,1163
2534.9565634258774,1141
2536.771999168218,1121
2538.5870439379714,1165
2540.4016980261526,1149
2542.2159617238544,1204
2544.02983532225,1190
2545.8433191125914,1134
2547.656413386209,1158
2549.4691184345115,1223
2551.2814345489874,1214
2553.093362021204,1203
2554.904901142808,1204
2556.716052205523,1255
2558.526815501153,1201
2560.3371913215824,1205
2562.147179958771,1242
2563.956781704761,1250
2565.7659968516705,1205
2567.5748256916986,1239
2569.3832685171224,1206
2571.1913256202984,1242
2572.9989972936614,1235
2574.806283829725,1222
2576.613185521084,1230
2578.4197026604074,1279
2580.2258355404483,1234
2582.031584454035,1289
2583.836949694077,1242
2585.6419315535613,1261
2587.4465303255533,1288
2589.2507463032002,1202
2591.0545797797245,1283
2592.8580310484303,1262
2594.6611004026995,1296
2596.463788135992,1220
2598.266094541849,1255
2600.0680199138874,1266
2601.869564545807,1262
2603.670728731383,1277
2605.4715127644704,1258
2607.2719169390048,1244
2609.071941548998,1218
2610.8715868885433,1298
2612.670853251811,1317
2614.469740933052,1258
2616.268250226594,1263
2618.0663814268455,1228
2619.864134828292,1267
2621.6615107255006,1205
2623.458509413115,1304
2625.2551311858597,1244
2627.0513763385347,1266
2628.8472451660223,1217
2630.6427379632833,1225
2632.4378550253564,1244
2634.232596647359,1269
2636.026963124488,1167
2637.8209547520187,1181
2639.6145718253065,1196
2641.407814639785,1172
2643.200683490966,1165
2644.9931786744414,1174
2646.7853004858807,1173
2648.577049221034,1212
2650.3684251757277,1213
2652.1594286458712,1158
2653.9500599274484,1179
2655.740319316525,1179
2657.5302071092437,1158
2659.3197236018286,1171
2661.10886909058,1200
2662.8976438718782,1172
2664.686048242183,1176
2666.4740824980327,1174
2668.2617469360443,1140
2670.0490418529134,1136
2671.8359675454153,1175
2673.622524310403,1109
2675.408712444811,1122
2677.1945322456495,1113
2678.979984010009,1139
2680.76506803506,1135
2682.5497846180497,1137
2684.334134056306,1143
2686.1181166472343,1129
2687.9017326883213,1129
2689.6849824771293,1123
2691.4678663113013,1090
2693.2503844885596,1088
2695.032537306705,1090
2696.8143250636167,1116
2698.5957480572542,1111
2700.3768065856534,1066
2702.1575009469316,1106
2703.937831439283,1127
2705.717798360982,1122
2707.4974020103837,1092
2709.276642685917,1089
2711.055520686095,1068
2712.834036309506,1042
2714.612189854819,1045
2716.389981620782,1099
2718.1674119062204,1070
2719.944481010041,1098
2721.721189231226,1072
2723.4975368688415,1105
2725.273524222027,1072
2727.0491515900053,1095
2728.824419272075,1031
2730.5993275676146,1073
2732.3738767760838,1050
2734.148067197016,1063
2735.921899130031,1031
2737.6953728748194,1036
2739.468488731156,1089
2741.2412469988926,1073
2743.0136479779617,1061
2744.785691968372,1063
2746.5573792702116,1094
2748.3287101836504,1060
2750.099685008934,1097
2751.870304046388,1040
2753.640567596418,1042
2755.4104759595057,1040
2757.1800294362156,1015
2758.949228327187,1046
2760.7180729331412,1025
2762.486563554877,1089
2764.254700493272,1005
2766.022484049284,1078
2767.789914523947,1046
2769.5569922183786,1074
2771.3237174337705,1045
2773.090090471394,1085
2774.8561116326036,1093
2776.6217812188274,1072
2778.3870995315756,1051
2780.1520668724356,1032
2781.9166835430747,1003
2783.6809498452394,1057
2785.444866080754,1073
2787.2084325515225,1011
2788.971649559527,1027
2790.73451740683,1048
2792.4970363955713,1076
2794.2592068279705,1037
2796.0210290063264,1089
2797.7825032330147,1058
2799.543629810493,1041
2801.304409041296,1086
2803.0648412280366,1029
2804.8249266734088,1092
2806.5846656801846,1057
2808.344058551212,1017
2810.1031055894246,1041
2811.8618070978273,1055
2813.6201633795085,1052
2815.378174737636,1034
2817.1358414754536,1063
2818.893163896285,1052
2820.6501423035334,1003
2822.4067770006814,1029
2824.1630682912883,1021
2825.9190164789957,1057
2827.6746218675207,1018
2829.429884760661,1034
2831.184805462294,1050
2832.9393842763743,1044
2834.693621506936,1012
2836.4475174580916,1044
2838.201072434034,1008
2839.954286739034,1035
2841.707160677441,1062
2843.459694553685,1034
2845.2118886722724,1053
2846.96374333779,1060
2848.7152588549034,1083
2850.4664355283567,1057
2852.217273662973,1054
2853.9677735636546,1103
2855.7179355353833,1066
2857.4677598832186,994
2859.217246912299,1022
2860.9663969278427,1021
2862.715210235146,1053
2864.4636871395846,1046
2866.211827946614,1038
2867.9596329617652,1078
2869.7071024906536,1006
2871.4542368389684,1101
2873.20103631248,1012
2874.947501217038,1032
2876.6936318585695,1035
2878.4394285430812,1034
2880.1848915766604,1026
2881.9300212654707,1031
2883.6748179157553,1059
2885.4192818338374,995
2887.1634133261173,1018
2888.907212699077,1035
2890.6506802592744,1070
2892.393816313348,1065
2894.1366211680142,1025
2895.8790951300693,1061
2897.621238506388,989
2899.363051603925,1042
2901.1045347297118,1027
2902.8456881908596,1082
2904.58651229456,1028
2906.327007348081,1089
2908.067173658772,1024
2909.8070115340597,1013
2911.5465212814497,1047
2913.285703208527,1066
2915.0245576229563,1065
2916.7630848324807,1051
2918.5012851449196,1063
2920.2391588681758,1051
2921.976706310227,1071
2923.7139277791334,1050
2925.4508235830313,1063
2927.187394030137,1099
2928.923639428745,1011
2930.6595600872306,1029
2932.395156314046,1054
2934.1304284177218,1038
2935.8653767068713,1068
2937.6000014901815,1064
2939.3343030764227,1018
2941.068281774442,1045
2942.8019378931644,1071
2944.5352717415976,1062
2946.2682836288236,1030
2948.0009738640065,1046
2949.7333427563885,1035
2951.465390615289,1067
2953.1971177501086,1063
2954.9285244703265,1052
2956.6596110855,1029
2958.3903779052657,1022
2960.1208252393385,1015
2961.8509533975125,1043
2963.5807626896617,1036
2965.3102534257378,998
2967.0394259157715,1054
2968.768280469873,1056
2970.496817398232,1023
2972.2250370111146,1037
2973.952939618869,1040
2975.6805255319196,1015
2977.4077950607707,1011
2979.134748516006,1078
2980.861386208289,1057
2982.587708448359,1051
2984.313715547037,1034
2986.039407815222,1019
2987.764785563891,1064
2989.489849104102,1073
2991.2145987469908,1051
2992.9390348037705,1012
2994.6631575857346,1041
2996.3869674042576,1057
2998.1104645707887,1015
2999.83364939686,1036
3001.5565221940783,1013
3003.2790832741334,1034
3005.0013329487924,1053
3006.7232715298996,1022
3008.4448993293804,1023
3010.166216659239,987
3011.887223831558,988
3013.607921158498,1019
3015.3283089522993,1018
3017.0483875252826,1037
3018.7681571898443,1045
3020.4876182584626,1075
3022.2067710436927,1010
3023.9256158581707,987
3025.644153014609,1012
3027.362382825801,1002
3029.0803056046193,1040
3030.797921664012,1079
3032.5152313170106,1036
3034.2322348767225,1038
3035.9489326563353,1033
3037.665324969115,1026
3039.3814121284063,1048
3041.097194447633,1039
3042.812672240299,994
3044.5278458199855,1026
3046.2427155003525,1096
3047.9572815951406,1084
3049.671544418167,1084
3051.38550428333,1082
3053.0991615046073,1040
3054.812516396051,1056
3056.5255692717974,1051
3058.2383204460575,1032
3059.9507702331257,1052
3061.662918947372,1054
3063.3747669032446,1011
3065.0863144152736,1027
3066.7975617980674,1023
3068.508509366309,1022
3070.219157434767,1003
3071.9295063182844,1047
3073.639556331785,1003
3075.3493077902704,1013
3077.058761008821,1014
3078.7679163025964,1048
3080.476773986837,1018
3082.1853343768594,1017
3083.89359778806,1002
3085.6015645359153,1056
3087.3092349359786,1049
3089.016609303884,1037
3090.7236879553434,1051
3092.4304712061476,1027
3094.136959372166,1014
3095.843152769349,1014
3097.5490517137237,1077
3099.2546565213966,1044
3100.959967508554,1031
3102.66498499146,1026
3104.3697092864577,1042
3106.0741407099695,1058
3107.778279578498,1028
3109.482126208622,1023
3111.1856809170004,1041
3112.8889440203716,1010
3114.5919158355528,1006
3116.294596679439,1094
3117.996986869006,1040
3119.6990867213062,1016
3121.4008965534726,1024
3123.102416682717,1062
3124.803647426329,1015
3126.5045891016784,1054
3128.205242026213,1053
3129.90560651746,1011
3131.605682893025,1072
3133.3054714705922,1022
3135.0049725679282,969
3136.7041865028714,1073
3138.4031135933465,1008
3140.101754157353,1035
3141.800108512971,1000
3143.498176978357,1036
3145.1959598717494,1011
3146.8934575114636,1016
3148.5906702158954,1012
3150.2875983035183,996
3151.9842420928853,1016
3153.680601902627,1060
3155.376678051456,1072
3157.07247085816,1031
3158.767980641609,1002
3160.463207720748,1023
3162.158152414606,1057
3163.8528150422862,1053
3165.5471959229726,1035
3167.2412953759303,1010
3168.9351137204976,989
3170.628651276098,1003
3172.3219083622307,1058
3174.014885298474,1080
3175.707582404485,1048
3177.4000000000005,1064
3179.092138404835,1009
3180.7839979388846,996
3182.47557892212,1050
3184.166881674594,1066
3185.8579065164386,1030
3187.5486537678626,1021
3189.2391237491547,1005
3190.9293167806827,1038
3192.6192331828934,1050
3194.3088732763117,1001
3195.998237381542,1013
3197.687325819268,993
3199.376138910251,1013
3201.064676975334,1013
3202.7529403354347,1028
3204.4409293115523,1001
3206.1286442247647,978
3207.816085396229,1025
3209.5032531471825,994
3211.190147798936,1024
3212.8767696728846,1017
3214.5631190905015,1013
3216.2491963733373,1044
3217.9350018430214,1007
3219.6205358212637,1020
3221.305798629851,1038
3222.990790590651,1058
3224.6755120256103,1007
3226.359963256751,1016
3228.0441446061795,1007
3229.7280563960758,1031
3231.411698948703,1053
3233.0950725863995,1027
3234.778177631587,996
3236.461014406761,1004
3238.1435832345005,1022
3239.8258844374595,1070
3241.507918338374,1049
3243.1896852600576,1057
3244.8711855254023,1015
3246.552419457381,1007
3248.233387379042,1028
3249.914089613516,981
3251.59452648401,1042
3253.274698313813,1021
3254.95460542629,1045
3256.6342481448855,995
3258.313626793125,1005
3259.9927416946084,1003
3261.6715931730196,1024
3263.3501815521176,989
3265.0285071557437,1003
3266.706570307815,969
3268.3843713323286,1034
3270.0619105533615,1031
3271.739188295068,1008
3273.4162048816834,991
3275.0929606375184,998
3276.769455886966,1023
3278.445690954498,1027
3280.1216661646613,1029
3281.797381842087,995
3283.4728383114807,1059
3285.1480358976296,1027
3286.8229749253996,1002
3288.4976557197333,1028
3290.172078605655,989
3291.846243908266,1001
3293.5201519527463,1041
3295.193803064357,1009
3296.8671975684374,1022
3298.5403357904024,1006
3300.21321805575,974
3301.8858446900567,1030
3303.558216018975,1015
3305.23033236824,997
3306.9021940636603,1008
3308.57380143113,1026
3310.2451547966184,1050
3311.916254486174,983
3313.5871008259246,1043
3315.2576941420766,991
3316.9280347609147,983
3318.5981230088046,1029
3320.2679592121895,1006
3321.9375436975924,1019
3323.606876791612,978
3325.27595882093,1008
3326.944790112305,974
3328.6133709925753,958
3330.2817017886573,990
3331.949782827547,1019
3333.617614436319,1013
3335.2851969421245,1037
3336.952530672199,1017
3338.619615953853,1002
3340.286453114475,1044
3341.9530424815357,1080
3343.619384382583,1053
3345.2854791452437,1033
3346.951327097224,997
3348.6169285663073,1051
3350.2822838803577,1013
3351.947393367319,1041
3353.61225735521,1011
3355.2768761721345,1012
3356.9412501462693,1024
3358.605379605873,1066
3360.2692648792827,1001
3361.9329062949146,1046
3363.596304181263,1030
