CollectionTime,6/28/2024 1:43:56 PM
ExposureUsed,3
CalibratedSpectrum
-962.7078968117929,544
-959.9714848408522,562
-957.2358232597828,566
-954.5009119013725,553
-951.7667505983302,583
-949.0333391832855,576
-946.3006774887896,556
-943.5687653473143,553
-940.837602591253,570
-938.1071890529199,563
-935.3775245645503,593
-932.6486089583007,580
-929.9204420662485,582
-927.1930237203925,576
-924.4663537526524,557
-921.7404319948689,562
-919.0152582788041,561
-916.2908324361409,592
-913.5671542984834,600
-910.8442236973568,571
-908.1220404642074,574
-905.4006044304027,542
-902.679915427231,559
-899.959973285902,577
-897.2407778375464,575
-894.5223289132158,546
-891.8046263438832,538
-889.0876699604426,551
-886.3714595937089,535
-883.6559950744183,550
-880.9412762332282,556
-878.2273029007168,549
-875.5140749073835,549
-872.8015920836489,525
-870.0898542598545,547
-867.3788612662631,526
-864.6686129330585,533
-861.9591090903457,539
-859.2503495681506,537
-856.5423341964203,568
-853.8350628050229,545
-851.1285352237478,547
-848.4227512823054,538
-845.7177108103272,554
-843.0134136373656,548
-840.3098595928943,563
-837.6070485063082,561
-834.9049802069229,548
-832.2036545239757,558
-829.5030712866244,553
-826.8032303239481,552
-824.1041314649472,541
-821.4057745385428,575
-818.7081593735775,541
-816.0112857988148,538
-813.3151536429393,545
-810.6197627345566,546
-807.9251129021936,536
-805.2312039742981,576
-802.5380357792392,566
-799.8456081453069,546
-797.1539209007124,519
-794.462973873588,541
-791.772766891987,543
-789.083299783884,543
-786.3945723771743,549
-783.7065844996748,560
-781.0193359791231,558
-778.3328266431781,523
-775.6470563194197,572
-772.9620248353489,520
-770.2777320183878,585
-767.5941776958798,546
-764.9113616950891,551
-762.2292838432011,545
-759.5479439673222,541
-756.8673418944801,559
-754.1874774516235,520
-751.5083504656222,557
-748.8299607632671,606
-746.15230817127,566
-743.475392516264,579
-740.7992136248035,582
-738.1237713233636,548
-735.4490654383407,568
-732.7750957960521,591
-730.1018622227365,600
-727.4293645445534,551
-724.7576025875837,601
-722.0865761778291,554
-719.4162851412126,581
-716.7467293035781,582
-714.0779084906909,636
-711.409822528237,608
-708.7424712418238,582
-706.0758544569796,589
-703.4099719991541,568
-700.7448236937178,608
-698.0804093659622,614
-695.4167288411002,635
-692.7537819442656,589
-690.0915685005134,600
-687.4300883348199,594
-684.7693412720819,617
-682.1093271371178,613
-679.4500457546669,624
-676.7914969493897,600
-674.1336805458676,618
-671.4765963686034,628
-668.8202442420206,630
-666.1646239904642,631
-663.5097354382001,639
-660.8555784094151,603
-658.2021527282176,642
-655.5494582186366,627
-652.8974947046223,638
-650.2462620100463,624
-647.5957599587009,629
-644.9459883742998,644
-642.2969470804776,632
-639.6486359007902,660
-637.0010546587141,625
-634.3542031776476,626
-631.7080812809096,643
-629.0626887917401,666
-626.4180255333008,631
-623.7740913286734,676
-621.1308860008619,637
-618.4884093727904,634
-615.8466612673046,622
-613.2056415071715,595
-610.5653499150785,642
-607.9257863136347,624
-605.28695052537,617
-602.6488423727357,648
-600.0114616781036,645
-597.3748082637674,628
-594.7388819519412,646
-592.1036825647604,653
-589.4692099242818,638
-586.8354638524829,641
-584.2024441712624,654
-581.5701507024403,638
-578.9385832677575,668
-576.3077416888759,650
-573.6776257873787,625
-571.0482353847704,650
-568.4195703024757,646
-565.7916303618415,655
-563.164415384135,717
-560.5379251905453,661
-557.9121596021815,669
-555.2871184400748,683
-552.6628015251767,669
-550.0392086783606,661
-547.4163397204204,666
-544.794194472071,692
-542.1727727539491,669
-539.5520743866118,657
-536.9320991905377,715
-534.3128469861261,698
-531.6943175936979,708
-529.0765108334947,741
-526.4594265256793,833
-523.8430644903358,879
-521.2274245474689,955
-518.612506517005,1070
-515.9983102187913,1163
-513.3848354725959,1235
-510.77208209810846,1389
-508.16004991493924,1349
-505.5487387426199,1400
-502.9381484006032,1498
-500.3282787082628,1490
-497.71912948489364,1458
-495.1107005497117,1390
-492.5029917218539,1173
-489.8960028203786,1067
-487.28973366426493,976
-484.68418407241325,904
-482.07935386364494,862
-479.47524285670266,806
-476.87185087025,829
-474.2691777228715,818
-471.66722323307334,811
-469.0659872192821,785
-466.4654694998459,849
-463.86566989303384,788
-461.26658821703614,748
-458.66822428996414,787
-456.07057792985,763
-453.4736489546475,826
-450.877437182231,809
-448.28194243039627,813
-445.68716451686,794
-443.09310325926003,770
-440.49975847515555,769
-437.9071299820263,775
-435.31521759727354,802
-432.72402113821954,820
-430.13354042210767,816
-427.5437752661022,819
-424.95472548728867,807
-422.36639090267386,809
-419.7787713291855,793
-417.1918665836721,862
-414.60567648290385,837
-412.0202008435715,866
-409.4354394822874,820
-406.8513922155845,806
-404.26805885991723,864
-401.685439231661,841
-399.103533147112,879
-396.522340422488,847
-393.9418608739278,833
-391.3620943174908,809
-388.7830405691583,792
-386.2046994448317,800
-383.6270707603344,750
-381.05015433141045,656
-378.473949973725,661
-375.8984575028645,663
-373.32367673433623,594
-370.74960748356875,557
-368.1762495659117,541
-365.60360279663576,507
-363.03166699093265,475
-360.4604419639154,500
-357.8899275306178,454
-355.32012350599507,474
-352.7510297049233,438
-350.1826459421999,494
-347.61497203254316,434
-345.04800779059235,441
-342.4817530309082,443
-339.91620756797226,458
-337.35137121618743,426
-334.7872437898774,421
-332.22382510328725,422
-329.66111497058273,442
-327.09911320585127,450
-324.53781962310075,456
-321.9772340362607,449
-319.4173562591816,437
-316.8581861056348,490
-314.2997233893127,484
-311.7419679238294,501
-309.1849195227194,492
-306.62857799943856,470
-304.0729431673641,484
-301.51801483979375,454
-298.963792829947,434
-296.41027695096386,463
-293.85746701590574,480
-291.3053628377552,542
-288.7539642294155,487
-286.2032710037115,479
-283.65328297338897,498
-281.1039999511146,498
-278.5554217494762,505
-276.007548180983,555
-273.4603790580651,507
-270.9139141930734,519
-268.3681533982807,536
-265.8230964858798,548
-263.27874326798565,569
-260.7350935566336,559
-258.1921471637804,568
-255.6499039013039,547
-253.10836358100266,525
-250.56752601459698,544
-248.02739101372765,565
-245.48795838995704,577
-242.94922795476816,598
-240.41119951956557,609
-237.8738728956746,616
-235.33724789434166,646
-232.80132432673452,679
-230.2661020039418,707
-227.73158073697357,615
-225.19776033676033,591
-222.66464061415422,603
-220.1322213799284,620
-217.60050244477725,585
-215.06948361931552,618
-212.53916471408013,565
-210.00954553952818,593
-207.48062590603843,637
-204.9524056239104,649
-202.4248845033651,621
-199.8980623545441,658
-197.37193898751036,600
-194.84651421224817,621
-192.32178783866232,658
-189.79775967657952,660
-187.27442953574644,643
-184.7517972258321,666
-182.2298625564256,683
-179.7086253370378,620
-177.18808537710026,620
-174.66824248596583,669
-172.14909647290835,712
-169.6306471471229,719
-167.11289431772548,671
-164.59583779375328,642
-162.07947738416453,674
-159.5638128978386,702
-157.04884414357605,730
-154.53457093009854,772
-152.02099306604828,844
-149.50811035998936,793
-146.99592262040665,798
-144.48442965570587,840
-141.97363127421409,804
-139.46352728417958,783
-136.95411749377126,773
-134.44540171107985,848
-131.93737974411636,786
-129.43005140081357,723
-126.92341648902493,797
-124.41747481652521,869
-121.91222619101006,875
-119.40767042009657,803
-116.90380731132257,830
-114.40063667214702,780
-111.8981583099503,891
-109.3963720320337,1022
-106.89527764561933,1062
-104.39487495785067,1127
-101.89516377579241,1032
-99.39614390642998,1113
-96.89781515667039,1153
-94.40017733334128,1156
-91.90323024319173,1173
-89.40697369289148,1063
-86.91140748903172,1179
-84.41653143812482,1143
-81.92234534660395,1121
-79.42884902082358,1337
-76.93604226705907,1498
-74.4439248915071,1310
-71.95249670028534,1161
-69.46175749943245,1307
-66.97170709490854,1586
-64.48234529259423,1841
-61.99367189829195,1438
-59.50568671772464,1456
-57.01838955653636,1602
-54.53178022029283,1856
-52.045858514480074,1896
-49.560624244506016,2054
-47.07607721569923,2037
-44.59221723330904,1831
-42.10904410250669,1989
-39.62655762838392,2515
-37.14475761595372,3123
-34.66364387015028,3217
-32.18321619582866,3872
-29.70347439776515,4541
-27.224418280657005,5921
-24.74604764912317,8437
-22.26836230770266,14728
-19.7913620608565,25116
-17.315046712966478,32514
-14.83941606833514,33329
-12.36446993118659,65030
-9.89020810566592,65030
-7.416630395839093,65030
-4.94373660569363,65030
-2.471526539137585,65030
-6.821210263296962E-13,65030
2.47084320796705,65030
4.941003281093458,65030
7.410480415786196,65030
9.879274808531363,65030
12.347386655893956,65030
14.814816154518212,65030
17.28156350112681,65030
19.74762889252179,65030
22.21301252558385,31548
24.67771459727237,9064
27.141735304626195,5629
29.605074844762612,4720
32.06773341487792,4898
34.52971121224755,5127
36.99100843422559,4412
39.45162527824516,4719
41.91156194181792,5437
44.370818622535126,7907
46.82939551806646,10252
49.287292826160524,9623
51.74451074464503,9307
54.201049471426245,7474
56.65690920448981,4716
59.112090141899785,3459
61.56659248179983,3285
64.02041642241159,2581
66.4735621620365,2060
68.92602989905402,1767
71.37781983192338,1604
73.82893215918205,1565
76.27936707944684,1493
78.72912479141326,1754
81.17820549385567,1961
83.62660938562783,1684
86.07433666566146,1460
88.5213875329681,1516
90.96776218663751,1559
93.41346082583925,1284
95.85848364982041,1150
98.30283085790859,1137
100.7465026495089,1160
103.18949922410604,1273
105.63182078126385,1307
108.07346752062438,1098
110.51443964190923,1079
112.95473734491827,1084
115.39436082953114,962
117.83331029570547,1061
120.27158594347827,1121
122.7091879729652,890
125.1461165843615,909
127.58237197794062,855
130.01795435405518,882
132.4528639131364,966
134.88710085569494,975
137.32066538231982,955
139.75355769367923,1049
142.1857779905207,1040
144.61732647366978,961
147.04820334403132,1020
149.47840880258934,1003
151.90794305040674,1102
154.33680628862487,1143
156.76499871846443,1249
159.19252054122433,1327
161.61937195828352,1342
164.04555317109896,1414
166.47106438120693,1480
168.89590579022217,1653
171.320077599839,1648
173.7435800118302,1793
176.16641322804742,1699
178.58857745042144,1742
181.01007288096173,1779
183.43089972175687,1894
185.85105817497413,1880
188.27054844285988,1883
190.6893707277394,1842
193.10752523201643,1880
195.5250121581745,1966
197.9418317087751,2007
200.3579840864594,1922
202.7734694939469,1922
205.18828813403627,1943
207.6024402096051,1951
210.01592592360964,2030
212.42874547908548,2041
214.84089907914665,1979
217.2523869269868,1976
219.66320922587727,1953
222.0733661791695,2019
224.48285799029293,2088
226.8916848627572,2209
229.29984700014882,2187
231.7073446061355,2192
234.11417788446204,2179
236.520347038953,2242
238.92585227351185,2310
241.33069379212054,2373
243.73487179884035,2412
246.1383864978112,2431
248.541238093252,2305
250.9434267894609,2381
253.34495279081432,2357
255.74581630176783,2528
258.1460175268563,2500
260.54555667069314,2509
262.9444339379703,2509
265.3426495334594,2473
267.7402036620107,2388
270.1370965285529,2243
272.53332833809407,2215
274.9288992957214,2121
277.32380960660055,2101
279.718059475976,2142
282.1116491091717,2041
284.5045787115897,2038
286.89684848871195,2010
289.2884586460981,1981
291.67940938938807,2074
294.0697009242996,2050
296.4593334566299,2074
298.84830719225477,2057
301.23662233712923,2037
303.6242790972866,2113
306.01127767884,1963
308.39761828798066,1886
310.78330113097934,1912
313.16832641418534,1960
315.5526943440269,1906
317.9364051270112,1811
320.3194589697242,1800
322.70185607883093,1835
325.0835966610754,1903
327.4646809232805,1862
329.8451090723478,1829
332.2248813152577,1793
334.6039978590701,1691
336.9824589109231,1741
339.36026467803447,1707
341.7374153677,1747
344.113911187295,1680
346.48975234427337,1709
348.8649390461686,1715
351.2394715005918,1733
353.61334991523415,1652
355.9865744978655,1723
358.35914545633375,1770
360.73106299856715,1718
363.10232733257146,1678
365.47293866643247,1653
367.84289720831396,1657
370.2122031664593,1644
372.5808567491905,1636
374.9488581649083,1668
377.31620762209275,1648
379.6829053293021,1630
382.0489514951745,1581
384.4143463284262,1571
386.7790900378528,1620
389.14318283232853,1578
391.50662492080653,1616
393.86941651231916,1609
396.23155781597745,1604
398.5930490409713,1587
400.9538903965696,1570
403.3140820921202,1537
405.6736243370498,1550
408.03251734086336,1556
410.3907613131465,1615
412.74835646356166,1528
415.10530300185144,1530
417.4616011378372,1596
419.81725108141893,1549
422.1722530425758,1556
424.5266072313656,1531
426.880313857925,1562
429.2333731324701,1554
431.58578526529516,1532
433.9375504667738,1561
436.2886689473588,1585
438.63914091758113,1520
440.9889665880513,1538
443.33814616945835,1538
445.68667987257015,1532
448.03456790823395,1505
450.3818104873759,1450
452.72840782100013,1561
455.07436012019105,1528
457.41966759611057,1459
459.7643304600007,1484
462.10834892318155,1458
464.4517231970525,1558
466.79445349309174,1555
469.1365400228566,1518
471.4779829979826,1536
473.81878263018564,1513
476.15893913125876,1509
478.4984527130747,1569
480.8373235875855,1538
483.17555196682144,1587
485.5131380628919,1648
487.8500820879857,1630
490.1863842543697,1760
492.52204477439034,1844
494.8570638604725,1930
497.1914417251204,2101
499.52517858091653,2308
501.85827464052306,2552
504.19073011668036,2799
506.5225452222086,2766
508.85372017000566,2919
511.18425517304956,2834
513.514150444396,3000
515.8434061971808,3253
518.1720226446176,3423
520.4999999999999,3620
522.8273384766991,3767
525.1540382881666,3855
527.480099647932,3600
529.8055227696037,2824
532.1303078668694,2047
534.454455153496,1735
536.777964843328,1611
539.1008371502907,1539
541.4230722883866,1551
543.744670471698,1454
546.0656319143858,1495
548.3859568306899,1441
550.7056454349294,1464
553.0246979415016,1445
555.3431145648834,1423
557.6608955196306,1385
559.978041020377,1402
562.2945512818363,1381
564.6104265188006,1385
566.9256669461412,1386
569.2402727788082,1386
571.5542442318302,1437
573.8675815203156,1357
576.1802848594508,1401
578.4923544645015,1364
580.8037905508126,1444
583.114593333807,1348
585.4247630289875,1404
587.7342998519354,1416
590.0432040183106,1466
592.3514757438526,1386
594.6591152443794,1342
596.9661227357875,1291
599.2724984340531,1460
601.578242555231,1407
603.8833553154542,1373
606.1878369309362,1435
608.4916876179676,1369
610.7949075929192,1473
613.0974970722403,1454
615.3994562724587,1472
617.7007854101818,1434
620.0014847020951,1414
622.3015543649641,1404
624.6009946156324,1442
626.8998056710224,1455
629.1979877481361,1420
631.4955410640538,1413
633.7924658359349,1385
636.0887622810175,1423
638.3844306166192,1452
640.6794710601358,1423
642.9738838290426,1424
645.2676691408932,1421
647.5608272133207,1424
649.853358264037,1448
652.1452625108324,1441
654.4365401715764,1501
656.7271914642178,1484
659.0172166067838,1479
661.3066158173809,1482
663.5953893141935,1463
665.8835373154867,1484
668.1710600396028,1460
670.4579577049639,1480
672.7442305300709,1426
675.0298787335033,1467
677.3149025339197,1422
679.599302150058,1439
681.8830778007342,1455
684.1662297048437,1474
686.4487580813608,1532
688.7306631493387,1484
691.0119451279091,1418
693.2926042362834,1514
695.5726406937516,1526
697.8520547196814,1493
700.1308465335215,1470
702.4090163547982,1478
704.6865644031171,1475
706.9634908981619,1525
709.2397960596965,1475
711.5154801075631,1442
713.7905432616823,1483
716.0649857420548,1495
718.3388077687592,1421
720.612009561953,1451
722.8845913418733,1463
725.1565533288352,1452
727.427895743234,1420
729.6986188055427,1420
731.9687227363137,1421
734.238207756178,1507
736.5070740858458,1458
738.7753219461066,1414
741.0429515578281,1410
743.3099631419569,1406
745.5763569195191,1461
747.8421331116193,1406
750.1072919394409,1431
752.3718336242467,1434
754.6357583873777,1452
756.8990664502545,1444
759.1617580343765,1475
761.423833361321,1416
763.6852926527457,1518
765.9461361303862,1463
768.206364016058,1472
770.4659765316536,1481
772.7249738991469,1421
774.9833563405886,1478
777.2411240781092,1445
779.4982773339183,1473
781.7548163303044,1490
784.010741289634,1474
786.2660524343538,1575
788.5207499869881,1481
790.7748341701416,1511
793.0283052064964,1550
795.2811633188143,1467
797.5334087299362,1523
799.7850416627813,1533
802.0360623403484,1469
804.2864709857143,1448
806.5362678220353,1467
808.7854530725468,1501
811.0340269605625,1454
813.2819897094754,1486
815.5293415427581,1483
817.77608268396,1473
820.0222133567116,1506
822.2677337847211,1490
824.5126441917765,1424
826.7569448017433,1497
829.0006358385675,1488
831.2437175262731,1456
833.4861900889629,1547
835.7280537508192,1495
837.9693087361026,1472
840.2099552691533,1457
842.4499935743896,1535
844.689423876309,1484
846.9282463994886,1482
849.1664613685833,1458
851.4040690083276,1525
853.6410695435349,1426
855.877463199097,1478
858.1132501999847,1463
860.3484307712487,1483
862.5830051380175,1496
864.8169735254988,1494
867.0503361589791,1488
869.2830932638243,1512
871.5152450654786,1479
873.7467917894654,1481
875.9777336613873,1483
878.2080709069252,1490
880.4378037518389,1533
882.666932421968,1513
884.8954571432301,1498
887.1233781416219,1495
889.3506956432192,1522
891.5774098741766,1487
893.803521060728,1524
896.0290294291852,1493
898.2539352059397,1528
900.4782386174619,1530
902.7019398903011,1483
904.925039251085,1545
907.147536926521,1506
909.3694331433943,1504
911.59072812857,1486
913.8114221089921,1475
916.0315153116827,1491
918.2510079637437,1449
920.4699002923547,1489
922.6881925247761,1497
924.905884888345,1535
927.1229776104793,1516
929.3394709186747,1515
931.555365040506,1482
933.7706602036275,1501
935.9853566357709,1520
938.1994545647489,1531
940.4129542184515,1514
942.6258558248488,1519
944.8381596119883,1498
947.0498658079974,1521
949.2609746410825,1514
951.4714863395287,1524
953.6814011316998,1481
955.8907192460387,1497
958.0994409110671,1483
960.3075663553858,1424
962.5150958076741,1466
964.7220294966913,1511
966.928367651274,1443
969.1341105003388,1396
971.3392582728806,1485
973.5438111979742,1514
975.747769504772,1463
977.9511334225061,1420
980.153903180487,1419
982.3560790081052,1491
984.5576611348289,1440
986.7586497902058,1487
988.9590452038618,1386
991.158847605503,1355
993.3580572249133,1407
995.5566742919558,1361
997.7546990365728,1362
999.952131688785,1297
1002.1489724786926,1346
1004.3452216364743,1300
1006.5408793923874,1256
1008.7359459767691,1321
1010.9304216200343,1238
1013.1243065526781,1312
1015.3176010052733,1234
1017.510305208472,1254
1019.7024193930064,1271
1021.8939437896848,1222
1024.0848786293977,1186
1026.2752241431122,1259
1028.4649805618747,1272
1030.6541481168115,1225
1032.842727039127,1227
1035.0307175601051,1245
1037.2181199111074,1230
1039.4049343235752,1185
1041.591161029029,1200
1043.7768002590683,1223
1045.9618522453698,1266
1048.1463172196918,1313
1050.3301954138697,1272
1052.513487059818,1257
1054.69619238953,1171
1056.8783116350783,1167
1059.0598450286152,1234
1061.2407928023704,1162
1063.4211551886528,1195
1065.6009324198508,1205
1067.780124728432,1239
1069.9587323469414,1200
1072.1367555080046,1218
1074.314194444325,1180
1076.4910493886855,1216
1078.667320573947,1146
1080.843008233051,1221
1083.0181125990161,1237
1085.1926339049414,1149
1087.3665723840027,1168
1089.5399282694575,1155
1091.7127017946405,1168
1093.8848931929647,1195
1096.0565026979243,1198
1098.2275305430899,1205
1100.3979769621128,1146
1102.567842188722,1149
1104.737126456726,1174
1106.9058300000124,1166
1109.0739530525475,1166
1111.2414958483764,1148
1113.4084586216231,1105
1115.5748416064907,1111
1117.7406450372605,1207
1119.9058691482942,1128
1122.0705141740304,1121
1124.2345803489884,1100
1126.3980679077658,1138
1128.5609770850388,1114
1130.7233081155623,1096
1132.8850612341707,1159
1135.0462366757774,1157
1137.2068346753745,1107
1139.3668554680326,1114
1141.526299288901,1095
1143.68516637321,1131
1145.8434569562655,1134
1148.001171273455,1148
1150.158309560244,1120
1152.3148720521767,1158
1154.470858984876,1131
1156.626270594044,1152
1158.7811071154629,1153
1160.9353687849912,1165
1163.089055838569,1108
1165.242168512213,1160
1167.3947070420209,1167
1169.5466716641677,1110
1171.6980626149075,1145
1173.8488801305748,1130
1175.9991244475814,1106
1178.1487958024186,1167
1180.2978944316555,1156
1182.4464205719428,1106
1184.5943744600072,1107
1186.7417563326567,1142
1188.8885664267755,1131
1191.0348049793297,1116
1193.1804722273619,1096
1195.325568407995,1090
1197.4700937584303,1155
1199.614048515948,1153
1201.7574329179074,1133
1203.900247201746,1156
1206.042491604982,1119
1208.1841663652099,1141
1210.3252717201053,1143
1212.465807907422,1120
1214.6057751649923,1116
1216.7451737307279,1141
1218.8840038426192,1118
1221.0222657387353,1096
1223.1599596572241,1087
1225.2970858363137,1112
1227.4336445143094,1135
1229.5696359295966,1128
1231.705060320639,1190
1233.8399179259786,1185
1235.9742089842384,1150
1238.107933734118,1203
1240.2410924143974,1154
1242.373685263935,1161
1244.5057125216676,1159
1246.6371744266116,1194
1248.7680712178621,1141
1250.898403134593,1204
1253.028170416058,1172
1255.1573733015875,1167
1257.2860120305932,1168
1259.4140868425648,1191
1261.54159797707,1158
1263.6685456737569,1229
1265.7949301723515,1180
1267.9207517126597,1126
1270.046010534565,1213
1272.1707068780306,1216
1274.2948409830983,1196
1276.4184130898889,1198
1278.541423438603,1232
1280.6638722695184,1225
1282.785759822993,1216
1284.9070863394636,1229
1287.0278520594447,1230
1289.1480572235314,1246
1291.2677020723963,1272
1293.3867868467923,1201
1295.5053117875495,1320
1297.623277135579,1240
1299.740683131868,1275
1301.8575300174857,1276
1303.973818033578,1280
1306.0895474213703,1283
1308.2047184221678,1338
1310.3193312773528,1298
1312.4333862283888,1275
1314.5468835168163,1301
1316.659823384255,1307
1318.7722060724045,1325
1320.8840318230418,1326
1322.9953008780249,1322
1325.1060134792888,1339
1327.2161698688478,1323
1329.3257702887959,1348
1331.4348149813054,1399
1333.5433041886276,1345
1335.6512381530933,1317
1337.7586171171101,1321
1339.8654413231675,1344
1341.9717110138317,1272
1344.0774264317488,1348
1346.1825878196432,1280
1348.2871954203192,1264
1350.3912494766587,1301
1352.4947502316231,1305
1354.5976979282532,1271
1356.7000928096686,1261
1358.8019351190665,1291
1360.9032250997243,1237
1363.0039629949988,1243
1365.1041490483235,1264
1367.2037835032133,1286
1369.3028666032606,1297
1371.401398592137,1258
1373.4993797135926,1298
1375.5968102114575,1187
1377.6936903296396,1275
1379.7900203121262,1265
1381.8858004029835,1286
1383.9810308463561,1223
1386.075711886469,1230
1388.1698437676241,1285
1390.2634267342032,1273
1392.356461030667,1241
1394.4489469015557,1301
1396.5408845914872,1284
1398.6322743451592,1302
1400.7231164073469,1260
1402.813411022907,1311
1404.903158436773,1315
1406.9923588939578,1236
1409.0810126395531,1272
1411.1691199187303,1273
1413.2566809767386,1272
1415.343696058907,1315
1417.4301654106425,1316
1419.5160892774315,1267
1421.6014679048399,1260
1423.6863015385125,1288
1425.7705904241707,1302
1427.8543348076178,1269
1429.9375349347342,1318
1432.0201910514802,1391
1434.102303403894,1309
1436.1838722380944,1370
1438.2648978002767,1292
1440.3453803367174,1391
1442.4253200937692,1354
1444.5047173178677,1358
1446.5835722555234,1329
1448.6618851533285,1465
1450.739656257952,1452
1452.8168858161434,1461
1454.8935740747306,1509
1456.96972128062,1376
1459.045327680797,1449
1461.120393522327,1453
1463.1949190523528,1493
1465.2689045180973,1559
1467.3423501668608,1520
1469.415256246024,1501
1471.4876230030463,1590
1473.559450685465,1564
1475.6307395408976,1563
1477.7014898170391,1600
1479.771701761665,1581
1481.8413756226287,1614
1483.9105116478618,1679
1485.9791100853772,1645
1488.0471711832643,1643
1490.1146951896926,1735
1492.1816823529098,1668
1494.2481329212433,1679
1496.3140471430984,1754
1498.3794252669609,1776
1500.4442675413939,1741
1502.5085742150404,1729
1504.572345536622,1759
1506.6355817549388,1752
1508.6982831188702,1703
1510.7604498773744,1763
1512.8220822794883,1822
1514.8831805743293,1806
1516.9437450110909,1796
1519.003775839048,1796
1521.0632733075522,1806
1523.1222376660367,1850
1525.1806691640113,1867
1527.2385680510652,1861
1529.2959345768668,1760
1531.3527689911643,1904
1533.4090715437833,1935
1535.4648424846291,1868
1537.5200820636855,1870
1539.5747905310159,1946
1541.6289681367616,1898
1543.6826151311434,1937
1545.7357317644614,1969
1547.7883182870937,1978
1549.8403749494987,2033
1551.8919020022113,2031
1553.9428996958477,2081
1555.9933682811015,2082
1558.0433080087469,2130
1560.0927191296346,2247
1562.1416018946961,2183
1564.1899565549415,2253
1566.2377833614592,2210
1568.2850825654164,2221
1570.3318544180606,2219
1572.3780991707158,2268
1574.423817074788,2193
1576.4690083817595,2170
1578.5136733431923,2124
1580.5578122107272,2030
1582.601425236085,1876
1584.6445126710646,1883
1586.6870747675434,1844
1588.7291117774776,1792
1590.7706239529034,1731
1592.8116115459347,1731
1594.8520748087658,1671
1596.8920139936686,1631
1598.9314293529933,1579
1600.9703211391711,1517
1603.008689604711,1512
1605.0465350022005,1496
1607.0838575843068,1413
1609.1206576037753,1420
1611.1569353134305,1411
1613.1926909661765,1421
1615.2279248149953,1386
1617.2626371129481,1351
1619.2968281131757,1278
1621.3304980688963,1290
1623.3636472334088,1233
1625.39627586009,1254
1627.428384202396,1273
1629.459972513861,1234
1631.4910410480993,1255
1633.5215900588028,1257
1635.551619799744,1206
1637.5811305247717,1213
1639.6101224878166,1227
1641.6385959428862,1172
1643.6665511440683,1206
1645.693988345528,1220
1647.7209078015112,1181
1649.7473097663405,1123
1651.7731944944203,1169
1653.7985622402307,1177
1655.823413258333,1173
1657.847747803366,1122
1659.8715661300494,1207
1661.8948684931793,1106
1663.9176551476316,1155
1665.9399263483624,1125
1667.9616823504057,1130
1669.982923408873,1152
1672.0036497789574,1134
1674.0238617159293,1175
1676.043559475138,1153
1678.0627433120121,1143
1680.081413482059,1141
1682.0995702408654,1181
1684.117213844096,1198
1686.134344547495,1120
1688.1509626068864,1107
1690.1670682781705,1130
1692.182661817329,1113
1694.1977434804217,1091
1696.2123135235875,1147
1698.226372203043,1180
1700.2399197750851,1149
1702.2529564960905,1187
1704.2654826225112,1158
1706.277498410882,1123
1708.2890041178139,1174
1710.2999999999988,1184
1712.3104863142066,1154
1714.3204633172854,1145
1716.329931266163,1080
1718.3388904178469,1114
1720.3473410294214,1079
1722.3552833580516,1107
1724.3627176609807,1086
1726.3696441955308,1065
1728.3760632191033,1164
1730.3819749891782,1144
1732.3873797633146,1125
1734.3922777991502,1103
1736.3966693544012,1096
1738.4005546868639,1059
1740.4039340544127,1124
1742.406807715001,1119
1744.4091759266616,1089
1746.4110389475054,1154
1748.4123970357223,1109
1750.413250449582,1104
1752.4135994474318,1067
1754.4134442876993,1125
1756.4127852288902,1066
1758.4116225295893,1098
1760.4099564484595,1085
1762.407787244244,1091
1764.405115175764,1052
1766.4019405019203,1108
1768.3982634816916,1082
1770.3940843741357,1100
1772.3894034383907,1131
1774.3842209336717,1090
1776.378537119274,1052
1778.372352254571,1018
1780.3656665990156,1124
1782.3584804121397,1107
1784.3507939535534,1045
1786.3426074829463,1095
1788.3339212600863,1070
1790.3247355448211,1061
1792.3150505970766,1059
1794.3048666768573,1019
1796.2941840442477,1089
1798.2830029594106,1111
1800.2713236825884,1084
1802.2591464741004,1114
1804.2464715943465,1054
1806.2332993038058,1064
1808.2196298630352,1074
1810.2054635326708,1032
1812.190800573428,1091
1814.175641246101,1078
1816.1599858115628,1043
1818.1438345307652,1097
1820.127187664738,1018
1822.1100454745924,1088
1824.092408221516,1069
1826.0742761667766,998
1828.055649571721,1071
1830.0365286977735,1087
1832.0169138064398,1072
1833.9968051593014,1042
1835.9762030180214,1067
1837.9551076443408,1055
1839.9335193000788,1069
1841.9114382471344,1066
1843.888864747485,1074
1845.8657990631878,1026
1847.842241456378,1028
1849.8181921892697,1038
1851.7936515241558,1065
1853.7686197234098,1057
1855.7430970494815,1047
1857.7170837649014,1034
1859.6905801322787,1078
1861.6635864143004,1069
1863.6361028737338,1018
1865.608129773424,1042
1867.5796673762961,1022
1869.5507159453537,1080
1871.521275743678,1104
1873.4913470344313,1077
1875.4609300808534,1065
1877.4300251462632,1068
1879.3986324940588,1085
1881.366752387717,1084
1883.3343850907936,1046
1885.3015308669228,1017
1887.268189979819,1055
1889.2343626932739,1017
1891.2000492711595,1077
1893.1652499774254,1077
1895.1299650761011,1085
1897.0941948312952,1086
1899.0579395071945,1052
1901.0211993680641,1148
1902.98397467825,1088
1904.9462657021745,1066
1906.9080727043415,1054
1908.869395949332,1064
1910.8302357018065,1103
1912.790592226504,1104
1914.7504657882428,1108
1916.7098566519212,1095
1918.6687650825133,1129
1920.6271913450764,1063
1922.5851357047422,1090
1924.5425984267245,1073
1926.499579776314,1094
1928.4560800188833,1094
1930.4120994198802,1102
1932.367638244833,1039
1934.32269675935,1037
1936.2772752291175,1049
1938.231373919899,1091
1940.1849930975404,1066
1942.1381330279637,1052
1944.0907939771696,1045
1946.0429762112412,1117
1947.9946799963363,1031
1949.9459055986945,1082
1951.896653284633,1081
1953.8469233205478,1102
1955.7967159729142,1039
1957.7460315082863,1076
1959.6948701932974,1042
1961.6432322946594,1125
1963.5911180791632,1104
1965.5385278136787,1052
1967.4854617651545,1026
1969.4319202006182,1027
1971.377903387176,1066
1973.3234115920136,1110
1975.268445082395,1058
1977.2130041256642,1056
1979.1570889892423,1052
1981.1006999406304,1036
1983.04383724741,1079
1984.986501177238,1051
1986.928691997853,1051
1988.8704099770712,1063
1990.811655382789,1072
1992.7524284829801,1058
1994.692729545698,1066
1996.6325588390755,1054
1998.5719166313224,1016
2000.5108031907307,1076
2002.4492187856677,998
2004.387163684583,1032
2006.3246381560011,1017
2008.2616424685298,1058
2010.1981768908527,1043
2012.1342416917332,1023
2014.069837140014,1055
2016.0049635046162,1054
2017.9396210545406,1018
2019.8738100588666,1038
2021.8075307867502,1037
2023.740783507431,1050
2025.6735684902228,992
2027.6058860045214,1039
2029.5377363198004,1015
2031.4691197056118,1009
2033.4000364315875,1024
2035.3304867674374,1034
2037.260470982952,1041
2039.189989347998,1043
2041.1190421325232,983
2043.047629606554,1031
2044.9757520401945,1063
2046.9034097036288,1082
2048.8306028671195,1094
2050.7573318010086,1012
2052.683596775716,1042
2054.609398061742,1031
2056.5347359296647,1050
2058.4596106501403,1071
2060.384022493906,1015
2062.3079717317764,1024
2064.231458634646,1044
2066.1544834734873,1049
2068.077046519352,1054
2069.99914804337,1010
2071.9207883167524,1041
2073.8419676107865,1058
2075.7626861968406,1028
2077.6829443463607,986
2079.6027423308715,1052
2081.522080421977,1050
2083.440958891362,996
2085.359378010786,995
2087.2773380520907,977
2089.194839287196,1022
2091.111881988101,1073
2093.0284664268825,1033
2094.9445928756973,1041
2096.86026160678,1005
2098.775472892446,1032
2100.690227005088,1010
2102.604524217178,985
2104.5183648012676,971
2106.431749029985,1027
2108.34467717604,1072
2110.2571495122206,1098
2112.169166311393,1043
2114.080727846503,1030
2115.9918343905747,1010
2117.902486216711,1030
2119.8126835980956,1034
2121.722426807987,1019
2123.6317161197285,1039
2125.5405518067364,1029
2127.448934142509,989
2129.356863400624,1025
2131.264339854737,1044
2133.1713637785815,1038
2135.077935445972,1018
2136.9840551308002,1086
2138.889723107037,1055
2140.7949396487334,1045
2142.699705030018,1098
2144.6040195250994,1041
2146.507883408264,1067
2148.4112969538774,1033
2150.3142604363848,1071
2152.2167741303097,1056
2154.1188383102535,1031
2156.0204532508997,1030
2157.9216192270064,1044
2159.822336513414,1009
2161.7226053850413,1067
2163.622426116884,1051
2165.5217989840185,1037
2167.4207242616,1031
2169.319202224862,1072
2171.2172331491165,1043
2173.1148173097563,1023
2175.0119549822507,1020
2176.90864644215,1065
2178.8048919650823,1042
2180.7006918267534,1030
2182.596046302952,1011
2184.4909556695407,1052
2186.3854202024645,1069
2188.279440177746,1071
2190.173015871487,1072
2192.066147559868,1038
2193.958835519149,1034
2195.851080025667,1009
2197.7428813558417,1034
2199.6342397861667,1075
2201.5251555932186,1057
2203.415629053651,1044
2205.3056604441986,1053
2207.19525004167,1021
2209.084398122958,1030
2210.9731049650327,1002
2212.861370844941,1019
2214.749196039812,1045
2216.636580826851,1008
2218.523525483344,1071
2220.410030286655,1037
2222.296095514226,1041
2224.1817214435805,1017
2226.066908352319,1074
2227.951656518121,1039
2229.835966218746,1033
2231.71983773203,1039
2233.6032713358913,1057
2235.486267308324,1014
2237.3688259274036,985
2239.2509474712824,1026
2241.132632218193,1019
2243.013880446447,1011
2244.8946924344323,1080
2246.7750684606203,1039
2248.6550088035574,1028
2250.534513741871,1064
2252.413583554265,1022
2254.292218519526,1035
2256.170418916517,1052
2258.0481850241786,1054
2259.925517121534,1057
2261.8024154876825,1053
2263.678880401803,1019
2265.5549121431536,1055
2267.430510991071,1019
2269.305677224971,1034
2271.180411124348,1016
2273.0547129687766,958
2274.9285830379076,1023
2276.8020216114737,1075
2278.6750289692845,1043
2280.5476053912294,1028
2282.4197511572766,1062
2284.2914665474727,1060
2286.162751841943,1041
2288.0336073208937,1005
2289.904033264608,1026
2291.774029953448,1066
2293.6435976678554,1049
2295.5127366883517,1027
2297.381447295534,1048
2299.2497297700825,1010
2301.1175843927526,1080
2302.9850114443825,1034
2304.852011205885,1038
2306.7185839582553,1053
2308.5847299825664,1051
2310.4504495599676,1051
2312.3157429716925,1046
2314.1806104990483,1037
2316.0450524234247,1035
2317.9090690262888,1058
2319.772660589186,1040
2321.635827393742,1016
2323.498569721661,1058
2325.3608878547248,1061
2327.2227820747967,1060
2329.0842526638157,1063
2330.945299903803,1041
2332.805924076857,1060
2334.6661254651535,1032
2336.525904350951,1065
2338.3852610165827,1038
2340.244195744464,1066
2342.102708817088,1037
2343.9608005170253,1016
2345.8184711269287,1071
2347.675720929526,1089
2349.532550207628,1104
2351.38895924412,1047
2353.24494832197,1043
2355.100517724223,1094
2356.955667734004,1079
2358.810398634514,1050
2360.664710709037,1058
2362.5186042409337,1061
2364.3720795136437,1047
2366.225136810686,1038
2368.0777764156583,1102
2369.929998612237,1053
2371.7818036841777,1051
2373.633191915315,1078
2375.484163589562,1047
2377.3347189909114,1058
2379.184858403434,1051
2381.03458211128,1045
2382.8838903986775,1080
2384.732783549936,1074
2386.5812618494406,1052
2388.4293255816588,1055
2390.2769750311327,1050
2392.1242104824883,1056
2393.971032220427,1061
2395.8174405297295,1127
2397.6634356952563,1090
2399.509018001947,1081
2401.3541877348193,1054
2403.1989451789705,1027
2405.043290619576,1099
2406.8872243418905,1062
2408.730746631247,1032
2410.5738577730594,1054
2412.4165580528183,1054
2414.258847756095,1028
2416.100727168537,1084
2417.9421965758734,1084
2419.783256263912,1040
2421.623906518538,1069
2423.4641476257157,1082
2425.303979871491,1108
2427.143403541984,1117
2428.9824189233977,1057
2430.821026302012,1089
2432.6592259641866,1128
2434.497018196361,1067
2436.33440328505,1076
2438.171381516851,1069
2440.00795317844,1124
2441.844118556569,1136
2443.6798779380724,1110
2445.5152316098606,1087
2447.3501798589255,1157
2449.1847229723357,1102
2451.0188612372403,1098
2452.8525949408663,1098
2454.6859243705203,1071
2456.518849813587,1079
2458.3513715575314,1076
2460.183489889895,1069
2462.015205098301,1126
2463.8465174704493,1111
2465.67742729412,1103
2467.5079348571717,1085
2469.338040447542,1068
2471.1677443532476,1139
2472.9970468623833,1131
2474.825948263123,1070
2476.6544488437207,1101
2478.482548892508,1122
2480.310248697896,1049
2482.137548548374,1086
2483.9644487325118,1093
2485.790949538956,1067
2487.617051256433,1119
2489.44275417375,1136
2491.26805857979,1101
2493.0929647635157,1101
2494.917473013971,1127
2496.741583620276,1107
2498.5652968716304,1100
2500.3886130573137,1091
2502.2115324666834,1121
2504.0340553891765,1142
2505.856182114308,1136
2507.6779129316733,1109
2509.499248130945,1114
2511.3201880018764,1100
2513.140732834298,1114
2514.9608829181198,1143
2516.780638543331,1122
2518.6,1110
2520.418967578273,1153
2522.237541568376,1071
2524.0557222606144,1115
2525.8735099453706,1095
2527.6909049131086,1137
2529.507907454368,1053
2531.32451785977,1103
2533.140736420014,1162
2534.9565634258774,1121
2536.771999168218,1108
2538.5870439379714,1110
2540.4016980261526,1137
2542.2159617238544,1151
2544.02983532225,1127
2545.8433191125914,1152
2547.656413386209,1156
2549.4691184345115,1122
2551.2814345489874,1145
2553.093362021204,1178
2554.904901142808,1214
2556.716052205523,1240
2558.526815501153,1221
2560.3371913215824,1207
2562.147179958771,1187
2563.956781704761,1230
2565.7659968516705,1152
2567.5748256916986,1246
2569.3832685171224,1242
2571.1913256202984,1218
2572.9989972936614,1230
2574.806283829725,1246
2576.613185521084,1220
2578.4197026604074,1261
2580.2258355404483,1278
2582.031584454035,1214
2583.836949694077,1227
2585.6419315535613,1239
2587.4465303255533,1308
2589.2507463032002,1217
2591.0545797797245,1217
2592.8580310484303,1285
2594.6611004026995,1292
2596.463788135992,1235
2598.266094541849,1290
2600.0680199138874,1287
2601.869564545807,1296
2603.670728731383,1232
2605.4715127644704,1265
2607.2719169390048,1285
2609.071941548998,1260
2610.8715868885433,1303
2612.670853251811,1239
2614.469740933052,1187
2616.268250226594,1296
2618.0663814268455,1241
2619.864134828292,1276
2621.6615107255006,1233
2623.458509413115,1252
2625.2551311858597,1226
2627.0513763385347,1255
2628.8472451660223,1220
2630.6427379632833,1188
2632.4378550253564,1241
2634.232596647359,1249
2636.026963124488,1206
2637.8209547520187,1206
2639.6145718253065,1213
2641.407814639785,1212
2643.200683490966,1189
2644.9931786744414,1181
2646.7853004858807,1149
2648.577049221034,1147
2650.3684251757277,1177
2652.1594286458712,1156
2653.9500599274484,1132
2655.740319316525,1141
2657.5302071092437,1138
2659.3197236018286,1135
2661.10886909058,1118
2662.8976438718782,1138
2664.686048242183,1125
2666.4740824980327,1169
2668.2617469360443,1115
2670.0490418529134,1134
2671.8359675454153,1170
2673.622524310403,1100
2675.408712444811,1137
2677.1945322456495,1104
2678.979984010009,1131
2680.76506803506,1133
2682.5497846180497,1138
2684.334134056306,1097
2686.1181166472343,1100
2687.9017326883213,1075
2689.6849824771293,1115
2691.4678663113013,1076
2693.2503844885596,1079
2695.032537306705,1096
2696.8143250636167,1106
2698.5957480572542,1089
2700.3768065856534,1091
2702.1575009469316,1126
2703.937831439283,1106
2705.717798360982,1082
2707.4974020103837,1050
2709.276642685917,1027
2711.055520686095,1084
2712.834036309506,1078
2714.612189854819,1075
2716.389981620782,1048
2718.1674119062204,1055
2719.944481010041,1083
2721.721189231226,1061
2723.4975368688415,1052
2725.273524222027,1025
2727.0491515900053,1023
2728.824419272075,1041
2730.5993275676146,1045
2732.3738767760838,1079
2734.148067197016,1054
2735.921899130031,1073
2737.6953728748194,1070
2739.468488731156,1059
2741.2412469988926,1062
2743.0136479779617,1056
2744.785691968372,1020
2746.5573792702116,1013
2748.3287101836504,1032
2750.099685008934,1061
2751.870304046388,1044
2753.640567596418,1030
2755.4104759595057,1045
2757.1800294362156,1051
2758.949228327187,1034
2760.7180729331412,1051
2762.486563554877,1053
2764.254700493272,1000
2766.022484049284,1046
2767.789914523947,1018
2769.5569922183786,1043
2771.3237174337705,1020
2773.090090471394,1053
2774.8561116326036,1013
2776.6217812188274,1071
2778.3870995315756,994
2780.1520668724356,1043
2781.9166835430747,1016
2783.6809498452394,968
2785.444866080754,1053
2787.2084325515225,1027
2788.971649559527,1054
2790.73451740683,1046
2792.4970363955713,1041
2794.2592068279705,1031
2796.0210290063264,1059
2797.7825032330147,1028
2799.543629810493,1024
2801.304409041296,1027
2803.0648412280366,1036
2804.8249266734088,1030
2806.5846656801846,999
2808.344058551212,1006
2810.1031055894246,1006
2811.8618070978273,1045
2813.6201633795085,1016
2815.378174737636,1043
2817.1358414754536,1010
2818.893163896285,1035
2820.6501423035334,1069
2822.4067770006814,998
2824.1630682912883,1028
2825.9190164789957,1000
2827.6746218675207,1047
2829.429884760661,1015
2831.184805462294,1049
2832.9393842763743,1036
2834.693621506936,1008
2836.4475174580916,1024
2838.201072434034,1030
2839.954286739034,1038
2841.707160677441,1071
2843.459694553685,1029
2845.2118886722724,1021
2846.96374333779,1013
2848.7152588549034,1025
2850.4664355283567,1067
2852.217273662973,1023
2853.9677735636546,1051
2855.7179355353833,1042
2857.4677598832186,1095
2859.217246912299,1035
2860.9663969278427,1011
2862.715210235146,1018
2864.4636871395846,1024
2866.211827946614,995
2867.9596329617652,1023
2869.7071024906536,1005
2871.4542368389684,1032
2873.20103631248,1023
2874.947501217038,997
2876.6936318585695,1033
2878.4394285430812,1016
2880.1848915766604,1043
2881.9300212654707,959
2883.6748179157553,1005
2885.4192818338374,1060
2887.1634133261173,1008
2888.907212699077,1080
2890.6506802592744,981
2892.393816313348,1110
2894.1366211680142,1000
2895.8790951300693,1022
2897.621238506388,1063
2899.363051603925,985
2901.1045347297118,1028
2902.8456881908596,1047
2904.58651229456,1026
2906.327007348081,1031
2908.067173658772,1055
2909.8070115340597,1025
2911.5465212814497,1052
2913.285703208527,1040
2915.0245576229563,1042
2916.7630848324807,1057
2918.5012851449196,991
2920.2391588681758,1041
2921.976706310227,1000
2923.7139277791334,1044
2925.4508235830313,1025
2927.187394030137,1054
2928.923639428745,1059
2930.6595600872306,1012
2932.395156314046,1030
2934.1304284177218,1007
2935.8653767068713,1077
2937.6000014901815,1069
2939.3343030764227,1039
2941.068281774442,1003
2942.8019378931644,1044
2944.5352717415976,1020
2946.2682836288236,1064
2948.0009738640065,1053
2949.7333427563885,1028
2951.465390615289,1016
2953.1971177501086,1038
2954.9285244703265,1033
2956.6596110855,1042
2958.3903779052657,1044
2960.1208252393385,999
2961.8509533975125,1040
2963.5807626896617,1047
2965.3102534257378,1039
2967.0394259157715,1022
2968.768280469873,988
2970.496817398232,1048
2972.2250370111146,1003
2973.952939618869,977
2975.6805255319196,1004
2977.4077950607707,997
2979.134748516006,1041
2980.861386208289,1050
2982.587708448359,985
2984.313715547037,1033
2986.039407815222,1031
2987.764785563891,1009
2989.489849104102,1001
2991.2145987469908,1000
2992.9390348037705,1002
2994.6631575857346,1017
2996.3869674042576,1019
2998.1104645707887,1016
2999.83364939686,987
3001.5565221940783,1048
3003.2790832741334,1091
3005.0013329487924,1019
3006.7232715298996,1026
3008.4448993293804,1018
3010.166216659239,1010
3011.887223831558,990
3013.607921158498,1024
3015.3283089522993,1051
3017.0483875252826,979
3018.7681571898443,1040
3020.4876182584626,1003
3022.2067710436927,993
3023.9256158581707,1053
3025.644153014609,1066
3027.362382825801,1078
3029.0803056046193,1049
3030.797921664012,1028
3032.5152313170106,1039
3034.2322348767225,996
3035.9489326563353,977
3037.665324969115,1017
3039.3814121284063,985
3041.097194447633,1041
3042.812672240299,1042
3044.5278458199855,1001
3046.2427155003525,989
3047.9572815951406,1011
3049.671544418167,1031
3051.38550428333,1029
3053.0991615046073,1010
3054.812516396051,992
3056.5255692717974,1016
3058.2383204460575,991
3059.9507702331257,993
3061.662918947372,1037
3063.3747669032446,926
3065.0863144152736,979
3066.7975617980674,991
3068.508509366309,1019
3070.219157434767,1012
3071.9295063182844,1016
3073.639556331785,1011
3075.3493077902704,1025
3077.058761008821,1089
3078.7679163025964,1033
3080.476773986837,1031
3082.1853343768594,1019
3083.89359778806,969
3085.6015645359153,988
3087.3092349359786,1015
3089.016609303884,989
3090.7236879553434,999
3092.4304712061476,1019
3094.136959372166,1009
3095.843152769349,1029
3097.5490517137237,1032
3099.2546565213966,965
3100.959967508554,974
3102.66498499146,1015
3104.3697092864577,1026
3106.0741407099695,1035
3107.778279578498,989
3109.482126208622,1097
3111.1856809170004,1013
3112.8889440203716,1021
3114.5919158355528,1005
3116.294596679439,1066
3117.996986869006,1047
3119.6990867213062,1030
3121.4008965534726,1031
3123.102416682717,1036
3124.803647426329,1009
3126.5045891016784,1033
3128.205242026213,1011
3129.90560651746,998
3131.605682893025,1023
3133.3054714705922,1037
3135.0049725679282,1038
3136.7041865028714,1029
3138.4031135933465,1004
3140.101754157353,1020
3141.800108512971,986
3143.498176978357,1052
3145.1959598717494,1060
3146.8934575114636,988
3148.5906702158954,992
3150.2875983035183,1009
3151.9842420928853,962
3153.680601902627,1016
3155.376678051456,1012
3157.07247085816,977
3158.767980641609,993
3160.463207720748,959
3162.158152414606,1034
3163.8528150422862,1011
3165.5471959229726,1009
3167.2412953759303,1029
3168.9351137204976,1041
3170.628651276098,986
3172.3219083622307,981
3174.014885298474,1006
3175.707582404485,1018
3177.4000000000005,1103
3179.092138404835,1037
3180.7839979388846,1017
3182.47557892212,998
3184.166881674594,990
3185.8579065164386,1017
3187.5486537678626,1036
3189.2391237491547,1015
3190.9293167806827,1029
3192.6192331828934,981
3194.3088732763117,1016
3195.998237381542,1035
3197.687325819268,1019
3199.376138910251,1013
3201.064676975334,994
3202.7529403354347,936
3204.4409293115523,956
3206.1286442247647,1001
3207.816085396229,975
3209.5032531471825,1025
3211.190147798936,973
3212.8767696728846,1006
3214.5631190905015,987
3216.2491963733373,975
3217.9350018430214,977
3219.6205358212637,1007
3221.305798629851,972
3222.990790590651,971
3224.6755120256103,996
3226.359963256751,991
3228.0441446061795,1020
3229.7280563960758,1002
3231.411698948703,978
3233.0950725863995,1019
3234.778177631587,981
3236.461014406761,1010
3238.1435832345005,1038
3239.8258844374595,1035
3241.507918338374,977
3243.1896852600576,964
3244.8711855254023,1005
3246.552419457381,982
3248.233387379042,1002
3249.914089613516,1015
3251.59452648401,1003
3253.274698313813,990
3254.95460542629,985
3256.6342481448855,983
3258.313626793125,1005
3259.9927416946084,990
3261.6715931730196,973
3263.3501815521176,946
3265.0285071557437,974
3266.706570307815,943
3268.3843713323286,958
3270.0619105533615,1035
3271.739188295068,1029
3273.4162048816834,995
3275.0929606375184,973
3276.769455886966,1001
3278.445690954498,1009
3280.1216661646613,1062
3281.797381842087,1003
3283.4728383114807,990
3285.1480358976296,1034
3286.8229749253996,991
3288.4976557197333,983
3290.172078605655,969
3291.846243908266,1014
3293.5201519527463,986
3295.193803064357,966
3296.8671975684374,971
3298.5403357904024,999
3300.21321805575,965
3301.8858446900567,995
3303.558216018975,950
3305.23033236824,997
3306.9021940636603,1019
3308.57380143113,1033
3310.2451547966184,998
3311.916254486174,979
3313.5871008259246,958
3315.2576941420766,999
3316.9280347609147,986
3318.5981230088046,1002
3320.2679592121895,1013
3321.9375436975924,981
3323.606876791612,980
3325.27595882093,967
3326.944790112305,998
3328.6133709925753,1010
3330.2817017886573,967
3331.949782827547,974
3333.617614436319,1004
3335.2851969421245,961
3336.952530672199,996
3338.619615953853,1024
3340.286453114475,1019
3341.9530424815357,975
3343.619384382583,992
3345.2854791452437,1036
3346.951327097224,1018
3348.6169285663073,1031
3350.2822838803577,987
3351.947393367319,1034
3353.61225735521,970
3355.2768761721345,983
3356.9412501462693,979
3358.605379605873,959
3360.2692648792827,967
3361.9329062949146,1002
3363.596304181263,1016
