CollectionTime,7/11/2024 12:28:14 PM
ExposureUsed,3
CalibratedSpectrum
-962.7078968117929,572
-959.9714848408522,604
-957.2358232597828,577
-954.5009119013725,567
-951.7667505983302,565
-949.0333391832855,621
-946.3006774887896,588
-943.5687653473143,557
-940.837602591253,597
-938.1071890529199,588
-935.3775245645503,606
-932.6486089583007,593
-929.9204420662485,596
-927.1930237203925,590
-924.4663537526524,584
-921.7404319948689,564
-919.0152582788041,598
-916.2908324361409,653
-913.5671542984834,624
-910.8442236973568,584
-908.1220404642074,590
-905.4006044304027,595
-902.679915427231,574
-899.959973285902,574
-897.2407778375464,570
-894.5223289132158,556
-891.8046263438832,590
-889.0876699604426,593
-886.3714595937089,560
-883.6559950744183,607
-880.9412762332282,571
-878.2273029007168,578
-875.5140749073835,550
-872.8015920836489,581
-870.0898542598545,559
-867.3788612662631,554
-864.6686129330585,587
-861.9591090903457,589
-859.2503495681506,527
-856.5423341964203,572
-853.8350628050229,567
-851.1285352237478,567
-848.4227512823054,569
-845.7177108103272,577
-843.0134136373656,568
-840.3098595928943,579
-837.6070485063082,605
-834.9049802069229,601
-832.2036545239757,590
-829.5030712866244,557
-826.8032303239481,580
-824.1041314649472,568
-821.4057745385428,582
-818.7081593735775,619
-816.0112857988148,602
-813.3151536429393,585
-810.6197627345566,595
-807.9251129021936,604
-805.2312039742981,583
-802.5380357792392,529
-799.8456081453069,580
-797.1539209007124,582
-794.462973873588,609
-791.772766891987,627
-789.083299783884,583
-786.3945723771743,606
-783.7065844996748,595
-781.0193359791231,570
-778.3328266431781,610
-775.6470563194197,620
-772.9620248353489,564
-770.2777320183878,608
-767.5941776958798,569
-764.9113616950891,613
-762.2292838432011,616
-759.5479439673222,603
-756.8673418944801,604
-754.1874774516235,613
-751.5083504656222,630
-748.8299607632671,636
-746.15230817127,618
-743.475392516264,580
-740.7992136248035,606
-738.1237713233636,636
-735.4490654383407,603
-732.7750957960521,607
-730.1018622227365,635
-727.4293645445534,610
-724.7576025875837,622
-722.0865761778291,634
-719.4162851412126,650
-716.7467293035781,642
-714.0779084906909,649
-711.409822528237,626
-708.7424712418238,621
-706.0758544569796,612
-703.4099719991541,663
-700.7448236937178,670
-698.0804093659622,674
-695.4167288411002,669
-692.7537819442656,635
-690.0915685005134,628
-687.4300883348199,654
-684.7693412720819,646
-682.1093271371178,654
-679.4500457546669,656
-676.7914969493897,627
-674.1336805458676,656
-671.4765963686034,693
-668.8202442420206,689
-666.1646239904642,661
-663.5097354382001,675
-660.8555784094151,692
-658.2021527282176,627
-655.5494582186366,671
-652.8974947046223,681
-650.2462620100463,689
-647.5957599587009,676
-644.9459883742998,694
-642.2969470804776,688
-639.6486359007902,650
-637.0010546587141,677
-634.3542031776476,686
-631.7080812809096,710
-629.0626887917401,709
-626.4180255333008,707
-623.7740913286734,703
-621.1308860008619,730
-618.4884093727904,697
-615.8466612673046,688
-613.2056415071715,714
-610.5653499150785,719
-607.9257863136347,683
-605.28695052537,709
-602.6488423727357,703
-600.0114616781036,675
-597.3748082637674,732
-594.7388819519412,741
-592.1036825647604,791
-589.4692099242818,832
-586.8354638524829,770
-584.2024441712624,697
-581.5701507024403,757
-578.9385832677575,745
-576.3077416888759,765
-573.6776257873787,719
-571.0482353847704,697
-568.4195703024757,728
-565.7916303618415,717
-563.164415384135,730
-560.5379251905453,719
-557.9121596021815,690
-555.2871184400748,728
-552.6628015251767,723
-550.0392086783606,733
-547.4163397204204,763
-544.794194472071,759
-542.1727727539491,766
-539.5520743866118,792
-536.9320991905377,761
-534.3128469861261,780
-531.6943175936979,801
-529.0765108334947,782
-526.4594265256793,849
-523.8430644903358,957
-521.2274245474689,1038
-518.612506517005,1099
-515.9983102187913,1099
-513.3848354725959,1150
-510.77208209810846,1159
-508.16004991493924,1229
-505.5487387426199,1429
-502.9381484006032,1521
-500.3282787082628,1533
-497.71912948489364,1500
-495.1107005497117,1427
-492.5029917218539,1283
-489.8960028203786,1107
-487.28973366426493,1019
-484.68418407241325,950
-482.07935386364494,937
-479.47524285670266,897
-476.87185087025,904
-474.2691777228715,915
-471.66722323307334,920
-469.0659872192821,908
-466.4654694998459,856
-463.86566989303384,883
-461.26658821703614,914
-458.66822428996414,898
-456.07057792985,950
-453.4736489546475,896
-450.877437182231,844
-448.28194243039627,861
-445.68716451686,869
-443.09310325926003,876
-440.49975847515555,914
-437.9071299820263,867
-435.31521759727354,929
-432.72402113821954,913
-430.13354042210767,907
-427.5437752661022,923
-424.95472548728867,941
-422.36639090267386,911
-419.7787713291855,965
-417.1918665836721,1055
-414.60567648290385,986
-412.0202008435715,941
-409.4354394822874,978
-406.8513922155845,970
-404.26805885991723,967
-401.685439231661,972
-399.103533147112,983
-396.522340422488,996
-393.9418608739278,973
-391.3620943174908,935
-388.7830405691583,919
-386.2046994448317,884
-383.6270707603344,875
-381.05015433141045,809
-378.473949973725,757
-375.8984575028645,712
-373.32367673433623,681
-370.74960748356875,650
-368.1762495659117,655
-365.60360279663576,578
-363.03166699093265,548
-360.4604419639154,516
-357.8899275306178,517
-355.32012350599507,508
-352.7510297049233,520
-350.1826459421999,468
-347.61497203254316,467
-345.04800779059235,479
-342.4817530309082,480
-339.91620756797226,478
-337.35137121618743,540
-334.7872437898774,527
-332.22382510328725,563
-329.66111497058273,513
-327.09911320585127,519
-324.53781962310075,540
-321.9772340362607,578
-319.4173562591816,485
-316.8581861056348,458
-314.2997233893127,474
-311.7419679238294,461
-309.1849195227194,512
-306.62857799943856,582
-304.0729431673641,584
-301.51801483979375,504
-298.963792829947,555
-296.41027695096386,603
-293.85746701590574,594
-291.3053628377552,635
-288.7539642294155,581
-286.2032710037115,512
-283.65328297338897,549
-281.1039999511146,570
-278.5554217494762,594
-276.007548180983,558
-273.4603790580651,545
-270.9139141930734,558
-268.3681533982807,574
-265.8230964858798,660
-263.27874326798565,620
-260.7350935566336,598
-258.1921471637804,611
-255.6499039013039,565
-253.10836358100266,619
-250.56752601459698,588
-248.02739101372765,582
-245.48795838995704,697
-242.94922795476816,654
-240.41119951956557,676
-237.8738728956746,754
-235.33724789434166,674
-232.80132432673452,599
-230.2661020039418,610
-227.73158073697357,669
-225.19776033676033,682
-222.66464061415422,718
-220.1322213799284,692
-217.60050244477725,639
-215.06948361931552,617
-212.53916471408013,687
-210.00954553952818,775
-207.48062590603843,669
-204.9524056239104,628
-202.4248845033651,656
-199.8980623545441,711
-197.37193898751036,789
-194.84651421224817,814
-192.32178783866232,834
-189.79775967657952,775
-187.27442953574644,769
-184.7517972258321,868
-182.2298625564256,801
-179.7086253370378,794
-177.18808537710026,762
-174.66824248596583,728
-172.14909647290835,801
-169.6306471471229,914
-167.11289431772548,844
-164.59583779375328,858
-162.07947738416453,840
-159.5638128978386,827
-157.04884414357605,963
-154.53457093009854,1042
-152.02099306604828,833
-149.50811035998936,831
-146.99592262040665,911
-144.48442965570587,998
-141.97363127421409,945
-139.46352728417958,935
-136.95411749377126,911
-134.44540171107985,862
-131.93737974411636,796
-129.43005140081357,917
-126.92341648902493,967
-124.41747481652521,1176
-121.91222619101006,1401
-119.40767042009657,1634
-116.90380731132257,1523
-114.40063667214702,1580
-111.8981583099503,1715
-109.3963720320337,1467
-106.89527764561933,1440
-104.39487495785067,1549
-101.89516377579241,2152
-99.39614390642998,2971
-96.89781515667039,3106
-94.40017733334128,2970
-91.90323024319173,3489
-89.40697369289148,6418
-86.91140748903172,9968
-84.41653143812482,8415
-81.92234534660395,5617
-79.42884902082358,4210
-76.93604226705907,7809
-74.4439248915071,16693
-71.95249670028534,27706
-69.46175749943245,31927
-66.97170709490854,28579
-64.48234529259423,21355
-61.99367189829195,16123
-59.50568671772464,13991
-57.01838955653636,10482
-54.53178022029283,8778
-52.045858514480074,9381
-49.560624244506016,9164
-47.07607721569923,9288
-44.59221723330904,9863
-42.10904410250669,10105
-39.62655762838392,10150
-37.14475761595372,8964
-34.66364387015028,7761
-32.18321619582866,7464
-29.70347439776515,7466
-27.224418280657005,7599
-24.74604764912317,8779
-22.26836230770266,12502
-19.7913620608565,22424
-17.315046712966478,38466
-14.83941606833514,51759
-12.36446993118659,65038
-9.89020810566592,65038
-7.416630395839093,65038
-4.94373660569363,65038
-2.471526539137585,65038
-6.821210263296962E-13,65038
2.47084320796705,65038
4.941003281093458,65038
7.410480415786196,65038
9.879274808531363,65038
12.347386655893956,65038
14.814816154518212,65038
17.28156350112681,65038
19.74762889252179,65038
22.21301252558385,65038
24.67771459727237,21243
27.141735304626195,4239
29.605074844762612,2892
32.06773341487792,2942
34.52971121224755,2676
36.99100843422559,2810
39.45162527824516,2517
41.91156194181792,2175
44.370818622535126,2227
46.82939551806646,2202
49.287292826160524,2151
51.74451074464503,2319
54.201049471426245,2447
56.65690920448981,2068
59.112090141899785,1712
61.56659248179983,1451
64.02041642241159,1352
66.4735621620365,1161
68.92602989905402,1118
71.37781983192338,1326
73.82893215918205,1582
76.27936707944684,1662
78.72912479141326,1235
81.17820549385567,1291
83.62660938562783,1658
86.07433666566146,1387
88.5213875329681,1186
90.96776218663751,1092
93.41346082583925,1032
95.85848364982041,1192
98.30283085790859,1553
100.7465026495089,1317
103.18949922410604,1161
105.63182078126385,1107
108.07346752062438,1044
110.51443964190923,1103
112.95473734491827,1092
115.39436082953114,1125
117.83331029570547,1110
120.27158594347827,1099
122.7091879729652,1351
125.1461165843615,1367
127.58237197794062,1167
130.01795435405518,1016
132.4528639131364,1005
134.88710085569494,1019
137.32066538231982,997
139.75355769367923,977
142.1857779905207,845
144.61732647366978,868
147.04820334403132,918
149.47840880258934,936
151.90794305040674,912
154.33680628862487,1139
156.76499871846443,1381
159.19252054122433,1440
161.61937195828352,1564
164.04555317109896,1706
166.47106438120693,1863
168.89590579022217,2044
171.320077599839,2153
173.7435800118302,2206
176.16641322804742,2350
178.58857745042144,2500
181.01007288096173,2572
183.43089972175687,2534
185.85105817497413,2537
188.27054844285988,2434
190.6893707277394,2378
193.10752523201643,2424
195.5250121581745,2697
197.9418317087751,2717
200.3579840864594,2747
202.7734694939469,2686
205.18828813403627,2646
207.6024402096051,2822
210.01592592360964,2860
212.42874547908548,2772
214.84089907914665,2712
217.2523869269868,2609
219.66320922587727,2629
222.0733661791695,2573
224.48285799029293,2632
226.8916848627572,2672
229.29984700014882,2684
231.7073446061355,2802
234.11417788446204,2687
236.520347038953,2752
238.92585227351185,2818
241.33069379212054,2809
243.73487179884035,3007
246.1383864978112,3008
248.541238093252,2941
250.9434267894609,3055
253.34495279081432,3094
255.74581630176783,3036
258.1460175268563,3115
260.54555667069314,3073
262.9444339379703,2992
265.3426495334594,2980
267.7402036620107,3002
270.1370965285529,2915
272.53332833809407,2795
274.9288992957214,2683
277.32380960660055,2514
279.718059475976,2520
282.1116491091717,2548
284.5045787115897,2539
286.89684848871195,2502
289.2884586460981,2409
291.67940938938807,2413
294.0697009242996,2513
296.4593334566299,2404
298.84830719225477,2446
301.23662233712923,2467
303.6242790972866,2446
306.01127767884,2458
308.39761828798066,2305
310.78330113097934,2339
313.16832641418534,2340
315.5526943440269,2225
317.9364051270112,2230
320.3194589697242,2252
322.70185607883093,2371
325.0835966610754,2291
327.4646809232805,2198
329.8451090723478,2101
332.2248813152577,2101
334.6039978590701,2134
336.9824589109231,2076
339.36026467803447,2109
341.7374153677,2055
344.113911187295,2008
346.48975234427337,2053
348.8649390461686,2074
351.2394715005918,2045
353.61334991523415,2073
355.9865744978655,1968
358.35914545633375,2076
360.73106299856715,2062
363.10232733257146,2016
365.47293866643247,2016
367.84289720831396,2000
370.2122031664593,1953
372.5808567491905,2018
374.9488581649083,2008
377.31620762209275,1890
379.6829053293021,1892
382.0489514951745,1884
384.4143463284262,1963
386.7790900378528,1878
389.14318283232853,1938
391.50662492080653,1935
393.86941651231916,1942
396.23155781597745,1881
398.5930490409713,1970
400.9538903965696,1984
403.3140820921202,1927
405.6736243370498,1909
408.03251734086336,1945
410.3907613131465,1903
412.74835646356166,1810
415.10530300185144,1898
417.4616011378372,1881
419.81725108141893,1822
422.1722530425758,1873
424.5266072313656,1773
426.880313857925,1874
429.2333731324701,1872
431.58578526529516,1879
433.9375504667738,1770
436.2886689473588,1865
438.63914091758113,1854
440.9889665880513,1850
443.33814616945835,1822
445.68667987257015,1786
448.03456790823395,1859
450.3818104873759,1832
452.72840782100013,1838
455.07436012019105,1800
457.41966759611057,1763
459.7643304600007,1815
462.10834892318155,1771
464.4517231970525,1787
466.79445349309174,1808
469.1365400228566,1835
471.4779829979826,1880
473.81878263018564,1839
476.15893913125876,1814
478.4984527130747,1873
480.8373235875855,1827
483.17555196682144,1866
485.5131380628919,1999
487.8500820879857,2047
490.1863842543697,2132
492.52204477439034,2275
494.8570638604725,2501
497.1914417251204,2727
499.52517858091653,2988
501.85827464052306,3157
504.19073011668036,3325
506.5225452222086,3239
508.85372017000566,3216
511.18425517304956,3191
513.514150444396,3167
515.8434061971808,3716
518.1720226446176,4315
520.4999999999999,4414
522.8273384766991,4301
525.1540382881666,4027
527.480099647932,3524
529.8055227696037,2864
532.1303078668694,2418
534.454455153496,2050
536.777964843328,1991
539.1008371502907,1903
541.4230722883866,1867
543.744670471698,1792
546.0656319143858,1794
548.3859568306899,1864
550.7056454349294,1809
553.0246979415016,1825
555.3431145648834,1848
557.6608955196306,1850
559.978041020377,1753
562.2945512818363,1808
564.6104265188006,1739
566.9256669461412,1816
569.2402727788082,1737
571.5542442318302,1846
573.8675815203156,1740
576.1802848594508,1822
578.4923544645015,1826
580.8037905508126,1897
583.114593333807,1824
585.4247630289875,1797
587.7342998519354,1803
590.0432040183106,1867
592.3514757438526,1808
594.6591152443794,1829
596.9661227357875,1784
599.2724984340531,1861
601.578242555231,1832
603.8833553154542,1850
606.1878369309362,1830
608.4916876179676,1767
610.7949075929192,1786
613.0974970722403,1856
615.3994562724587,1791
617.7007854101818,1785
620.0014847020951,1838
622.3015543649641,1775
624.6009946156324,1858
626.8998056710224,1861
629.1979877481361,1814
631.4955410640538,1903
633.7924658359349,1883
636.0887622810175,1818
638.3844306166192,1887
640.6794710601358,1903
642.9738838290426,1864
645.2676691408932,1955
647.5608272133207,1943
649.853358264037,1875
652.1452625108324,1880
654.4365401715764,1860
656.7271914642178,1933
659.0172166067838,1941
661.3066158173809,1916
663.5953893141935,1876
665.8835373154867,1899
668.1710600396028,1939
670.4579577049639,1900
672.7442305300709,1867
675.0298787335033,1885
677.3149025339197,1866
679.599302150058,1921
681.8830778007342,1831
684.1662297048437,1866
686.4487580813608,1885
688.7306631493387,1915
691.0119451279091,1867
693.2926042362834,1860
695.5726406937516,1931
697.8520547196814,1905
700.1308465335215,1865
702.4090163547982,1780
704.6865644031171,1821
706.9634908981619,1877
709.2397960596965,1938
711.5154801075631,1857
713.7905432616823,1804
716.0649857420548,1828
718.3388077687592,1881
720.612009561953,1817
722.8845913418733,1735
725.1565533288352,1892
727.427895743234,1832
729.6986188055427,1879
731.9687227363137,1819
734.238207756178,1865
736.5070740858458,1804
738.7753219461066,1789
741.0429515578281,1801
743.3099631419569,1852
745.5763569195191,1819
747.8421331116193,1860
750.1072919394409,1859
752.3718336242467,1828
754.6357583873777,1950
756.8990664502545,1896
759.1617580343765,1871
761.423833361321,1889
763.6852926527457,1858
765.9461361303862,1841
768.206364016058,1867
770.4659765316536,1819
772.7249738991469,1876
774.9833563405886,1884
777.2411240781092,1914
779.4982773339183,1903
781.7548163303044,1882
784.010741289634,1897
786.2660524343538,2043
788.5207499869881,1925
790.7748341701416,1885
793.0283052064964,1953
795.2811633188143,1870
797.5334087299362,1914
799.7850416627813,1917
802.0360623403484,1879
804.2864709857143,1884
806.5362678220353,1955
808.7854530725468,1863
811.0340269605625,1942
813.2819897094754,1928
815.5293415427581,1955
817.77608268396,1898
820.0222133567116,1879
822.2677337847211,1815
824.5126441917765,1954
826.7569448017433,1939
829.0006358385675,1906
831.2437175262731,1864
833.4861900889629,1903
835.7280537508192,1905
837.9693087361026,1940
840.2099552691533,1883
842.4499935743896,1905
844.689423876309,1920
846.9282463994886,1855
849.1664613685833,1946
851.4040690083276,1928
853.6410695435349,1869
855.877463199097,1952
858.1132501999847,1938
860.3484307712487,1946
862.5830051380175,1886
864.8169735254988,1991
867.0503361589791,1958
869.2830932638243,1958
871.5152450654786,1950
873.7467917894654,1920
875.9777336613873,1976
878.2080709069252,1908
880.4378037518389,1906
882.666932421968,1901
884.8954571432301,2020
887.1233781416219,1977
889.3506956432192,1894
891.5774098741766,1919
893.803521060728,1994
896.0290294291852,1993
898.2539352059397,1944
900.4782386174619,1968
902.7019398903011,1982
904.925039251085,1985
907.147536926521,1914
909.3694331433943,1972
911.59072812857,1977
913.8114221089921,1878
916.0315153116827,2008
918.2510079637437,1953
920.4699002923547,1960
922.6881925247761,1959
924.905884888345,1875
927.1229776104793,1834
929.3394709186747,1912
931.555365040506,1971
933.7706602036275,1939
935.9853566357709,1931
938.1994545647489,1930
940.4129542184515,1924
942.6258558248488,1883
944.8381596119883,1909
947.0498658079974,1963
949.2609746410825,1892
951.4714863395287,1887
953.6814011316998,1881
955.8907192460387,1902
958.0994409110671,1869
960.3075663553858,1896
962.5150958076741,1907
964.7220294966913,1850
966.928367651274,1840
969.1341105003388,1828
971.3392582728806,1811
973.5438111979742,1891
975.747769504772,1839
977.9511334225061,1894
980.153903180487,1842
982.3560790081052,1803
984.5576611348289,1802
986.7586497902058,1848
988.9590452038618,1791
991.158847605503,1872
993.3580572249133,1819
995.5566742919558,1753
997.7546990365728,1724
999.952131688785,1711
1002.1489724786926,1721
1004.3452216364743,1688
1006.5408793923874,1630
1008.7359459767691,1722
1010.9304216200343,1595
1013.1243065526781,1638
1015.3176010052733,1637
1017.510305208472,1634
1019.7024193930064,1587
1021.8939437896848,1563
1024.0848786293977,1578
1026.2752241431122,1639
1028.4649805618747,1636
1030.6541481168115,1617
1032.842727039127,1613
1035.0307175601051,1597
1037.2181199111074,1562
1039.4049343235752,1543
1041.591161029029,1564
1043.7768002590683,1551
1045.9618522453698,1586
1048.1463172196918,1542
1050.3301954138697,1546
1052.513487059818,1534
1054.69619238953,1588
1056.8783116350783,1561
1059.0598450286152,1563
1061.2407928023704,1519
1063.4211551886528,1566
1065.6009324198508,1494
1067.780124728432,1596
1069.9587323469414,1542
1072.1367555080046,1508
1074.314194444325,1497
1076.4910493886855,1528
1078.667320573947,1585
1080.843008233051,1484
1083.0181125990161,1428
1085.1926339049414,1488
1087.3665723840027,1449
1089.5399282694575,1462
1091.7127017946405,1493
1093.8848931929647,1484
1096.0565026979243,1448
1098.2275305430899,1439
1100.3979769621128,1446
1102.567842188722,1446
1104.737126456726,1450
1106.9058300000124,1431
1109.0739530525475,1446
1111.2414958483764,1485
1113.4084586216231,1442
1115.5748416064907,1444
1117.7406450372605,1501
1119.9058691482942,1434
1122.0705141740304,1433
1124.2345803489884,1364
1126.3980679077658,1409
1128.5609770850388,1402
1130.7233081155623,1449
1132.8850612341707,1494
1135.0462366757774,1425
1137.2068346753745,1434
1139.3668554680326,1457
1141.526299288901,1433
1143.68516637321,1458
1145.8434569562655,1416
1148.001171273455,1449
1150.158309560244,1506
1152.3148720521767,1457
1154.470858984876,1390
1156.626270594044,1458
1158.7811071154629,1394
1160.9353687849912,1392
1163.089055838569,1430
1165.242168512213,1451
1167.3947070420209,1463
1169.5466716641677,1371
1171.6980626149075,1448
1173.8488801305748,1424
1175.9991244475814,1310
1178.1487958024186,1345
1180.2978944316555,1382
1182.4464205719428,1400
1184.5943744600072,1403
1186.7417563326567,1303
1188.8885664267755,1326
1191.0348049793297,1423
1193.1804722273619,1372
1195.325568407995,1402
1197.4700937584303,1446
1199.614048515948,1396
1201.7574329179074,1340
1203.900247201746,1375
1206.042491604982,1404
1208.1841663652099,1382
1210.3252717201053,1444
1212.465807907422,1402
1214.6057751649923,1395
1216.7451737307279,1435
1218.8840038426192,1423
1221.0222657387353,1454
1223.1599596572241,1392
1225.2970858363137,1429
1227.4336445143094,1437
1229.5696359295966,1395
1231.705060320639,1463
1233.8399179259786,1442
1235.9742089842384,1440
1238.107933734118,1397
1240.2410924143974,1441
1242.373685263935,1402
1244.5057125216676,1454
1246.6371744266116,1420
1248.7680712178621,1447
1250.898403134593,1427
1253.028170416058,1503
1255.1573733015875,1438
1257.2860120305932,1428
1259.4140868425648,1462
1261.54159797707,1495
1263.6685456737569,1410
1265.7949301723515,1456
1267.9207517126597,1456
1270.046010534565,1474
1272.1707068780306,1480
1274.2948409830983,1516
1276.4184130898889,1491
1278.541423438603,1470
1280.6638722695184,1487
1282.785759822993,1481
1284.9070863394636,1478
1287.0278520594447,1428
1289.1480572235314,1536
1291.2677020723963,1560
1293.3867868467923,1583
1295.5053117875495,1462
1297.623277135579,1487
1299.740683131868,1556
1301.8575300174857,1545
1303.973818033578,1541
1306.0895474213703,1575
1308.2047184221678,1550
1310.3193312773528,1547
1312.4333862283888,1565
1314.5468835168163,1539
1316.659823384255,1526
1318.7722060724045,1564
1320.8840318230418,1585
1322.9953008780249,1570
1325.1060134792888,1555
1327.2161698688478,1534
1329.3257702887959,1512
1331.4348149813054,1518
1333.5433041886276,1554
1335.6512381530933,1554
1337.7586171171101,1592
1339.8654413231675,1522
1341.9717110138317,1516
1344.0774264317488,1524
1346.1825878196432,1558
1348.2871954203192,1560
1350.3912494766587,1529
1352.4947502316231,1607
1354.5976979282532,1521
1356.7000928096686,1481
1358.8019351190665,1545
1360.9032250997243,1529
1363.0039629949988,1552
1365.1041490483235,1524
1367.2037835032133,1544
1369.3028666032606,1579
1371.401398592137,1547
1373.4993797135926,1567
1375.5968102114575,1519
1377.6936903296396,1498
1379.7900203121262,1519
1381.8858004029835,1509
1383.9810308463561,1527
1386.075711886469,1590
1388.1698437676241,1551
1390.2634267342032,1576
1392.356461030667,1670
1394.4489469015557,1620
1396.5408845914872,1582
1398.6322743451592,1645
1400.7231164073469,1650
1402.813411022907,1627
1404.903158436773,1626
1406.9923588939578,1633
1409.0810126395531,1595
1411.1691199187303,1607
1413.2566809767386,1618
1415.343696058907,1645
1417.4301654106425,1676
1419.5160892774315,1695
1421.6014679048399,1695
1423.6863015385125,1693
1425.7705904241707,1611
1427.8543348076178,1667
1429.9375349347342,1725
1432.0201910514802,1711
1434.102303403894,1785
1436.1838722380944,1779
1438.2648978002767,1706
1440.3453803367174,1769
1442.4253200937692,1802
1444.5047173178677,1848
1446.5835722555234,1807
1448.6618851533285,1949
1450.739656257952,1933
1452.8168858161434,1966
1454.8935740747306,1945
1456.96972128062,1950
1459.045327680797,2045
1461.120393522327,1982
1463.1949190523528,2049
1465.2689045180973,2096
1467.3423501668608,2123
1469.415256246024,2171
1471.4876230030463,2260
1473.559450685465,2195
1475.6307395408976,2269
1477.7014898170391,2360
1479.771701761665,2409
1481.8413756226287,2310
1483.9105116478618,2420
1485.9791100853772,2414
1488.0471711832643,2439
1490.1146951896926,2456
1492.1816823529098,2470
1494.2481329212433,2551
1496.3140471430984,2579
1498.3794252669609,2612
1500.4442675413939,2600
1502.5085742150404,2531
1504.572345536622,2694
1506.6355817549388,2693
1508.6982831188702,2661
1510.7604498773744,2745
1512.8220822794883,2824
1514.8831805743293,2697
1516.9437450110909,2768
1519.003775839048,2849
1521.0632733075522,2849
1523.1222376660367,2743
1525.1806691640113,2823
1527.2385680510652,2937
1529.2959345768668,2939
1531.3527689911643,2839
1533.4090715437833,2898
1535.4648424846291,2981
1537.5200820636855,3006
1539.5747905310159,3030
1541.6289681367616,3082
1543.6826151311434,3098
1545.7357317644614,3146
1547.7883182870937,3216
1549.8403749494987,3219
1551.8919020022113,3268
1553.9428996958477,3295
1555.9933682811015,3378
1558.0433080087469,3441
1560.0927191296346,3535
1562.1416018946961,3566
1564.1899565549415,3653
1566.2377833614592,3562
1568.2850825654164,3520
1570.3318544180606,3377
1572.3780991707158,3366
1574.423817074788,3306
1576.4690083817595,3046
1578.5136733431923,3049
1580.5578122107272,2800
1582.601425236085,2698
1584.6445126710646,2633
1586.6870747675434,2512
1588.7291117774776,2442
1590.7706239529034,2367
1592.8116115459347,2239
1594.8520748087658,2226
1596.8920139936686,2173
1598.9314293529933,2064
1600.9703211391711,2051
1603.008689604711,1898
1605.0465350022005,1888
1607.0838575843068,1838
1609.1206576037753,1786
1611.1569353134305,1769
1613.1926909661765,1755
1615.2279248149953,1723
1617.2626371129481,1675
1619.2968281131757,1678
1621.3304980688963,1709
1623.3636472334088,1649
1625.39627586009,1620
1627.428384202396,1637
1629.459972513861,1578
1631.4910410480993,1641
1633.5215900588028,1548
1635.551619799744,1604
1637.5811305247717,1517
1639.6101224878166,1551
1641.6385959428862,1560
1643.6665511440683,1531
1645.693988345528,1556
1647.7209078015112,1575
1649.7473097663405,1530
1651.7731944944203,1472
1653.7985622402307,1464
1655.823413258333,1507
1657.847747803366,1481
1659.8715661300494,1433
1661.8948684931793,1475
1663.9176551476316,1503
1665.9399263483624,1456
1667.9616823504057,1482
1669.982923408873,1484
1672.0036497789574,1495
1674.0238617159293,1498
1676.043559475138,1527
1678.0627433120121,1487
1680.081413482059,1470
1682.0995702408654,1458
1684.117213844096,1539
1686.134344547495,1487
1688.1509626068864,1420
1690.1670682781705,1455
1692.182661817329,1494
1694.1977434804217,1466
1696.2123135235875,1432
1698.226372203043,1448
1700.2399197750851,1535
1702.2529564960905,1456
1704.2654826225112,1526
1706.277498410882,1479
1708.2890041178139,1416
1710.2999999999988,1450
1712.3104863142066,1431
1714.3204633172854,1469
1716.329931266163,1443
1718.3388904178469,1439
1720.3473410294214,1463
1722.3552833580516,1400
1724.3627176609807,1410
1726.3696441955308,1430
1728.3760632191033,1452
1730.3819749891782,1437
1732.3873797633146,1407
1734.3922777991502,1431
1736.3966693544012,1391
1738.4005546868639,1411
1740.4039340544127,1425
1742.406807715001,1460
1744.4091759266616,1384
1746.4110389475054,1357
1748.4123970357223,1400
1750.413250449582,1415
1752.4135994474318,1380
1754.4134442876993,1414
1756.4127852288902,1382
1758.4116225295893,1376
1760.4099564484595,1450
1762.407787244244,1371
1764.405115175764,1317
1766.4019405019203,1409
1768.3982634816916,1425
1770.3940843741357,1370
1772.3894034383907,1332
1774.3842209336717,1331
1776.378537119274,1406
1778.372352254571,1361
1780.3656665990156,1308
1782.3584804121397,1332
1784.3507939535534,1326
1786.3426074829463,1285
1788.3339212600863,1371
1790.3247355448211,1395
1792.3150505970766,1311
1794.3048666768573,1354
1796.2941840442477,1333
1798.2830029594106,1378
1800.2713236825884,1352
1802.2591464741004,1366
1804.2464715943465,1328
1806.2332993038058,1313
1808.2196298630352,1295
1810.2054635326708,1354
1812.190800573428,1349
1814.175641246101,1335
1816.1599858115628,1332
1818.1438345307652,1342
1820.127187664738,1317
1822.1100454745924,1369
1824.092408221516,1294
1826.0742761667766,1294
1828.055649571721,1305
1830.0365286977735,1283
1832.0169138064398,1311
1833.9968051593014,1307
1835.9762030180214,1310
1837.9551076443408,1320
1839.9335193000788,1314
1841.9114382471344,1309
1843.888864747485,1339
1845.8657990631878,1338
1847.842241456378,1354
1849.8181921892697,1309
1851.7936515241558,1322
1853.7686197234098,1275
1855.7430970494815,1299
1857.7170837649014,1275
1859.6905801322787,1345
1861.6635864143004,1319
1863.6361028737338,1295
1865.608129773424,1319
1867.5796673762961,1326
1869.5507159453537,1340
1871.521275743678,1322
1873.4913470344313,1278
1875.4609300808534,1315
1877.4300251462632,1334
1879.3986324940588,1303
1881.366752387717,1274
1883.3343850907936,1301
1885.3015308669228,1324
1887.268189979819,1384
1889.2343626932739,1359
1891.2000492711595,1376
1893.1652499774254,1300
1895.1299650761011,1330
1897.0941948312952,1359
1899.0579395071945,1377
1901.0211993680641,1327
1902.98397467825,1417
1904.9462657021745,1333
1906.9080727043415,1370
1908.869395949332,1337
1910.8302357018065,1296
1912.790592226504,1364
1914.7504657882428,1373
1916.7098566519212,1377
1918.6687650825133,1318
1920.6271913450764,1354
1922.5851357047422,1281
1924.5425984267245,1322
1926.499579776314,1350
1928.4560800188833,1308
1930.4120994198802,1379
1932.367638244833,1341
1934.32269675935,1361
1936.2772752291175,1372
1938.231373919899,1423
1940.1849930975404,1383
1942.1381330279637,1369
1944.0907939771696,1268
1946.0429762112412,1358
1947.9946799963363,1303
1949.9459055986945,1303
1951.896653284633,1290
1953.8469233205478,1316
1955.7967159729142,1291
1957.7460315082863,1328
1959.6948701932974,1312
1961.6432322946594,1309
1963.5911180791632,1272
1965.5385278136787,1295
1967.4854617651545,1284
1969.4319202006182,1315
1971.377903387176,1298
1973.3234115920136,1316
1975.268445082395,1345
1977.2130041256642,1341
1979.1570889892423,1273
1981.1006999406304,1289
1983.04383724741,1326
1984.986501177238,1322
1986.928691997853,1333
1988.8704099770712,1321
1990.811655382789,1367
1992.7524284829801,1299
1994.692729545698,1394
1996.6325588390755,1401
1998.5719166313224,1336
2000.5108031907307,1337
2002.4492187856677,1331
2004.387163684583,1290
2006.3246381560011,1326
2008.2616424685298,1330
2010.1981768908527,1322
2012.1342416917332,1296
2014.069837140014,1303
2016.0049635046162,1319
2017.9396210545406,1342
2019.8738100588666,1319
2021.8075307867502,1249
2023.740783507431,1323
2025.6735684902228,1305
2027.6058860045214,1277
2029.5377363198004,1323
2031.4691197056118,1367
2033.4000364315875,1312
2035.3304867674374,1267
2037.260470982952,1293
2039.189989347998,1308
2041.1190421325232,1327
2043.047629606554,1311
2044.9757520401945,1314
2046.9034097036288,1316
2048.8306028671195,1288
2050.7573318010086,1257
2052.683596775716,1308
2054.609398061742,1318
2056.5347359296647,1313
2058.4596106501403,1274
2060.384022493906,1300
2062.3079717317764,1274
2064.231458634646,1291
2066.1544834734873,1287
2068.077046519352,1287
2069.99914804337,1314
2071.9207883167524,1291
2073.8419676107865,1322
2075.7626861968406,1294
2077.6829443463607,1313
2079.6027423308715,1283
2081.522080421977,1284
2083.440958891362,1306
2085.359378010786,1317
2087.2773380520907,1297
2089.194839287196,1302
2091.111881988101,1279
2093.0284664268825,1320
2094.9445928756973,1304
2096.86026160678,1297
2098.775472892446,1327
2100.690227005088,1307
2102.604524217178,1295
2104.5183648012676,1259
2106.431749029985,1258
2108.34467717604,1286
2110.2571495122206,1287
2112.169166311393,1265
2114.080727846503,1334
2115.9918343905747,1288
2117.902486216711,1293
2119.8126835980956,1271
2121.722426807987,1313
2123.6317161197285,1272
2125.5405518067364,1288
2127.448934142509,1327
2129.356863400624,1281
2131.264339854737,1286
2133.1713637785815,1307
2135.077935445972,1270
2136.9840551308002,1331
2138.889723107037,1308
2140.7949396487334,1274
2142.699705030018,1354
2144.6040195250994,1312
2146.507883408264,1293
2148.4112969538774,1315
2150.3142604363848,1367
2152.2167741303097,1334
2154.1188383102535,1338
2156.0204532508997,1309
2157.9216192270064,1311
2159.822336513414,1258
2161.7226053850413,1321
2163.622426116884,1335
2165.5217989840185,1310
2167.4207242616,1348
2169.319202224862,1333
2171.2172331491165,1334
2173.1148173097563,1336
2175.0119549822507,1284
2176.90864644215,1336
2178.8048919650823,1352
2180.7006918267534,1306
2182.596046302952,1325
2184.4909556695407,1296
2186.3854202024645,1392
2188.279440177746,1359
2190.173015871487,1401
2192.066147559868,1383
2193.958835519149,1372
2195.851080025667,1337
2197.7428813558417,1426
2199.6342397861667,1333
2201.5251555932186,1402
2203.415629053651,1346
2205.3056604441986,1355
2207.19525004167,1389
2209.084398122958,1343
2210.9731049650327,1306
2212.861370844941,1407
2214.749196039812,1375
2216.636580826851,1357
2218.523525483344,1445
2220.410030286655,1399
2222.296095514226,1409
2224.1817214435805,1414
2226.066908352319,1390
2227.951656518121,1390
2229.835966218746,1386
2231.71983773203,1394
2233.6032713358913,1405
2235.486267308324,1350
2237.3688259274036,1398
2239.2509474712824,1399
2241.132632218193,1355
2243.013880446447,1425
2244.8946924344323,1345
2246.7750684606203,1424
2248.6550088035574,1407
2250.534513741871,1361
2252.413583554265,1412
2254.292218519526,1390
2256.170418916517,1413
2258.0481850241786,1378
2259.925517121534,1389
2261.8024154876825,1378
2263.678880401803,1420
2265.5549121431536,1381
2267.430510991071,1373
2269.305677224971,1366
2271.180411124348,1342
2273.0547129687766,1303
2274.9285830379076,1426
2276.8020216114737,1340
2278.6750289692845,1381
2280.5476053912294,1407
2282.4197511572766,1374
2284.2914665474727,1401
2286.162751841943,1387
2288.0336073208937,1459
2289.904033264608,1463
2291.774029953448,1413
2293.6435976678554,1366
2295.5127366883517,1420
2297.381447295534,1338
2299.2497297700825,1309
2301.1175843927526,1302
2302.9850114443825,1279
2304.852011205885,1285
2306.7185839582553,1224
2308.5847299825664,1223
2310.4504495599676,1173
2312.3157429716925,1218
2314.1806104990483,1175
2316.0450524234247,1188
2317.9090690262888,1166
2319.772660589186,1202
2321.635827393742,1190
2323.498569721661,1228
2325.3608878547248,1204
2327.2227820747967,1157
2329.0842526638157,1187
2330.945299903803,1221
2332.805924076857,1206
2334.6661254651535,1182
2336.525904350951,1214
2338.3852610165827,1184
2340.244195744464,1196
2342.102708817088,1219
2343.9608005170253,1222
2345.8184711269287,1215
2347.675720929526,1211
2349.532550207628,1201
2351.38895924412,1158
2353.24494832197,1208
2355.100517724223,1253
2356.955667734004,1167
2358.810398634514,1185
2360.664710709037,1179
2362.5186042409337,1246
2364.3720795136437,1248
2366.225136810686,1254
2368.0777764156583,1226
2369.929998612237,1177
2371.7818036841777,1168
2373.633191915315,1254
2375.484163589562,1228
2377.3347189909114,1213
2379.184858403434,1197
2381.03458211128,1231
2382.8838903986775,1224
2384.732783549936,1217
2386.5812618494406,1191
2388.4293255816588,1242
2390.2769750311327,1232
2392.1242104824883,1258
2393.971032220427,1231
2395.8174405297295,1249
2397.6634356952563,1192
2399.509018001947,1185
2401.3541877348193,1206
2403.1989451789705,1232
2405.043290619576,1238
2406.8872243418905,1247
2408.730746631247,1212
2410.5738577730594,1211
2412.4165580528183,1257
2414.258847756095,1243
2416.100727168537,1224
2417.9421965758734,1180
2419.783256263912,1198
2421.623906518538,1289
2423.4641476257157,1279
2425.303979871491,1240
2427.143403541984,1239
2428.9824189233977,1214
2430.821026302012,1242
2432.6592259641866,1188
2434.497018196361,1198
2436.33440328505,1227
2438.171381516851,1226
2440.00795317844,1177
2441.844118556569,1168
2443.6798779380724,1281
2445.5152316098606,1271
2447.3501798589255,1224
2449.1847229723357,1278
2451.0188612372403,1237
2452.8525949408663,1281
2454.6859243705203,1263
2456.518849813587,1252
2458.3513715575314,1274
2460.183489889895,1229
2462.015205098301,1252
2463.8465174704493,1240
2465.67742729412,1272
2467.5079348571717,1283
2469.338040447542,1257
2471.1677443532476,1268
2472.9970468623833,1270
2474.825948263123,1282
2476.6544488437207,1262
2478.482548892508,1269
2480.310248697896,1287
2482.137548548374,1303
2483.9644487325118,1267
2485.790949538956,1264
2487.617051256433,1230
2489.44275417375,1255
2491.26805857979,1295
2493.0929647635157,1206
2494.917473013971,1278
2496.741583620276,1312
2498.5652968716304,1335
2500.3886130573137,1308
2502.2115324666834,1292
2504.0340553891765,1264
2505.856182114308,1271
2507.6779129316733,1302
2509.499248130945,1308
2511.3201880018764,1288
2513.140732834298,1281
2514.9608829181198,1319
2516.780638543331,1317
2518.6,1312
2520.418967578273,1320
2522.237541568376,1365
2524.0557222606144,1329
2525.8735099453706,1319
2527.6909049131086,1351
2529.507907454368,1368
2531.32451785977,1305
2533.140736420014,1375
2534.9565634258774,1375
2536.771999168218,1367
2538.5870439379714,1349
2540.4016980261526,1337
2542.2159617238544,1363
2544.02983532225,1372
2545.8433191125914,1384
2547.656413386209,1364
2549.4691184345115,1360
2551.2814345489874,1469
2553.093362021204,1402
2554.904901142808,1452
2556.716052205523,1436
2558.526815501153,1487
2560.3371913215824,1424
2562.147179958771,1505
2563.956781704761,1507
2565.7659968516705,1523
2567.5748256916986,1528
2569.3832685171224,1586
2571.1913256202984,1521
2572.9989972936614,1528
2574.806283829725,1551
2576.613185521084,1539
2578.4197026604074,1522
2580.2258355404483,1570
2582.031584454035,1619
2583.836949694077,1565
2585.6419315535613,1563
2587.4465303255533,1610
2589.2507463032002,1653
2591.0545797797245,1584
2592.8580310484303,1613
2594.6611004026995,1594
2596.463788135992,1640
2598.266094541849,1622
2600.0680199138874,1631
2601.869564545807,1571
2603.670728731383,1569
2605.4715127644704,1616
2607.2719169390048,1604
2609.071941548998,1602
2610.8715868885433,1636
2612.670853251811,1614
2614.469740933052,1626
2616.268250226594,1638
2618.0663814268455,1664
2619.864134828292,1540
2621.6615107255006,1654
2623.458509413115,1621
2625.2551311858597,1517
2627.0513763385347,1571
2628.8472451660223,1627
2630.6427379632833,1565
2632.4378550253564,1540
2634.232596647359,1626
2636.026963124488,1513
2637.8209547520187,1533
2639.6145718253065,1480
2641.407814639785,1521
2643.200683490966,1446
2644.9931786744414,1460
2646.7853004858807,1462
2648.577049221034,1448
2650.3684251757277,1422
2652.1594286458712,1414
2653.9500599274484,1430
2655.740319316525,1458
2657.5302071092437,1396
2659.3197236018286,1382
2661.10886909058,1343
2662.8976438718782,1439
2664.686048242183,1384
2666.4740824980327,1401
2668.2617469360443,1410
2670.0490418529134,1367
2671.8359675454153,1402
2673.622524310403,1337
2675.408712444811,1310
2677.1945322456495,1337
2678.979984010009,1263
2680.76506803506,1291
2682.5497846180497,1308
2684.334134056306,1315
2686.1181166472343,1302
2687.9017326883213,1324
2689.6849824771293,1297
2691.4678663113013,1294
2693.2503844885596,1343
2695.032537306705,1290
2696.8143250636167,1297
2698.5957480572542,1284
2700.3768065856534,1263
2702.1575009469316,1250
2703.937831439283,1294
2705.717798360982,1211
2707.4974020103837,1253
2709.276642685917,1259
2711.055520686095,1258
2712.834036309506,1211
2714.612189854819,1258
2716.389981620782,1245
2718.1674119062204,1237
2719.944481010041,1242
2721.721189231226,1229
2723.4975368688415,1194
2725.273524222027,1186
2727.0491515900053,1216
2728.824419272075,1237
2730.5993275676146,1225
2732.3738767760838,1226
2734.148067197016,1242
2735.921899130031,1250
2737.6953728748194,1223
2739.468488731156,1215
2741.2412469988926,1200
2743.0136479779617,1216
2744.785691968372,1256
2746.5573792702116,1210
2748.3287101836504,1191
2750.099685008934,1207
2751.870304046388,1208
2753.640567596418,1167
2755.4104759595057,1160
2757.1800294362156,1216
2758.949228327187,1189
2760.7180729331412,1263
2762.486563554877,1227
2764.254700493272,1212
2766.022484049284,1159
2767.789914523947,1223
2769.5569922183786,1210
2771.3237174337705,1193
2773.090090471394,1198
2774.8561116326036,1186
2776.6217812188274,1166
2778.3870995315756,1207
2780.1520668724356,1204
2781.9166835430747,1214
2783.6809498452394,1270
2785.444866080754,1215
2787.2084325515225,1194
2788.971649559527,1194
2790.73451740683,1151
2792.4970363955713,1200
2794.2592068279705,1185
2796.0210290063264,1183
2797.7825032330147,1195
2799.543629810493,1185
2801.304409041296,1195
2803.0648412280366,1212
2804.8249266734088,1185
2806.5846656801846,1156
2808.344058551212,1232
2810.1031055894246,1182
2811.8618070978273,1190
2813.6201633795085,1186
2815.378174737636,1206
2817.1358414754536,1173
2818.893163896285,1238
2820.6501423035334,1196
2822.4067770006814,1203
2824.1630682912883,1214
2825.9190164789957,1200
2827.6746218675207,1161
2829.429884760661,1182
2831.184805462294,1157
2832.9393842763743,1160
2834.693621506936,1132
2836.4475174580916,1194
2838.201072434034,1261
2839.954286739034,1132
2841.707160677441,1178
2843.459694553685,1217
2845.2118886722724,1239
2846.96374333779,1203
2848.7152588549034,1199
2850.4664355283567,1199
2852.217273662973,1189
2853.9677735636546,1194
2855.7179355353833,1182
2857.4677598832186,1184
2859.217246912299,1210
2860.9663969278427,1255
2862.715210235146,1194
2864.4636871395846,1165
2866.211827946614,1210
2867.9596329617652,1246
2869.7071024906536,1140
2871.4542368389684,1173
2873.20103631248,1232
2874.947501217038,1183
2876.6936318585695,1230
2878.4394285430812,1203
2880.1848915766604,1227
2881.9300212654707,1189
2883.6748179157553,1194
2885.4192818338374,1184
2887.1634133261173,1183
2888.907212699077,1210
2890.6506802592744,1270
2892.393816313348,1194
2894.1366211680142,1219
2895.8790951300693,1158
2897.621238506388,1238
2899.363051603925,1145
2901.1045347297118,1244
2902.8456881908596,1218
2904.58651229456,1164
2906.327007348081,1181
2908.067173658772,1196
2909.8070115340597,1193
2911.5465212814497,1133
2913.285703208527,1219
2915.0245576229563,1198
2916.7630848324807,1185
2918.5012851449196,1145
2920.2391588681758,1211
2921.976706310227,1232
2923.7139277791334,1157
2925.4508235830313,1203
2927.187394030137,1236
2928.923639428745,1157
2930.6595600872306,1149
2932.395156314046,1193
2934.1304284177218,1232
2935.8653767068713,1217
2937.6000014901815,1135
2939.3343030764227,1186
2941.068281774442,1232
2942.8019378931644,1173
2944.5352717415976,1206
2946.2682836288236,1169
2948.0009738640065,1160
2949.7333427563885,1154
2951.465390615289,1228
2953.1971177501086,1185
2954.9285244703265,1225
2956.6596110855,1172
2958.3903779052657,1203
2960.1208252393385,1162
2961.8509533975125,1169
2963.5807626896617,1189
2965.3102534257378,1122
2967.0394259157715,1124
2968.768280469873,1160
2970.496817398232,1112
2972.2250370111146,1147
2973.952939618869,1190
2975.6805255319196,1151
2977.4077950607707,1173
2979.134748516006,1176
2980.861386208289,1196
2982.587708448359,1238
2984.313715547037,1157
2986.039407815222,1177
2987.764785563891,1152
2989.489849104102,1142
2991.2145987469908,1201
2992.9390348037705,1148
2994.6631575857346,1176
2996.3869674042576,1201
2998.1104645707887,1152
2999.83364939686,1141
3001.5565221940783,1180
3003.2790832741334,1187
3005.0013329487924,1146
3006.7232715298996,1162
3008.4448993293804,1175
3010.166216659239,1172
3011.887223831558,1181
3013.607921158498,1235
3015.3283089522993,1199
3017.0483875252826,1208
3018.7681571898443,1227
3020.4876182584626,1137
3022.2067710436927,1144
3023.9256158581707,1180
3025.644153014609,1202
3027.362382825801,1210
3029.0803056046193,1190
3030.797921664012,1170
3032.5152313170106,1264
3034.2322348767225,1150
3035.9489326563353,1190
3037.665324969115,1144
3039.3814121284063,1237
3041.097194447633,1160
3042.812672240299,1159
3044.5278458199855,1194
3046.2427155003525,1152
3047.9572815951406,1195
3049.671544418167,1135
3051.38550428333,1153
3053.0991615046073,1159
3054.812516396051,1202
3056.5255692717974,1148
3058.2383204460575,1144
3059.9507702331257,1133
3061.662918947372,1193
3063.3747669032446,1206
3065.0863144152736,1198
3066.7975617980674,1193
3068.508509366309,1152
3070.219157434767,1142
3071.9295063182844,1162
3073.639556331785,1178
3075.3493077902704,1138
3077.058761008821,1096
3078.7679163025964,1151
3080.476773986837,1166
3082.1853343768594,1192
3083.89359778806,1184
3085.6015645359153,1156
3087.3092349359786,1177
3089.016609303884,1176
3090.7236879553434,1171
3092.4304712061476,1209
3094.136959372166,1211
3095.843152769349,1174
3097.5490517137237,1145
3099.2546565213966,1235
3100.959967508554,1198
3102.66498499146,1138
3104.3697092864577,1190
3106.0741407099695,1153
3107.778279578498,1150
3109.482126208622,1218
3111.1856809170004,1175
3112.8889440203716,1205
3114.5919158355528,1153
3116.294596679439,1215
3117.996986869006,1181
3119.6990867213062,1175
3121.4008965534726,1178
3123.102416682717,1206
3124.803647426329,1198
3126.5045891016784,1173
3128.205242026213,1200
3129.90560651746,1221
3131.605682893025,1162
3133.3054714705922,1221
3135.0049725679282,1184
3136.7041865028714,1216
3138.4031135933465,1165
3140.101754157353,1165
3141.800108512971,1208
3143.498176978357,1171
3145.1959598717494,1182
3146.8934575114636,1238
3148.5906702158954,1144
3150.2875983035183,1229
3151.9842420928853,1153
3153.680601902627,1201
3155.376678051456,1161
3157.07247085816,1190
3158.767980641609,1193
3160.463207720748,1159
3162.158152414606,1183
3163.8528150422862,1175
3165.5471959229726,1171
3167.2412953759303,1159
3168.9351137204976,1167
3170.628651276098,1227
3172.3219083622307,1216
3174.014885298474,1177
3175.707582404485,1207
3177.4000000000005,1151
3179.092138404835,1179
3180.7839979388846,1162
3182.47557892212,1127
3184.166881674594,1173
3185.8579065164386,1208
3187.5486537678626,1115
3189.2391237491547,1220
3190.9293167806827,1136
3192.6192331828934,1170
3194.3088732763117,1192
3195.998237381542,1161
3197.687325819268,1156
3199.376138910251,1168
3201.064676975334,1115
3202.7529403354347,1142
3204.4409293115523,1149
3206.1286442247647,1199
3207.816085396229,1157
3209.5032531471825,1175
3211.190147798936,1139
3212.8767696728846,1107
3214.5631190905015,1188
3216.2491963733373,1107
3217.9350018430214,1126
3219.6205358212637,1139
3221.305798629851,1173
3222.990790590651,1111
3224.6755120256103,1158
3226.359963256751,1132
3228.0441446061795,1097
3229.7280563960758,1136
3231.411698948703,1114
3233.0950725863995,1123
3234.778177631587,1140
3236.461014406761,1125
3238.1435832345005,1189
3239.8258844374595,1107
3241.507918338374,1131
3243.1896852600576,1130
3244.8711855254023,1178
3246.552419457381,1150
3248.233387379042,1108
3249.914089613516,1143
3251.59452648401,1113
3253.274698313813,1165
3254.95460542629,1173
3256.6342481448855,1166
3258.313626793125,1153
3259.9927416946084,1098
3261.6715931730196,1109
3263.3501815521176,1110
3265.0285071557437,1114
3266.706570307815,1152
3268.3843713323286,1127
3270.0619105533615,1103
3271.739188295068,1137
3273.4162048816834,1156
3275.0929606375184,1157
3276.769455886966,1103
3278.445690954498,1131
3280.1216661646613,1116
3281.797381842087,1139
3283.4728383114807,1178
3285.1480358976296,1174
3286.8229749253996,1149
3288.4976557197333,1145
3290.172078605655,1187
3291.846243908266,1183
3293.5201519527463,1082
3295.193803064357,1215
3296.8671975684374,1116
3298.5403357904024,1146
3300.21321805575,1170
3301.8858446900567,1137
3303.558216018975,1133
3305.23033236824,1132
3306.9021940636603,1143
3308.57380143113,1160
3310.2451547966184,1222
3311.916254486174,1212
3313.5871008259246,1189
3315.2576941420766,1125
3316.9280347609147,1144
3318.5981230088046,1127
3320.2679592121895,1169
3321.9375436975924,1086
3323.606876791612,1155
3325.27595882093,1148
3326.944790112305,1137
3328.6133709925753,1165
3330.2817017886573,1131
3331.949782827547,1122
3333.617614436319,1110
3335.2851969421245,1172
3336.952530672199,1102
3338.619615953853,1151
3340.286453114475,1115
3341.9530424815357,1192
3343.619384382583,1127
3345.2854791452437,1141
3346.951327097224,1165
3348.6169285663073,1118
3350.2822838803577,1157
3351.947393367319,1103
3353.61225735521,1126
3355.2768761721345,1168
3356.9412501462693,1169
3358.605379605873,1151
3360.2692648792827,1097
3361.9329062949146,1160
3363.596304181263,1126
