CollectionTime,7/11/2024 12:26:51 PM
ExposureUsed,3
CalibratedSpectrum
-962.7078968117929,525
-959.9714848408522,554
-957.2358232597828,501
-954.5009119013725,517
-951.7667505983302,559
-949.0333391832855,566
-946.3006774887896,575
-943.5687653473143,541
-940.837602591253,557
-938.1071890529199,539
-935.3775245645503,547
-932.6486089583007,561
-929.9204420662485,604
-927.1930237203925,558
-924.4663537526524,570
-921.7404319948689,593
-919.0152582788041,585
-916.2908324361409,634
-913.5671542984834,592
-910.8442236973568,568
-908.1220404642074,538
-905.4006044304027,598
-902.679915427231,585
-899.959973285902,572
-897.2407778375464,554
-894.5223289132158,547
-891.8046263438832,579
-889.0876699604426,548
-886.3714595937089,516
-883.6559950744183,543
-880.9412762332282,526
-878.2273029007168,546
-875.5140749073835,541
-872.8015920836489,530
-870.0898542598545,554
-867.3788612662631,538
-864.6686129330585,524
-861.9591090903457,488
-859.2503495681506,512
-856.5423341964203,518
-853.8350628050229,557
-851.1285352237478,502
-848.4227512823054,519
-845.7177108103272,558
-843.0134136373656,577
-840.3098595928943,547
-837.6070485063082,550
-834.9049802069229,583
-832.2036545239757,549
-829.5030712866244,552
-826.8032303239481,585
-824.1041314649472,550
-821.4057745385428,548
-818.7081593735775,571
-816.0112857988148,555
-813.3151536429393,582
-810.6197627345566,583
-807.9251129021936,547
-805.2312039742981,521
-802.5380357792392,570
-799.8456081453069,554
-797.1539209007124,533
-794.462973873588,547
-791.772766891987,558
-789.083299783884,562
-786.3945723771743,569
-783.7065844996748,567
-781.0193359791231,544
-778.3328266431781,586
-775.6470563194197,555
-772.9620248353489,554
-770.2777320183878,551
-767.5941776958798,582
-764.9113616950891,574
-762.2292838432011,580
-759.5479439673222,565
-756.8673418944801,544
-754.1874774516235,573
-751.5083504656222,574
-748.8299607632671,575
-746.15230817127,584
-743.475392516264,618
-740.7992136248035,594
-738.1237713233636,588
-735.4490654383407,582
-732.7750957960521,564
-730.1018622227365,610
-727.4293645445534,588
-724.7576025875837,579
-722.0865761778291,614
-719.4162851412126,598
-716.7467293035781,601
-714.0779084906909,574
-711.409822528237,606
-708.7424712418238,568
-706.0758544569796,576
-703.4099719991541,626
-700.7448236937178,630
-698.0804093659622,652
-695.4167288411002,631
-692.7537819442656,622
-690.0915685005134,619
-687.4300883348199,639
-684.7693412720819,622
-682.1093271371178,621
-679.4500457546669,634
-676.7914969493897,598
-674.1336805458676,637
-671.4765963686034,622
-668.8202442420206,657
-666.1646239904642,650
-663.5097354382001,640
-660.8555784094151,613
-658.2021527282176,611
-655.5494582186366,632
-652.8974947046223,664
-650.2462620100463,645
-647.5957599587009,646
-644.9459883742998,646
-642.2969470804776,654
-639.6486359007902,698
-637.0010546587141,691
-634.3542031776476,669
-631.7080812809096,679
-629.0626887917401,679
-626.4180255333008,662
-623.7740913286734,682
-621.1308860008619,694
-618.4884093727904,627
-615.8466612673046,636
-613.2056415071715,686
-610.5653499150785,677
-607.9257863136347,628
-605.28695052537,661
-602.6488423727357,654
-600.0114616781036,668
-597.3748082637674,642
-594.7388819519412,682
-592.1036825647604,741
-589.4692099242818,790
-586.8354638524829,710
-584.2024441712624,686
-581.5701507024403,725
-578.9385832677575,682
-576.3077416888759,712
-573.6776257873787,674
-571.0482353847704,682
-568.4195703024757,685
-565.7916303618415,704
-563.164415384135,704
-560.5379251905453,685
-557.9121596021815,723
-555.2871184400748,712
-552.6628015251767,685
-550.0392086783606,715
-547.4163397204204,656
-544.794194472071,674
-542.1727727539491,768
-539.5520743866118,789
-536.9320991905377,753
-534.3128469861261,820
-531.6943175936979,809
-529.0765108334947,808
-526.4594265256793,833
-523.8430644903358,983
-521.2274245474689,1055
-518.612506517005,1122
-515.9983102187913,1122
-513.3848354725959,1141
-510.77208209810846,1250
-508.16004991493924,1300
-505.5487387426199,1510
-502.9381484006032,1671
-500.3282787082628,1716
-497.71912948489364,1608
-495.1107005497117,1523
-492.5029917218539,1356
-489.8960028203786,1154
-487.28973366426493,1105
-484.68418407241325,951
-482.07935386364494,915
-479.47524285670266,917
-476.87185087025,903
-474.2691777228715,903
-471.66722323307334,897
-469.0659872192821,838
-466.4654694998459,892
-463.86566989303384,870
-461.26658821703614,888
-458.66822428996414,902
-456.07057792985,929
-453.4736489546475,850
-450.877437182231,832
-448.28194243039627,872
-445.68716451686,848
-443.09310325926003,853
-440.49975847515555,863
-437.9071299820263,805
-435.31521759727354,840
-432.72402113821954,954
-430.13354042210767,969
-427.5437752661022,911
-424.95472548728867,883
-422.36639090267386,953
-419.7787713291855,942
-417.1918665836721,967
-414.60567648290385,959
-412.0202008435715,1001
-409.4354394822874,919
-406.8513922155845,956
-404.26805885991723,951
-401.685439231661,956
-399.103533147112,991
-396.522340422488,961
-393.9418608739278,868
-391.3620943174908,924
-388.7830405691583,906
-386.2046994448317,821
-383.6270707603344,832
-381.05015433141045,781
-378.473949973725,750
-375.8984575028645,730
-373.32367673433623,699
-370.74960748356875,677
-368.1762495659117,690
-365.60360279663576,625
-363.03166699093265,567
-360.4604419639154,545
-357.8899275306178,588
-355.32012350599507,538
-352.7510297049233,534
-350.1826459421999,520
-347.61497203254316,510
-345.04800779059235,498
-342.4817530309082,526
-339.91620756797226,496
-337.35137121618743,529
-334.7872437898774,585
-332.22382510328725,578
-329.66111497058273,510
-327.09911320585127,522
-324.53781962310075,551
-321.9772340362607,590
-319.4173562591816,482
-316.8581861056348,480
-314.2997233893127,489
-311.7419679238294,469
-309.1849195227194,538
-306.62857799943856,590
-304.0729431673641,618
-301.51801483979375,581
-298.963792829947,582
-296.41027695096386,616
-293.85746701590574,641
-291.3053628377552,626
-288.7539642294155,568
-286.2032710037115,584
-283.65328297338897,627
-281.1039999511146,664
-278.5554217494762,586
-276.007548180983,536
-273.4603790580651,532
-270.9139141930734,622
-268.3681533982807,583
-265.8230964858798,628
-263.27874326798565,625
-260.7350935566336,643
-258.1921471637804,686
-255.6499039013039,623
-253.10836358100266,679
-250.56752601459698,690
-248.02739101372765,668
-245.48795838995704,717
-242.94922795476816,674
-240.41119951956557,707
-237.8738728956746,729
-235.33724789434166,714
-232.80132432673452,646
-230.2661020039418,650
-227.73158073697357,670
-225.19776033676033,715
-222.66464061415422,718
-220.1322213799284,659
-217.60050244477725,622
-215.06948361931552,650
-212.53916471408013,805
-210.00954553952818,796
-207.48062590603843,683
-204.9524056239104,674
-202.4248845033651,812
-199.8980623545441,852
-197.37193898751036,797
-194.84651421224817,865
-192.32178783866232,833
-189.79775967657952,850
-187.27442953574644,905
-184.7517972258321,1005
-182.2298625564256,946
-179.7086253370378,887
-177.18808537710026,862
-174.66824248596583,852
-172.14909647290835,864
-169.6306471471229,950
-167.11289431772548,1001
-164.59583779375328,929
-162.07947738416453,1056
-159.5638128978386,1109
-157.04884414357605,1095
-154.53457093009854,1130
-152.02099306604828,1036
-149.50811035998936,826
-146.99592262040665,881
-144.48442965570587,1068
-141.97363127421409,1029
-139.46352728417958,1090
-136.95411749377126,1129
-134.44540171107985,1036
-131.93737974411636,975
-129.43005140081357,1097
-126.92341648902493,1234
-124.41747481652521,1460
-121.91222619101006,1763
-119.40767042009657,2278
-116.90380731132257,2306
-114.40063667214702,2526
-111.8981583099503,2350
-109.3963720320337,1921
-106.89527764561933,1715
-104.39487495785067,1916
-101.89516377579241,3012
-99.39614390642998,4712
-96.89781515667039,5193
-94.40017733334128,4704
-91.90323024319173,4740
-89.40697369289148,7721
-86.91140748903172,12319
-84.41653143812482,11578
-81.92234534660395,7280
-79.42884902082358,5634
-76.93604226705907,11111
-74.4439248915071,23989
-71.95249670028534,37747
-69.46175749943245,43522
-66.97170709490854,37399
-64.48234529259423,26596
-61.99367189829195,19733
-59.50568671772464,16925
-57.01838955653636,13991
-54.53178022029283,12370
-52.045858514480074,13861
-49.560624244506016,15937
-47.07607721569923,17334
-44.59221723330904,15987
-42.10904410250669,15085
-39.62655762838392,13700
-37.14475761595372,11577
-34.66364387015028,10427
-32.18321619582866,9798
-29.70347439776515,9150
-27.224418280657005,9055
-24.74604764912317,10495
-22.26836230770266,16420
-19.7913620608565,31399
-17.315046712966478,57317
-14.83941606833514,65038
-12.36446993118659,65038
-9.89020810566592,65038
-7.416630395839093,65038
-4.94373660569363,65038
-2.471526539137585,65038
-6.821210263296962E-13,65038
2.47084320796705,65038
4.941003281093458,65038
7.410480415786196,65038
9.879274808531363,65038
12.347386655893956,65038
14.814816154518212,65038
17.28156350112681,65038
19.74762889252179,65038
22.21301252558385,65038
24.67771459727237,21292
27.141735304626195,4930
29.605074844762612,3966
32.06773341487792,3744
34.52971121224755,3491
36.99100843422559,3567
39.45162527824516,2531
41.91156194181792,2223
44.370818622535126,2157
46.82939551806646,1812
49.287292826160524,2178
51.74451074464503,2659
54.201049471426245,2697
56.65690920448981,2048
59.112090141899785,1891
61.56659248179983,1780
64.02041642241159,1611
66.4735621620365,1485
68.92602989905402,1418
71.37781983192338,1699
73.82893215918205,1836
76.27936707944684,1667
78.72912479141326,1311
81.17820549385567,1751
83.62660938562783,2233
86.07433666566146,1694
88.5213875329681,1243
90.96776218663751,1240
93.41346082583925,1232
95.85848364982041,1390
98.30283085790859,1530
100.7465026495089,1401
103.18949922410604,1349
105.63182078126385,1443
108.07346752062438,1200
110.51443964190923,923
112.95473734491827,985
115.39436082953114,1163
117.83331029570547,1188
120.27158594347827,1138
122.7091879729652,1288
125.1461165843615,1324
127.58237197794062,1136
130.01795435405518,956
132.4528639131364,1029
134.88710085569494,1149
137.32066538231982,1037
139.75355769367923,1082
142.1857779905207,1019
144.61732647366978,973
147.04820334403132,967
149.47840880258934,977
151.90794305040674,1060
154.33680628862487,1187
156.76499871846443,1499
159.19252054122433,1506
161.61937195828352,1497
164.04555317109896,1699
166.47106438120693,1756
168.89590579022217,1924
171.320077599839,1947
173.7435800118302,2162
176.16641322804742,2305
178.58857745042144,2379
181.01007288096173,2496
183.43089972175687,2567
185.85105817497413,2367
188.27054844285988,2426
190.6893707277394,2403
193.10752523201643,2440
195.5250121581745,2429
197.9418317087751,2479
200.3579840864594,2418
202.7734694939469,2483
205.18828813403627,2539
207.6024402096051,2639
210.01592592360964,2768
212.42874547908548,2762
214.84089907914665,2651
217.2523869269868,2568
219.66320922587727,2544
222.0733661791695,2590
224.48285799029293,2530
226.8916848627572,2473
229.29984700014882,2535
231.7073446061355,2573
234.11417788446204,2527
236.520347038953,2662
238.92585227351185,2651
241.33069379212054,2752
243.73487179884035,2721
246.1383864978112,2736
248.541238093252,2728
250.9434267894609,2698
253.34495279081432,2700
255.74581630176783,2761
258.1460175268563,2755
260.54555667069314,2687
262.9444339379703,2692
265.3426495334594,2667
267.7402036620107,2738
270.1370965285529,2739
272.53332833809407,2644
274.9288992957214,2555
277.32380960660055,2552
279.718059475976,2532
282.1116491091717,2573
284.5045787115897,2405
286.89684848871195,2395
289.2884586460981,2529
291.67940938938807,2468
294.0697009242996,2425
296.4593334566299,2513
298.84830719225477,2483
301.23662233712923,2481
303.6242790972866,2382
306.01127767884,2318
308.39761828798066,2335
310.78330113097934,2289
313.16832641418534,2251
315.5526943440269,2242
317.9364051270112,2233
320.3194589697242,2270
322.70185607883093,2337
325.0835966610754,2184
327.4646809232805,2300
329.8451090723478,2151
332.2248813152577,2142
334.6039978590701,2207
336.9824589109231,2204
339.36026467803447,2188
341.7374153677,2151
344.113911187295,2097
346.48975234427337,2080
348.8649390461686,2041
351.2394715005918,2019
353.61334991523415,2097
355.9865744978655,2048
358.35914545633375,2064
360.73106299856715,2106
363.10232733257146,2090
365.47293866643247,2009
367.84289720831396,2019
370.2122031664593,1996
372.5808567491905,2073
374.9488581649083,1915
377.31620762209275,1959
379.6829053293021,1979
382.0489514951745,1956
384.4143463284262,1915
386.7790900378528,1922
389.14318283232853,1957
391.50662492080653,1985
393.86941651231916,1978
396.23155781597745,1870
398.5930490409713,2039
400.9538903965696,1996
403.3140820921202,2002
405.6736243370498,1962
408.03251734086336,1893
410.3907613131465,1916
412.74835646356166,1847
415.10530300185144,1887
417.4616011378372,1866
419.81725108141893,1859
422.1722530425758,1970
424.5266072313656,1878
426.880313857925,1888
429.2333731324701,1912
431.58578526529516,1874
433.9375504667738,1958
436.2886689473588,1841
438.63914091758113,1763
440.9889665880513,1815
443.33814616945835,1888
445.68667987257015,1842
448.03456790823395,1859
450.3818104873759,1830
452.72840782100013,1779
455.07436012019105,1792
457.41966759611057,1839
459.7643304600007,1809
462.10834892318155,1857
464.4517231970525,1838
466.79445349309174,1869
469.1365400228566,1839
471.4779829979826,1882
473.81878263018564,1829
476.15893913125876,1808
478.4984527130747,1879
480.8373235875855,1955
483.17555196682144,2000
485.5131380628919,1942
487.8500820879857,2112
490.1863842543697,2180
492.52204477439034,2437
494.8570638604725,2557
497.1914417251204,2944
499.52517858091653,3314
501.85827464052306,3529
504.19073011668036,3693
506.5225452222086,3532
508.85372017000566,3519
511.18425517304956,3442
513.514150444396,3450
515.8434061971808,4071
518.1720226446176,4718
520.4999999999999,4693
522.8273384766991,4379
525.1540382881666,4143
527.480099647932,3712
529.8055227696037,3047
532.1303078668694,2420
534.454455153496,2158
536.777964843328,2013
539.1008371502907,1961
541.4230722883866,1880
543.744670471698,1843
546.0656319143858,1851
548.3859568306899,1883
550.7056454349294,1872
553.0246979415016,1820
555.3431145648834,1803
557.6608955196306,1809
559.978041020377,1783
562.2945512818363,1788
564.6104265188006,1799
566.9256669461412,1781
569.2402727788082,1800
571.5542442318302,1775
573.8675815203156,1804
576.1802848594508,1898
578.4923544645015,1900
580.8037905508126,1944
583.114593333807,1890
585.4247630289875,1845
587.7342998519354,1941
590.0432040183106,1892
592.3514757438526,1919
594.6591152443794,1943
596.9661227357875,1885
599.2724984340531,1885
601.578242555231,1934
603.8833553154542,1866
606.1878369309362,1899
608.4916876179676,1832
610.7949075929192,1886
613.0974970722403,1854
615.3994562724587,1803
617.7007854101818,1841
620.0014847020951,1815
622.3015543649641,1888
624.6009946156324,1904
626.8998056710224,1934
629.1979877481361,1833
631.4955410640538,1887
633.7924658359349,1803
636.0887622810175,1845
638.3844306166192,1853
640.6794710601358,1953
642.9738838290426,1837
645.2676691408932,1975
647.5608272133207,1903
649.853358264037,1994
652.1452625108324,1891
654.4365401715764,1901
656.7271914642178,1947
659.0172166067838,1914
661.3066158173809,1941
663.5953893141935,1906
665.8835373154867,1956
668.1710600396028,1919
670.4579577049639,1903
672.7442305300709,1936
675.0298787335033,1938
677.3149025339197,1877
679.599302150058,1915
681.8830778007342,1910
684.1662297048437,1938
686.4487580813608,1920
688.7306631493387,1915
691.0119451279091,1935
693.2926042362834,1915
695.5726406937516,1867
697.8520547196814,1889
700.1308465335215,1909
702.4090163547982,1852
704.6865644031171,1895
706.9634908981619,1898
709.2397960596965,1950
711.5154801075631,1893
713.7905432616823,1893
716.0649857420548,1883
718.3388077687592,1925
720.612009561953,1875
722.8845913418733,1871
725.1565533288352,1905
727.427895743234,1892
729.6986188055427,1910
731.9687227363137,1885
734.238207756178,1874
736.5070740858458,1914
738.7753219461066,1829
741.0429515578281,1881
743.3099631419569,1953
745.5763569195191,1853
747.8421331116193,1977
750.1072919394409,1967
752.3718336242467,1959
754.6357583873777,1967
756.8990664502545,1912
759.1617580343765,1845
761.423833361321,1880
763.6852926527457,1875
765.9461361303862,1891
768.206364016058,1909
770.4659765316536,1919
772.7249738991469,1881
774.9833563405886,1925
777.2411240781092,1928
779.4982773339183,1918
781.7548163303044,1910
784.010741289634,1954
786.2660524343538,2018
788.5207499869881,1944
790.7748341701416,1999
793.0283052064964,1933
795.2811633188143,1973
797.5334087299362,2032
799.7850416627813,1978
802.0360623403484,1970
804.2864709857143,1977
806.5362678220353,1925
808.7854530725468,1998
811.0340269605625,1950
813.2819897094754,1927
815.5293415427581,1930
817.77608268396,1958
820.0222133567116,1993
822.2677337847211,1902
824.5126441917765,1938
826.7569448017433,1945
829.0006358385675,1953
831.2437175262731,1882
833.4861900889629,1886
835.7280537508192,1860
837.9693087361026,1975
840.2099552691533,1970
842.4499935743896,1876
844.689423876309,1943
846.9282463994886,1962
849.1664613685833,1991
851.4040690083276,1926
853.6410695435349,1976
855.877463199097,1954
858.1132501999847,1912
860.3484307712487,1964
862.5830051380175,1908
864.8169735254988,1934
867.0503361589791,2014
869.2830932638243,2012
871.5152450654786,2031
873.7467917894654,2013
875.9777336613873,1981
878.2080709069252,1978
880.4378037518389,2038
882.666932421968,2025
884.8954571432301,2010
887.1233781416219,2036
889.3506956432192,2046
891.5774098741766,1994
893.803521060728,2022
896.0290294291852,1956
898.2539352059397,2009
900.4782386174619,2072
902.7019398903011,2051
904.925039251085,2026
907.147536926521,2037
909.3694331433943,1941
911.59072812857,1921
913.8114221089921,1999
916.0315153116827,2020
918.2510079637437,1967
920.4699002923547,1963
922.6881925247761,1967
924.905884888345,2002
927.1229776104793,2018
929.3394709186747,1928
931.555365040506,1880
933.7706602036275,2007
935.9853566357709,1909
938.1994545647489,1970
940.4129542184515,2011
942.6258558248488,1937
944.8381596119883,1892
947.0498658079974,1882
949.2609746410825,1859
951.4714863395287,1837
953.6814011316998,1879
955.8907192460387,1910
958.0994409110671,1971
960.3075663553858,1854
962.5150958076741,1918
964.7220294966913,1916
966.928367651274,1900
969.1341105003388,1841
971.3392582728806,1905
973.5438111979742,1769
975.747769504772,1837
977.9511334225061,1825
980.153903180487,1789
982.3560790081052,1806
984.5576611348289,1810
986.7586497902058,1743
988.9590452038618,1862
991.158847605503,1728
993.3580572249133,1726
995.5566742919558,1764
997.7546990365728,1693
999.952131688785,1597
1002.1489724786926,1689
1004.3452216364743,1659
1006.5408793923874,1680
1008.7359459767691,1616
1010.9304216200343,1608
1013.1243065526781,1607
1015.3176010052733,1590
1017.510305208472,1619
1019.7024193930064,1601
1021.8939437896848,1573
1024.0848786293977,1559
1026.2752241431122,1564
1028.4649805618747,1651
1030.6541481168115,1634
1032.842727039127,1596
1035.0307175601051,1587
1037.2181199111074,1560
1039.4049343235752,1560
1041.591161029029,1570
1043.7768002590683,1584
1045.9618522453698,1606
1048.1463172196918,1554
1050.3301954138697,1548
1052.513487059818,1553
1054.69619238953,1544
1056.8783116350783,1581
1059.0598450286152,1581
1061.2407928023704,1547
1063.4211551886528,1547
1065.6009324198508,1545
1067.780124728432,1539
1069.9587323469414,1500
1072.1367555080046,1562
1074.314194444325,1497
1076.4910493886855,1478
1078.667320573947,1487
1080.843008233051,1528
1083.0181125990161,1471
1085.1926339049414,1465
1087.3665723840027,1514
1089.5399282694575,1484
1091.7127017946405,1444
1093.8848931929647,1467
1096.0565026979243,1450
1098.2275305430899,1467
1100.3979769621128,1464
1102.567842188722,1452
1104.737126456726,1438
1106.9058300000124,1430
1109.0739530525475,1457
1111.2414958483764,1460
1113.4084586216231,1502
1115.5748416064907,1419
1117.7406450372605,1475
1119.9058691482942,1421
1122.0705141740304,1446
1124.2345803489884,1410
1126.3980679077658,1422
1128.5609770850388,1458
1130.7233081155623,1412
1132.8850612341707,1423
1135.0462366757774,1422
1137.2068346753745,1433
1139.3668554680326,1406
1141.526299288901,1371
1143.68516637321,1392
1145.8434569562655,1474
1148.001171273455,1438
1150.158309560244,1408
1152.3148720521767,1410
1154.470858984876,1379
1156.626270594044,1410
1158.7811071154629,1380
1160.9353687849912,1405
1163.089055838569,1375
1165.242168512213,1415
1167.3947070420209,1396
1169.5466716641677,1422
1171.6980626149075,1387
1173.8488801305748,1435
1175.9991244475814,1371
1178.1487958024186,1417
1180.2978944316555,1482
1182.4464205719428,1381
1184.5943744600072,1366
1186.7417563326567,1329
1188.8885664267755,1380
1191.0348049793297,1385
1193.1804722273619,1332
1195.325568407995,1393
1197.4700937584303,1365
1199.614048515948,1393
1201.7574329179074,1432
1203.900247201746,1421
1206.042491604982,1357
1208.1841663652099,1373
1210.3252717201053,1389
1212.465807907422,1389
1214.6057751649923,1394
1216.7451737307279,1439
1218.8840038426192,1390
1221.0222657387353,1388
1223.1599596572241,1402
1225.2970858363137,1449
1227.4336445143094,1375
1229.5696359295966,1363
1231.705060320639,1451
1233.8399179259786,1391
1235.9742089842384,1353
1238.107933734118,1368
1240.2410924143974,1403
1242.373685263935,1417
1244.5057125216676,1481
1246.6371744266116,1426
1248.7680712178621,1471
1250.898403134593,1418
1253.028170416058,1460
1255.1573733015875,1406
1257.2860120305932,1465
1259.4140868425648,1461
1261.54159797707,1421
1263.6685456737569,1394
1265.7949301723515,1416
1267.9207517126597,1434
1270.046010534565,1465
1272.1707068780306,1430
1274.2948409830983,1435
1276.4184130898889,1474
1278.541423438603,1457
1280.6638722695184,1495
1282.785759822993,1431
1284.9070863394636,1430
1287.0278520594447,1478
1289.1480572235314,1482
1291.2677020723963,1439
1293.3867868467923,1496
1295.5053117875495,1471
1297.623277135579,1482
1299.740683131868,1429
1301.8575300174857,1521
1303.973818033578,1489
1306.0895474213703,1549
1308.2047184221678,1554
1310.3193312773528,1485
1312.4333862283888,1495
1314.5468835168163,1462
1316.659823384255,1475
1318.7722060724045,1512
1320.8840318230418,1489
1322.9953008780249,1546
1325.1060134792888,1543
1327.2161698688478,1502
1329.3257702887959,1478
1331.4348149813054,1452
1333.5433041886276,1569
1335.6512381530933,1510
1337.7586171171101,1566
1339.8654413231675,1530
1341.9717110138317,1518
1344.0774264317488,1557
1346.1825878196432,1551
1348.2871954203192,1478
1350.3912494766587,1566
1352.4947502316231,1537
1354.5976979282532,1568
1356.7000928096686,1492
1358.8019351190665,1429
1360.9032250997243,1514
1363.0039629949988,1505
1365.1041490483235,1518
1367.2037835032133,1529
1369.3028666032606,1505
1371.401398592137,1530
1373.4993797135926,1488
1375.5968102114575,1514
1377.6936903296396,1514
1379.7900203121262,1489
1381.8858004029835,1529
1383.9810308463561,1461
1386.075711886469,1518
1388.1698437676241,1539
1390.2634267342032,1500
1392.356461030667,1555
1394.4489469015557,1488
1396.5408845914872,1514
1398.6322743451592,1470
1400.7231164073469,1515
1402.813411022907,1482
1404.903158436773,1529
1406.9923588939578,1592
1409.0810126395531,1556
1411.1691199187303,1529
1413.2566809767386,1560
1415.343696058907,1570
1417.4301654106425,1628
1419.5160892774315,1585
1421.6014679048399,1522
1423.6863015385125,1567
1425.7705904241707,1614
1427.8543348076178,1578
1429.9375349347342,1678
1432.0201910514802,1659
1434.102303403894,1639
1436.1838722380944,1584
1438.2648978002767,1683
1440.3453803367174,1647
1442.4253200937692,1660
1444.5047173178677,1641
1446.5835722555234,1689
1448.6618851533285,1752
1450.739656257952,1778
1452.8168858161434,1742
1454.8935740747306,1815
1456.96972128062,1727
1459.045327680797,1734
1461.120393522327,1808
1463.1949190523528,1833
1465.2689045180973,1880
1467.3423501668608,1857
1469.415256246024,1885
1471.4876230030463,1851
1473.559450685465,1914
1475.6307395408976,1984
1477.7014898170391,1975
1479.771701761665,1916
1481.8413756226287,1947
1483.9105116478618,1975
1485.9791100853772,2039
1488.0471711832643,2056
1490.1146951896926,2045
1492.1816823529098,2006
1494.2481329212433,2069
1496.3140471430984,2114
1498.3794252669609,2137
1500.4442675413939,2165
1502.5085742150404,2159
1504.572345536622,2169
1506.6355817549388,2176
1508.6982831188702,2139
1510.7604498773744,2132
1512.8220822794883,2134
1514.8831805743293,2238
1516.9437450110909,2167
1519.003775839048,2153
1521.0632733075522,2249
1523.1222376660367,2177
1525.1806691640113,2221
1527.2385680510652,2247
1529.2959345768668,2170
1531.3527689911643,2242
1533.4090715437833,2255
1535.4648424846291,2315
1537.5200820636855,2268
1539.5747905310159,2341
1541.6289681367616,2299
1543.6826151311434,2458
1545.7357317644614,2351
1547.7883182870937,2386
1549.8403749494987,2406
1551.8919020022113,2540
1553.9428996958477,2446
1555.9933682811015,2564
1558.0433080087469,2520
1560.0927191296346,2544
1562.1416018946961,2574
1564.1899565549415,2616
1566.2377833614592,2636
1568.2850825654164,2673
1570.3318544180606,2582
1572.3780991707158,2557
1574.423817074788,2531
1576.4690083817595,2482
1578.5136733431923,2405
1580.5578122107272,2318
1582.601425236085,2219
1584.6445126710646,2145
1586.6870747675434,2111
1588.7291117774776,1974
1590.7706239529034,1972
1592.8116115459347,1980
1594.8520748087658,1921
1596.8920139936686,1811
1598.9314293529933,1800
1600.9703211391711,1702
1603.008689604711,1726
1605.0465350022005,1744
1607.0838575843068,1667
1609.1206576037753,1730
1611.1569353134305,1701
1613.1926909661765,1684
1615.2279248149953,1643
1617.2626371129481,1613
1619.2968281131757,1670
1621.3304980688963,1609
1623.3636472334088,1557
1625.39627586009,1524
1627.428384202396,1599
1629.459972513861,1551
1631.4910410480993,1517
1633.5215900588028,1584
1635.551619799744,1556
1637.5811305247717,1541
1639.6101224878166,1501
1641.6385959428862,1485
1643.6665511440683,1576
1645.693988345528,1561
1647.7209078015112,1518
1649.7473097663405,1523
1651.7731944944203,1536
1653.7985622402307,1481
1655.823413258333,1523
1657.847747803366,1460
1659.8715661300494,1500
1661.8948684931793,1528
1663.9176551476316,1543
1665.9399263483624,1479
1667.9616823504057,1532
1669.982923408873,1511
1672.0036497789574,1486
1674.0238617159293,1534
1676.043559475138,1467
1678.0627433120121,1457
1680.081413482059,1449
1682.0995702408654,1450
1684.117213844096,1509
1686.134344547495,1450
1688.1509626068864,1422
1690.1670682781705,1426
1692.182661817329,1439
1694.1977434804217,1453
1696.2123135235875,1403
1698.226372203043,1456
1700.2399197750851,1480
1702.2529564960905,1457
1704.2654826225112,1432
1706.277498410882,1379
1708.2890041178139,1485
1710.2999999999988,1498
1712.3104863142066,1420
1714.3204633172854,1445
1716.329931266163,1508
1718.3388904178469,1419
1720.3473410294214,1490
1722.3552833580516,1430
1724.3627176609807,1435
1726.3696441955308,1425
1728.3760632191033,1440
1730.3819749891782,1422
1732.3873797633146,1487
1734.3922777991502,1430
1736.3966693544012,1465
1738.4005546868639,1512
1740.4039340544127,1416
1742.406807715001,1490
1744.4091759266616,1476
1746.4110389475054,1489
1748.4123970357223,1464
1750.413250449582,1434
1752.4135994474318,1426
1754.4134442876993,1497
1756.4127852288902,1423
1758.4116225295893,1481
1760.4099564484595,1456
1762.407787244244,1453
1764.405115175764,1441
1766.4019405019203,1426
1768.3982634816916,1389
1770.3940843741357,1447
1772.3894034383907,1422
1774.3842209336717,1384
1776.378537119274,1441
1778.372352254571,1444
1780.3656665990156,1433
1782.3584804121397,1425
1784.3507939535534,1411
1786.3426074829463,1412
1788.3339212600863,1373
1790.3247355448211,1415
1792.3150505970766,1357
1794.3048666768573,1364
1796.2941840442477,1403
1798.2830029594106,1432
1800.2713236825884,1423
1802.2591464741004,1400
1804.2464715943465,1467
1806.2332993038058,1415
1808.2196298630352,1451
1810.2054635326708,1359
1812.190800573428,1420
1814.175641246101,1414
1816.1599858115628,1407
1818.1438345307652,1410
1820.127187664738,1414
1822.1100454745924,1457
1824.092408221516,1432
1826.0742761667766,1436
1828.055649571721,1386
1830.0365286977735,1425
1832.0169138064398,1396
1833.9968051593014,1376
1835.9762030180214,1379
1837.9551076443408,1401
1839.9335193000788,1416
1841.9114382471344,1394
1843.888864747485,1358
1845.8657990631878,1392
1847.842241456378,1425
1849.8181921892697,1365
1851.7936515241558,1375
1853.7686197234098,1395
1855.7430970494815,1381
1857.7170837649014,1368
1859.6905801322787,1433
1861.6635864143004,1398
1863.6361028737338,1428
1865.608129773424,1377
1867.5796673762961,1436
1869.5507159453537,1396
1871.521275743678,1411
1873.4913470344313,1439
1875.4609300808534,1377
1877.4300251462632,1356
1879.3986324940588,1395
1881.366752387717,1386
1883.3343850907936,1403
1885.3015308669228,1398
1887.268189979819,1390
1889.2343626932739,1386
1891.2000492711595,1385
1893.1652499774254,1450
1895.1299650761011,1416
1897.0941948312952,1412
1899.0579395071945,1401
1901.0211993680641,1426
1902.98397467825,1444
1904.9462657021745,1428
1906.9080727043415,1378
1908.869395949332,1414
1910.8302357018065,1446
1912.790592226504,1397
1914.7504657882428,1445
1916.7098566519212,1381
1918.6687650825133,1425
1920.6271913450764,1407
1922.5851357047422,1388
1924.5425984267245,1388
1926.499579776314,1439
1928.4560800188833,1409
1930.4120994198802,1382
1932.367638244833,1429
1934.32269675935,1393
1936.2772752291175,1380
1938.231373919899,1522
1940.1849930975404,1432
1942.1381330279637,1404
1944.0907939771696,1359
1946.0429762112412,1418
1947.9946799963363,1421
1949.9459055986945,1365
1951.896653284633,1361
1953.8469233205478,1380
1955.7967159729142,1392
1957.7460315082863,1405
1959.6948701932974,1395
1961.6432322946594,1377
1963.5911180791632,1393
1965.5385278136787,1421
1967.4854617651545,1364
1969.4319202006182,1393
1971.377903387176,1392
1973.3234115920136,1382
1975.268445082395,1355
1977.2130041256642,1366
1979.1570889892423,1341
1981.1006999406304,1444
1983.04383724741,1323
1984.986501177238,1330
1986.928691997853,1388
1988.8704099770712,1342
1990.811655382789,1363
1992.7524284829801,1323
1994.692729545698,1394
1996.6325588390755,1377
1998.5719166313224,1407
2000.5108031907307,1388
2002.4492187856677,1378
2004.387163684583,1398
2006.3246381560011,1373
2008.2616424685298,1380
2010.1981768908527,1379
2012.1342416917332,1388
2014.069837140014,1409
2016.0049635046162,1349
2017.9396210545406,1436
2019.8738100588666,1371
2021.8075307867502,1402
2023.740783507431,1426
2025.6735684902228,1350
2027.6058860045214,1343
2029.5377363198004,1342
2031.4691197056118,1375
2033.4000364315875,1391
2035.3304867674374,1357
2037.260470982952,1360
2039.189989347998,1301
2041.1190421325232,1379
2043.047629606554,1443
2044.9757520401945,1360
2046.9034097036288,1415
2048.8306028671195,1398
2050.7573318010086,1336
2052.683596775716,1332
2054.609398061742,1304
2056.5347359296647,1305
2058.4596106501403,1324
2060.384022493906,1327
2062.3079717317764,1402
2064.231458634646,1338
2066.1544834734873,1311
2068.077046519352,1383
2069.99914804337,1367
2071.9207883167524,1395
2073.8419676107865,1388
2075.7626861968406,1373
2077.6829443463607,1332
2079.6027423308715,1306
2081.522080421977,1400
2083.440958891362,1380
2085.359378010786,1361
2087.2773380520907,1397
2089.194839287196,1359
2091.111881988101,1334
2093.0284664268825,1338
2094.9445928756973,1314
2096.86026160678,1298
2098.775472892446,1369
2100.690227005088,1333
2102.604524217178,1345
2104.5183648012676,1363
2106.431749029985,1371
2108.34467717604,1348
2110.2571495122206,1356
2112.169166311393,1355
2114.080727846503,1351
2115.9918343905747,1343
2117.902486216711,1336
2119.8126835980956,1350
2121.722426807987,1340
2123.6317161197285,1303
2125.5405518067364,1358
2127.448934142509,1350
2129.356863400624,1380
2131.264339854737,1366
2133.1713637785815,1344
2135.077935445972,1373
2136.9840551308002,1374
2138.889723107037,1307
2140.7949396487334,1349
2142.699705030018,1323
2144.6040195250994,1400
2146.507883408264,1365
2148.4112969538774,1325
2150.3142604363848,1367
2152.2167741303097,1417
2154.1188383102535,1365
2156.0204532508997,1366
2157.9216192270064,1332
2159.822336513414,1402
2161.7226053850413,1373
2163.622426116884,1376
2165.5217989840185,1378
2167.4207242616,1376
2169.319202224862,1376
2171.2172331491165,1397
2173.1148173097563,1365
2175.0119549822507,1393
2176.90864644215,1418
2178.8048919650823,1390
2180.7006918267534,1420
2182.596046302952,1402
2184.4909556695407,1378
2186.3854202024645,1395
2188.279440177746,1382
2190.173015871487,1399
2192.066147559868,1345
2193.958835519149,1417
2195.851080025667,1420
2197.7428813558417,1367
2199.6342397861667,1418
2201.5251555932186,1397
2203.415629053651,1414
2205.3056604441986,1433
2207.19525004167,1449
2209.084398122958,1386
2210.9731049650327,1394
2212.861370844941,1433
2214.749196039812,1460
2216.636580826851,1443
2218.523525483344,1465
2220.410030286655,1454
2222.296095514226,1429
2224.1817214435805,1477
2226.066908352319,1474
2227.951656518121,1443
2229.835966218746,1434
2231.71983773203,1466
2233.6032713358913,1466
2235.486267308324,1460
2237.3688259274036,1412
2239.2509474712824,1464
2241.132632218193,1457
2243.013880446447,1418
2244.8946924344323,1452
2246.7750684606203,1430
2248.6550088035574,1523
2250.534513741871,1522
2252.413583554265,1462
2254.292218519526,1545
2256.170418916517,1452
2258.0481850241786,1434
2259.925517121534,1439
2261.8024154876825,1471
2263.678880401803,1459
2265.5549121431536,1496
2267.430510991071,1440
2269.305677224971,1449
2271.180411124348,1474
2273.0547129687766,1412
2274.9285830379076,1422
2276.8020216114737,1473
2278.6750289692845,1456
2280.5476053912294,1416
2282.4197511572766,1535
2284.2914665474727,1537
2286.162751841943,1530
2288.0336073208937,1505
2289.904033264608,1539
2291.774029953448,1475
2293.6435976678554,1481
2295.5127366883517,1461
2297.381447295534,1456
2299.2497297700825,1372
2301.1175843927526,1392
2302.9850114443825,1376
2304.852011205885,1287
2306.7185839582553,1274
2308.5847299825664,1331
2310.4504495599676,1252
2312.3157429716925,1269
2314.1806104990483,1216
2316.0450524234247,1222
2317.9090690262888,1249
2319.772660589186,1255
2321.635827393742,1257
2323.498569721661,1302
2325.3608878547248,1173
2327.2227820747967,1285
2329.0842526638157,1214
2330.945299903803,1268
2332.805924076857,1223
2334.6661254651535,1178
2336.525904350951,1195
2338.3852610165827,1206
2340.244195744464,1235
2342.102708817088,1209
2343.9608005170253,1218
2345.8184711269287,1272
2347.675720929526,1232
2349.532550207628,1256
2351.38895924412,1251
2353.24494832197,1266
2355.100517724223,1237
2356.955667734004,1215
2358.810398634514,1210
2360.664710709037,1211
2362.5186042409337,1268
2364.3720795136437,1290
2366.225136810686,1250
2368.0777764156583,1225
2369.929998612237,1221
2371.7818036841777,1237
2373.633191915315,1253
2375.484163589562,1222
2377.3347189909114,1254
2379.184858403434,1266
2381.03458211128,1266
2382.8838903986775,1251
2384.732783549936,1209
2386.5812618494406,1258
2388.4293255816588,1270
2390.2769750311327,1269
2392.1242104824883,1269
2393.971032220427,1279
2395.8174405297295,1269
2397.6634356952563,1263
2399.509018001947,1261
2401.3541877348193,1211
2403.1989451789705,1258
2405.043290619576,1172
2406.8872243418905,1235
2408.730746631247,1219
2410.5738577730594,1236
2412.4165580528183,1238
2414.258847756095,1247
2416.100727168537,1266
2417.9421965758734,1270
2419.783256263912,1253
2421.623906518538,1223
2423.4641476257157,1211
2425.303979871491,1273
2427.143403541984,1258
2428.9824189233977,1245
2430.821026302012,1269
2432.6592259641866,1255
2434.497018196361,1267
2436.33440328505,1254
2438.171381516851,1223
2440.00795317844,1239
2441.844118556569,1250
2443.6798779380724,1231
2445.5152316098606,1258
2447.3501798589255,1253
2449.1847229723357,1234
2451.0188612372403,1279
2452.8525949408663,1279
2454.6859243705203,1250
2456.518849813587,1263
2458.3513715575314,1279
2460.183489889895,1276
2462.015205098301,1292
2463.8465174704493,1252
2465.67742729412,1270
2467.5079348571717,1208
2469.338040447542,1260
2471.1677443532476,1277
2472.9970468623833,1251
2474.825948263123,1246
2476.6544488437207,1276
2478.482548892508,1315
2480.310248697896,1264
2482.137548548374,1266
2483.9644487325118,1265
2485.790949538956,1240
2487.617051256433,1305
2489.44275417375,1281
2491.26805857979,1258
2493.0929647635157,1280
2494.917473013971,1308
2496.741583620276,1248
2498.5652968716304,1301
2500.3886130573137,1320
2502.2115324666834,1337
2504.0340553891765,1365
2505.856182114308,1301
2507.6779129316733,1339
2509.499248130945,1299
2511.3201880018764,1292
2513.140732834298,1271
2514.9608829181198,1276
2516.780638543331,1272
2518.6,1340
2520.418967578273,1308
2522.237541568376,1288
2524.0557222606144,1377
2525.8735099453706,1334
2527.6909049131086,1325
2529.507907454368,1331
2531.32451785977,1328
2533.140736420014,1387
2534.9565634258774,1357
2536.771999168218,1303
2538.5870439379714,1362
2540.4016980261526,1291
2542.2159617238544,1369
2544.02983532225,1384
2545.8433191125914,1366
2547.656413386209,1380
2549.4691184345115,1383
2551.2814345489874,1401
2553.093362021204,1374
2554.904901142808,1443
2556.716052205523,1495
2558.526815501153,1436
2560.3371913215824,1398
2562.147179958771,1391
2563.956781704761,1420
2565.7659968516705,1442
2567.5748256916986,1511
2569.3832685171224,1447
2571.1913256202984,1433
2572.9989972936614,1503
2574.806283829725,1489
2576.613185521084,1464
2578.4197026604074,1464
2580.2258355404483,1463
2582.031584454035,1486
2583.836949694077,1466
2585.6419315535613,1489
2587.4465303255533,1470
2589.2507463032002,1549
2591.0545797797245,1497
2592.8580310484303,1499
2594.6611004026995,1515
2596.463788135992,1494
2598.266094541849,1527
2600.0680199138874,1542
2601.869564545807,1546
2603.670728731383,1545
2605.4715127644704,1498
2607.2719169390048,1513
2609.071941548998,1531
2610.8715868885433,1492
2612.670853251811,1557
2614.469740933052,1556
2616.268250226594,1562
2618.0663814268455,1528
2619.864134828292,1528
2621.6615107255006,1499
2623.458509413115,1453
2625.2551311858597,1477
2627.0513763385347,1423
2628.8472451660223,1452
2630.6427379632833,1470
2632.4378550253564,1442
2634.232596647359,1486
2636.026963124488,1410
2637.8209547520187,1423
2639.6145718253065,1471
2641.407814639785,1428
2643.200683490966,1417
2644.9931786744414,1426
2646.7853004858807,1458
2648.577049221034,1421
2650.3684251757277,1397
2652.1594286458712,1392
2653.9500599274484,1372
2655.740319316525,1342
2657.5302071092437,1309
2659.3197236018286,1363
2661.10886909058,1397
2662.8976438718782,1371
2664.686048242183,1371
2666.4740824980327,1349
2668.2617469360443,1290
2670.0490418529134,1303
2671.8359675454153,1326
2673.622524310403,1334
2675.408712444811,1348
2677.1945322456495,1351
2678.979984010009,1302
2680.76506803506,1349
2682.5497846180497,1327
2684.334134056306,1302
2686.1181166472343,1281
2687.9017326883213,1266
2689.6849824771293,1296
2691.4678663113013,1338
2693.2503844885596,1262
2695.032537306705,1289
2696.8143250636167,1371
2698.5957480572542,1311
2700.3768065856534,1352
2702.1575009469316,1316
2703.937831439283,1295
2705.717798360982,1280
2707.4974020103837,1339
2709.276642685917,1230
2711.055520686095,1248
2712.834036309506,1280
2714.612189854819,1270
2716.389981620782,1277
2718.1674119062204,1213
2719.944481010041,1259
2721.721189231226,1222
2723.4975368688415,1238
2725.273524222027,1264
2727.0491515900053,1259
2728.824419272075,1289
2730.5993275676146,1309
2732.3738767760838,1302
2734.148067197016,1215
2735.921899130031,1237
2737.6953728748194,1271
2739.468488731156,1257
2741.2412469988926,1254
2743.0136479779617,1227
2744.785691968372,1288
2746.5573792702116,1277
2748.3287101836504,1254
2750.099685008934,1170
2751.870304046388,1225
2753.640567596418,1236
2755.4104759595057,1200
2757.1800294362156,1227
2758.949228327187,1193
2760.7180729331412,1245
2762.486563554877,1244
2764.254700493272,1229
2766.022484049284,1251
2767.789914523947,1214
2769.5569922183786,1221
2771.3237174337705,1213
2773.090090471394,1231
2774.8561116326036,1199
2776.6217812188274,1192
2778.3870995315756,1213
2780.1520668724356,1316
2781.9166835430747,1195
2783.6809498452394,1277
2785.444866080754,1252
2787.2084325515225,1230
2788.971649559527,1234
2790.73451740683,1240
2792.4970363955713,1214
2794.2592068279705,1251
2796.0210290063264,1189
2797.7825032330147,1236
2799.543629810493,1195
2801.304409041296,1193
2803.0648412280366,1216
2804.8249266734088,1282
2806.5846656801846,1248
2808.344058551212,1250
2810.1031055894246,1240
2811.8618070978273,1253
2813.6201633795085,1250
2815.378174737636,1252
2817.1358414754536,1224
2818.893163896285,1224
2820.6501423035334,1229
2822.4067770006814,1235
2824.1630682912883,1278
2825.9190164789957,1233
2827.6746218675207,1219
2829.429884760661,1212
2831.184805462294,1231
2832.9393842763743,1250
2834.693621506936,1215
2836.4475174580916,1213
2838.201072434034,1254
2839.954286739034,1223
2841.707160677441,1245
2843.459694553685,1226
2845.2118886722724,1217
2846.96374333779,1182
2848.7152588549034,1257
2850.4664355283567,1228
2852.217273662973,1234
2853.9677735636546,1250
2855.7179355353833,1259
2857.4677598832186,1283
2859.217246912299,1317
2860.9663969278427,1255
2862.715210235146,1257
2864.4636871395846,1264
2866.211827946614,1195
2867.9596329617652,1267
2869.7071024906536,1225
2871.4542368389684,1227
2873.20103631248,1269
2874.947501217038,1261
2876.6936318585695,1230
2878.4394285430812,1234
2880.1848915766604,1247
2881.9300212654707,1248
2883.6748179157553,1238
2885.4192818338374,1270
2887.1634133261173,1273
2888.907212699077,1249
2890.6506802592744,1212
2892.393816313348,1212
2894.1366211680142,1265
2895.8790951300693,1237
2897.621238506388,1249
2899.363051603925,1220
2901.1045347297118,1228
2902.8456881908596,1201
2904.58651229456,1217
2906.327007348081,1209
2908.067173658772,1162
2909.8070115340597,1237
2911.5465212814497,1286
2913.285703208527,1247
2915.0245576229563,1215
2916.7630848324807,1228
2918.5012851449196,1247
2920.2391588681758,1255
2921.976706310227,1251
2923.7139277791334,1210
2925.4508235830313,1249
2927.187394030137,1234
2928.923639428745,1256
2930.6595600872306,1226
2932.395156314046,1232
2934.1304284177218,1227
2935.8653767068713,1225
2937.6000014901815,1205
2939.3343030764227,1237
2941.068281774442,1189
2942.8019378931644,1203
2944.5352717415976,1233
2946.2682836288236,1321
2948.0009738640065,1245
2949.7333427563885,1207
2951.465390615289,1201
2953.1971177501086,1181
2954.9285244703265,1251
2956.6596110855,1189
2958.3903779052657,1262
2960.1208252393385,1183
2961.8509533975125,1156
2963.5807626896617,1256
2965.3102534257378,1226
2967.0394259157715,1215
2968.768280469873,1249
2970.496817398232,1203
2972.2250370111146,1190
2973.952939618869,1261
2975.6805255319196,1237
2977.4077950607707,1287
2979.134748516006,1277
2980.861386208289,1292
2982.587708448359,1276
2984.313715547037,1303
2986.039407815222,1246
2987.764785563891,1224
2989.489849104102,1278
2991.2145987469908,1160
2992.9390348037705,1207
2994.6631575857346,1197
2996.3869674042576,1228
2998.1104645707887,1207
2999.83364939686,1250
3001.5565221940783,1258
3003.2790832741334,1228
3005.0013329487924,1201
3006.7232715298996,1239
3008.4448993293804,1223
3010.166216659239,1218
3011.887223831558,1240
3013.607921158498,1203
3015.3283089522993,1194
3017.0483875252826,1292
3018.7681571898443,1227
3020.4876182584626,1224
3022.2067710436927,1217
3023.9256158581707,1260
3025.644153014609,1242
3027.362382825801,1199
3029.0803056046193,1205
3030.797921664012,1199
3032.5152313170106,1167
3034.2322348767225,1205
3035.9489326563353,1210
3037.665324969115,1226
3039.3814121284063,1232
3041.097194447633,1178
3042.812672240299,1211
3044.5278458199855,1196
3046.2427155003525,1176
3047.9572815951406,1220
3049.671544418167,1231
3051.38550428333,1277
3053.0991615046073,1230
3054.812516396051,1251
3056.5255692717974,1221
3058.2383204460575,1234
3059.9507702331257,1197
3061.662918947372,1273
3063.3747669032446,1277
3065.0863144152736,1262
3066.7975617980674,1212
3068.508509366309,1224
3070.219157434767,1264
3071.9295063182844,1193
3073.639556331785,1230
3075.3493077902704,1244
3077.058761008821,1223
3078.7679163025964,1217
3080.476773986837,1234
3082.1853343768594,1178
3083.89359778806,1229
3085.6015645359153,1249
3087.3092349359786,1185
3089.016609303884,1144
3090.7236879553434,1236
3092.4304712061476,1214
3094.136959372166,1214
3095.843152769349,1237
3097.5490517137237,1188
3099.2546565213966,1225
3100.959967508554,1239
3102.66498499146,1255
3104.3697092864577,1219
3106.0741407099695,1201
3107.778279578498,1219
3109.482126208622,1224
3111.1856809170004,1247
3112.8889440203716,1202
3114.5919158355528,1205
3116.294596679439,1230
3117.996986869006,1214
3119.6990867213062,1252
3121.4008965534726,1275
3123.102416682717,1254
3124.803647426329,1254
3126.5045891016784,1263
3128.205242026213,1288
3129.90560651746,1171
3131.605682893025,1212
3133.3054714705922,1208
3135.0049725679282,1296
3136.7041865028714,1202
3138.4031135933465,1269
3140.101754157353,1206
3141.800108512971,1256
3143.498176978357,1222
3145.1959598717494,1259
3146.8934575114636,1220
3148.5906702158954,1230
3150.2875983035183,1232
3151.9842420928853,1234
3153.680601902627,1184
3155.376678051456,1210
3157.07247085816,1193
3158.767980641609,1239
3160.463207720748,1260
3162.158152414606,1246
3163.8528150422862,1206
3165.5471959229726,1247
3167.2412953759303,1250
3168.9351137204976,1249
3170.628651276098,1265
3172.3219083622307,1250
3174.014885298474,1252
3175.707582404485,1240
3177.4000000000005,1256
3179.092138404835,1239
3180.7839979388846,1266
3182.47557892212,1215
3184.166881674594,1260
3185.8579065164386,1237
3187.5486537678626,1248
3189.2391237491547,1214
3190.9293167806827,1243
3192.6192331828934,1251
3194.3088732763117,1241
3195.998237381542,1192
3197.687325819268,1212
3199.376138910251,1208
3201.064676975334,1189
3202.7529403354347,1205
3204.4409293115523,1245
3206.1286442247647,1195
3207.816085396229,1209
3209.5032531471825,1221
3211.190147798936,1180
3212.8767696728846,1177
3214.5631190905015,1191
3216.2491963733373,1199
3217.9350018430214,1248
3219.6205358212637,1202
3221.305798629851,1160
3222.990790590651,1156
3224.6755120256103,1179
3226.359963256751,1167
3228.0441446061795,1210
3229.7280563960758,1164
3231.411698948703,1246
3233.0950725863995,1172
3234.778177631587,1207
3236.461014406761,1207
3238.1435832345005,1252
3239.8258844374595,1218
3241.507918338374,1201
3243.1896852600576,1186
3244.8711855254023,1226
3246.552419457381,1175
3248.233387379042,1222
3249.914089613516,1264
3251.59452648401,1205
3253.274698313813,1199
3254.95460542629,1228
3256.6342481448855,1222
3258.313626793125,1184
3259.9927416946084,1216
3261.6715931730196,1208
3263.3501815521176,1181
3265.0285071557437,1195
3266.706570307815,1205
3268.3843713323286,1180
3270.0619105533615,1136
3271.739188295068,1179
3273.4162048816834,1162
3275.0929606375184,1180
3276.769455886966,1238
3278.445690954498,1206
3280.1216661646613,1213
3281.797381842087,1216
3283.4728383114807,1238
3285.1480358976296,1226
3286.8229749253996,1249
3288.4976557197333,1218
3290.172078605655,1224
3291.846243908266,1211
3293.5201519527463,1210
3295.193803064357,1207
3296.8671975684374,1174
3298.5403357904024,1232
3300.21321805575,1216
3301.8858446900567,1179
3303.558216018975,1171
3305.23033236824,1206
3306.9021940636603,1221
3308.57380143113,1240
3310.2451547966184,1210
3311.916254486174,1223
3313.5871008259246,1190
3315.2576941420766,1220
3316.9280347609147,1219
3318.5981230088046,1193
3320.2679592121895,1146
3321.9375436975924,1206
3323.606876791612,1200
3325.27595882093,1196
3326.944790112305,1169
3328.6133709925753,1213
3330.2817017886573,1146
3331.949782827547,1174
3333.617614436319,1167
3335.2851969421245,1163
3336.952530672199,1207
3338.619615953853,1158
3340.286453114475,1219
3341.9530424815357,1212
3343.619384382583,1245
3345.2854791452437,1200
3346.951327097224,1174
3348.6169285663073,1201
3350.2822838803577,1224
3351.947393367319,1171
3353.61225735521,1217
3355.2768761721345,1166
3356.9412501462693,1200
3358.605379605873,1198
3360.2692648792827,1182
3361.9329062949146,1184
3363.596304181263,1151
