CollectionTime,7/11/2024 12:29:43 PM
ExposureUsed,3
CalibratedSpectrum
-962.7078968117929,563
-959.9714848408522,568
-957.2358232597828,563
-954.5009119013725,567
-951.7667505983302,594
-949.0333391832855,586
-946.3006774887896,587
-943.5687653473143,585
-940.837602591253,586
-938.1071890529199,581
-935.3775245645503,604
-932.6486089583007,613
-929.9204420662485,641
-927.1930237203925,589
-924.4663537526524,572
-921.7404319948689,593
-919.0152582788041,607
-916.2908324361409,670
-913.5671542984834,612
-910.8442236973568,604
-908.1220404642074,595
-905.4006044304027,614
-902.679915427231,596
-899.959973285902,575
-897.2407778375464,587
-894.5223289132158,599
-891.8046263438832,612
-889.0876699604426,555
-886.3714595937089,554
-883.6559950744183,592
-880.9412762332282,580
-878.2273029007168,560
-875.5140749073835,550
-872.8015920836489,530
-870.0898542598545,531
-867.3788612662631,564
-864.6686129330585,545
-861.9591090903457,559
-859.2503495681506,551
-856.5423341964203,595
-853.8350628050229,566
-851.1285352237478,541
-848.4227512823054,569
-845.7177108103272,543
-843.0134136373656,572
-840.3098595928943,568
-837.6070485063082,585
-834.9049802069229,588
-832.2036545239757,596
-829.5030712866244,567
-826.8032303239481,599
-824.1041314649472,580
-821.4057745385428,576
-818.7081593735775,583
-816.0112857988148,639
-813.3151536429393,616
-810.6197627345566,624
-807.9251129021936,597
-805.2312039742981,561
-802.5380357792392,566
-799.8456081453069,572
-797.1539209007124,567
-794.462973873588,607
-791.772766891987,581
-789.083299783884,569
-786.3945723771743,597
-783.7065844996748,609
-781.0193359791231,591
-778.3328266431781,576
-775.6470563194197,590
-772.9620248353489,578
-770.2777320183878,600
-767.5941776958798,595
-764.9113616950891,592
-762.2292838432011,621
-759.5479439673222,580
-756.8673418944801,612
-754.1874774516235,596
-751.5083504656222,598
-748.8299607632671,652
-746.15230817127,593
-743.475392516264,602
-740.7992136248035,611
-738.1237713233636,602
-735.4490654383407,627
-732.7750957960521,583
-730.1018622227365,656
-727.4293645445534,625
-724.7576025875837,599
-722.0865761778291,610
-719.4162851412126,641
-716.7467293035781,639
-714.0779084906909,613
-711.409822528237,629
-708.7424712418238,639
-706.0758544569796,641
-703.4099719991541,684
-700.7448236937178,686
-698.0804093659622,692
-695.4167288411002,697
-692.7537819442656,662
-690.0915685005134,646
-687.4300883348199,652
-684.7693412720819,641
-682.1093271371178,638
-679.4500457546669,673
-676.7914969493897,674
-674.1336805458676,670
-671.4765963686034,659
-668.8202442420206,669
-666.1646239904642,690
-663.5097354382001,682
-660.8555784094151,671
-658.2021527282176,678
-655.5494582186366,678
-652.8974947046223,663
-650.2462620100463,673
-647.5957599587009,697
-644.9459883742998,666
-642.2969470804776,703
-639.6486359007902,724
-637.0010546587141,711
-634.3542031776476,700
-631.7080812809096,684
-629.0626887917401,698
-626.4180255333008,692
-623.7740913286734,727
-621.1308860008619,678
-618.4884093727904,695
-615.8466612673046,691
-613.2056415071715,682
-610.5653499150785,698
-607.9257863136347,690
-605.28695052537,693
-602.6488423727357,686
-600.0114616781036,660
-597.3748082637674,702
-594.7388819519412,701
-592.1036825647604,732
-589.4692099242818,779
-586.8354638524829,722
-584.2024441712624,703
-581.5701507024403,722
-578.9385832677575,716
-576.3077416888759,749
-573.6776257873787,710
-571.0482353847704,676
-568.4195703024757,727
-565.7916303618415,714
-563.164415384135,691
-560.5379251905453,722
-557.9121596021815,708
-555.2871184400748,732
-552.6628015251767,717
-550.0392086783606,730
-547.4163397204204,707
-544.794194472071,747
-542.1727727539491,778
-539.5520743866118,759
-536.9320991905377,773
-534.3128469861261,815
-531.6943175936979,801
-529.0765108334947,785
-526.4594265256793,790
-523.8430644903358,920
-521.2274245474689,1002
-518.612506517005,1072
-515.9983102187913,1126
-513.3848354725959,1074
-510.77208209810846,1110
-508.16004991493924,1185
-505.5487387426199,1331
-502.9381484006032,1441
-500.3282787082628,1445
-497.71912948489364,1454
-495.1107005497117,1329
-492.5029917218539,1209
-489.8960028203786,1135
-487.28973366426493,1077
-484.68418407241325,946
-482.07935386364494,901
-479.47524285670266,859
-476.87185087025,871
-474.2691777228715,873
-471.66722323307334,886
-469.0659872192821,898
-466.4654694998459,923
-463.86566989303384,928
-461.26658821703614,916
-458.66822428996414,922
-456.07057792985,924
-453.4736489546475,943
-450.877437182231,797
-448.28194243039627,815
-445.68716451686,836
-443.09310325926003,831
-440.49975847515555,874
-437.9071299820263,841
-435.31521759727354,868
-432.72402113821954,957
-430.13354042210767,945
-427.5437752661022,917
-424.95472548728867,929
-422.36639090267386,917
-419.7787713291855,966
-417.1918665836721,996
-414.60567648290385,931
-412.0202008435715,972
-409.4354394822874,959
-406.8513922155845,917
-404.26805885991723,931
-401.685439231661,936
-399.103533147112,923
-396.522340422488,915
-393.9418608739278,926
-391.3620943174908,955
-388.7830405691583,842
-386.2046994448317,851
-383.6270707603344,816
-381.05015433141045,817
-378.473949973725,725
-375.8984575028645,721
-373.32367673433623,664
-370.74960748356875,657
-368.1762495659117,627
-365.60360279663576,589
-363.03166699093265,537
-360.4604419639154,481
-357.8899275306178,531
-355.32012350599507,492
-352.7510297049233,488
-350.1826459421999,445
-347.61497203254316,447
-345.04800779059235,457
-342.4817530309082,488
-339.91620756797226,459
-337.35137121618743,476
-334.7872437898774,521
-332.22382510328725,514
-329.66111497058273,467
-327.09911320585127,482
-324.53781962310075,507
-321.9772340362607,530
-319.4173562591816,459
-316.8581861056348,427
-314.2997233893127,456
-311.7419679238294,442
-309.1849195227194,460
-306.62857799943856,503
-304.0729431673641,512
-301.51801483979375,544
-298.963792829947,523
-296.41027695096386,565
-293.85746701590574,553
-291.3053628377552,510
-288.7539642294155,505
-286.2032710037115,499
-283.65328297338897,566
-281.1039999511146,575
-278.5554217494762,539
-276.007548180983,495
-273.4603790580651,506
-270.9139141930734,519
-268.3681533982807,522
-265.8230964858798,552
-263.27874326798565,514
-260.7350935566336,590
-258.1921471637804,639
-255.6499039013039,581
-253.10836358100266,574
-250.56752601459698,565
-248.02739101372765,604
-245.48795838995704,614
-242.94922795476816,600
-240.41119951956557,587
-237.8738728956746,631
-235.33724789434166,592
-232.80132432673452,596
-230.2661020039418,532
-227.73158073697357,537
-225.19776033676033,585
-222.66464061415422,696
-220.1322213799284,599
-217.60050244477725,593
-215.06948361931552,544
-212.53916471408013,635
-210.00954553952818,681
-207.48062590603843,631
-204.9524056239104,620
-202.4248845033651,685
-199.8980623545441,680
-197.37193898751036,687
-194.84651421224817,691
-192.32178783866232,717
-189.79775967657952,755
-187.27442953574644,663
-184.7517972258321,798
-182.2298625564256,805
-179.7086253370378,719
-177.18808537710026,761
-174.66824248596583,695
-172.14909647290835,745
-169.6306471471229,717
-167.11289431772548,781
-164.59583779375328,781
-162.07947738416453,732
-159.5638128978386,762
-157.04884414357605,813
-154.53457093009854,881
-152.02099306604828,814
-149.50811035998936,781
-146.99592262040665,750
-144.48442965570587,830
-141.97363127421409,805
-139.46352728417958,794
-136.95411749377126,861
-134.44540171107985,895
-131.93737974411636,903
-129.43005140081357,823
-126.92341648902493,904
-124.41747481652521,939
-121.91222619101006,1063
-119.40767042009657,1323
-116.90380731132257,1381
-114.40063667214702,1336
-111.8981583099503,1323
-109.3963720320337,1145
-106.89527764561933,1206
-104.39487495785067,1401
-101.89516377579241,1927
-99.39614390642998,2608
-96.89781515667039,2825
-94.40017733334128,2810
-91.90323024319173,3493
-89.40697369289148,6166
-86.91140748903172,8979
-84.41653143812482,7745
-81.92234534660395,5424
-79.42884902082358,4194
-76.93604226705907,6929
-74.4439248915071,15735
-71.95249670028534,25388
-69.46175749943245,29187
-66.97170709490854,26662
-64.48234529259423,20640
-61.99367189829195,16612
-59.50568671772464,13735
-57.01838955653636,10609
-54.53178022029283,10006
-52.045858514480074,12416
-49.560624244506016,14163
-47.07607721569923,14606
-44.59221723330904,14564
-42.10904410250669,13817
-39.62655762838392,12768
-37.14475761595372,10875
-34.66364387015028,9839
-32.18321619582866,7900
-29.70347439776515,6290
-27.224418280657005,6424
-24.74604764912317,7113
-22.26836230770266,11193
-19.7913620608565,22120
-17.315046712966478,40509
-14.83941606833514,55104
-12.36446993118659,65039
-9.89020810566592,65039
-7.416630395839093,65039
-4.94373660569363,65039
-2.471526539137585,65039
-6.821210263296962E-13,65039
2.47084320796705,65039
4.941003281093458,65039
7.410480415786196,65039
9.879274808531363,65039
12.347386655893956,65039
14.814816154518212,65039
17.28156350112681,65039
19.74762889252179,65039
22.21301252558385,65039
24.67771459727237,20638
27.141735304626195,3907
29.605074844762612,2779
32.06773341487792,2739
34.52971121224755,2627
36.99100843422559,2694
39.45162527824516,2032
41.91156194181792,1641
44.370818622535126,1487
46.82939551806646,1423
49.287292826160524,1610
51.74451074464503,2126
54.201049471426245,2397
56.65690920448981,1818
59.112090141899785,1504
61.56659248179983,1520
64.02041642241159,1370
66.4735621620365,1263
68.92602989905402,1154
71.37781983192338,1259
73.82893215918205,1447
76.27936707944684,1408
78.72912479141326,1193
81.17820549385567,1359
83.62660938562783,1792
86.07433666566146,1397
88.5213875329681,1058
90.96776218663751,1106
93.41346082583925,1034
95.85848364982041,1086
98.30283085790859,1280
100.7465026495089,1197
103.18949922410604,1171
105.63182078126385,1181
108.07346752062438,1185
110.51443964190923,852
112.95473734491827,827
115.39436082953114,904
117.83331029570547,967
120.27158594347827,934
122.7091879729652,1045
125.1461165843615,977
127.58237197794062,905
130.01795435405518,853
132.4528639131364,904
134.88710085569494,976
137.32066538231982,892
139.75355769367923,867
142.1857779905207,883
144.61732647366978,849
147.04820334403132,805
149.47840880258934,781
151.90794305040674,862
154.33680628862487,995
156.76499871846443,1235
159.19252054122433,1362
161.61937195828352,1364
164.04555317109896,1586
166.47106438120693,1699
168.89590579022217,1793
171.320077599839,2008
173.7435800118302,2142
176.16641322804742,2295
178.58857745042144,2337
181.01007288096173,2452
183.43089972175687,2452
185.85105817497413,2409
188.27054844285988,2418
190.6893707277394,2415
193.10752523201643,2388
195.5250121581745,2503
197.9418317087751,2519
200.3579840864594,2540
202.7734694939469,2626
205.18828813403627,2666
207.6024402096051,2830
210.01592592360964,2734
212.42874547908548,2722
214.84089907914665,2720
217.2523869269868,2630
219.66320922587727,2651
222.0733661791695,2634
224.48285799029293,2612
226.8916848627572,2600
229.29984700014882,2647
231.7073446061355,2643
234.11417788446204,2739
236.520347038953,2667
238.92585227351185,2786
241.33069379212054,2896
243.73487179884035,2996
246.1383864978112,3025
248.541238093252,2988
250.9434267894609,2989
253.34495279081432,3098
255.74581630176783,3102
258.1460175268563,3095
260.54555667069314,3042
262.9444339379703,2993
265.3426495334594,2970
267.7402036620107,2876
270.1370965285529,2833
272.53332833809407,2722
274.9288992957214,2643
277.32380960660055,2527
279.718059475976,2456
282.1116491091717,2565
284.5045787115897,2446
286.89684848871195,2464
289.2884586460981,2505
291.67940938938807,2492
294.0697009242996,2483
296.4593334566299,2414
298.84830719225477,2355
301.23662233712923,2422
303.6242790972866,2314
306.01127767884,2349
308.39761828798066,2337
310.78330113097934,2288
313.16832641418534,2275
315.5526943440269,2121
317.9364051270112,2251
320.3194589697242,2251
322.70185607883093,2323
325.0835966610754,2186
327.4646809232805,2130
329.8451090723478,2167
332.2248813152577,2077
334.6039978590701,2133
336.9824589109231,2040
339.36026467803447,2035
341.7374153677,2041
344.113911187295,2096
346.48975234427337,2043
348.8649390461686,2033
351.2394715005918,2007
353.61334991523415,2082
355.9865744978655,2038
358.35914545633375,2019
360.73106299856715,2055
363.10232733257146,2031
365.47293866643247,2057
367.84289720831396,1983
370.2122031664593,1957
372.5808567491905,1889
374.9488581649083,1994
377.31620762209275,1979
379.6829053293021,1955
382.0489514951745,1891
384.4143463284262,1946
386.7790900378528,2000
389.14318283232853,1918
391.50662492080653,1856
393.86941651231916,1888
396.23155781597745,1853
398.5930490409713,1909
400.9538903965696,1936
403.3140820921202,1920
405.6736243370498,1931
408.03251734086336,1877
410.3907613131465,1820
412.74835646356166,1856
415.10530300185144,1856
417.4616011378372,1862
419.81725108141893,1824
422.1722530425758,1862
424.5266072313656,1875
426.880313857925,1841
429.2333731324701,1879
431.58578526529516,1886
433.9375504667738,1826
436.2886689473588,1845
438.63914091758113,1817
440.9889665880513,1803
443.33814616945835,1804
445.68667987257015,1780
448.03456790823395,1778
450.3818104873759,1744
452.72840782100013,1763
455.07436012019105,1770
457.41966759611057,1781
459.7643304600007,1790
462.10834892318155,1822
464.4517231970525,1798
466.79445349309174,1800
469.1365400228566,1783
471.4779829979826,1801
473.81878263018564,1771
476.15893913125876,1795
478.4984527130747,1891
480.8373235875855,1836
483.17555196682144,1807
485.5131380628919,1912
487.8500820879857,1934
490.1863842543697,2052
492.52204477439034,2205
494.8570638604725,2353
497.1914417251204,2725
499.52517858091653,2913
501.85827464052306,3014
504.19073011668036,3096
506.5225452222086,3144
508.85372017000566,3050
511.18425517304956,3024
513.514150444396,3025
515.8434061971808,3550
518.1720226446176,4166
520.4999999999999,4431
522.8273384766991,4087
525.1540382881666,3861
527.480099647932,3425
529.8055227696037,2993
532.1303078668694,2358
534.454455153496,2070
536.777964843328,1924
539.1008371502907,1887
541.4230722883866,1883
543.744670471698,1811
546.0656319143858,1828
548.3859568306899,1819
550.7056454349294,1729
553.0246979415016,1760
555.3431145648834,1843
557.6608955196306,1777
559.978041020377,1788
562.2945512818363,1753
564.6104265188006,1802
566.9256669461412,1826
569.2402727788082,1786
571.5542442318302,1786
573.8675815203156,1781
576.1802848594508,1822
578.4923544645015,1768
580.8037905508126,1832
583.114593333807,1829
585.4247630289875,1669
587.7342998519354,1810
590.0432040183106,1828
592.3514757438526,1810
594.6591152443794,1799
596.9661227357875,1874
599.2724984340531,1807
601.578242555231,1878
603.8833553154542,1855
606.1878369309362,1813
608.4916876179676,1708
610.7949075929192,1852
613.0974970722403,1817
615.3994562724587,1858
617.7007854101818,1787
620.0014847020951,1804
622.3015543649641,1822
624.6009946156324,1857
626.8998056710224,1924
629.1979877481361,1831
631.4955410640538,1861
633.7924658359349,1827
636.0887622810175,1746
638.3844306166192,1827
640.6794710601358,1862
642.9738838290426,1890
645.2676691408932,1876
647.5608272133207,1819
649.853358264037,1948
652.1452625108324,1824
654.4365401715764,1872
656.7271914642178,1926
659.0172166067838,1879
661.3066158173809,1951
663.5953893141935,1892
665.8835373154867,1914
668.1710600396028,1927
670.4579577049639,1888
672.7442305300709,1820
675.0298787335033,1861
677.3149025339197,1888
679.599302150058,1864
681.8830778007342,1862
684.1662297048437,1894
686.4487580813608,1876
688.7306631493387,1913
691.0119451279091,1842
693.2926042362834,1906
695.5726406937516,1831
697.8520547196814,1887
700.1308465335215,1903
702.4090163547982,1816
704.6865644031171,1846
706.9634908981619,1891
709.2397960596965,1908
711.5154801075631,1920
713.7905432616823,1900
716.0649857420548,1847
718.3388077687592,1866
720.612009561953,1877
722.8845913418733,1819
725.1565533288352,1831
727.427895743234,1866
729.6986188055427,1898
731.9687227363137,1899
734.238207756178,1824
736.5070740858458,1853
738.7753219461066,1872
741.0429515578281,1894
743.3099631419569,1852
745.5763569195191,1796
747.8421331116193,1836
750.1072919394409,1762
752.3718336242467,1790
754.6357583873777,1780
756.8990664502545,1797
759.1617580343765,1912
761.423833361321,1900
763.6852926527457,1814
765.9461361303862,1795
768.206364016058,1860
770.4659765316536,1935
772.7249738991469,1865
774.9833563405886,1890
777.2411240781092,1850
779.4982773339183,1810
781.7548163303044,1800
784.010741289634,1864
786.2660524343538,1967
788.5207499869881,1886
790.7748341701416,1888
793.0283052064964,1833
795.2811633188143,1911
797.5334087299362,1925
799.7850416627813,1948
802.0360623403484,1877
804.2864709857143,1857
806.5362678220353,1934
808.7854530725468,1824
811.0340269605625,1888
813.2819897094754,1839
815.5293415427581,1859
817.77608268396,1838
820.0222133567116,1899
822.2677337847211,1900
824.5126441917765,1867
826.7569448017433,1909
829.0006358385675,1859
831.2437175262731,1896
833.4861900889629,1885
835.7280537508192,1912
837.9693087361026,1915
840.2099552691533,1970
842.4499935743896,1937
844.689423876309,1818
846.9282463994886,1837
849.1664613685833,1876
851.4040690083276,1868
853.6410695435349,1871
855.877463199097,1830
858.1132501999847,1877
860.3484307712487,1840
862.5830051380175,1934
864.8169735254988,1867
867.0503361589791,1866
869.2830932638243,1899
871.5152450654786,1911
873.7467917894654,1945
875.9777336613873,1964
878.2080709069252,1918
880.4378037518389,1969
882.666932421968,1972
884.8954571432301,1959
887.1233781416219,1896
889.3506956432192,1894
891.5774098741766,1995
893.803521060728,1963
896.0290294291852,1921
898.2539352059397,1970
900.4782386174619,1950
902.7019398903011,1981
904.925039251085,1952
907.147536926521,1943
909.3694331433943,1887
911.59072812857,1936
913.8114221089921,1958
916.0315153116827,1952
918.2510079637437,1933
920.4699002923547,1903
922.6881925247761,1938
924.905884888345,1910
927.1229776104793,1915
929.3394709186747,1896
931.555365040506,1905
933.7706602036275,1911
935.9853566357709,1877
938.1994545647489,1910
940.4129542184515,1986
942.6258558248488,1897
944.8381596119883,1953
947.0498658079974,1862
949.2609746410825,1878
951.4714863395287,1823
953.6814011316998,1800
955.8907192460387,1882
958.0994409110671,1920
960.3075663553858,1845
962.5150958076741,1850
964.7220294966913,1884
966.928367651274,1919
969.1341105003388,1864
971.3392582728806,1828
973.5438111979742,1781
975.747769504772,1731
977.9511334225061,1808
980.153903180487,1786
982.3560790081052,1792
984.5576611348289,1764
986.7586497902058,1706
988.9590452038618,1713
991.158847605503,1717
993.3580572249133,1732
995.5566742919558,1722
997.7546990365728,1705
999.952131688785,1630
1002.1489724786926,1699
1004.3452216364743,1636
1006.5408793923874,1584
1008.7359459767691,1559
1010.9304216200343,1599
1013.1243065526781,1579
1015.3176010052733,1605
1017.510305208472,1588
1019.7024193930064,1592
1021.8939437896848,1569
1024.0848786293977,1550
1026.2752241431122,1571
1028.4649805618747,1585
1030.6541481168115,1605
1032.842727039127,1559
1035.0307175601051,1623
1037.2181199111074,1534
1039.4049343235752,1530
1041.591161029029,1529
1043.7768002590683,1546
1045.9618522453698,1567
1048.1463172196918,1585
1050.3301954138697,1545
1052.513487059818,1565
1054.69619238953,1518
1056.8783116350783,1559
1059.0598450286152,1539
1061.2407928023704,1488
1063.4211551886528,1538
1065.6009324198508,1499
1067.780124728432,1511
1069.9587323469414,1513
1072.1367555080046,1538
1074.314194444325,1530
1076.4910493886855,1531
1078.667320573947,1502
1080.843008233051,1478
1083.0181125990161,1496
1085.1926339049414,1457
1087.3665723840027,1513
1089.5399282694575,1459
1091.7127017946405,1466
1093.8848931929647,1434
1096.0565026979243,1444
1098.2275305430899,1402
1100.3979769621128,1463
1102.567842188722,1498
1104.737126456726,1455
1106.9058300000124,1389
1109.0739530525475,1469
1111.2414958483764,1470
1113.4084586216231,1409
1115.5748416064907,1475
1117.7406450372605,1442
1119.9058691482942,1443
1122.0705141740304,1423
1124.2345803489884,1441
1126.3980679077658,1508
1128.5609770850388,1427
1130.7233081155623,1433
1132.8850612341707,1363
1135.0462366757774,1406
1137.2068346753745,1440
1139.3668554680326,1393
1141.526299288901,1394
1143.68516637321,1399
1145.8434569562655,1405
1148.001171273455,1372
1150.158309560244,1411
1152.3148720521767,1385
1154.470858984876,1442
1156.626270594044,1417
1158.7811071154629,1452
1160.9353687849912,1467
1163.089055838569,1410
1165.242168512213,1417
1167.3947070420209,1414
1169.5466716641677,1365
1171.6980626149075,1407
1173.8488801305748,1423
1175.9991244475814,1350
1178.1487958024186,1393
1180.2978944316555,1373
1182.4464205719428,1421
1184.5943744600072,1393
1186.7417563326567,1373
1188.8885664267755,1383
1191.0348049793297,1390
1193.1804722273619,1380
1195.325568407995,1395
1197.4700937584303,1385
1199.614048515948,1399
1201.7574329179074,1398
1203.900247201746,1406
1206.042491604982,1397
1208.1841663652099,1351
1210.3252717201053,1383
1212.465807907422,1404
1214.6057751649923,1409
1216.7451737307279,1452
1218.8840038426192,1435
1221.0222657387353,1431
1223.1599596572241,1451
1225.2970858363137,1398
1227.4336445143094,1440
1229.5696359295966,1376
1231.705060320639,1423
1233.8399179259786,1444
1235.9742089842384,1465
1238.107933734118,1456
1240.2410924143974,1439
1242.373685263935,1461
1244.5057125216676,1452
1246.6371744266116,1477
1248.7680712178621,1464
1250.898403134593,1465
1253.028170416058,1460
1255.1573733015875,1484
1257.2860120305932,1402
1259.4140868425648,1475
1261.54159797707,1387
1263.6685456737569,1442
1265.7949301723515,1458
1267.9207517126597,1462
1270.046010534565,1485
1272.1707068780306,1498
1274.2948409830983,1537
1276.4184130898889,1509
1278.541423438603,1480
1280.6638722695184,1492
1282.785759822993,1480
1284.9070863394636,1465
1287.0278520594447,1476
1289.1480572235314,1531
1291.2677020723963,1492
1293.3867868467923,1486
1295.5053117875495,1499
1297.623277135579,1524
1299.740683131868,1520
1301.8575300174857,1566
1303.973818033578,1595
1306.0895474213703,1596
1308.2047184221678,1553
1310.3193312773528,1575
1312.4333862283888,1494
1314.5468835168163,1568
1316.659823384255,1610
1318.7722060724045,1567
1320.8840318230418,1608
1322.9953008780249,1617
1325.1060134792888,1516
1327.2161698688478,1581
1329.3257702887959,1591
1331.4348149813054,1573
1333.5433041886276,1520
1335.6512381530933,1603
1337.7586171171101,1536
1339.8654413231675,1617
1341.9717110138317,1621
1344.0774264317488,1576
1346.1825878196432,1561
1348.2871954203192,1575
1350.3912494766587,1526
1352.4947502316231,1555
1354.5976979282532,1605
1356.7000928096686,1584
1358.8019351190665,1465
1360.9032250997243,1568
1363.0039629949988,1556
1365.1041490483235,1577
1367.2037835032133,1552
1369.3028666032606,1613
1371.401398592137,1538
1373.4993797135926,1546
1375.5968102114575,1547
1377.6936903296396,1570
1379.7900203121262,1617
1381.8858004029835,1592
1383.9810308463561,1599
1386.075711886469,1568
1388.1698437676241,1633
1390.2634267342032,1568
1392.356461030667,1627
1394.4489469015557,1624
1396.5408845914872,1576
1398.6322743451592,1633
1400.7231164073469,1699
1402.813411022907,1632
1404.903158436773,1687
1406.9923588939578,1717
1409.0810126395531,1689
1411.1691199187303,1680
1413.2566809767386,1757
1415.343696058907,1681
1417.4301654106425,1757
1419.5160892774315,1779
1421.6014679048399,1802
1423.6863015385125,1721
1425.7705904241707,1761
1427.8543348076178,1683
1429.9375349347342,1765
1432.0201910514802,1709
1434.102303403894,1762
1436.1838722380944,1806
1438.2648978002767,1785
1440.3453803367174,1838
1442.4253200937692,1831
1444.5047173178677,1843
1446.5835722555234,1921
1448.6618851533285,1955
1450.739656257952,1973
1452.8168858161434,2040
1454.8935740747306,2014
1456.96972128062,2099
1459.045327680797,2068
1461.120393522327,2110
1463.1949190523528,2149
1465.2689045180973,2094
1467.3423501668608,2248
1469.415256246024,2237
1471.4876230030463,2329
1473.559450685465,2326
1475.6307395408976,2421
1477.7014898170391,2370
1479.771701761665,2375
1481.8413756226287,2412
1483.9105116478618,2478
1485.9791100853772,2535
1488.0471711832643,2576
1490.1146951896926,2598
1492.1816823529098,2618
1494.2481329212433,2632
1496.3140471430984,2688
1498.3794252669609,2739
1500.4442675413939,2682
1502.5085742150404,2767
1504.572345536622,2800
1506.6355817549388,2746
1508.6982831188702,2838
1510.7604498773744,2894
1512.8220822794883,2865
1514.8831805743293,2835
1516.9437450110909,2953
1519.003775839048,2914
1521.0632733075522,2955
1523.1222376660367,3051
1525.1806691640113,2968
1527.2385680510652,3084
1529.2959345768668,2997
1531.3527689911643,3062
1533.4090715437833,3167
1535.4648424846291,3229
1537.5200820636855,3110
1539.5747905310159,3214
1541.6289681367616,3226
1543.6826151311434,3276
1545.7357317644614,3303
1547.7883182870937,3407
1549.8403749494987,3527
1551.8919020022113,3503
1553.9428996958477,3505
1555.9933682811015,3583
1558.0433080087469,3651
1560.0927191296346,3707
1562.1416018946961,3913
1564.1899565549415,3762
1566.2377833614592,3791
1568.2850825654164,3766
1570.3318544180606,3655
1572.3780991707158,3458
1574.423817074788,3380
1576.4690083817595,3237
1578.5136733431923,3095
1580.5578122107272,2969
1582.601425236085,2882
1584.6445126710646,2745
1586.6870747675434,2682
1588.7291117774776,2557
1590.7706239529034,2413
1592.8116115459347,2344
1594.8520748087658,2284
1596.8920139936686,2206
1598.9314293529933,2154
1600.9703211391711,2081
1603.008689604711,1983
1605.0465350022005,1927
1607.0838575843068,1992
1609.1206576037753,1835
1611.1569353134305,1826
1613.1926909661765,1740
1615.2279248149953,1766
1617.2626371129481,1736
1619.2968281131757,1752
1621.3304980688963,1728
1623.3636472334088,1679
1625.39627586009,1640
1627.428384202396,1610
1629.459972513861,1618
1631.4910410480993,1565
1633.5215900588028,1597
1635.551619799744,1603
1637.5811305247717,1576
1639.6101224878166,1603
1641.6385959428862,1513
1643.6665511440683,1583
1645.693988345528,1533
1647.7209078015112,1524
1649.7473097663405,1595
1651.7731944944203,1572
1653.7985622402307,1539
1655.823413258333,1506
1657.847747803366,1518
1659.8715661300494,1497
1661.8948684931793,1509
1663.9176551476316,1565
1665.9399263483624,1514
1667.9616823504057,1562
1669.982923408873,1486
1672.0036497789574,1559
1674.0238617159293,1510
1676.043559475138,1498
1678.0627433120121,1544
1680.081413482059,1457
1682.0995702408654,1457
1684.117213844096,1515
1686.134344547495,1493
1688.1509626068864,1483
1690.1670682781705,1534
1692.182661817329,1467
1694.1977434804217,1499
1696.2123135235875,1432
1698.226372203043,1497
1700.2399197750851,1455
1702.2529564960905,1494
1704.2654826225112,1502
1706.277498410882,1532
1708.2890041178139,1494
1710.2999999999988,1495
1712.3104863142066,1530
1714.3204633172854,1460
1716.329931266163,1447
1718.3388904178469,1493
1720.3473410294214,1450
1722.3552833580516,1465
1724.3627176609807,1474
1726.3696441955308,1415
1728.3760632191033,1441
1730.3819749891782,1423
1732.3873797633146,1428
1734.3922777991502,1456
1736.3966693544012,1434
1738.4005546868639,1431
1740.4039340544127,1428
1742.406807715001,1433
1744.4091759266616,1402
1746.4110389475054,1401
1748.4123970357223,1406
1750.413250449582,1431
1752.4135994474318,1358
1754.4134442876993,1388
1756.4127852288902,1396
1758.4116225295893,1366
1760.4099564484595,1410
1762.407787244244,1407
1764.405115175764,1441
1766.4019405019203,1400
1768.3982634816916,1385
1770.3940843741357,1353
1772.3894034383907,1396
1774.3842209336717,1352
1776.378537119274,1366
1778.372352254571,1336
1780.3656665990156,1334
1782.3584804121397,1399
1784.3507939535534,1336
1786.3426074829463,1296
1788.3339212600863,1313
1790.3247355448211,1369
1792.3150505970766,1350
1794.3048666768573,1302
1796.2941840442477,1364
1798.2830029594106,1344
1800.2713236825884,1325
1802.2591464741004,1403
1804.2464715943465,1426
1806.2332993038058,1379
1808.2196298630352,1358
1810.2054635326708,1326
1812.190800573428,1342
1814.175641246101,1305
1816.1599858115628,1331
1818.1438345307652,1319
1820.127187664738,1358
1822.1100454745924,1313
1824.092408221516,1334
1826.0742761667766,1367
1828.055649571721,1354
1830.0365286977735,1358
1832.0169138064398,1350
1833.9968051593014,1338
1835.9762030180214,1385
1837.9551076443408,1391
1839.9335193000788,1292
1841.9114382471344,1358
1843.888864747485,1313
1845.8657990631878,1324
1847.842241456378,1283
1849.8181921892697,1366
1851.7936515241558,1335
1853.7686197234098,1339
1855.7430970494815,1283
1857.7170837649014,1321
1859.6905801322787,1347
1861.6635864143004,1332
1863.6361028737338,1367
1865.608129773424,1386
1867.5796673762961,1314
1869.5507159453537,1348
1871.521275743678,1334
1873.4913470344313,1282
1875.4609300808534,1372
1877.4300251462632,1353
1879.3986324940588,1366
1881.366752387717,1335
1883.3343850907936,1331
1885.3015308669228,1309
1887.268189979819,1322
1889.2343626932739,1339
1891.2000492711595,1349
1893.1652499774254,1337
1895.1299650761011,1340
1897.0941948312952,1385
1899.0579395071945,1347
1901.0211993680641,1398
1902.98397467825,1349
1904.9462657021745,1379
1906.9080727043415,1415
1908.869395949332,1352
1910.8302357018065,1334
1912.790592226504,1328
1914.7504657882428,1292
1916.7098566519212,1328
1918.6687650825133,1360
1920.6271913450764,1307
1922.5851357047422,1347
1924.5425984267245,1344
1926.499579776314,1317
1928.4560800188833,1329
1930.4120994198802,1317
1932.367638244833,1415
1934.32269675935,1357
1936.2772752291175,1297
1938.231373919899,1324
1940.1849930975404,1358
1942.1381330279637,1351
1944.0907939771696,1435
1946.0429762112412,1371
1947.9946799963363,1293
1949.9459055986945,1323
1951.896653284633,1360
1953.8469233205478,1381
1955.7967159729142,1362
1957.7460315082863,1277
1959.6948701932974,1346
1961.6432322946594,1350
1963.5911180791632,1290
1965.5385278136787,1369
1967.4854617651545,1318
1969.4319202006182,1355
1971.377903387176,1397
1973.3234115920136,1348
1975.268445082395,1389
1977.2130041256642,1284
1979.1570889892423,1275
1981.1006999406304,1284
1983.04383724741,1324
1984.986501177238,1301
1986.928691997853,1303
1988.8704099770712,1287
1990.811655382789,1310
1992.7524284829801,1339
1994.692729545698,1324
1996.6325588390755,1265
1998.5719166313224,1339
2000.5108031907307,1350
2002.4492187856677,1281
2004.387163684583,1321
2006.3246381560011,1343
2008.2616424685298,1299
2010.1981768908527,1309
2012.1342416917332,1328
2014.069837140014,1325
2016.0049635046162,1311
2017.9396210545406,1274
2019.8738100588666,1272
2021.8075307867502,1317
2023.740783507431,1265
2025.6735684902228,1313
2027.6058860045214,1232
2029.5377363198004,1251
2031.4691197056118,1310
2033.4000364315875,1315
2035.3304867674374,1295
2037.260470982952,1307
2039.189989347998,1291
2041.1190421325232,1264
2043.047629606554,1245
2044.9757520401945,1300
2046.9034097036288,1286
2048.8306028671195,1259
2050.7573318010086,1245
2052.683596775716,1294
2054.609398061742,1280
2056.5347359296647,1246
2058.4596106501403,1259
2060.384022493906,1240
2062.3079717317764,1301
2064.231458634646,1257
2066.1544834734873,1292
2068.077046519352,1257
2069.99914804337,1297
2071.9207883167524,1278
2073.8419676107865,1251
2075.7626861968406,1249
2077.6829443463607,1267
2079.6027423308715,1304
2081.522080421977,1265
2083.440958891362,1255
2085.359378010786,1323
2087.2773380520907,1244
2089.194839287196,1270
2091.111881988101,1251
2093.0284664268825,1263
2094.9445928756973,1285
2096.86026160678,1284
2098.775472892446,1242
2100.690227005088,1258
2102.604524217178,1269
2104.5183648012676,1291
2106.431749029985,1266
2108.34467717604,1302
2110.2571495122206,1291
2112.169166311393,1266
2114.080727846503,1246
2115.9918343905747,1249
2117.902486216711,1233
2119.8126835980956,1263
2121.722426807987,1323
2123.6317161197285,1289
2125.5405518067364,1331
2127.448934142509,1303
2129.356863400624,1273
2131.264339854737,1288
2133.1713637785815,1291
2135.077935445972,1285
2136.9840551308002,1300
2138.889723107037,1219
2140.7949396487334,1286
2142.699705030018,1260
2144.6040195250994,1292
2146.507883408264,1278
2148.4112969538774,1257
2150.3142604363848,1283
2152.2167741303097,1262
2154.1188383102535,1246
2156.0204532508997,1296
2157.9216192270064,1283
2159.822336513414,1264
2161.7226053850413,1285
2163.622426116884,1235
2165.5217989840185,1308
2167.4207242616,1302
2169.319202224862,1297
2171.2172331491165,1252
2173.1148173097563,1301
2175.0119549822507,1294
2176.90864644215,1323
2178.8048919650823,1283
2180.7006918267534,1319
2182.596046302952,1355
2184.4909556695407,1338
2186.3854202024645,1334
2188.279440177746,1402
2190.173015871487,1345
2192.066147559868,1293
2193.958835519149,1296
2195.851080025667,1265
2197.7428813558417,1285
2199.6342397861667,1385
2201.5251555932186,1362
2203.415629053651,1350
2205.3056604441986,1375
2207.19525004167,1358
2209.084398122958,1348
2210.9731049650327,1344
2212.861370844941,1390
2214.749196039812,1350
2216.636580826851,1378
2218.523525483344,1338
2220.410030286655,1336
2222.296095514226,1385
2224.1817214435805,1365
2226.066908352319,1344
2227.951656518121,1332
2229.835966218746,1373
2231.71983773203,1374
2233.6032713358913,1370
2235.486267308324,1344
2237.3688259274036,1334
2239.2509474712824,1323
2241.132632218193,1409
2243.013880446447,1349
2244.8946924344323,1337
2246.7750684606203,1390
2248.6550088035574,1335
2250.534513741871,1320
2252.413583554265,1357
2254.292218519526,1414
2256.170418916517,1293
2258.0481850241786,1314
2259.925517121534,1340
2261.8024154876825,1352
2263.678880401803,1357
2265.5549121431536,1403
2267.430510991071,1371
2269.305677224971,1369
2271.180411124348,1412
2273.0547129687766,1340
2274.9285830379076,1350
2276.8020216114737,1302
2278.6750289692845,1388
2280.5476053912294,1369
2282.4197511572766,1350
2284.2914665474727,1401
2286.162751841943,1390
2288.0336073208937,1436
2289.904033264608,1423
2291.774029953448,1458
2293.6435976678554,1382
2295.5127366883517,1383
2297.381447295534,1390
2299.2497297700825,1359
2301.1175843927526,1261
2302.9850114443825,1323
2304.852011205885,1230
2306.7185839582553,1269
2308.5847299825664,1209
2310.4504495599676,1195
2312.3157429716925,1160
2314.1806104990483,1205
2316.0450524234247,1180
2317.9090690262888,1195
2319.772660589186,1155
2321.635827393742,1138
2323.498569721661,1179
2325.3608878547248,1163
2327.2227820747967,1167
2329.0842526638157,1132
2330.945299903803,1219
2332.805924076857,1171
2334.6661254651535,1261
2336.525904350951,1188
2338.3852610165827,1170
2340.244195744464,1180
2342.102708817088,1200
2343.9608005170253,1160
2345.8184711269287,1140
2347.675720929526,1148
2349.532550207628,1142
2351.38895924412,1186
2353.24494832197,1178
2355.100517724223,1192
2356.955667734004,1190
2358.810398634514,1172
2360.664710709037,1246
2362.5186042409337,1168
2364.3720795136437,1212
2366.225136810686,1253
2368.0777764156583,1190
2369.929998612237,1194
2371.7818036841777,1199
2373.633191915315,1218
2375.484163589562,1232
2377.3347189909114,1208
2379.184858403434,1213
2381.03458211128,1198
2382.8838903986775,1226
2384.732783549936,1238
2386.5812618494406,1189
2388.4293255816588,1251
2390.2769750311327,1246
2392.1242104824883,1199
2393.971032220427,1219
2395.8174405297295,1173
2397.6634356952563,1204
2399.509018001947,1231
2401.3541877348193,1140
2403.1989451789705,1302
2405.043290619576,1228
2406.8872243418905,1234
2408.730746631247,1266
2410.5738577730594,1202
2412.4165580528183,1235
2414.258847756095,1211
2416.100727168537,1196
2417.9421965758734,1178
2419.783256263912,1185
2421.623906518538,1212
2423.4641476257157,1195
2425.303979871491,1225
2427.143403541984,1241
2428.9824189233977,1202
2430.821026302012,1257
2432.6592259641866,1242
2434.497018196361,1221
2436.33440328505,1240
2438.171381516851,1179
2440.00795317844,1200
2441.844118556569,1256
2443.6798779380724,1273
2445.5152316098606,1240
2447.3501798589255,1234
2449.1847229723357,1261
2451.0188612372403,1171
2452.8525949408663,1232
2454.6859243705203,1234
2456.518849813587,1198
2458.3513715575314,1255
2460.183489889895,1221
2462.015205098301,1170
2463.8465174704493,1243
2465.67742729412,1227
2467.5079348571717,1228
2469.338040447542,1252
2471.1677443532476,1251
2472.9970468623833,1263
2474.825948263123,1215
2476.6544488437207,1221
2478.482548892508,1245
2480.310248697896,1286
2482.137548548374,1231
2483.9644487325118,1277
2485.790949538956,1222
2487.617051256433,1228
2489.44275417375,1284
2491.26805857979,1287
2493.0929647635157,1253
2494.917473013971,1282
2496.741583620276,1270
2498.5652968716304,1276
2500.3886130573137,1291
2502.2115324666834,1318
2504.0340553891765,1341
2505.856182114308,1247
2507.6779129316733,1292
2509.499248130945,1287
2511.3201880018764,1357
2513.140732834298,1286
2514.9608829181198,1267
2516.780638543331,1266
2518.6,1268
2520.418967578273,1287
2522.237541568376,1309
2524.0557222606144,1292
2525.8735099453706,1269
2527.6909049131086,1335
2529.507907454368,1371
2531.32451785977,1429
2533.140736420014,1364
2534.9565634258774,1381
2536.771999168218,1376
2538.5870439379714,1408
2540.4016980261526,1399
2542.2159617238544,1416
2544.02983532225,1382
2545.8433191125914,1398
2547.656413386209,1381
2549.4691184345115,1462
2551.2814345489874,1444
2553.093362021204,1444
2554.904901142808,1469
2556.716052205523,1444
2558.526815501153,1463
2560.3371913215824,1434
2562.147179958771,1447
2563.956781704761,1528
2565.7659968516705,1498
2567.5748256916986,1492
2569.3832685171224,1520
2571.1913256202984,1486
2572.9989972936614,1619
2574.806283829725,1515
2576.613185521084,1582
2578.4197026604074,1599
2580.2258355404483,1503
2582.031584454035,1601
2583.836949694077,1559
2585.6419315535613,1574
2587.4465303255533,1551
2589.2507463032002,1546
2591.0545797797245,1614
2592.8580310484303,1606
2594.6611004026995,1625
2596.463788135992,1563
2598.266094541849,1628
2600.0680199138874,1634
2601.869564545807,1575
2603.670728731383,1626
2605.4715127644704,1652
2607.2719169390048,1629
2609.071941548998,1611
2610.8715868885433,1615
2612.670853251811,1674
2614.469740933052,1656
2616.268250226594,1583
2618.0663814268455,1607
2619.864134828292,1589
2621.6615107255006,1621
2623.458509413115,1602
2625.2551311858597,1607
2627.0513763385347,1549
2628.8472451660223,1556
2630.6427379632833,1570
2632.4378550253564,1591
2634.232596647359,1553
2636.026963124488,1489
2637.8209547520187,1543
2639.6145718253065,1539
2641.407814639785,1492
2643.200683490966,1556
2644.9931786744414,1486
2646.7853004858807,1483
2648.577049221034,1439
2650.3684251757277,1453
2652.1594286458712,1399
2653.9500599274484,1377
2655.740319316525,1414
2657.5302071092437,1447
2659.3197236018286,1415
2661.10886909058,1393
2662.8976438718782,1404
2664.686048242183,1350
2666.4740824980327,1438
2668.2617469360443,1407
2670.0490418529134,1331
2671.8359675454153,1328
2673.622524310403,1323
2675.408712444811,1341
2677.1945322456495,1342
2678.979984010009,1322
2680.76506803506,1342
2682.5497846180497,1292
2684.334134056306,1302
2686.1181166472343,1324
2687.9017326883213,1270
2689.6849824771293,1258
2691.4678663113013,1267
2693.2503844885596,1292
2695.032537306705,1255
2696.8143250636167,1291
2698.5957480572542,1277
2700.3768065856534,1264
2702.1575009469316,1325
2703.937831439283,1282
2705.717798360982,1246
2707.4974020103837,1241
2709.276642685917,1238
2711.055520686095,1244
2712.834036309506,1241
2714.612189854819,1183
2716.389981620782,1224
2718.1674119062204,1196
2719.944481010041,1207
2721.721189231226,1204
2723.4975368688415,1223
2725.273524222027,1202
2727.0491515900053,1203
2728.824419272075,1236
2730.5993275676146,1170
2732.3738767760838,1209
2734.148067197016,1254
2735.921899130031,1212
2737.6953728748194,1224
2739.468488731156,1199
2741.2412469988926,1177
2743.0136479779617,1190
2744.785691968372,1194
2746.5573792702116,1118
2748.3287101836504,1160
2750.099685008934,1202
2751.870304046388,1187
2753.640567596418,1182
2755.4104759595057,1158
2757.1800294362156,1162
2758.949228327187,1200
2760.7180729331412,1179
2762.486563554877,1188
2764.254700493272,1166
2766.022484049284,1193
2767.789914523947,1159
2769.5569922183786,1121
2771.3237174337705,1131
2773.090090471394,1153
2774.8561116326036,1164
2776.6217812188274,1144
2778.3870995315756,1188
2780.1520668724356,1169
2781.9166835430747,1174
2783.6809498452394,1142
2785.444866080754,1179
2787.2084325515225,1188
2788.971649559527,1210
2790.73451740683,1164
2792.4970363955713,1209
2794.2592068279705,1219
2796.0210290063264,1163
2797.7825032330147,1207
2799.543629810493,1182
2801.304409041296,1138
2803.0648412280366,1168
2804.8249266734088,1117
2806.5846656801846,1131
2808.344058551212,1181
2810.1031055894246,1190
2811.8618070978273,1166
2813.6201633795085,1144
2815.378174737636,1194
2817.1358414754536,1151
2818.893163896285,1130
2820.6501423035334,1170
2822.4067770006814,1177
2824.1630682912883,1127
2825.9190164789957,1159
2827.6746218675207,1144
2829.429884760661,1170
2831.184805462294,1121
2832.9393842763743,1190
2834.693621506936,1219
2836.4475174580916,1177
2838.201072434034,1197
2839.954286739034,1126
2841.707160677441,1153
2843.459694553685,1155
2845.2118886722724,1132
2846.96374333779,1194
2848.7152588549034,1198
2850.4664355283567,1174
2852.217273662973,1196
2853.9677735636546,1185
2855.7179355353833,1196
2857.4677598832186,1177
2859.217246912299,1228
2860.9663969278427,1175
2862.715210235146,1170
2864.4636871395846,1176
2866.211827946614,1216
2867.9596329617652,1188
2869.7071024906536,1142
2871.4542368389684,1182
2873.20103631248,1101
2874.947501217038,1163
2876.6936318585695,1150
2878.4394285430812,1141
2880.1848915766604,1166
2881.9300212654707,1187
2883.6748179157553,1199
2885.4192818338374,1162
2887.1634133261173,1146
2888.907212699077,1169
2890.6506802592744,1204
2892.393816313348,1174
2894.1366211680142,1144
2895.8790951300693,1173
2897.621238506388,1174
2899.363051603925,1192
2901.1045347297118,1212
2902.8456881908596,1121
2904.58651229456,1155
2906.327007348081,1159
2908.067173658772,1179
2909.8070115340597,1194
2911.5465212814497,1124
2913.285703208527,1156
2915.0245576229563,1161
2916.7630848324807,1137
2918.5012851449196,1185
2920.2391588681758,1130
2921.976706310227,1165
2923.7139277791334,1147
2925.4508235830313,1189
2927.187394030137,1223
2928.923639428745,1157
2930.6595600872306,1144
2932.395156314046,1154
2934.1304284177218,1131
2935.8653767068713,1156
2937.6000014901815,1202
2939.3343030764227,1157
2941.068281774442,1124
2942.8019378931644,1165
2944.5352717415976,1139
2946.2682836288236,1206
2948.0009738640065,1143
2949.7333427563885,1163
2951.465390615289,1144
2953.1971177501086,1123
2954.9285244703265,1168
2956.6596110855,1158
2958.3903779052657,1149
2960.1208252393385,1197
2961.8509533975125,1132
2963.5807626896617,1178
2965.3102534257378,1166
2967.0394259157715,1179
2968.768280469873,1114
2970.496817398232,1173
2972.2250370111146,1164
2973.952939618869,1208
2975.6805255319196,1189
2977.4077950607707,1139
2979.134748516006,1225
2980.861386208289,1224
2982.587708448359,1196
2984.313715547037,1131
2986.039407815222,1148
2987.764785563891,1118
2989.489849104102,1179
2991.2145987469908,1160
2992.9390348037705,1175
2994.6631575857346,1140
2996.3869674042576,1167
2998.1104645707887,1182
2999.83364939686,1141
3001.5565221940783,1132
3003.2790832741334,1113
3005.0013329487924,1111
3006.7232715298996,1190
3008.4448993293804,1171
3010.166216659239,1106
3011.887223831558,1141
3013.607921158498,1162
3015.3283089522993,1177
3017.0483875252826,1150
3018.7681571898443,1250
3020.4876182584626,1193
3022.2067710436927,1132
3023.9256158581707,1151
3025.644153014609,1110
3027.362382825801,1153
3029.0803056046193,1175
3030.797921664012,1132
3032.5152313170106,1162
3034.2322348767225,1114
3035.9489326563353,1117
3037.665324969115,1144
3039.3814121284063,1154
3041.097194447633,1137
3042.812672240299,1162
3044.5278458199855,1179
3046.2427155003525,1169
3047.9572815951406,1153
3049.671544418167,1141
3051.38550428333,1138
3053.0991615046073,1149
3054.812516396051,1170
3056.5255692717974,1146
3058.2383204460575,1160
3059.9507702331257,1154
3061.662918947372,1161
3063.3747669032446,1152
3065.0863144152736,1137
3066.7975617980674,1173
3068.508509366309,1137
3070.219157434767,1148
3071.9295063182844,1144
3073.639556331785,1145
3075.3493077902704,1125
3077.058761008821,1139
3078.7679163025964,1193
3080.476773986837,1202
3082.1853343768594,1179
3083.89359778806,1155
3085.6015645359153,1145
3087.3092349359786,1192
3089.016609303884,1135
3090.7236879553434,1173
3092.4304712061476,1150
3094.136959372166,1159
3095.843152769349,1131
3097.5490517137237,1178
3099.2546565213966,1171
3100.959967508554,1164
3102.66498499146,1148
3104.3697092864577,1173
3106.0741407099695,1162
3107.778279578498,1186
3109.482126208622,1213
3111.1856809170004,1130
3112.8889440203716,1190
3114.5919158355528,1154
3116.294596679439,1121
3117.996986869006,1160
3119.6990867213062,1170
3121.4008965534726,1225
3123.102416682717,1170
3124.803647426329,1196
3126.5045891016784,1207
3128.205242026213,1172
3129.90560651746,1184
3131.605682893025,1184
3133.3054714705922,1204
3135.0049725679282,1191
3136.7041865028714,1132
3138.4031135933465,1184
3140.101754157353,1135
3141.800108512971,1227
3143.498176978357,1172
3145.1959598717494,1157
3146.8934575114636,1121
3148.5906702158954,1145
3150.2875983035183,1201
3151.9842420928853,1093
3153.680601902627,1135
3155.376678051456,1158
3157.07247085816,1171
3158.767980641609,1124
3160.463207720748,1151
3162.158152414606,1182
3163.8528150422862,1169
3165.5471959229726,1197
3167.2412953759303,1168
3168.9351137204976,1188
3170.628651276098,1139
3172.3219083622307,1140
3174.014885298474,1111
3175.707582404485,1136
3177.4000000000005,1191
3179.092138404835,1165
3180.7839979388846,1164
3182.47557892212,1126
3184.166881674594,1171
3185.8579065164386,1167
3187.5486537678626,1147
3189.2391237491547,1178
3190.9293167806827,1161
3192.6192331828934,1161
3194.3088732763117,1137
3195.998237381542,1147
3197.687325819268,1153
3199.376138910251,1156
3201.064676975334,1163
3202.7529403354347,1137
3204.4409293115523,1137
3206.1286442247647,1138
3207.816085396229,1087
3209.5032531471825,1116
3211.190147798936,1120
3212.8767696728846,1101
3214.5631190905015,1137
3216.2491963733373,1120
3217.9350018430214,1146
3219.6205358212637,1127
3221.305798629851,1084
3222.990790590651,1112
3224.6755120256103,1117
3226.359963256751,1138
3228.0441446061795,1124
3229.7280563960758,1111
3231.411698948703,1145
3233.0950725863995,1189
3234.778177631587,1129
3236.461014406761,1132
3238.1435832345005,1148
3239.8258844374595,1167
3241.507918338374,1158
3243.1896852600576,1064
3244.8711855254023,1123
3246.552419457381,1139
3248.233387379042,1073
3249.914089613516,1128
3251.59452648401,1132
3253.274698313813,1132
3254.95460542629,1114
3256.6342481448855,1117
3258.313626793125,1080
3259.9927416946084,1046
3261.6715931730196,1102
3263.3501815521176,1082
3265.0285071557437,1111
3266.706570307815,1071
3268.3843713323286,1089
3270.0619105533615,1089
3271.739188295068,1126
3273.4162048816834,1112
3275.0929606375184,1125
3276.769455886966,1091
3278.445690954498,1172
3280.1216661646613,1112
3281.797381842087,1157
3283.4728383114807,1106
3285.1480358976296,1160
3286.8229749253996,1152
3288.4976557197333,1192
3290.172078605655,1105
3291.846243908266,1158
3293.5201519527463,1117
3295.193803064357,1129
3296.8671975684374,1101
3298.5403357904024,1079
3300.21321805575,1090
3301.8858446900567,1150
3303.558216018975,1121
3305.23033236824,1078
3306.9021940636603,1118
3308.57380143113,1113
3310.2451547966184,1140
3311.916254486174,1138
3313.5871008259246,1109
3315.2576941420766,1153
3316.9280347609147,1132
3318.5981230088046,1115
3320.2679592121895,1021
3321.9375436975924,1124
3323.606876791612,1072
3325.27595882093,1114
3326.944790112305,1102
3328.6133709925753,1084
3330.2817017886573,1178
3331.949782827547,1114
3333.617614436319,1178
3335.2851969421245,1127
3336.952530672199,1153
3338.619615953853,1103
3340.286453114475,1134
3341.9530424815357,1088
3343.619384382583,1159
3345.2854791452437,1159
3346.951327097224,1086
3348.6169285663073,1116
3350.2822838803577,1058
3351.947393367319,1116
3353.61225735521,1156
3355.2768761721345,1089
3356.9412501462693,1144
3358.605379605873,1097
3360.2692648792827,1161
3361.9329062949146,1121
3363.596304181263,1070
