CollectionTime,7/11/2024 12:26:38 PM
ExposureUsed,3
CalibratedSpectrum
-962.7078968117929,480
-959.9714848408522,520
-957.2358232597828,537
-954.5009119013725,477
-951.7667505983302,512
-949.0333391832855,526
-946.3006774887896,510
-943.5687653473143,529
-940.837602591253,497
-938.1071890529199,539
-935.3775245645503,527
-932.6486089583007,525
-929.9204420662485,564
-927.1930237203925,560
-924.4663537526524,509
-921.7404319948689,521
-919.0152582788041,594
-916.2908324361409,622
-913.5671542984834,555
-910.8442236973568,518
-908.1220404642074,504
-905.4006044304027,575
-902.679915427231,551
-899.959973285902,544
-897.2407778375464,508
-894.5223289132158,509
-891.8046263438832,508
-889.0876699604426,506
-886.3714595937089,509
-883.6559950744183,533
-880.9412762332282,500
-878.2273029007168,506
-875.5140749073835,517
-872.8015920836489,526
-870.0898542598545,502
-867.3788612662631,514
-864.6686129330585,496
-861.9591090903457,511
-859.2503495681506,525
-856.5423341964203,522
-853.8350628050229,491
-851.1285352237478,490
-848.4227512823054,508
-845.7177108103272,528
-843.0134136373656,529
-840.3098595928943,517
-837.6070485063082,520
-834.9049802069229,538
-832.2036545239757,513
-829.5030712866244,526
-826.8032303239481,515
-824.1041314649472,528
-821.4057745385428,584
-818.7081593735775,553
-816.0112857988148,528
-813.3151536429393,514
-810.6197627345566,510
-807.9251129021936,545
-805.2312039742981,531
-802.5380357792392,514
-799.8456081453069,520
-797.1539209007124,531
-794.462973873588,540
-791.772766891987,566
-789.083299783884,525
-786.3945723771743,544
-783.7065844996748,529
-781.0193359791231,483
-778.3328266431781,486
-775.6470563194197,525
-772.9620248353489,509
-770.2777320183878,522
-767.5941776958798,520
-764.9113616950891,536
-762.2292838432011,566
-759.5479439673222,524
-756.8673418944801,515
-754.1874774516235,550
-751.5083504656222,545
-748.8299607632671,571
-746.15230817127,547
-743.475392516264,532
-740.7992136248035,525
-738.1237713233636,584
-735.4490654383407,546
-732.7750957960521,559
-730.1018622227365,568
-727.4293645445534,543
-724.7576025875837,546
-722.0865761778291,542
-719.4162851412126,573
-716.7467293035781,558
-714.0779084906909,562
-711.409822528237,565
-708.7424712418238,528
-706.0758544569796,559
-703.4099719991541,586
-700.7448236937178,624
-698.0804093659622,588
-695.4167288411002,569
-692.7537819442656,569
-690.0915685005134,554
-687.4300883348199,529
-684.7693412720819,576
-682.1093271371178,552
-679.4500457546669,561
-676.7914969493897,583
-674.1336805458676,559
-671.4765963686034,547
-668.8202442420206,584
-666.1646239904642,581
-663.5097354382001,550
-660.8555784094151,552
-658.2021527282176,595
-655.5494582186366,599
-652.8974947046223,574
-650.2462620100463,570
-647.5957599587009,547
-644.9459883742998,601
-642.2969470804776,582
-639.6486359007902,633
-637.0010546587141,650
-634.3542031776476,617
-631.7080812809096,626
-629.0626887917401,585
-626.4180255333008,619
-623.7740913286734,634
-621.1308860008619,679
-618.4884093727904,640
-615.8466612673046,645
-613.2056415071715,607
-610.5653499150785,626
-607.9257863136347,645
-605.28695052537,647
-602.6488423727357,648
-600.0114616781036,633
-597.3748082637674,627
-594.7388819519412,666
-592.1036825647604,725
-589.4692099242818,785
-586.8354638524829,700
-584.2024441712624,657
-581.5701507024403,679
-578.9385832677575,676
-576.3077416888759,682
-573.6776257873787,678
-571.0482353847704,594
-568.4195703024757,592
-565.7916303618415,659
-563.164415384135,661
-560.5379251905453,645
-557.9121596021815,626
-555.2871184400748,656
-552.6628015251767,707
-550.0392086783606,706
-547.4163397204204,665
-544.794194472071,690
-542.1727727539491,725
-539.5520743866118,777
-536.9320991905377,794
-534.3128469861261,757
-531.6943175936979,766
-529.0765108334947,742
-526.4594265256793,802
-523.8430644903358,927
-521.2274245474689,975
-518.612506517005,1122
-515.9983102187913,1098
-513.3848354725959,1186
-510.77208209810846,1204
-508.16004991493924,1371
-505.5487387426199,1676
-502.9381484006032,1730
-500.3282787082628,1732
-497.71912948489364,1672
-495.1107005497117,1476
-492.5029917218539,1305
-489.8960028203786,1178
-487.28973366426493,981
-484.68418407241325,944
-482.07935386364494,868
-479.47524285670266,819
-476.87185087025,836
-474.2691777228715,859
-471.66722323307334,868
-469.0659872192821,874
-466.4654694998459,884
-463.86566989303384,819
-461.26658821703614,834
-458.66822428996414,859
-456.07057792985,893
-453.4736489546475,845
-450.877437182231,829
-448.28194243039627,776
-445.68716451686,765
-443.09310325926003,778
-440.49975847515555,836
-437.9071299820263,805
-435.31521759727354,849
-432.72402113821954,809
-430.13354042210767,860
-427.5437752661022,813
-424.95472548728867,817
-422.36639090267386,889
-419.7787713291855,959
-417.1918665836721,1016
-414.60567648290385,978
-412.0202008435715,911
-409.4354394822874,920
-406.8513922155845,931
-404.26805885991723,949
-401.685439231661,996
-399.103533147112,937
-396.522340422488,901
-393.9418608739278,876
-391.3620943174908,928
-388.7830405691583,906
-386.2046994448317,876
-383.6270707603344,837
-381.05015433141045,773
-378.473949973725,769
-375.8984575028645,749
-373.32367673433623,695
-370.74960748356875,750
-368.1762495659117,743
-365.60360279663576,641
-363.03166699093265,594
-360.4604419639154,589
-357.8899275306178,580
-355.32012350599507,551
-352.7510297049233,542
-350.1826459421999,532
-347.61497203254316,544
-345.04800779059235,530
-342.4817530309082,578
-339.91620756797226,576
-337.35137121618743,603
-334.7872437898774,616
-332.22382510328725,637
-329.66111497058273,539
-327.09911320585127,517
-324.53781962310075,540
-321.9772340362607,581
-319.4173562591816,503
-316.8581861056348,492
-314.2997233893127,536
-311.7419679238294,543
-309.1849195227194,594
-306.62857799943856,666
-304.0729431673641,588
-301.51801483979375,597
-298.963792829947,622
-296.41027695096386,638
-293.85746701590574,707
-291.3053628377552,727
-288.7539642294155,661
-286.2032710037115,611
-283.65328297338897,581
-281.1039999511146,681
-278.5554217494762,735
-276.007548180983,610
-273.4603790580651,606
-270.9139141930734,589
-268.3681533982807,608
-265.8230964858798,661
-263.27874326798565,662
-260.7350935566336,706
-258.1921471637804,678
-255.6499039013039,708
-253.10836358100266,720
-250.56752601459698,691
-248.02739101372765,686
-245.48795838995704,748
-242.94922795476816,740
-240.41119951956557,739
-237.8738728956746,806
-235.33724789434166,726
-232.80132432673452,671
-230.2661020039418,675
-227.73158073697357,732
-225.19776033676033,790
-222.66464061415422,871
-220.1322213799284,789
-217.60050244477725,671
-215.06948361931552,715
-212.53916471408013,837
-210.00954553952818,965
-207.48062590603843,816
-204.9524056239104,765
-202.4248845033651,848
-199.8980623545441,920
-197.37193898751036,923
-194.84651421224817,924
-192.32178783866232,935
-189.79775967657952,949
-187.27442953574644,1009
-184.7517972258321,1094
-182.2298625564256,1014
-179.7086253370378,950
-177.18808537710026,837
-174.66824248596583,889
-172.14909647290835,845
-169.6306471471229,941
-167.11289431772548,1073
-164.59583779375328,1042
-162.07947738416453,994
-159.5638128978386,1028
-157.04884414357605,1230
-154.53457093009854,1258
-152.02099306604828,1057
-149.50811035998936,1040
-146.99592262040665,1136
-144.48442965570587,1157
-141.97363127421409,1101
-139.46352728417958,1014
-136.95411749377126,1065
-134.44540171107985,1180
-131.93737974411636,1023
-129.43005140081357,1052
-126.92341648902493,1417
-124.41747481652521,1591
-121.91222619101006,1781
-119.40767042009657,2239
-116.90380731132257,2359
-114.40063667214702,2489
-111.8981583099503,2510
-109.3963720320337,2128
-106.89527764561933,1834
-104.39487495785067,1889
-101.89516377579241,3020
-99.39614390642998,4754
-96.89781515667039,5232
-94.40017733334128,4697
-91.90323024319173,4798
-89.40697369289148,7490
-86.91140748903172,12733
-84.41653143812482,11723
-81.92234534660395,7903
-79.42884902082358,6124
-76.93604226705907,11593
-74.4439248915071,24474
-71.95249670028534,39212
-69.46175749943245,46221
-66.97170709490854,41298
-64.48234529259423,30365
-61.99367189829195,21914
-59.50568671772464,18228
-57.01838955653636,13218
-54.53178022029283,9669
-52.045858514480074,9880
-49.560624244506016,9984
-47.07607721569923,10420
-44.59221723330904,12222
-42.10904410250669,13767
-39.62655762838392,15491
-37.14475761595372,13920
-34.66364387015028,12316
-32.18321619582866,11349
-29.70347439776515,9838
-27.224418280657005,9138
-24.74604764912317,10882
-22.26836230770266,18960
-19.7913620608565,36991
-17.315046712966478,65038
-14.83941606833514,65038
-12.36446993118659,65038
-9.89020810566592,65038
-7.416630395839093,65038
-4.94373660569363,65038
-2.471526539137585,65038
-6.821210263296962E-13,65038
2.47084320796705,65038
4.941003281093458,65038
7.410480415786196,65038
9.879274808531363,65038
12.347386655893956,65038
14.814816154518212,65038
17.28156350112681,65038
19.74762889252179,65038
22.21301252558385,65038
24.67771459727237,22161
27.141735304626195,4937
29.605074844762612,3626
32.06773341487792,3466
34.52971121224755,3305
36.99100843422559,4044
39.45162527824516,3352
41.91156194181792,2395
44.370818622535126,2225
46.82939551806646,2177
49.287292826160524,2493
51.74451074464503,3087
54.201049471426245,3648
56.65690920448981,2663
59.112090141899785,2274
61.56659248179983,2075
64.02041642241159,1656
66.4735621620365,1564
68.92602989905402,1472
71.37781983192338,1735
73.82893215918205,1996
76.27936707944684,1702
78.72912479141326,1465
81.17820549385567,1595
83.62660938562783,1997
86.07433666566146,1699
88.5213875329681,1378
90.96776218663751,1294
93.41346082583925,1288
95.85848364982041,1553
98.30283085790859,1879
100.7465026495089,1674
103.18949922410604,1396
105.63182078126385,1332
108.07346752062438,1451
110.51443964190923,1360
112.95473734491827,1264
115.39436082953114,1208
117.83331029570547,1232
120.27158594347827,1388
122.7091879729652,1710
125.1461165843615,1644
127.58237197794062,1269
130.01795435405518,1128
132.4528639131364,1244
134.88710085569494,1331
137.32066538231982,1228
139.75355769367923,1128
142.1857779905207,1022
144.61732647366978,943
147.04820334403132,958
149.47840880258934,1060
151.90794305040674,1068
154.33680628862487,1257
156.76499871846443,1492
159.19252054122433,1483
161.61937195828352,1490
164.04555317109896,1735
166.47106438120693,1829
168.89590579022217,1915
171.320077599839,2031
173.7435800118302,2120
176.16641322804742,2180
178.58857745042144,2143
181.01007288096173,2290
183.43089972175687,2241
185.85105817497413,2254
188.27054844285988,2172
190.6893707277394,2077
193.10752523201643,2289
195.5250121581745,2396
197.9418317087751,2402
200.3579840864594,2416
202.7734694939469,2346
205.18828813403627,2383
207.6024402096051,2373
210.01592592360964,2474
212.42874547908548,2496
214.84089907914665,2467
217.2523869269868,2504
219.66320922587727,2407
222.0733661791695,2412
224.48285799029293,2375
226.8916848627572,2410
229.29984700014882,2472
231.7073446061355,2455
234.11417788446204,2339
236.520347038953,2375
238.92585227351185,2370
241.33069379212054,2447
243.73487179884035,2547
246.1383864978112,2579
248.541238093252,2469
250.9434267894609,2522
253.34495279081432,2573
255.74581630176783,2429
258.1460175268563,2379
260.54555667069314,2501
262.9444339379703,2508
265.3426495334594,2470
267.7402036620107,2590
270.1370965285529,2576
272.53332833809407,2502
274.9288992957214,2404
277.32380960660055,2378
279.718059475976,2489
282.1116491091717,2465
284.5045787115897,2474
286.89684848871195,2347
289.2884586460981,2349
291.67940938938807,2404
294.0697009242996,2473
296.4593334566299,2499
298.84830719225477,2400
301.23662233712923,2377
303.6242790972866,2350
306.01127767884,2365
308.39761828798066,2284
310.78330113097934,2370
313.16832641418534,2335
315.5526943440269,2205
317.9364051270112,2175
320.3194589697242,2276
322.70185607883093,2337
325.0835966610754,2191
327.4646809232805,2139
329.8451090723478,2132
332.2248813152577,2213
334.6039978590701,2100
336.9824589109231,2190
339.36026467803447,2139
341.7374153677,2161
344.113911187295,1962
346.48975234427337,2027
348.8649390461686,2075
351.2394715005918,2094
353.61334991523415,2029
355.9865744978655,2045
358.35914545633375,2111
360.73106299856715,2082
363.10232733257146,2106
365.47293866643247,1998
367.84289720831396,1953
370.2122031664593,1965
372.5808567491905,2053
374.9488581649083,1900
377.31620762209275,1865
379.6829053293021,1831
382.0489514951745,1866
384.4143463284262,1914
386.7790900378528,1971
389.14318283232853,1898
391.50662492080653,1917
393.86941651231916,1937
396.23155781597745,1959
398.5930490409713,2001
400.9538903965696,1915
403.3140820921202,1831
405.6736243370498,2026
408.03251734086336,1912
410.3907613131465,1894
412.74835646356166,1835
415.10530300185144,1824
417.4616011378372,1819
419.81725108141893,1868
422.1722530425758,1848
424.5266072313656,1878
426.880313857925,1838
429.2333731324701,1853
431.58578526529516,1839
433.9375504667738,1863
436.2886689473588,1789
438.63914091758113,1841
440.9889665880513,1817
443.33814616945835,1825
445.68667987257015,1807
448.03456790823395,1830
450.3818104873759,1783
452.72840782100013,1742
455.07436012019105,1748
457.41966759611057,1767
459.7643304600007,1750
462.10834892318155,1828
464.4517231970525,1836
466.79445349309174,1792
469.1365400228566,1879
471.4779829979826,1781
473.81878263018564,1808
476.15893913125876,1843
478.4984527130747,1860
480.8373235875855,1870
483.17555196682144,1866
485.5131380628919,2019
487.8500820879857,2080
490.1863842543697,2139
492.52204477439034,2316
494.8570638604725,2591
497.1914417251204,2976
499.52517858091653,3333
501.85827464052306,3699
504.19073011668036,3813
506.5225452222086,3796
508.85372017000566,3902
511.18425517304956,3540
513.514150444396,3652
515.8434061971808,4039
518.1720226446176,4747
520.4999999999999,4794
522.8273384766991,4528
525.1540382881666,4177
527.480099647932,3707
529.8055227696037,3206
532.1303078668694,2461
534.454455153496,2193
536.777964843328,2078
539.1008371502907,1940
541.4230722883866,1826
543.744670471698,1909
546.0656319143858,1887
548.3859568306899,1893
550.7056454349294,1884
553.0246979415016,1823
555.3431145648834,1739
557.6608955196306,1848
559.978041020377,1806
562.2945512818363,1811
564.6104265188006,1794
566.9256669461412,1845
569.2402727788082,1884
571.5542442318302,1824
573.8675815203156,1921
576.1802848594508,1841
578.4923544645015,1957
580.8037905508126,1888
583.114593333807,1826
585.4247630289875,1947
587.7342998519354,1842
590.0432040183106,1839
592.3514757438526,1786
594.6591152443794,1850
596.9661227357875,1837
599.2724984340531,1851
601.578242555231,1776
603.8833553154542,1869
606.1878369309362,1878
608.4916876179676,1849
610.7949075929192,1847
613.0974970722403,1776
615.3994562724587,1790
617.7007854101818,1786
620.0014847020951,1770
622.3015543649641,1805
624.6009946156324,1895
626.8998056710224,1827
629.1979877481361,1815
631.4955410640538,1856
633.7924658359349,1792
636.0887622810175,1794
638.3844306166192,1882
640.6794710601358,1866
642.9738838290426,1891
645.2676691408932,1894
647.5608272133207,1845
649.853358264037,1900
652.1452625108324,1817
654.4365401715764,1934
656.7271914642178,1887
659.0172166067838,1924
661.3066158173809,1879
663.5953893141935,1873
665.8835373154867,1987
668.1710600396028,1879
670.4579577049639,1873
672.7442305300709,1835
675.0298787335033,1875
677.3149025339197,1865
679.599302150058,1881
681.8830778007342,1860
684.1662297048437,1847
686.4487580813608,1866
688.7306631493387,1927
691.0119451279091,1916
693.2926042362834,1914
695.5726406937516,1899
697.8520547196814,1899
700.1308465335215,1862
702.4090163547982,1881
704.6865644031171,1858
706.9634908981619,1845
709.2397960596965,1926
711.5154801075631,1866
713.7905432616823,1838
716.0649857420548,1869
718.3388077687592,1810
720.612009561953,1863
722.8845913418733,1841
725.1565533288352,1879
727.427895743234,1887
729.6986188055427,1911
731.9687227363137,1881
734.238207756178,1864
736.5070740858458,1770
738.7753219461066,1842
741.0429515578281,1897
743.3099631419569,1837
745.5763569195191,1871
747.8421331116193,1855
750.1072919394409,1886
752.3718336242467,1854
754.6357583873777,1876
756.8990664502545,1883
759.1617580343765,1884
761.423833361321,1874
763.6852926527457,1818
765.9461361303862,1881
768.206364016058,1938
770.4659765316536,1916
772.7249738991469,1852
774.9833563405886,1892
777.2411240781092,1854
779.4982773339183,1904
781.7548163303044,1896
784.010741289634,1916
786.2660524343538,1984
788.5207499869881,1934
790.7748341701416,1996
793.0283052064964,1943
795.2811633188143,1952
797.5334087299362,1966
799.7850416627813,1994
802.0360623403484,1945
804.2864709857143,1938
806.5362678220353,1970
808.7854530725468,1939
811.0340269605625,1946
813.2819897094754,1980
815.5293415427581,1893
817.77608268396,1928
820.0222133567116,1921
822.2677337847211,1919
824.5126441917765,1901
826.7569448017433,1916
829.0006358385675,1905
831.2437175262731,1919
833.4861900889629,1862
835.7280537508192,1896
837.9693087361026,1812
840.2099552691533,1897
842.4499935743896,1971
844.689423876309,1955
846.9282463994886,1887
849.1664613685833,1993
851.4040690083276,1905
853.6410695435349,1934
855.877463199097,1935
858.1132501999847,1879
860.3484307712487,1935
862.5830051380175,1891
864.8169735254988,1870
867.0503361589791,1905
869.2830932638243,2023
871.5152450654786,1938
873.7467917894654,1878
875.9777336613873,1963
878.2080709069252,1863
880.4378037518389,2014
882.666932421968,1966
884.8954571432301,1990
887.1233781416219,1940
889.3506956432192,1998
891.5774098741766,1972
893.803521060728,1991
896.0290294291852,1893
898.2539352059397,2005
900.4782386174619,2015
902.7019398903011,2009
904.925039251085,2095
907.147536926521,1961
909.3694331433943,1937
911.59072812857,1972
913.8114221089921,1984
916.0315153116827,2002
918.2510079637437,1941
920.4699002923547,2002
922.6881925247761,1983
924.905884888345,1927
927.1229776104793,1913
929.3394709186747,1909
931.555365040506,1877
933.7706602036275,1905
935.9853566357709,1903
938.1994545647489,1898
940.4129542184515,1979
942.6258558248488,1837
944.8381596119883,1895
947.0498658079974,1870
949.2609746410825,1863
951.4714863395287,1883
953.6814011316998,1851
955.8907192460387,1938
958.0994409110671,1806
960.3075663553858,1827
962.5150958076741,1841
964.7220294966913,1807
966.928367651274,1826
969.1341105003388,1821
971.3392582728806,1757
973.5438111979742,1806
975.747769504772,1840
977.9511334225061,1741
980.153903180487,1769
982.3560790081052,1723
984.5576611348289,1820
986.7586497902058,1791
988.9590452038618,1713
991.158847605503,1828
993.3580572249133,1764
995.5566742919558,1710
997.7546990365728,1685
999.952131688785,1678
1002.1489724786926,1670
1004.3452216364743,1574
1006.5408793923874,1624
1008.7359459767691,1555
1010.9304216200343,1586
1013.1243065526781,1577
1015.3176010052733,1602
1017.510305208472,1604
1019.7024193930064,1569
1021.8939437896848,1543
1024.0848786293977,1610
1026.2752241431122,1556
1028.4649805618747,1490
1030.6541481168115,1560
1032.842727039127,1577
1035.0307175601051,1512
1037.2181199111074,1457
1039.4049343235752,1505
1041.591161029029,1543
1043.7768002590683,1502
1045.9618522453698,1504
1048.1463172196918,1481
1050.3301954138697,1542
1052.513487059818,1568
1054.69619238953,1549
1056.8783116350783,1470
1059.0598450286152,1550
1061.2407928023704,1502
1063.4211551886528,1484
1065.6009324198508,1537
1067.780124728432,1505
1069.9587323469414,1483
1072.1367555080046,1491
1074.314194444325,1454
1076.4910493886855,1442
1078.667320573947,1443
1080.843008233051,1483
1083.0181125990161,1460
1085.1926339049414,1379
1087.3665723840027,1419
1089.5399282694575,1436
1091.7127017946405,1402
1093.8848931929647,1409
1096.0565026979243,1412
1098.2275305430899,1425
1100.3979769621128,1420
1102.567842188722,1407
1104.737126456726,1363
1106.9058300000124,1403
1109.0739530525475,1451
1111.2414958483764,1412
1113.4084586216231,1460
1115.5748416064907,1456
1117.7406450372605,1453
1119.9058691482942,1419
1122.0705141740304,1403
1124.2345803489884,1402
1126.3980679077658,1404
1128.5609770850388,1345
1130.7233081155623,1453
1132.8850612341707,1402
1135.0462366757774,1381
1137.2068346753745,1469
1139.3668554680326,1371
1141.526299288901,1378
1143.68516637321,1378
1145.8434569562655,1415
1148.001171273455,1386
1150.158309560244,1395
1152.3148720521767,1407
1154.470858984876,1382
1156.626270594044,1382
1158.7811071154629,1334
1160.9353687849912,1342
1163.089055838569,1410
1165.242168512213,1418
1167.3947070420209,1396
1169.5466716641677,1342
1171.6980626149075,1362
1173.8488801305748,1379
1175.9991244475814,1330
1178.1487958024186,1353
1180.2978944316555,1362
1182.4464205719428,1357
1184.5943744600072,1395
1186.7417563326567,1331
1188.8885664267755,1370
1191.0348049793297,1372
1193.1804722273619,1376
1195.325568407995,1311
1197.4700937584303,1267
1199.614048515948,1395
1201.7574329179074,1366
1203.900247201746,1384
1206.042491604982,1311
1208.1841663652099,1349
1210.3252717201053,1373
1212.465807907422,1322
1214.6057751649923,1372
1216.7451737307279,1382
1218.8840038426192,1375
1221.0222657387353,1416
1223.1599596572241,1379
1225.2970858363137,1383
1227.4336445143094,1327
1229.5696359295966,1378
1231.705060320639,1350
1233.8399179259786,1371
1235.9742089842384,1326
1238.107933734118,1362
1240.2410924143974,1359
1242.373685263935,1375
1244.5057125216676,1394
1246.6371744266116,1378
1248.7680712178621,1420
1250.898403134593,1391
1253.028170416058,1412
1255.1573733015875,1362
1257.2860120305932,1391
1259.4140868425648,1433
1261.54159797707,1375
1263.6685456737569,1425
1265.7949301723515,1383
1267.9207517126597,1362
1270.046010534565,1394
1272.1707068780306,1425
1274.2948409830983,1387
1276.4184130898889,1430
1278.541423438603,1373
1280.6638722695184,1362
1282.785759822993,1453
1284.9070863394636,1356
1287.0278520594447,1412
1289.1480572235314,1404
1291.2677020723963,1355
1293.3867868467923,1373
1295.5053117875495,1427
1297.623277135579,1465
1299.740683131868,1460
1301.8575300174857,1410
1303.973818033578,1472
1306.0895474213703,1476
1308.2047184221678,1458
1310.3193312773528,1382
1312.4333862283888,1423
1314.5468835168163,1439
1316.659823384255,1405
1318.7722060724045,1398
1320.8840318230418,1441
1322.9953008780249,1422
1325.1060134792888,1384
1327.2161698688478,1385
1329.3257702887959,1416
1331.4348149813054,1454
1333.5433041886276,1393
1335.6512381530933,1440
1337.7586171171101,1403
1339.8654413231675,1417
1341.9717110138317,1426
1344.0774264317488,1480
1346.1825878196432,1447
1348.2871954203192,1441
1350.3912494766587,1375
1352.4947502316231,1446
1354.5976979282532,1422
1356.7000928096686,1417
1358.8019351190665,1387
1360.9032250997243,1475
1363.0039629949988,1433
1365.1041490483235,1386
1367.2037835032133,1418
1369.3028666032606,1412
1371.401398592137,1449
1373.4993797135926,1344
1375.5968102114575,1482
1377.6936903296396,1412
1379.7900203121262,1434
1381.8858004029835,1386
1383.9810308463561,1411
1386.075711886469,1445
1388.1698437676241,1416
1390.2634267342032,1450
1392.356461030667,1411
1394.4489469015557,1465
1396.5408845914872,1464
1398.6322743451592,1418
1400.7231164073469,1426
1402.813411022907,1477
1404.903158436773,1475
1406.9923588939578,1480
1409.0810126395531,1522
1411.1691199187303,1468
1413.2566809767386,1503
1415.343696058907,1512
1417.4301654106425,1503
1419.5160892774315,1474
1421.6014679048399,1497
1423.6863015385125,1532
1425.7705904241707,1501
1427.8543348076178,1471
1429.9375349347342,1509
1432.0201910514802,1462
1434.102303403894,1504
1436.1838722380944,1513
1438.2648978002767,1550
1440.3453803367174,1478
1442.4253200937692,1524
1444.5047173178677,1497
1446.5835722555234,1557
1448.6618851533285,1592
1450.739656257952,1594
1452.8168858161434,1548
1454.8935740747306,1547
1456.96972128062,1563
1459.045327680797,1601
1461.120393522327,1582
1463.1949190523528,1595
1465.2689045180973,1583
1467.3423501668608,1600
1469.415256246024,1636
1471.4876230030463,1634
1473.559450685465,1710
1475.6307395408976,1669
1477.7014898170391,1616
1479.771701761665,1725
1481.8413756226287,1685
1483.9105116478618,1699
1485.9791100853772,1725
1488.0471711832643,1733
1490.1146951896926,1681
1492.1816823529098,1707
1494.2481329212433,1738
1496.3140471430984,1732
1498.3794252669609,1687
1500.4442675413939,1804
1502.5085742150404,1793
1504.572345536622,1796
1506.6355817549388,1762
1508.6982831188702,1833
1510.7604498773744,1823
1512.8220822794883,1788
1514.8831805743293,1837
1516.9437450110909,1813
1519.003775839048,1841
1521.0632733075522,1821
1523.1222376660367,1829
1525.1806691640113,1836
1527.2385680510652,1873
1529.2959345768668,1830
1531.3527689911643,1858
1533.4090715437833,1903
1535.4648424846291,1853
1537.5200820636855,1839
1539.5747905310159,1894
1541.6289681367616,1921
1543.6826151311434,1968
1545.7357317644614,1922
1547.7883182870937,1987
1549.8403749494987,1998
1551.8919020022113,1977
1553.9428996958477,1970
1555.9933682811015,2050
1558.0433080087469,2084
1560.0927191296346,2063
1562.1416018946961,2075
1564.1899565549415,2201
1566.2377833614592,2145
1568.2850825654164,2217
1570.3318544180606,2172
1572.3780991707158,2129
1574.423817074788,2163
1576.4690083817595,2078
1578.5136733431923,2045
1580.5578122107272,2121
1582.601425236085,2027
1584.6445126710646,1942
1586.6870747675434,1894
1588.7291117774776,1830
1590.7706239529034,1744
1592.8116115459347,1781
1594.8520748087658,1690
1596.8920139936686,1680
1598.9314293529933,1732
1600.9703211391711,1675
1603.008689604711,1682
1605.0465350022005,1648
1607.0838575843068,1613
1609.1206576037753,1567
1611.1569353134305,1521
1613.1926909661765,1549
1615.2279248149953,1492
1617.2626371129481,1509
1619.2968281131757,1505
1621.3304980688963,1533
1623.3636472334088,1492
1625.39627586009,1534
1627.428384202396,1487
1629.459972513861,1499
1631.4910410480993,1453
1633.5215900588028,1501
1635.551619799744,1391
1637.5811305247717,1440
1639.6101224878166,1488
1641.6385959428862,1423
1643.6665511440683,1422
1645.693988345528,1449
1647.7209078015112,1417
1649.7473097663405,1485
1651.7731944944203,1465
1653.7985622402307,1424
1655.823413258333,1462
1657.847747803366,1438
1659.8715661300494,1399
1661.8948684931793,1423
1663.9176551476316,1463
1665.9399263483624,1399
1667.9616823504057,1356
1669.982923408873,1435
1672.0036497789574,1426
1674.0238617159293,1413
1676.043559475138,1388
1678.0627433120121,1368
1680.081413482059,1352
1682.0995702408654,1424
1684.117213844096,1465
1686.134344547495,1443
1688.1509626068864,1438
1690.1670682781705,1382
1692.182661817329,1455
1694.1977434804217,1514
1696.2123135235875,1442
1698.226372203043,1419
1700.2399197750851,1465
1702.2529564960905,1432
1704.2654826225112,1453
1706.277498410882,1450
1708.2890041178139,1442
1710.2999999999988,1442
1712.3104863142066,1414
1714.3204633172854,1429
1716.329931266163,1430
1718.3388904178469,1432
1720.3473410294214,1456
1722.3552833580516,1397
1724.3627176609807,1426
1726.3696441955308,1447
1728.3760632191033,1319
1730.3819749891782,1434
1732.3873797633146,1395
1734.3922777991502,1407
1736.3966693544012,1439
1738.4005546868639,1432
1740.4039340544127,1362
1742.406807715001,1375
1744.4091759266616,1427
1746.4110389475054,1372
1748.4123970357223,1383
1750.413250449582,1384
1752.4135994474318,1373
1754.4134442876993,1393
1756.4127852288902,1369
1758.4116225295893,1394
1760.4099564484595,1404
1762.407787244244,1439
1764.405115175764,1412
1766.4019405019203,1439
1768.3982634816916,1447
1770.3940843741357,1433
1772.3894034383907,1353
1774.3842209336717,1443
1776.378537119274,1361
1778.372352254571,1328
1780.3656665990156,1379
1782.3584804121397,1382
1784.3507939535534,1407
1786.3426074829463,1352
1788.3339212600863,1378
1790.3247355448211,1402
1792.3150505970766,1370
1794.3048666768573,1382
1796.2941840442477,1362
1798.2830029594106,1427
1800.2713236825884,1381
1802.2591464741004,1455
1804.2464715943465,1389
1806.2332993038058,1379
1808.2196298630352,1332
1810.2054635326708,1388
1812.190800573428,1381
1814.175641246101,1415
1816.1599858115628,1350
1818.1438345307652,1338
1820.127187664738,1369
1822.1100454745924,1368
1824.092408221516,1344
1826.0742761667766,1362
1828.055649571721,1386
1830.0365286977735,1409
1832.0169138064398,1354
1833.9968051593014,1378
1835.9762030180214,1370
1837.9551076443408,1436
1839.9335193000788,1361
1841.9114382471344,1353
1843.888864747485,1348
1845.8657990631878,1359
1847.842241456378,1349
1849.8181921892697,1383
1851.7936515241558,1347
1853.7686197234098,1328
1855.7430970494815,1386
1857.7170837649014,1323
1859.6905801322787,1382
1861.6635864143004,1386
1863.6361028737338,1367
1865.608129773424,1422
1867.5796673762961,1422
1869.5507159453537,1353
1871.521275743678,1406
1873.4913470344313,1353
1875.4609300808534,1385
1877.4300251462632,1410
1879.3986324940588,1363
1881.366752387717,1392
1883.3343850907936,1355
1885.3015308669228,1398
1887.268189979819,1382
1889.2343626932739,1349
1891.2000492711595,1399
1893.1652499774254,1400
1895.1299650761011,1404
1897.0941948312952,1439
1899.0579395071945,1407
1901.0211993680641,1416
1902.98397467825,1408
1904.9462657021745,1446
1906.9080727043415,1458
1908.869395949332,1386
1910.8302357018065,1405
1912.790592226504,1387
1914.7504657882428,1429
1916.7098566519212,1423
1918.6687650825133,1418
1920.6271913450764,1414
1922.5851357047422,1360
1924.5425984267245,1401
1926.499579776314,1430
1928.4560800188833,1415
1930.4120994198802,1450
1932.367638244833,1426
1934.32269675935,1415
1936.2772752291175,1388
1938.231373919899,1455
1940.1849930975404,1462
1942.1381330279637,1394
1944.0907939771696,1413
1946.0429762112412,1407
1947.9946799963363,1349
1949.9459055986945,1423
1951.896653284633,1361
1953.8469233205478,1385
1955.7967159729142,1393
1957.7460315082863,1384
1959.6948701932974,1356
1961.6432322946594,1348
1963.5911180791632,1405
1965.5385278136787,1397
1967.4854617651545,1423
1969.4319202006182,1373
1971.377903387176,1381
1973.3234115920136,1404
1975.268445082395,1418
1977.2130041256642,1404
1979.1570889892423,1426
1981.1006999406304,1380
1983.04383724741,1398
1984.986501177238,1375
1986.928691997853,1397
1988.8704099770712,1394
1990.811655382789,1424
1992.7524284829801,1411
1994.692729545698,1426
1996.6325588390755,1454
1998.5719166313224,1430
2000.5108031907307,1430
2002.4492187856677,1458
2004.387163684583,1419
2006.3246381560011,1399
2008.2616424685298,1397
2010.1981768908527,1395
2012.1342416917332,1359
2014.069837140014,1417
2016.0049635046162,1366
2017.9396210545406,1407
2019.8738100588666,1331
2021.8075307867502,1392
2023.740783507431,1400
2025.6735684902228,1391
2027.6058860045214,1408
2029.5377363198004,1443
2031.4691197056118,1400
2033.4000364315875,1412
2035.3304867674374,1383
2037.260470982952,1338
2039.189989347998,1326
2041.1190421325232,1308
2043.047629606554,1352
2044.9757520401945,1330
2046.9034097036288,1364
2048.8306028671195,1389
2050.7573318010086,1419
2052.683596775716,1377
2054.609398061742,1384
2056.5347359296647,1374
2058.4596106501403,1341
2060.384022493906,1301
2062.3079717317764,1374
2064.231458634646,1373
2066.1544834734873,1359
2068.077046519352,1358
2069.99914804337,1430
2071.9207883167524,1389
2073.8419676107865,1365
2075.7626861968406,1309
2077.6829443463607,1355
2079.6027423308715,1322
2081.522080421977,1416
2083.440958891362,1390
2085.359378010786,1392
2087.2773380520907,1351
2089.194839287196,1327
2091.111881988101,1375
2093.0284664268825,1375
2094.9445928756973,1366
2096.86026160678,1369
2098.775472892446,1348
2100.690227005088,1343
2102.604524217178,1347
2104.5183648012676,1375
2106.431749029985,1350
2108.34467717604,1351
2110.2571495122206,1402
2112.169166311393,1372
2114.080727846503,1371
2115.9918343905747,1348
2117.902486216711,1389
2119.8126835980956,1364
2121.722426807987,1367
2123.6317161197285,1403
2125.5405518067364,1334
2127.448934142509,1369
2129.356863400624,1340
2131.264339854737,1390
2133.1713637785815,1448
2135.077935445972,1423
2136.9840551308002,1391
2138.889723107037,1391
2140.7949396487334,1379
2142.699705030018,1418
2144.6040195250994,1427
2146.507883408264,1411
2148.4112969538774,1380
2150.3142604363848,1410
2152.2167741303097,1431
2154.1188383102535,1414
2156.0204532508997,1463
2157.9216192270064,1418
2159.822336513414,1367
2161.7226053850413,1371
2163.622426116884,1413
2165.5217989840185,1466
2167.4207242616,1464
2169.319202224862,1487
2171.2172331491165,1421
2173.1148173097563,1464
2175.0119549822507,1477
2176.90864644215,1394
2178.8048919650823,1440
2180.7006918267534,1386
2182.596046302952,1499
2184.4909556695407,1453
2186.3854202024645,1487
2188.279440177746,1480
2190.173015871487,1465
2192.066147559868,1449
2193.958835519149,1437
2195.851080025667,1479
2197.7428813558417,1450
2199.6342397861667,1491
2201.5251555932186,1471
2203.415629053651,1520
2205.3056604441986,1452
2207.19525004167,1460
2209.084398122958,1477
2210.9731049650327,1518
2212.861370844941,1464
2214.749196039812,1488
2216.636580826851,1546
2218.523525483344,1529
2220.410030286655,1535
2222.296095514226,1482
2224.1817214435805,1519
2226.066908352319,1496
2227.951656518121,1502
2229.835966218746,1503
2231.71983773203,1510
2233.6032713358913,1562
2235.486267308324,1555
2237.3688259274036,1489
2239.2509474712824,1522
2241.132632218193,1494
2243.013880446447,1539
2244.8946924344323,1557
2246.7750684606203,1522
2248.6550088035574,1586
2250.534513741871,1517
2252.413583554265,1534
2254.292218519526,1558
2256.170418916517,1528
2258.0481850241786,1531
2259.925517121534,1493
2261.8024154876825,1505
2263.678880401803,1580
2265.5549121431536,1516
2267.430510991071,1498
2269.305677224971,1529
2271.180411124348,1551
2273.0547129687766,1489
2274.9285830379076,1491
2276.8020216114737,1454
2278.6750289692845,1476
2280.5476053912294,1500
2282.4197511572766,1504
2284.2914665474727,1590
2286.162751841943,1555
2288.0336073208937,1573
2289.904033264608,1573
2291.774029953448,1608
2293.6435976678554,1533
2295.5127366883517,1503
2297.381447295534,1487
2299.2497297700825,1450
2301.1175843927526,1366
2302.9850114443825,1343
2304.852011205885,1342
2306.7185839582553,1281
2308.5847299825664,1265
2310.4504495599676,1267
2312.3157429716925,1220
2314.1806104990483,1295
2316.0450524234247,1259
2317.9090690262888,1245
2319.772660589186,1258
2321.635827393742,1227
2323.498569721661,1198
2325.3608878547248,1225
2327.2227820747967,1188
2329.0842526638157,1197
2330.945299903803,1192
2332.805924076857,1218
2334.6661254651535,1207
2336.525904350951,1210
2338.3852610165827,1230
2340.244195744464,1230
2342.102708817088,1226
2343.9608005170253,1202
2345.8184711269287,1217
2347.675720929526,1172
2349.532550207628,1227
2351.38895924412,1194
2353.24494832197,1224
2355.100517724223,1234
2356.955667734004,1309
2358.810398634514,1238
2360.664710709037,1273
2362.5186042409337,1328
2364.3720795136437,1276
2366.225136810686,1270
2368.0777764156583,1221
2369.929998612237,1258
2371.7818036841777,1183
2373.633191915315,1244
2375.484163589562,1218
2377.3347189909114,1296
2379.184858403434,1237
2381.03458211128,1217
2382.8838903986775,1224
2384.732783549936,1250
2386.5812618494406,1233
2388.4293255816588,1265
2390.2769750311327,1243
2392.1242104824883,1245
2393.971032220427,1201
2395.8174405297295,1214
2397.6634356952563,1233
2399.509018001947,1322
2401.3541877348193,1260
2403.1989451789705,1291
2405.043290619576,1253
2406.8872243418905,1242
2408.730746631247,1175
2410.5738577730594,1266
2412.4165580528183,1265
2414.258847756095,1254
2416.100727168537,1267
2417.9421965758734,1216
2419.783256263912,1168
2421.623906518538,1247
2423.4641476257157,1231
2425.303979871491,1284
2427.143403541984,1229
2428.9824189233977,1217
2430.821026302012,1254
2432.6592259641866,1234
2434.497018196361,1295
2436.33440328505,1225
2438.171381516851,1190
2440.00795317844,1221
2441.844118556569,1236
2443.6798779380724,1267
2445.5152316098606,1238
2447.3501798589255,1264
2449.1847229723357,1258
2451.0188612372403,1294
2452.8525949408663,1227
2454.6859243705203,1227
2456.518849813587,1232
2458.3513715575314,1252
2460.183489889895,1266
2462.015205098301,1259
2463.8465174704493,1278
2465.67742729412,1205
2467.5079348571717,1235
2469.338040447542,1293
2471.1677443532476,1255
2472.9970468623833,1283
2474.825948263123,1308
2476.6544488437207,1257
2478.482548892508,1273
2480.310248697896,1295
2482.137548548374,1326
2483.9644487325118,1302
2485.790949538956,1263
2487.617051256433,1243
2489.44275417375,1179
2491.26805857979,1330
2493.0929647635157,1301
2494.917473013971,1268
2496.741583620276,1271
2498.5652968716304,1308
2500.3886130573137,1269
2502.2115324666834,1279
2504.0340553891765,1310
2505.856182114308,1304
2507.6779129316733,1293
2509.499248130945,1334
2511.3201880018764,1292
2513.140732834298,1278
2514.9608829181198,1269
2516.780638543331,1309
2518.6,1257
2520.418967578273,1294
2522.237541568376,1267
2524.0557222606144,1338
2525.8735099453706,1299
2527.6909049131086,1310
2529.507907454368,1279
2531.32451785977,1333
2533.140736420014,1338
2534.9565634258774,1337
2536.771999168218,1300
2538.5870439379714,1329
2540.4016980261526,1359
2542.2159617238544,1331
2544.02983532225,1322
2545.8433191125914,1355
2547.656413386209,1303
2549.4691184345115,1368
2551.2814345489874,1338
2553.093362021204,1370
2554.904901142808,1333
2556.716052205523,1359
2558.526815501153,1369
2560.3371913215824,1424
2562.147179958771,1335
2563.956781704761,1353
2565.7659968516705,1370
2567.5748256916986,1375
2569.3832685171224,1413
2571.1913256202984,1437
2572.9989972936614,1450
2574.806283829725,1414
2576.613185521084,1477
2578.4197026604074,1408
2580.2258355404483,1389
2582.031584454035,1445
2583.836949694077,1408
2585.6419315535613,1479
2587.4465303255533,1431
2589.2507463032002,1432
2591.0545797797245,1418
2592.8580310484303,1439
2594.6611004026995,1490
2596.463788135992,1430
2598.266094541849,1431
2600.0680199138874,1389
2601.869564545807,1382
2603.670728731383,1453
2605.4715127644704,1461
2607.2719169390048,1425
2609.071941548998,1437
2610.8715868885433,1422
2612.670853251811,1498
2614.469740933052,1447
2616.268250226594,1465
2618.0663814268455,1429
2619.864134828292,1414
2621.6615107255006,1444
2623.458509413115,1429
2625.2551311858597,1415
2627.0513763385347,1420
2628.8472451660223,1403
2630.6427379632833,1386
2632.4378550253564,1373
2634.232596647359,1392
2636.026963124488,1430
2637.8209547520187,1339
2639.6145718253065,1391
2641.407814639785,1419
2643.200683490966,1398
2644.9931786744414,1318
2646.7853004858807,1335
2648.577049221034,1373
2650.3684251757277,1345
2652.1594286458712,1354
2653.9500599274484,1331
2655.740319316525,1354
2657.5302071092437,1329
2659.3197236018286,1327
2661.10886909058,1335
2662.8976438718782,1308
2664.686048242183,1372
2666.4740824980327,1352
2668.2617469360443,1326
2670.0490418529134,1349
2671.8359675454153,1351
2673.622524310403,1323
2675.408712444811,1290
2677.1945322456495,1325
2678.979984010009,1298
2680.76506803506,1339
2682.5497846180497,1284
2684.334134056306,1239
2686.1181166472343,1300
2687.9017326883213,1264
2689.6849824771293,1240
2691.4678663113013,1270
2693.2503844885596,1297
2695.032537306705,1294
2696.8143250636167,1308
2698.5957480572542,1279
2700.3768065856534,1302
2702.1575009469316,1244
2703.937831439283,1265
2705.717798360982,1295
2707.4974020103837,1307
2709.276642685917,1246
2711.055520686095,1280
2712.834036309506,1253
2714.612189854819,1222
2716.389981620782,1212
2718.1674119062204,1170
2719.944481010041,1274
2721.721189231226,1220
2723.4975368688415,1194
2725.273524222027,1219
2727.0491515900053,1253
2728.824419272075,1280
2730.5993275676146,1242
2732.3738767760838,1262
2734.148067197016,1307
2735.921899130031,1165
2737.6953728748194,1220
2739.468488731156,1226
2741.2412469988926,1186
2743.0136479779617,1194
2744.785691968372,1264
2746.5573792702116,1252
2748.3287101836504,1190
2750.099685008934,1219
2751.870304046388,1208
2753.640567596418,1190
2755.4104759595057,1219
2757.1800294362156,1178
2758.949228327187,1261
2760.7180729331412,1258
2762.486563554877,1249
2764.254700493272,1268
2766.022484049284,1246
2767.789914523947,1208
2769.5569922183786,1207
2771.3237174337705,1237
2773.090090471394,1198
2774.8561116326036,1202
2776.6217812188274,1266
2778.3870995315756,1225
2780.1520668724356,1220
2781.9166835430747,1250
2783.6809498452394,1230
2785.444866080754,1299
2787.2084325515225,1270
2788.971649559527,1244
2790.73451740683,1240
2792.4970363955713,1266
2794.2592068279705,1215
2796.0210290063264,1241
2797.7825032330147,1224
2799.543629810493,1231
2801.304409041296,1239
2803.0648412280366,1254
2804.8249266734088,1235
2806.5846656801846,1259
2808.344058551212,1244
2810.1031055894246,1206
2811.8618070978273,1283
2813.6201633795085,1294
2815.378174737636,1257
2817.1358414754536,1214
2818.893163896285,1235
2820.6501423035334,1207
2822.4067770006814,1222
2824.1630682912883,1265
2825.9190164789957,1219
2827.6746218675207,1230
2829.429884760661,1236
2831.184805462294,1237
2832.9393842763743,1247
2834.693621506936,1243
2836.4475174580916,1211
2838.201072434034,1240
2839.954286739034,1231
2841.707160677441,1248
2843.459694553685,1233
2845.2118886722724,1264
2846.96374333779,1224
2848.7152588549034,1188
2850.4664355283567,1255
2852.217273662973,1227
2853.9677735636546,1293
2855.7179355353833,1234
2857.4677598832186,1280
2859.217246912299,1277
2860.9663969278427,1262
2862.715210235146,1267
2864.4636871395846,1238
2866.211827946614,1237
2867.9596329617652,1255
2869.7071024906536,1233
2871.4542368389684,1250
2873.20103631248,1225
2874.947501217038,1251
2876.6936318585695,1293
2878.4394285430812,1248
2880.1848915766604,1185
2881.9300212654707,1230
2883.6748179157553,1280
2885.4192818338374,1252
2887.1634133261173,1241
2888.907212699077,1228
2890.6506802592744,1260
2892.393816313348,1273
2894.1366211680142,1236
2895.8790951300693,1228
2897.621238506388,1298
2899.363051603925,1250
2901.1045347297118,1254
2902.8456881908596,1246
2904.58651229456,1230
2906.327007348081,1225
2908.067173658772,1266
2909.8070115340597,1253
2911.5465212814497,1281
2913.285703208527,1253
2915.0245576229563,1241
2916.7630848324807,1233
2918.5012851449196,1260
2920.2391588681758,1268
2921.976706310227,1266
2923.7139277791334,1260
2925.4508235830313,1213
2927.187394030137,1259
2928.923639428745,1229
2930.6595600872306,1234
2932.395156314046,1236
2934.1304284177218,1268
2935.8653767068713,1229
2937.6000014901815,1207
2939.3343030764227,1256
2941.068281774442,1247
2942.8019378931644,1262
2944.5352717415976,1190
2946.2682836288236,1254
2948.0009738640065,1227
2949.7333427563885,1289
2951.465390615289,1268
2953.1971177501086,1198
2954.9285244703265,1261
2956.6596110855,1239
2958.3903779052657,1230
2960.1208252393385,1217
2961.8509533975125,1213
2963.5807626896617,1196
2965.3102534257378,1234
2967.0394259157715,1183
2968.768280469873,1242
2970.496817398232,1214
2972.2250370111146,1243
2973.952939618869,1310
2975.6805255319196,1283
2977.4077950607707,1267
2979.134748516006,1242
2980.861386208289,1259
2982.587708448359,1242
2984.313715547037,1288
2986.039407815222,1298
2987.764785563891,1250
2989.489849104102,1188
2991.2145987469908,1287
2992.9390348037705,1228
2994.6631575857346,1226
2996.3869674042576,1214
2998.1104645707887,1241
2999.83364939686,1245
3001.5565221940783,1248
3003.2790832741334,1203
3005.0013329487924,1197
3006.7232715298996,1289
3008.4448993293804,1251
3010.166216659239,1188
3011.887223831558,1156
3013.607921158498,1190
3015.3283089522993,1227
3017.0483875252826,1188
3018.7681571898443,1226
3020.4876182584626,1226
3022.2067710436927,1258
3023.9256158581707,1258
3025.644153014609,1239
3027.362382825801,1236
3029.0803056046193,1247
3030.797921664012,1251
3032.5152313170106,1185
3034.2322348767225,1260
3035.9489326563353,1261
3037.665324969115,1215
3039.3814121284063,1188
3041.097194447633,1225
3042.812672240299,1242
3044.5278458199855,1185
3046.2427155003525,1236
3047.9572815951406,1209
3049.671544418167,1199
3051.38550428333,1236
3053.0991615046073,1182
3054.812516396051,1243
3056.5255692717974,1221
3058.2383204460575,1221
3059.9507702331257,1233
3061.662918947372,1284
3063.3747669032446,1181
3065.0863144152736,1229
3066.7975617980674,1214
3068.508509366309,1228
3070.219157434767,1224
3071.9295063182844,1244
3073.639556331785,1279
3075.3493077902704,1256
3077.058761008821,1196
3078.7679163025964,1186
3080.476773986837,1199
3082.1853343768594,1206
3083.89359778806,1273
3085.6015645359153,1202
3087.3092349359786,1219
3089.016609303884,1236
3090.7236879553434,1267
3092.4304712061476,1229
3094.136959372166,1252
3095.843152769349,1248
3097.5490517137237,1222
3099.2546565213966,1205
3100.959967508554,1202
3102.66498499146,1241
3104.3697092864577,1171
3106.0741407099695,1216
3107.778279578498,1227
3109.482126208622,1228
3111.1856809170004,1194
3112.8889440203716,1229
3114.5919158355528,1230
3116.294596679439,1215
3117.996986869006,1233
3119.6990867213062,1231
3121.4008965534726,1250
3123.102416682717,1256
3124.803647426329,1204
3126.5045891016784,1247
3128.205242026213,1264
3129.90560651746,1266
3131.605682893025,1248
3133.3054714705922,1196
3135.0049725679282,1273
3136.7041865028714,1229
3138.4031135933465,1219
3140.101754157353,1209
3141.800108512971,1208
3143.498176978357,1255
3145.1959598717494,1219
3146.8934575114636,1215
3148.5906702158954,1200
3150.2875983035183,1240
3151.9842420928853,1228
3153.680601902627,1277
3155.376678051456,1235
3157.07247085816,1220
3158.767980641609,1223
3160.463207720748,1262
3162.158152414606,1279
3163.8528150422862,1252
3165.5471959229726,1234
3167.2412953759303,1255
3168.9351137204976,1270
3170.628651276098,1225
3172.3219083622307,1230
3174.014885298474,1229
3175.707582404485,1258
3177.4000000000005,1284
3179.092138404835,1208
3180.7839979388846,1217
3182.47557892212,1233
3184.166881674594,1198
3185.8579065164386,1209
3187.5486537678626,1228
3189.2391237491547,1239
3190.9293167806827,1180
3192.6192331828934,1273
3194.3088732763117,1268
3195.998237381542,1245
3197.687325819268,1174
3199.376138910251,1218
3201.064676975334,1252
3202.7529403354347,1269
3204.4409293115523,1216
3206.1286442247647,1229
3207.816085396229,1197
3209.5032531471825,1229
3211.190147798936,1200
3212.8767696728846,1238
3214.5631190905015,1202
3216.2491963733373,1176
3217.9350018430214,1193
3219.6205358212637,1230
3221.305798629851,1203
3222.990790590651,1152
3224.6755120256103,1200
3226.359963256751,1187
3228.0441446061795,1217
3229.7280563960758,1214
3231.411698948703,1192
3233.0950725863995,1212
3234.778177631587,1207
3236.461014406761,1289
3238.1435832345005,1179
3239.8258844374595,1177
3241.507918338374,1213
3243.1896852600576,1234
3244.8711855254023,1247
3246.552419457381,1226
3248.233387379042,1223
3249.914089613516,1195
3251.59452648401,1201
3253.274698313813,1255
3254.95460542629,1181
3256.6342481448855,1183
3258.313626793125,1183
3259.9927416946084,1189
3261.6715931730196,1173
3263.3501815521176,1157
3265.0285071557437,1182
3266.706570307815,1176
3268.3843713323286,1155
3270.0619105533615,1217
3271.739188295068,1224
3273.4162048816834,1173
3275.0929606375184,1206
3276.769455886966,1219
3278.445690954498,1209
3280.1216661646613,1215
3281.797381842087,1210
3283.4728383114807,1193
3285.1480358976296,1164
3286.8229749253996,1174
3288.4976557197333,1239
3290.172078605655,1219
3291.846243908266,1221
3293.5201519527463,1205
3295.193803064357,1240
3296.8671975684374,1218
3298.5403357904024,1175
3300.21321805575,1182
3301.8858446900567,1194
3303.558216018975,1212
3305.23033236824,1207
3306.9021940636603,1177
3308.57380143113,1208
3310.2451547966184,1154
3311.916254486174,1211
3313.5871008259246,1164
3315.2576941420766,1199
3316.9280347609147,1161
3318.5981230088046,1226
3320.2679592121895,1168
3321.9375436975924,1197
3323.606876791612,1210
3325.27595882093,1228
3326.944790112305,1172
3328.6133709925753,1174
3330.2817017886573,1161
3331.949782827547,1207
3333.617614436319,1170
3335.2851969421245,1213
3336.952530672199,1212
3338.619615953853,1177
3340.286453114475,1261
3341.9530424815357,1150
3343.619384382583,1213
3345.2854791452437,1181
3346.951327097224,1218
3348.6169285663073,1215
3350.2822838803577,1227
3351.947393367319,1267
3353.61225735521,1179
3355.2768761721345,1205
3356.9412501462693,1175
3358.605379605873,1198
3360.2692648792827,1225
3361.9329062949146,1196
3363.596304181263,1179
