CollectionTime,7/11/2024 12:29:16 PM
ExposureUsed,3
CalibratedSpectrum
-962.7078968117929,580
-959.9714848408522,589
-957.2358232597828,572
-954.5009119013725,581
-951.7667505983302,555
-949.0333391832855,590
-946.3006774887896,595
-943.5687653473143,588
-940.837602591253,588
-938.1071890529199,601
-935.3775245645503,596
-932.6486089583007,606
-929.9204420662485,596
-927.1930237203925,602
-924.4663537526524,558
-921.7404319948689,569
-919.0152582788041,613
-916.2908324361409,655
-913.5671542984834,603
-910.8442236973568,593
-908.1220404642074,573
-905.4006044304027,598
-902.679915427231,605
-899.959973285902,561
-897.2407778375464,582
-894.5223289132158,592
-891.8046263438832,594
-889.0876699604426,576
-886.3714595937089,556
-883.6559950744183,571
-880.9412762332282,614
-878.2273029007168,568
-875.5140749073835,536
-872.8015920836489,578
-870.0898542598545,569
-867.3788612662631,542
-864.6686129330585,570
-861.9591090903457,572
-859.2503495681506,586
-856.5423341964203,549
-853.8350628050229,562
-851.1285352237478,579
-848.4227512823054,571
-845.7177108103272,579
-843.0134136373656,562
-840.3098595928943,599
-837.6070485063082,555
-834.9049802069229,569
-832.2036545239757,585
-829.5030712866244,557
-826.8032303239481,557
-824.1041314649472,604
-821.4057745385428,594
-818.7081593735775,586
-816.0112857988148,606
-813.3151536429393,582
-810.6197627345566,574
-807.9251129021936,596
-805.2312039742981,619
-802.5380357792392,592
-799.8456081453069,579
-797.1539209007124,595
-794.462973873588,618
-791.772766891987,635
-789.083299783884,602
-786.3945723771743,607
-783.7065844996748,597
-781.0193359791231,552
-778.3328266431781,573
-775.6470563194197,561
-772.9620248353489,577
-770.2777320183878,592
-767.5941776958798,579
-764.9113616950891,583
-762.2292838432011,604
-759.5479439673222,601
-756.8673418944801,580
-754.1874774516235,596
-751.5083504656222,593
-748.8299607632671,597
-746.15230817127,605
-743.475392516264,619
-740.7992136248035,609
-738.1237713233636,613
-735.4490654383407,584
-732.7750957960521,617
-730.1018622227365,602
-727.4293645445534,594
-724.7576025875837,639
-722.0865761778291,602
-719.4162851412126,640
-716.7467293035781,626
-714.0779084906909,615
-711.409822528237,617
-708.7424712418238,577
-706.0758544569796,633
-703.4099719991541,645
-700.7448236937178,681
-698.0804093659622,681
-695.4167288411002,648
-692.7537819442656,627
-690.0915685005134,656
-687.4300883348199,653
-684.7693412720819,666
-682.1093271371178,626
-679.4500457546669,645
-676.7914969493897,614
-674.1336805458676,645
-671.4765963686034,634
-668.8202442420206,666
-666.1646239904642,616
-663.5097354382001,664
-660.8555784094151,660
-658.2021527282176,625
-655.5494582186366,696
-652.8974947046223,647
-650.2462620100463,677
-647.5957599587009,642
-644.9459883742998,655
-642.2969470804776,681
-639.6486359007902,666
-637.0010546587141,694
-634.3542031776476,695
-631.7080812809096,698
-629.0626887917401,651
-626.4180255333008,726
-623.7740913286734,717
-621.1308860008619,740
-618.4884093727904,684
-615.8466612673046,695
-613.2056415071715,684
-610.5653499150785,714
-607.9257863136347,689
-605.28695052537,691
-602.6488423727357,655
-600.0114616781036,695
-597.3748082637674,705
-594.7388819519412,736
-592.1036825647604,715
-589.4692099242818,807
-586.8354638524829,764
-584.2024441712624,695
-581.5701507024403,745
-578.9385832677575,744
-576.3077416888759,699
-573.6776257873787,755
-571.0482353847704,703
-568.4195703024757,669
-565.7916303618415,717
-563.164415384135,715
-560.5379251905453,732
-557.9121596021815,722
-555.2871184400748,718
-552.6628015251767,719
-550.0392086783606,736
-547.4163397204204,693
-544.794194472071,739
-542.1727727539491,787
-539.5520743866118,772
-536.9320991905377,786
-534.3128469861261,800
-531.6943175936979,784
-529.0765108334947,823
-526.4594265256793,837
-523.8430644903358,933
-521.2274245474689,1016
-518.612506517005,1120
-515.9983102187913,1072
-513.3848354725959,1059
-510.77208209810846,1203
-508.16004991493924,1235
-505.5487387426199,1349
-502.9381484006032,1474
-500.3282787082628,1460
-497.71912948489364,1423
-495.1107005497117,1267
-492.5029917218539,1234
-489.8960028203786,1085
-487.28973366426493,976
-484.68418407241325,967
-482.07935386364494,848
-479.47524285670266,849
-476.87185087025,862
-474.2691777228715,891
-471.66722323307334,900
-469.0659872192821,884
-466.4654694998459,930
-463.86566989303384,869
-461.26658821703614,863
-458.66822428996414,879
-456.07057792985,862
-453.4736489546475,875
-450.877437182231,891
-448.28194243039627,875
-445.68716451686,885
-443.09310325926003,894
-440.49975847515555,816
-437.9071299820263,873
-435.31521759727354,887
-432.72402113821954,931
-430.13354042210767,885
-427.5437752661022,862
-424.95472548728867,906
-422.36639090267386,904
-419.7787713291855,930
-417.1918665836721,1027
-414.60567648290385,914
-412.0202008435715,924
-409.4354394822874,922
-406.8513922155845,950
-404.26805885991723,958
-401.685439231661,919
-399.103533147112,1017
-396.522340422488,893
-393.9418608739278,862
-391.3620943174908,934
-388.7830405691583,868
-386.2046994448317,856
-383.6270707603344,842
-381.05015433141045,766
-378.473949973725,705
-375.8984575028645,684
-373.32367673433623,689
-370.74960748356875,626
-368.1762495659117,659
-365.60360279663576,593
-363.03166699093265,502
-360.4604419639154,512
-357.8899275306178,502
-355.32012350599507,468
-352.7510297049233,500
-350.1826459421999,454
-347.61497203254316,470
-345.04800779059235,463
-342.4817530309082,499
-339.91620756797226,493
-337.35137121618743,497
-334.7872437898774,496
-332.22382510328725,521
-329.66111497058273,495
-327.09911320585127,442
-324.53781962310075,484
-321.9772340362607,529
-319.4173562591816,460
-316.8581861056348,453
-314.2997233893127,483
-311.7419679238294,484
-309.1849195227194,508
-306.62857799943856,587
-304.0729431673641,512
-301.51801483979375,500
-298.963792829947,527
-296.41027695096386,568
-293.85746701590574,565
-291.3053628377552,590
-288.7539642294155,557
-286.2032710037115,531
-283.65328297338897,490
-281.1039999511146,556
-278.5554217494762,629
-276.007548180983,552
-273.4603790580651,505
-270.9139141930734,526
-268.3681533982807,552
-265.8230964858798,613
-263.27874326798565,588
-260.7350935566336,608
-258.1921471637804,587
-255.6499039013039,592
-253.10836358100266,632
-250.56752601459698,586
-248.02739101372765,565
-245.48795838995704,628
-242.94922795476816,607
-240.41119951956557,652
-237.8738728956746,702
-235.33724789434166,613
-232.80132432673452,585
-230.2661020039418,600
-227.73158073697357,623
-225.19776033676033,649
-222.66464061415422,686
-220.1322213799284,655
-217.60050244477725,595
-215.06948361931552,600
-212.53916471408013,693
-210.00954553952818,754
-207.48062590603843,669
-204.9524056239104,636
-202.4248845033651,702
-199.8980623545441,674
-197.37193898751036,748
-194.84651421224817,777
-192.32178783866232,753
-189.79775967657952,745
-187.27442953574644,765
-184.7517972258321,817
-182.2298625564256,798
-179.7086253370378,700
-177.18808537710026,685
-174.66824248596583,708
-172.14909647290835,714
-169.6306471471229,803
-167.11289431772548,842
-164.59583779375328,833
-162.07947738416453,788
-159.5638128978386,801
-157.04884414357605,859
-154.53457093009854,900
-152.02099306604828,864
-149.50811035998936,847
-146.99592262040665,976
-144.48442965570587,1011
-141.97363127421409,875
-139.46352728417958,820
-136.95411749377126,827
-134.44540171107985,876
-131.93737974411636,870
-129.43005140081357,929
-126.92341648902493,993
-124.41747481652521,1052
-121.91222619101006,1156
-119.40767042009657,1384
-116.90380731132257,1265
-114.40063667214702,1329
-111.8981583099503,1475
-109.3963720320337,1331
-106.89527764561933,1256
-104.39487495785067,1375
-101.89516377579241,1772
-99.39614390642998,2476
-96.89781515667039,2701
-94.40017733334128,2743
-91.90323024319173,3300
-89.40697369289148,5913
-86.91140748903172,8546
-84.41653143812482,7425
-81.92234534660395,5248
-79.42884902082358,3869
-76.93604226705907,6699
-74.4439248915071,14669
-71.95249670028534,24568
-69.46175749943245,28407
-66.97170709490854,25540
-64.48234529259423,20084
-61.99367189829195,16099
-59.50568671772464,12960
-57.01838955653636,8882
-54.53178022029283,7555
-52.045858514480074,8263
-49.560624244506016,7636
-47.07607721569923,8115
-44.59221723330904,9850
-42.10904410250669,10224
-39.62655762838392,10896
-37.14475761595372,9852
-34.66364387015028,8974
-32.18321619582866,8072
-29.70347439776515,6994
-27.224418280657005,7106
-24.74604764912317,7890
-22.26836230770266,12013
-19.7913620608565,22990
-17.315046712966478,40329
-14.83941606833514,53318
-12.36446993118659,65039
-9.89020810566592,65039
-7.416630395839093,65039
-4.94373660569363,65039
-2.471526539137585,65039
-6.821210263296962E-13,65039
2.47084320796705,65039
4.941003281093458,65039
7.410480415786196,65039
9.879274808531363,65039
12.347386655893956,65039
14.814816154518212,65039
17.28156350112681,65039
19.74762889252179,65039
22.21301252558385,65039
24.67771459727237,20641
27.141735304626195,3910
29.605074844762612,2591
32.06773341487792,2399
34.52971121224755,2333
36.99100843422559,2800
39.45162527824516,2429
41.91156194181792,1939
44.370818622535126,1796
46.82939551806646,1875
49.287292826160524,1842
51.74451074464503,2166
54.201049471426245,2356
56.65690920448981,1978
59.112090141899785,1650
61.56659248179983,1540
64.02041642241159,1328
66.4735621620365,1190
68.92602989905402,1125
71.37781983192338,1297
73.82893215918205,1495
76.27936707944684,1497
78.72912479141326,1170
81.17820549385567,1163
83.62660938562783,1411
86.07433666566146,1241
88.5213875329681,1068
90.96776218663751,1037
93.41346082583925,1007
95.85848364982041,1168
98.30283085790859,1517
100.7465026495089,1290
103.18949922410604,1056
105.63182078126385,983
108.07346752062438,1069
110.51443964190923,1153
112.95473734491827,1139
115.39436082953114,1036
117.83331029570547,1001
120.27158594347827,999
122.7091879729652,1301
125.1461165843615,1347
127.58237197794062,1029
130.01795435405518,955
132.4528639131364,1017
134.88710085569494,1038
137.32066538231982,968
139.75355769367923,941
142.1857779905207,830
144.61732647366978,809
147.04820334403132,816
149.47840880258934,889
151.90794305040674,943
154.33680628862487,1085
156.76499871846443,1295
159.19252054122433,1380
161.61937195828352,1453
164.04555317109896,1608
166.47106438120693,1792
168.89590579022217,1871
171.320077599839,1984
173.7435800118302,2203
176.16641322804742,2244
178.58857745042144,2339
181.01007288096173,2414
183.43089972175687,2510
185.85105817497413,2419
188.27054844285988,2433
190.6893707277394,2327
193.10752523201643,2359
195.5250121581745,2546
197.9418317087751,2573
200.3579840864594,2597
202.7734694939469,2503
205.18828813403627,2673
207.6024402096051,2756
210.01592592360964,2777
212.42874547908548,2795
214.84089907914665,2709
217.2523869269868,2635
219.66320922587727,2683
222.0733661791695,2584
224.48285799029293,2640
226.8916848627572,2602
229.29984700014882,2615
231.7073446061355,2723
234.11417788446204,2659
236.520347038953,2735
238.92585227351185,2826
241.33069379212054,2847
243.73487179884035,3013
246.1383864978112,2938
248.541238093252,2961
250.9434267894609,3073
253.34495279081432,2981
255.74581630176783,3041
258.1460175268563,3038
260.54555667069314,3035
262.9444339379703,3020
265.3426495334594,2942
267.7402036620107,2823
270.1370965285529,2849
272.53332833809407,2719
274.9288992957214,2596
277.32380960660055,2537
279.718059475976,2483
282.1116491091717,2498
284.5045787115897,2439
286.89684848871195,2372
289.2884586460981,2412
291.67940938938807,2441
294.0697009242996,2407
296.4593334566299,2462
298.84830719225477,2341
301.23662233712923,2358
303.6242790972866,2331
306.01127767884,2308
308.39761828798066,2337
310.78330113097934,2239
313.16832641418534,2223
315.5526943440269,2164
317.9364051270112,2147
320.3194589697242,2089
322.70185607883093,2245
325.0835966610754,2154
327.4646809232805,2063
329.8451090723478,2093
332.2248813152577,2123
334.6039978590701,2075
336.9824589109231,2012
339.36026467803447,2043
341.7374153677,2068
344.113911187295,2034
346.48975234427337,2009
348.8649390461686,1959
351.2394715005918,1987
353.61334991523415,1982
355.9865744978655,1954
358.35914545633375,1938
360.73106299856715,2009
363.10232733257146,1996
365.47293866643247,1934
367.84289720831396,1960
370.2122031664593,1965
372.5808567491905,1992
374.9488581649083,1901
377.31620762209275,1957
379.6829053293021,1894
382.0489514951745,1932
384.4143463284262,1899
386.7790900378528,1852
389.14318283232853,1902
391.50662492080653,1869
393.86941651231916,1861
396.23155781597745,1933
398.5930490409713,1871
400.9538903965696,1869
403.3140820921202,1836
405.6736243370498,1898
408.03251734086336,1897
410.3907613131465,1762
412.74835646356166,1738
415.10530300185144,1772
417.4616011378372,1771
419.81725108141893,1795
422.1722530425758,1805
424.5266072313656,1831
426.880313857925,1787
429.2333731324701,1829
431.58578526529516,1836
433.9375504667738,1819
436.2886689473588,1798
438.63914091758113,1835
440.9889665880513,1794
443.33814616945835,1783
445.68667987257015,1806
448.03456790823395,1807
450.3818104873759,1741
452.72840782100013,1723
455.07436012019105,1738
457.41966759611057,1737
459.7643304600007,1693
462.10834892318155,1740
464.4517231970525,1751
466.79445349309174,1828
469.1365400228566,1788
471.4779829979826,1804
473.81878263018564,1760
476.15893913125876,1788
478.4984527130747,1837
480.8373235875855,1850
483.17555196682144,1874
485.5131380628919,1814
487.8500820879857,1982
490.1863842543697,2059
492.52204477439034,2103
494.8570638604725,2263
497.1914417251204,2504
499.52517858091653,2711
501.85827464052306,3000
504.19073011668036,3211
506.5225452222086,3125
508.85372017000566,3143
511.18425517304956,2942
513.514150444396,3129
515.8434061971808,3621
518.1720226446176,4189
520.4999999999999,4247
522.8273384766991,4043
525.1540382881666,3704
527.480099647932,3432
529.8055227696037,2853
532.1303078668694,2431
534.454455153496,1976
536.777964843328,1905
539.1008371502907,1795
541.4230722883866,1782
543.744670471698,1792
546.0656319143858,1770
548.3859568306899,1811
550.7056454349294,1709
553.0246979415016,1727
555.3431145648834,1814
557.6608955196306,1736
559.978041020377,1711
562.2945512818363,1732
564.6104265188006,1690
566.9256669461412,1800
569.2402727788082,1734
571.5542442318302,1731
573.8675815203156,1773
576.1802848594508,1710
578.4923544645015,1787
580.8037905508126,1764
583.114593333807,1780
585.4247630289875,1813
587.7342998519354,1831
590.0432040183106,1770
592.3514757438526,1813
594.6591152443794,1810
596.9661227357875,1858
599.2724984340531,1766
601.578242555231,1816
603.8833553154542,1747
606.1878369309362,1740
608.4916876179676,1751
610.7949075929192,1804
613.0974970722403,1775
615.3994562724587,1790
617.7007854101818,1701
620.0014847020951,1735
622.3015543649641,1777
624.6009946156324,1808
626.8998056710224,1720
629.1979877481361,1803
631.4955410640538,1795
633.7924658359349,1810
636.0887622810175,1767
638.3844306166192,1820
640.6794710601358,1859
642.9738838290426,1863
645.2676691408932,1831
647.5608272133207,1811
649.853358264037,1904
652.1452625108324,1828
654.4365401715764,1873
656.7271914642178,1885
659.0172166067838,1893
661.3066158173809,1861
663.5953893141935,1888
665.8835373154867,1862
668.1710600396028,1848
670.4579577049639,1834
672.7442305300709,1897
675.0298787335033,1752
677.3149025339197,1805
679.599302150058,1826
681.8830778007342,1787
684.1662297048437,1825
686.4487580813608,1909
688.7306631493387,1800
691.0119451279091,1883
693.2926042362834,1861
695.5726406937516,1895
697.8520547196814,1826
700.1308465335215,1836
702.4090163547982,1878
704.6865644031171,1799
706.9634908981619,1798
709.2397960596965,1873
711.5154801075631,1854
713.7905432616823,1835
716.0649857420548,1877
718.3388077687592,1839
720.612009561953,1835
722.8845913418733,1888
725.1565533288352,1848
727.427895743234,1807
729.6986188055427,1840
731.9687227363137,1818
734.238207756178,1779
736.5070740858458,1836
738.7753219461066,1774
741.0429515578281,1821
743.3099631419569,1868
745.5763569195191,1783
747.8421331116193,1795
750.1072919394409,1760
752.3718336242467,1815
754.6357583873777,1861
756.8990664502545,1829
759.1617580343765,1818
761.423833361321,1800
763.6852926527457,1838
765.9461361303862,1895
768.206364016058,1818
770.4659765316536,1825
772.7249738991469,1835
774.9833563405886,1871
777.2411240781092,1851
779.4982773339183,1794
781.7548163303044,1859
784.010741289634,1895
786.2660524343538,1955
788.5207499869881,1886
790.7748341701416,1828
793.0283052064964,1864
795.2811633188143,1869
797.5334087299362,1920
799.7850416627813,1938
802.0360623403484,1778
804.2864709857143,1839
806.5362678220353,1871
808.7854530725468,1859
811.0340269605625,1856
813.2819897094754,1848
815.5293415427581,1851
817.77608268396,1866
820.0222133567116,1861
822.2677337847211,1884
824.5126441917765,1851
826.7569448017433,1860
829.0006358385675,1809
831.2437175262731,1828
833.4861900889629,1821
835.7280537508192,1822
837.9693087361026,1827
840.2099552691533,1874
842.4499935743896,1877
844.689423876309,1876
846.9282463994886,1814
849.1664613685833,1836
851.4040690083276,1884
853.6410695435349,1824
855.877463199097,1837
858.1132501999847,1887
860.3484307712487,1872
862.5830051380175,1859
864.8169735254988,1860
867.0503361589791,1900
869.2830932638243,1908
871.5152450654786,1866
873.7467917894654,1809
875.9777336613873,1952
878.2080709069252,1845
880.4378037518389,1954
882.666932421968,1953
884.8954571432301,1933
887.1233781416219,1932
889.3506956432192,1910
891.5774098741766,1892
893.803521060728,1900
896.0290294291852,1925
898.2539352059397,1772
900.4782386174619,1896
902.7019398903011,1917
904.925039251085,1928
907.147536926521,1856
909.3694331433943,1883
911.59072812857,1913
913.8114221089921,1896
916.0315153116827,1856
918.2510079637437,1915
920.4699002923547,1937
922.6881925247761,1889
924.905884888345,1847
927.1229776104793,1926
929.3394709186747,1855
931.555365040506,1866
933.7706602036275,1898
935.9853566357709,1923
938.1994545647489,1850
940.4129542184515,1903
942.6258558248488,1898
944.8381596119883,1816
947.0498658079974,1818
949.2609746410825,1804
951.4714863395287,1794
953.6814011316998,1907
955.8907192460387,1820
958.0994409110671,1780
960.3075663553858,1806
962.5150958076741,1805
964.7220294966913,1852
966.928367651274,1822
969.1341105003388,1814
971.3392582728806,1796
973.5438111979742,1774
975.747769504772,1783
977.9511334225061,1744
980.153903180487,1794
982.3560790081052,1695
984.5576611348289,1731
986.7586497902058,1775
988.9590452038618,1663
991.158847605503,1759
993.3580572249133,1744
995.5566742919558,1713
997.7546990365728,1683
999.952131688785,1668
1002.1489724786926,1661
1004.3452216364743,1640
1006.5408793923874,1548
1008.7359459767691,1564
1010.9304216200343,1640
1013.1243065526781,1633
1015.3176010052733,1563
1017.510305208472,1529
1019.7024193930064,1565
1021.8939437896848,1546
1024.0848786293977,1586
1026.2752241431122,1568
1028.4649805618747,1621
1030.6541481168115,1575
1032.842727039127,1571
1035.0307175601051,1551
1037.2181199111074,1518
1039.4049343235752,1494
1041.591161029029,1436
1043.7768002590683,1574
1045.9618522453698,1581
1048.1463172196918,1559
1050.3301954138697,1499
1052.513487059818,1481
1054.69619238953,1542
1056.8783116350783,1507
1059.0598450286152,1449
1061.2407928023704,1496
1063.4211551886528,1506
1065.6009324198508,1527
1067.780124728432,1412
1069.9587323469414,1529
1072.1367555080046,1478
1074.314194444325,1535
1076.4910493886855,1469
1078.667320573947,1518
1080.843008233051,1514
1083.0181125990161,1403
1085.1926339049414,1432
1087.3665723840027,1499
1089.5399282694575,1441
1091.7127017946405,1439
1093.8848931929647,1429
1096.0565026979243,1414
1098.2275305430899,1432
1100.3979769621128,1400
1102.567842188722,1420
1104.737126456726,1386
1106.9058300000124,1415
1109.0739530525475,1441
1111.2414958483764,1419
1113.4084586216231,1443
1115.5748416064907,1476
1117.7406450372605,1488
1119.9058691482942,1441
1122.0705141740304,1370
1124.2345803489884,1399
1126.3980679077658,1438
1128.5609770850388,1376
1130.7233081155623,1437
1132.8850612341707,1420
1135.0462366757774,1397
1137.2068346753745,1424
1139.3668554680326,1419
1141.526299288901,1399
1143.68516637321,1410
1145.8434569562655,1408
1148.001171273455,1335
1150.158309560244,1388
1152.3148720521767,1406
1154.470858984876,1371
1156.626270594044,1420
1158.7811071154629,1347
1160.9353687849912,1405
1163.089055838569,1379
1165.242168512213,1319
1167.3947070420209,1357
1169.5466716641677,1347
1171.6980626149075,1347
1173.8488801305748,1340
1175.9991244475814,1347
1178.1487958024186,1402
1180.2978944316555,1407
1182.4464205719428,1314
1184.5943744600072,1313
1186.7417563326567,1297
1188.8885664267755,1382
1191.0348049793297,1374
1193.1804722273619,1297
1195.325568407995,1389
1197.4700937584303,1339
1199.614048515948,1344
1201.7574329179074,1336
1203.900247201746,1329
1206.042491604982,1367
1208.1841663652099,1366
1210.3252717201053,1257
1212.465807907422,1367
1214.6057751649923,1413
1216.7451737307279,1395
1218.8840038426192,1333
1221.0222657387353,1368
1223.1599596572241,1425
1225.2970858363137,1433
1227.4336445143094,1427
1229.5696359295966,1371
1231.705060320639,1401
1233.8399179259786,1340
1235.9742089842384,1358
1238.107933734118,1382
1240.2410924143974,1399
1242.373685263935,1396
1244.5057125216676,1400
1246.6371744266116,1458
1248.7680712178621,1418
1250.898403134593,1418
1253.028170416058,1488
1255.1573733015875,1413
1257.2860120305932,1426
1259.4140868425648,1401
1261.54159797707,1477
1263.6685456737569,1391
1265.7949301723515,1448
1267.9207517126597,1464
1270.046010534565,1487
1272.1707068780306,1403
1274.2948409830983,1420
1276.4184130898889,1360
1278.541423438603,1402
1280.6638722695184,1444
1282.785759822993,1487
1284.9070863394636,1463
1287.0278520594447,1434
1289.1480572235314,1489
1291.2677020723963,1472
1293.3867868467923,1473
1295.5053117875495,1517
1297.623277135579,1520
1299.740683131868,1510
1301.8575300174857,1508
1303.973818033578,1521
1306.0895474213703,1539
1308.2047184221678,1566
1310.3193312773528,1473
1312.4333862283888,1455
1314.5468835168163,1468
1316.659823384255,1522
1318.7722060724045,1510
1320.8840318230418,1551
1322.9953008780249,1478
1325.1060134792888,1498
1327.2161698688478,1573
1329.3257702887959,1556
1331.4348149813054,1557
1333.5433041886276,1514
1335.6512381530933,1557
1337.7586171171101,1525
1339.8654413231675,1514
1341.9717110138317,1523
1344.0774264317488,1562
1346.1825878196432,1511
1348.2871954203192,1610
1350.3912494766587,1543
1352.4947502316231,1508
1354.5976979282532,1516
1356.7000928096686,1528
1358.8019351190665,1544
1360.9032250997243,1540
1363.0039629949988,1540
1365.1041490483235,1531
1367.2037835032133,1554
1369.3028666032606,1564
1371.401398592137,1571
1373.4993797135926,1500
1375.5968102114575,1514
1377.6936903296396,1567
1379.7900203121262,1532
1381.8858004029835,1609
1383.9810308463561,1528
1386.075711886469,1557
1388.1698437676241,1552
1390.2634267342032,1582
1392.356461030667,1534
1394.4489469015557,1638
1396.5408845914872,1616
1398.6322743451592,1597
1400.7231164073469,1571
1402.813411022907,1584
1404.903158436773,1607
1406.9923588939578,1597
1409.0810126395531,1684
1411.1691199187303,1597
1413.2566809767386,1621
1415.343696058907,1627
1417.4301654106425,1674
1419.5160892774315,1674
1421.6014679048399,1703
1423.6863015385125,1647
1425.7705904241707,1701
1427.8543348076178,1675
1429.9375349347342,1738
1432.0201910514802,1701
1434.102303403894,1761
1436.1838722380944,1820
1438.2648978002767,1834
1440.3453803367174,1787
1442.4253200937692,1817
1444.5047173178677,1888
1446.5835722555234,1850
1448.6618851533285,1844
1450.739656257952,1965
1452.8168858161434,1968
1454.8935740747306,1963
1456.96972128062,2027
1459.045327680797,2051
1461.120393522327,1971
1463.1949190523528,2127
1465.2689045180973,2025
1467.3423501668608,2129
1469.415256246024,2180
1471.4876230030463,2179
1473.559450685465,2301
1475.6307395408976,2276
1477.7014898170391,2371
1479.771701761665,2395
1481.8413756226287,2348
1483.9105116478618,2424
1485.9791100853772,2488
1488.0471711832643,2444
1490.1146951896926,2501
1492.1816823529098,2638
1494.2481329212433,2552
1496.3140471430984,2635
1498.3794252669609,2629
1500.4442675413939,2635
1502.5085742150404,2666
1504.572345536622,2752
1506.6355817549388,2700
1508.6982831188702,2786
1510.7604498773744,2772
1512.8220822794883,2775
1514.8831805743293,2872
1516.9437450110909,2850
1519.003775839048,2887
1521.0632733075522,2836
1523.1222376660367,2924
1525.1806691640113,2886
1527.2385680510652,2847
1529.2959345768668,2941
1531.3527689911643,2953
1533.4090715437833,3023
1535.4648424846291,3002
1537.5200820636855,3084
1539.5747905310159,3220
1541.6289681367616,3150
1543.6826151311434,3227
1545.7357317644614,3252
1547.7883182870937,3261
1549.8403749494987,3259
1551.8919020022113,3359
1553.9428996958477,3455
1555.9933682811015,3567
1558.0433080087469,3580
1560.0927191296346,3709
1562.1416018946961,3661
1564.1899565549415,3743
1566.2377833614592,3679
1568.2850825654164,3694
1570.3318544180606,3609
1572.3780991707158,3506
1574.423817074788,3305
1576.4690083817595,3217
1578.5136733431923,3050
1580.5578122107272,2972
1582.601425236085,2824
1584.6445126710646,2673
1586.6870747675434,2647
1588.7291117774776,2441
1590.7706239529034,2379
1592.8116115459347,2286
1594.8520748087658,2275
1596.8920139936686,2106
1598.9314293529933,2049
1600.9703211391711,2050
1603.008689604711,2039
1605.0465350022005,1886
1607.0838575843068,1912
1609.1206576037753,1876
1611.1569353134305,1805
1613.1926909661765,1818
1615.2279248149953,1731
1617.2626371129481,1716
1619.2968281131757,1655
1621.3304980688963,1646
1623.3636472334088,1626
1625.39627586009,1622
1627.428384202396,1618
1629.459972513861,1599
1631.4910410480993,1603
1633.5215900588028,1581
1635.551619799744,1544
1637.5811305247717,1539
1639.6101224878166,1508
1641.6385959428862,1556
1643.6665511440683,1548
1645.693988345528,1458
1647.7209078015112,1523
1649.7473097663405,1468
1651.7731944944203,1489
1653.7985622402307,1542
1655.823413258333,1514
1657.847747803366,1467
1659.8715661300494,1523
1661.8948684931793,1488
1663.9176551476316,1544
1665.9399263483624,1464
1667.9616823504057,1473
1669.982923408873,1483
1672.0036497789574,1485
1674.0238617159293,1479
1676.043559475138,1429
1678.0627433120121,1409
1680.081413482059,1479
1682.0995702408654,1499
1684.117213844096,1460
1686.134344547495,1464
1688.1509626068864,1472
1690.1670682781705,1416
1692.182661817329,1486
1694.1977434804217,1475
1696.2123135235875,1465
1698.226372203043,1486
1700.2399197750851,1492
1702.2529564960905,1480
1704.2654826225112,1470
1706.277498410882,1432
1708.2890041178139,1460
1710.2999999999988,1403
1712.3104863142066,1467
1714.3204633172854,1415
1716.329931266163,1438
1718.3388904178469,1414
1720.3473410294214,1347
1722.3552833580516,1386
1724.3627176609807,1373
1726.3696441955308,1355
1728.3760632191033,1363
1730.3819749891782,1387
1732.3873797633146,1398
1734.3922777991502,1326
1736.3966693544012,1393
1738.4005546868639,1397
1740.4039340544127,1369
1742.406807715001,1387
1744.4091759266616,1408
1746.4110389475054,1400
1748.4123970357223,1406
1750.413250449582,1372
1752.4135994474318,1426
1754.4134442876993,1347
1756.4127852288902,1383
1758.4116225295893,1387
1760.4099564484595,1359
1762.407787244244,1319
1764.405115175764,1311
1766.4019405019203,1324
1768.3982634816916,1396
1770.3940843741357,1395
1772.3894034383907,1355
1774.3842209336717,1320
1776.378537119274,1326
1778.372352254571,1286
1780.3656665990156,1309
1782.3584804121397,1322
1784.3507939535534,1295
1786.3426074829463,1325
1788.3339212600863,1343
1790.3247355448211,1312
1792.3150505970766,1349
1794.3048666768573,1329
1796.2941840442477,1291
1798.2830029594106,1301
1800.2713236825884,1386
1802.2591464741004,1339
1804.2464715943465,1293
1806.2332993038058,1342
1808.2196298630352,1277
1810.2054635326708,1263
1812.190800573428,1323
1814.175641246101,1286
1816.1599858115628,1361
1818.1438345307652,1343
1820.127187664738,1285
1822.1100454745924,1314
1824.092408221516,1298
1826.0742761667766,1254
1828.055649571721,1305
1830.0365286977735,1217
1832.0169138064398,1272
1833.9968051593014,1267
1835.9762030180214,1299
1837.9551076443408,1296
1839.9335193000788,1302
1841.9114382471344,1310
1843.888864747485,1296
1845.8657990631878,1311
1847.842241456378,1325
1849.8181921892697,1260
1851.7936515241558,1288
1853.7686197234098,1214
1855.7430970494815,1300
1857.7170837649014,1257
1859.6905801322787,1293
1861.6635864143004,1281
1863.6361028737338,1310
1865.608129773424,1253
1867.5796673762961,1267
1869.5507159453537,1310
1871.521275743678,1321
1873.4913470344313,1279
1875.4609300808534,1269
1877.4300251462632,1280
1879.3986324940588,1317
1881.366752387717,1305
1883.3343850907936,1339
1885.3015308669228,1263
1887.268189979819,1302
1889.2343626932739,1291
1891.2000492711595,1305
1893.1652499774254,1264
1895.1299650761011,1357
1897.0941948312952,1304
1899.0579395071945,1309
1901.0211993680641,1363
1902.98397467825,1388
1904.9462657021745,1355
1906.9080727043415,1345
1908.869395949332,1337
1910.8302357018065,1321
1912.790592226504,1309
1914.7504657882428,1314
1916.7098566519212,1328
1918.6687650825133,1304
1920.6271913450764,1296
1922.5851357047422,1282
1924.5425984267245,1319
1926.499579776314,1354
1928.4560800188833,1314
1930.4120994198802,1357
1932.367638244833,1337
1934.32269675935,1306
1936.2772752291175,1306
1938.231373919899,1329
1940.1849930975404,1304
1942.1381330279637,1299
1944.0907939771696,1304
1946.0429762112412,1287
1947.9946799963363,1334
1949.9459055986945,1276
1951.896653284633,1272
1953.8469233205478,1343
1955.7967159729142,1362
1957.7460315082863,1269
1959.6948701932974,1287
1961.6432322946594,1300
1963.5911180791632,1300
1965.5385278136787,1333
1967.4854617651545,1289
1969.4319202006182,1317
1971.377903387176,1332
1973.3234115920136,1288
1975.268445082395,1295
1977.2130041256642,1220
1979.1570889892423,1259
1981.1006999406304,1300
1983.04383724741,1341
1984.986501177238,1234
1986.928691997853,1256
1988.8704099770712,1292
1990.811655382789,1281
1992.7524284829801,1322
1994.692729545698,1255
1996.6325588390755,1275
1998.5719166313224,1254
2000.5108031907307,1257
2002.4492187856677,1300
2004.387163684583,1225
2006.3246381560011,1294
2008.2616424685298,1253
2010.1981768908527,1268
2012.1342416917332,1222
2014.069837140014,1240
2016.0049635046162,1243
2017.9396210545406,1200
2019.8738100588666,1229
2021.8075307867502,1267
2023.740783507431,1233
2025.6735684902228,1264
2027.6058860045214,1226
2029.5377363198004,1261
2031.4691197056118,1233
2033.4000364315875,1243
2035.3304867674374,1289
2037.260470982952,1263
2039.189989347998,1237
2041.1190421325232,1280
2043.047629606554,1291
2044.9757520401945,1243
2046.9034097036288,1234
2048.8306028671195,1201
2050.7573318010086,1255
2052.683596775716,1236
2054.609398061742,1244
2056.5347359296647,1229
2058.4596106501403,1295
2060.384022493906,1227
2062.3079717317764,1276
2064.231458634646,1269
2066.1544834734873,1236
2068.077046519352,1223
2069.99914804337,1234
2071.9207883167524,1243
2073.8419676107865,1312
2075.7626861968406,1219
2077.6829443463607,1239
2079.6027423308715,1261
2081.522080421977,1220
2083.440958891362,1200
2085.359378010786,1249
2087.2773380520907,1278
2089.194839287196,1245
2091.111881988101,1263
2093.0284664268825,1226
2094.9445928756973,1277
2096.86026160678,1250
2098.775472892446,1294
2100.690227005088,1208
2102.604524217178,1244
2104.5183648012676,1252
2106.431749029985,1209
2108.34467717604,1286
2110.2571495122206,1294
2112.169166311393,1271
2114.080727846503,1269
2115.9918343905747,1228
2117.902486216711,1245
2119.8126835980956,1258
2121.722426807987,1274
2123.6317161197285,1254
2125.5405518067364,1209
2127.448934142509,1257
2129.356863400624,1279
2131.264339854737,1266
2133.1713637785815,1262
2135.077935445972,1279
2136.9840551308002,1256
2138.889723107037,1310
2140.7949396487334,1286
2142.699705030018,1305
2144.6040195250994,1252
2146.507883408264,1297
2148.4112969538774,1254
2150.3142604363848,1287
2152.2167741303097,1276
2154.1188383102535,1295
2156.0204532508997,1259
2157.9216192270064,1237
2159.822336513414,1293
2161.7226053850413,1326
2163.622426116884,1279
2165.5217989840185,1230
2167.4207242616,1313
2169.319202224862,1300
2171.2172331491165,1307
2173.1148173097563,1295
2175.0119549822507,1341
2176.90864644215,1320
2178.8048919650823,1339
2180.7006918267534,1361
2182.596046302952,1321
2184.4909556695407,1295
2186.3854202024645,1325
2188.279440177746,1336
2190.173015871487,1314
2192.066147559868,1354
2193.958835519149,1337
2195.851080025667,1320
2197.7428813558417,1352
2199.6342397861667,1300
2201.5251555932186,1354
2203.415629053651,1292
2205.3056604441986,1388
2207.19525004167,1377
2209.084398122958,1385
2210.9731049650327,1324
2212.861370844941,1339
2214.749196039812,1379
2216.636580826851,1414
2218.523525483344,1325
2220.410030286655,1341
2222.296095514226,1347
2224.1817214435805,1352
2226.066908352319,1365
2227.951656518121,1374
2229.835966218746,1339
2231.71983773203,1343
2233.6032713358913,1303
2235.486267308324,1377
2237.3688259274036,1313
2239.2509474712824,1371
2241.132632218193,1372
2243.013880446447,1392
2244.8946924344323,1360
2246.7750684606203,1333
2248.6550088035574,1380
2250.534513741871,1348
2252.413583554265,1426
2254.292218519526,1371
2256.170418916517,1321
2258.0481850241786,1399
2259.925517121534,1388
2261.8024154876825,1365
2263.678880401803,1385
2265.5549121431536,1306
2267.430510991071,1357
2269.305677224971,1337
2271.180411124348,1345
2273.0547129687766,1304
2274.9285830379076,1317
2276.8020216114737,1391
2278.6750289692845,1372
2280.5476053912294,1382
2282.4197511572766,1436
2284.2914665474727,1445
2286.162751841943,1437
2288.0336073208937,1443
2289.904033264608,1410
2291.774029953448,1395
2293.6435976678554,1440
2295.5127366883517,1397
2297.381447295534,1254
2299.2497297700825,1323
2301.1175843927526,1311
2302.9850114443825,1239
2304.852011205885,1247
2306.7185839582553,1207
2308.5847299825664,1200
2310.4504495599676,1171
2312.3157429716925,1168
2314.1806104990483,1240
2316.0450524234247,1146
2317.9090690262888,1111
2319.772660589186,1133
2321.635827393742,1144
2323.498569721661,1122
2325.3608878547248,1158
2327.2227820747967,1131
2329.0842526638157,1154
2330.945299903803,1191
2332.805924076857,1202
2334.6661254651535,1194
2336.525904350951,1127
2338.3852610165827,1160
2340.244195744464,1125
2342.102708817088,1165
2343.9608005170253,1135
2345.8184711269287,1165
2347.675720929526,1161
2349.532550207628,1174
2351.38895924412,1203
2353.24494832197,1149
2355.100517724223,1137
2356.955667734004,1133
2358.810398634514,1187
2360.664710709037,1175
2362.5186042409337,1175
2364.3720795136437,1191
2366.225136810686,1206
2368.0777764156583,1164
2369.929998612237,1156
2371.7818036841777,1180
2373.633191915315,1182
2375.484163589562,1211
2377.3347189909114,1226
2379.184858403434,1198
2381.03458211128,1217
2382.8838903986775,1227
2384.732783549936,1183
2386.5812618494406,1218
2388.4293255816588,1195
2390.2769750311327,1190
2392.1242104824883,1189
2393.971032220427,1178
2395.8174405297295,1206
2397.6634356952563,1191
2399.509018001947,1176
2401.3541877348193,1205
2403.1989451789705,1233
2405.043290619576,1186
2406.8872243418905,1150
2408.730746631247,1230
2410.5738577730594,1154
2412.4165580528183,1238
2414.258847756095,1195
2416.100727168537,1216
2417.9421965758734,1195
2419.783256263912,1231
2421.623906518538,1158
2423.4641476257157,1196
2425.303979871491,1226
2427.143403541984,1154
2428.9824189233977,1191
2430.821026302012,1175
2432.6592259641866,1187
2434.497018196361,1238
2436.33440328505,1207
2438.171381516851,1161
2440.00795317844,1150
2441.844118556569,1194
2443.6798779380724,1232
2445.5152316098606,1236
2447.3501798589255,1172
2449.1847229723357,1227
2451.0188612372403,1256
2452.8525949408663,1227
2454.6859243705203,1186
2456.518849813587,1227
2458.3513715575314,1231
2460.183489889895,1182
2462.015205098301,1189
2463.8465174704493,1238
2465.67742729412,1239
2467.5079348571717,1241
2469.338040447542,1259
2471.1677443532476,1223
2472.9970468623833,1236
2474.825948263123,1188
2476.6544488437207,1183
2478.482548892508,1225
2480.310248697896,1241
2482.137548548374,1308
2483.9644487325118,1256
2485.790949538956,1188
2487.617051256433,1253
2489.44275417375,1207
2491.26805857979,1246
2493.0929647635157,1268
2494.917473013971,1216
2496.741583620276,1291
2498.5652968716304,1231
2500.3886130573137,1242
2502.2115324666834,1308
2504.0340553891765,1233
2505.856182114308,1271
2507.6779129316733,1289
2509.499248130945,1284
2511.3201880018764,1256
2513.140732834298,1302
2514.9608829181198,1263
2516.780638543331,1282
2518.6,1287
2520.418967578273,1351
2522.237541568376,1290
2524.0557222606144,1248
2525.8735099453706,1316
2527.6909049131086,1306
2529.507907454368,1311
2531.32451785977,1295
2533.140736420014,1328
2534.9565634258774,1331
2536.771999168218,1377
2538.5870439379714,1369
2540.4016980261526,1317
2542.2159617238544,1331
2544.02983532225,1377
2545.8433191125914,1377
2547.656413386209,1403
2549.4691184345115,1399
2551.2814345489874,1387
2553.093362021204,1427
2554.904901142808,1395
2556.716052205523,1376
2558.526815501153,1441
2560.3371913215824,1516
2562.147179958771,1468
2563.956781704761,1463
2565.7659968516705,1459
2567.5748256916986,1511
2569.3832685171224,1475
2571.1913256202984,1463
2572.9989972936614,1577
2574.806283829725,1513
2576.613185521084,1565
2578.4197026604074,1558
2580.2258355404483,1542
2582.031584454035,1568
2583.836949694077,1565
2585.6419315535613,1607
2587.4465303255533,1635
2589.2507463032002,1583
2591.0545797797245,1610
2592.8580310484303,1579
2594.6611004026995,1652
2596.463788135992,1635
2598.266094541849,1658
2600.0680199138874,1668
2601.869564545807,1562
2603.670728731383,1578
2605.4715127644704,1595
2607.2719169390048,1684
2609.071941548998,1634
2610.8715868885433,1610
2612.670853251811,1637
2614.469740933052,1560
2616.268250226594,1564
2618.0663814268455,1543
2619.864134828292,1543
2621.6615107255006,1627
2623.458509413115,1610
2625.2551311858597,1617
2627.0513763385347,1542
2628.8472451660223,1541
2630.6427379632833,1564
2632.4378550253564,1521
2634.232596647359,1598
2636.026963124488,1532
2637.8209547520187,1499
2639.6145718253065,1492
2641.407814639785,1472
2643.200683490966,1383
2644.9931786744414,1487
2646.7853004858807,1476
2648.577049221034,1480
2650.3684251757277,1455
2652.1594286458712,1450
2653.9500599274484,1459
2655.740319316525,1434
2657.5302071092437,1444
2659.3197236018286,1418
2661.10886909058,1373
2662.8976438718782,1379
2664.686048242183,1347
2666.4740824980327,1363
2668.2617469360443,1339
2670.0490418529134,1319
2671.8359675454153,1330
2673.622524310403,1394
2675.408712444811,1330
2677.1945322456495,1343
2678.979984010009,1325
2680.76506803506,1266
2682.5497846180497,1276
2684.334134056306,1257
2686.1181166472343,1301
2687.9017326883213,1294
2689.6849824771293,1311
2691.4678663113013,1315
2693.2503844885596,1237
2695.032537306705,1230
2696.8143250636167,1251
2698.5957480572542,1252
2700.3768065856534,1253
2702.1575009469316,1267
2703.937831439283,1245
2705.717798360982,1250
2707.4974020103837,1212
2709.276642685917,1252
2711.055520686095,1194
2712.834036309506,1165
2714.612189854819,1186
2716.389981620782,1249
2718.1674119062204,1238
2719.944481010041,1173
2721.721189231226,1176
2723.4975368688415,1214
2725.273524222027,1164
2727.0491515900053,1198
2728.824419272075,1222
2730.5993275676146,1179
2732.3738767760838,1139
2734.148067197016,1154
2735.921899130031,1186
2737.6953728748194,1149
2739.468488731156,1182
2741.2412469988926,1152
2743.0136479779617,1163
2744.785691968372,1164
2746.5573792702116,1167
2748.3287101836504,1174
2750.099685008934,1175
2751.870304046388,1223
2753.640567596418,1153
2755.4104759595057,1197
2757.1800294362156,1117
2758.949228327187,1212
2760.7180729331412,1189
2762.486563554877,1167
2764.254700493272,1204
2766.022484049284,1174
2767.789914523947,1124
2769.5569922183786,1147
2771.3237174337705,1148
2773.090090471394,1124
2774.8561116326036,1169
2776.6217812188274,1137
2778.3870995315756,1153
2780.1520668724356,1136
2781.9166835430747,1204
2783.6809498452394,1162
2785.444866080754,1135
2787.2084325515225,1156
2788.971649559527,1124
2790.73451740683,1147
2792.4970363955713,1120
2794.2592068279705,1142
2796.0210290063264,1195
2797.7825032330147,1120
2799.543629810493,1168
2801.304409041296,1180
2803.0648412280366,1114
2804.8249266734088,1180
2806.5846656801846,1177
2808.344058551212,1195
2810.1031055894246,1145
2811.8618070978273,1170
2813.6201633795085,1128
2815.378174737636,1156
2817.1358414754536,1146
2818.893163896285,1163
2820.6501423035334,1192
2822.4067770006814,1124
2824.1630682912883,1192
2825.9190164789957,1148
2827.6746218675207,1118
2829.429884760661,1165
2831.184805462294,1206
2832.9393842763743,1129
2834.693621506936,1143
2836.4475174580916,1203
2838.201072434034,1152
2839.954286739034,1205
2841.707160677441,1186
2843.459694553685,1146
2845.2118886722724,1158
2846.96374333779,1153
2848.7152588549034,1113
2850.4664355283567,1168
2852.217273662973,1204
2853.9677735636546,1109
2855.7179355353833,1143
2857.4677598832186,1197
2859.217246912299,1112
2860.9663969278427,1166
2862.715210235146,1118
2864.4636871395846,1122
2866.211827946614,1180
2867.9596329617652,1150
2869.7071024906536,1147
2871.4542368389684,1130
2873.20103631248,1150
2874.947501217038,1198
2876.6936318585695,1180
2878.4394285430812,1160
2880.1848915766604,1132
2881.9300212654707,1141
2883.6748179157553,1142
2885.4192818338374,1187
2887.1634133261173,1189
2888.907212699077,1162
2890.6506802592744,1150
2892.393816313348,1184
2894.1366211680142,1172
2895.8790951300693,1146
2897.621238506388,1234
2899.363051603925,1165
2901.1045347297118,1174
2902.8456881908596,1193
2904.58651229456,1165
2906.327007348081,1132
2908.067173658772,1194
2909.8070115340597,1172
2911.5465212814497,1137
2913.285703208527,1166
2915.0245576229563,1123
2916.7630848324807,1162
2918.5012851449196,1163
2920.2391588681758,1125
2921.976706310227,1125
2923.7139277791334,1187
2925.4508235830313,1164
2927.187394030137,1139
2928.923639428745,1131
2930.6595600872306,1129
2932.395156314046,1143
2934.1304284177218,1155
2935.8653767068713,1126
2937.6000014901815,1084
2939.3343030764227,1114
2941.068281774442,1182
2942.8019378931644,1172
2944.5352717415976,1171
2946.2682836288236,1165
2948.0009738640065,1154
2949.7333427563885,1113
2951.465390615289,1199
2953.1971177501086,1208
2954.9285244703265,1127
2956.6596110855,1151
2958.3903779052657,1186
2960.1208252393385,1153
2961.8509533975125,1151
2963.5807626896617,1131
2965.3102534257378,1129
2967.0394259157715,1167
2968.768280469873,1082
2970.496817398232,1145
2972.2250370111146,1166
2973.952939618869,1136
2975.6805255319196,1156
2977.4077950607707,1174
2979.134748516006,1180
2980.861386208289,1176
2982.587708448359,1139
2984.313715547037,1140
2986.039407815222,1140
2987.764785563891,1157
2989.489849104102,1167
2991.2145987469908,1170
2992.9390348037705,1143
2994.6631575857346,1067
2996.3869674042576,1124
2998.1104645707887,1122
2999.83364939686,1148
3001.5565221940783,1137
3003.2790832741334,1132
3005.0013329487924,1120
3006.7232715298996,1095
3008.4448993293804,1128
3010.166216659239,1167
3011.887223831558,1163
3013.607921158498,1132
3015.3283089522993,1169
3017.0483875252826,1160
3018.7681571898443,1130
3020.4876182584626,1139
3022.2067710436927,1164
3023.9256158581707,1183
3025.644153014609,1154
3027.362382825801,1130
3029.0803056046193,1116
3030.797921664012,1144
3032.5152313170106,1167
3034.2322348767225,1171
3035.9489326563353,1181
3037.665324969115,1150
3039.3814121284063,1154
3041.097194447633,1114
3042.812672240299,1107
3044.5278458199855,1104
3046.2427155003525,1104
3047.9572815951406,1101
3049.671544418167,1136
3051.38550428333,1131
3053.0991615046073,1181
3054.812516396051,1111
3056.5255692717974,1115
3058.2383204460575,1170
3059.9507702331257,1170
3061.662918947372,1144
3063.3747669032446,1131
3065.0863144152736,1144
3066.7975617980674,1166
3068.508509366309,1161
3070.219157434767,1096
3071.9295063182844,1133
3073.639556331785,1157
3075.3493077902704,1155
3077.058761008821,1147
3078.7679163025964,1138
3080.476773986837,1079
3082.1853343768594,1127
3083.89359778806,1148
3085.6015645359153,1136
3087.3092349359786,1110
3089.016609303884,1136
3090.7236879553434,1139
3092.4304712061476,1083
3094.136959372166,1155
3095.843152769349,1145
3097.5490517137237,1155
3099.2546565213966,1198
3100.959967508554,1129
3102.66498499146,1132
3104.3697092864577,1179
3106.0741407099695,1183
3107.778279578498,1160
3109.482126208622,1146
3111.1856809170004,1195
3112.8889440203716,1138
3114.5919158355528,1160
3116.294596679439,1180
3117.996986869006,1155
3119.6990867213062,1129
3121.4008965534726,1179
3123.102416682717,1168
3124.803647426329,1120
3126.5045891016784,1140
3128.205242026213,1155
3129.90560651746,1219
3131.605682893025,1201
3133.3054714705922,1164
3135.0049725679282,1178
3136.7041865028714,1198
3138.4031135933465,1191
3140.101754157353,1152
3141.800108512971,1124
3143.498176978357,1142
3145.1959598717494,1133
3146.8934575114636,1141
3148.5906702158954,1106
3150.2875983035183,1162
3151.9842420928853,1160
3153.680601902627,1111
3155.376678051456,1148
3157.07247085816,1142
3158.767980641609,1169
3160.463207720748,1120
3162.158152414606,1154
3163.8528150422862,1138
3165.5471959229726,1159
3167.2412953759303,1130
3168.9351137204976,1154
3170.628651276098,1106
3172.3219083622307,1091
3174.014885298474,1165
3175.707582404485,1145
3177.4000000000005,1126
3179.092138404835,1135
3180.7839979388846,1181
3182.47557892212,1144
3184.166881674594,1139
3185.8579065164386,1116
3187.5486537678626,1126
3189.2391237491547,1098
3190.9293167806827,1113
3192.6192331828934,1124
3194.3088732763117,1134
3195.998237381542,1144
3197.687325819268,1101
3199.376138910251,1126
3201.064676975334,1170
3202.7529403354347,1107
3204.4409293115523,1107
3206.1286442247647,1100
3207.816085396229,1106
3209.5032531471825,1136
3211.190147798936,1101
3212.8767696728846,1114
3214.5631190905015,1132
3216.2491963733373,1083
3217.9350018430214,1141
3219.6205358212637,1152
3221.305798629851,1103
3222.990790590651,1090
3224.6755120256103,1103
3226.359963256751,1106
3228.0441446061795,1087
3229.7280563960758,1107
3231.411698948703,1110
3233.0950725863995,1085
3234.778177631587,1070
3236.461014406761,1072
3238.1435832345005,1106
3239.8258844374595,1097
3241.507918338374,1132
3243.1896852600576,1194
3244.8711855254023,1112
3246.552419457381,1098
3248.233387379042,1176
3249.914089613516,1068
3251.59452648401,1117
3253.274698313813,1049
3254.95460542629,1110
3256.6342481448855,1138
3258.313626793125,1111
3259.9927416946084,1106
3261.6715931730196,1140
3263.3501815521176,1080
3265.0285071557437,1081
3266.706570307815,1105
3268.3843713323286,1103
3270.0619105533615,1132
3271.739188295068,1115
3273.4162048816834,1069
3275.0929606375184,1099
3276.769455886966,1096
3278.445690954498,1086
3280.1216661646613,1115
3281.797381842087,1107
3283.4728383114807,1122
3285.1480358976296,1112
3286.8229749253996,1159
3288.4976557197333,1140
3290.172078605655,1105
3291.846243908266,1124
3293.5201519527463,1087
3295.193803064357,1132
3296.8671975684374,1111
3298.5403357904024,1029
3300.21321805575,1096
3301.8858446900567,1087
3303.558216018975,1137
3305.23033236824,1058
3306.9021940636603,1104
3308.57380143113,1104
3310.2451547966184,1153
3311.916254486174,1125
3313.5871008259246,1031
3315.2576941420766,1128
3316.9280347609147,1078
3318.5981230088046,1086
3320.2679592121895,1078
3321.9375436975924,1090
3323.606876791612,1086
3325.27595882093,1080
3326.944790112305,1133
3328.6133709925753,1061
3330.2817017886573,1107
3331.949782827547,1121
3333.617614436319,1128
3335.2851969421245,1120
3336.952530672199,1077
3338.619615953853,1125
3340.286453114475,1111
3341.9530424815357,1059
3343.619384382583,1108
3345.2854791452437,1105
3346.951327097224,1108
3348.6169285663073,1124
3350.2822838803577,1088
3351.947393367319,1110
3353.61225735521,1081
3355.2768761721345,1098
3356.9412501462693,1081
3358.605379605873,1139
3360.2692648792827,1122
3361.9329062949146,1042
3363.596304181263,1109
