CollectionTime,7/10/2024 4:15:07 PM
ExposureUsed,3
CalibratedSpectrum
-962.7078968117929,806
-959.9714848408522,842
-957.2358232597828,881
-954.5009119013725,860
-951.7667505983302,892
-949.0333391832855,876
-946.3006774887896,922
-943.5687653473143,881
-940.837602591253,871
-938.1071890529199,934
-935.3775245645503,813
-932.6486089583007,868
-929.9204420662485,868
-927.1930237203925,851
-924.4663537526524,853
-921.7404319948689,900
-919.0152582788041,907
-916.2908324361409,927
-913.5671542984834,840
-910.8442236973568,886
-908.1220404642074,884
-905.4006044304027,852
-902.679915427231,897
-899.959973285902,865
-897.2407778375464,873
-894.5223289132158,846
-891.8046263438832,836
-889.0876699604426,884
-886.3714595937089,879
-883.6559950744183,859
-880.9412762332282,861
-878.2273029007168,888
-875.5140749073835,865
-872.8015920836489,870
-870.0898542598545,892
-867.3788612662631,865
-864.6686129330585,860
-861.9591090903457,866
-859.2503495681506,904
-856.5423341964203,881
-853.8350628050229,870
-851.1285352237478,907
-848.4227512823054,857
-845.7177108103272,898
-843.0134136373656,867
-840.3098595928943,864
-837.6070485063082,909
-834.9049802069229,921
-832.2036545239757,876
-829.5030712866244,893
-826.8032303239481,899
-824.1041314649472,887
-821.4057745385428,871
-818.7081593735775,878
-816.0112857988148,870
-813.3151536429393,894
-810.6197627345566,873
-807.9251129021936,884
-805.2312039742981,858
-802.5380357792392,887
-799.8456081453069,896
-797.1539209007124,914
-794.462973873588,885
-791.772766891987,930
-789.083299783884,940
-786.3945723771743,907
-783.7065844996748,923
-781.0193359791231,866
-778.3328266431781,950
-775.6470563194197,902
-772.9620248353489,872
-770.2777320183878,903
-767.5941776958798,878
-764.9113616950891,920
-762.2292838432011,928
-759.5479439673222,926
-756.8673418944801,864
-754.1874774516235,970
-751.5083504656222,904
-748.8299607632671,940
-746.15230817127,919
-743.475392516264,957
-740.7992136248035,937
-738.1237713233636,947
-735.4490654383407,904
-732.7750957960521,967
-730.1018622227365,960
-727.4293645445534,976
-724.7576025875837,908
-722.0865761778291,942
-719.4162851412126,987
-716.7467293035781,979
-714.0779084906909,975
-711.409822528237,968
-708.7424712418238,1005
-706.0758544569796,947
-703.4099719991541,956
-700.7448236937178,1016
-698.0804093659622,1057
-695.4167288411002,1000
-692.7537819442656,971
-690.0915685005134,968
-687.4300883348199,980
-684.7693412720819,1002
-682.1093271371178,1031
-679.4500457546669,1001
-676.7914969493897,1021
-674.1336805458676,1024
-671.4765963686034,972
-668.8202442420206,1048
-666.1646239904642,1024
-663.5097354382001,1020
-660.8555784094151,1020
-658.2021527282176,1019
-655.5494582186366,1055
-652.8974947046223,1030
-650.2462620100463,1036
-647.5957599587009,1042
-644.9459883742998,1056
-642.2969470804776,1038
-639.6486359007902,1086
-637.0010546587141,1093
-634.3542031776476,1080
-631.7080812809096,1089
-629.0626887917401,1062
-626.4180255333008,1053
-623.7740913286734,1101
-621.1308860008619,1148
-618.4884093727904,1037
-615.8466612673046,1125
-613.2056415071715,1116
-610.5653499150785,1053
-607.9257863136347,1112
-605.28695052537,1100
-602.6488423727357,1081
-600.0114616781036,1040
-597.3748082637674,1063
-594.7388819519412,1120
-592.1036825647604,1068
-589.4692099242818,1099
-586.8354638524829,1100
-584.2024441712624,1144
-581.5701507024403,1095
-578.9385832677575,1118
-576.3077416888759,1113
-573.6776257873787,1110
-571.0482353847704,1122
-568.4195703024757,1090
-565.7916303618415,1081
-563.164415384135,1183
-560.5379251905453,1095
-557.9121596021815,1129
-555.2871184400748,1109
-552.6628015251767,1153
-550.0392086783606,1116
-547.4163397204204,1171
-544.794194472071,1193
-542.1727727539491,1238
-539.5520743866118,1188
-536.9320991905377,1167
-534.3128469861261,1214
-531.6943175936979,1248
-529.0765108334947,1220
-526.4594265256793,1239
-523.8430644903358,1352
-521.2274245474689,1465
-518.612506517005,1579
-515.9983102187913,1475
-513.3848354725959,1499
-510.77208209810846,1527
-508.16004991493924,1621
-505.5487387426199,1652
-502.9381484006032,1753
-500.3282787082628,1800
-497.71912948489364,1756
-495.1107005497117,1678
-492.5029917218539,1610
-489.8960028203786,1506
-487.28973366426493,1442
-484.68418407241325,1351
-482.07935386364494,1326
-479.47524285670266,1371
-476.87185087025,1370
-474.2691777228715,1307
-471.66722323307334,1308
-469.0659872192821,1342
-466.4654694998459,1335
-463.86566989303384,1329
-461.26658821703614,1321
-458.66822428996414,1319
-456.07057792985,1347
-453.4736489546475,1325
-450.877437182231,1355
-448.28194243039627,1309
-445.68716451686,1328
-443.09310325926003,1299
-440.49975847515555,1313
-437.9071299820263,1308
-435.31521759727354,1307
-432.72402113821954,1239
-430.13354042210767,1281
-427.5437752661022,1334
-424.95472548728867,1263
-422.36639090267386,1361
-419.7787713291855,1367
-417.1918665836721,1454
-414.60567648290385,1370
-412.0202008435715,1377
-409.4354394822874,1403
-406.8513922155845,1444
-404.26805885991723,1409
-401.685439231661,1352
-399.103533147112,1374
-396.522340422488,1379
-393.9418608739278,1343
-391.3620943174908,1343
-388.7830405691583,1332
-386.2046994448317,1315
-383.6270707603344,1272
-381.05015433141045,1141
-378.473949973725,1041
-375.8984575028645,1059
-373.32367673433623,1002
-370.74960748356875,935
-368.1762495659117,785
-365.60360279663576,684
-363.03166699093265,664
-360.4604419639154,565
-357.8899275306178,538
-355.32012350599507,531
-352.7510297049233,510
-350.1826459421999,592
-347.61497203254316,580
-345.04800779059235,533
-342.4817530309082,496
-339.91620756797226,553
-337.35137121618743,578
-334.7872437898774,535
-332.22382510328725,484
-329.66111497058273,494
-327.09911320585127,520
-324.53781962310075,553
-321.9772340362607,548
-319.4173562591816,508
-316.8581861056348,502
-314.2997233893127,486
-311.7419679238294,477
-309.1849195227194,495
-306.62857799943856,564
-304.0729431673641,578
-301.51801483979375,526
-298.963792829947,531
-296.41027695096386,521
-293.85746701590574,576
-291.3053628377552,563
-288.7539642294155,563
-286.2032710037115,569
-283.65328297338897,588
-281.1039999511146,554
-278.5554217494762,608
-276.007548180983,542
-273.4603790580651,562
-270.9139141930734,544
-268.3681533982807,525
-265.8230964858798,539
-263.27874326798565,615
-260.7350935566336,629
-258.1921471637804,599
-255.6499039013039,657
-253.10836358100266,738
-250.56752601459698,645
-248.02739101372765,603
-245.48795838995704,716
-242.94922795476816,706
-240.41119951956557,697
-237.8738728956746,726
-235.33724789434166,732
-232.80132432673452,736
-230.2661020039418,662
-227.73158073697357,754
-225.19776033676033,764
-222.66464061415422,787
-220.1322213799284,806
-217.60050244477725,786
-215.06948361931552,756
-212.53916471408013,751
-210.00954553952818,793
-207.48062590603843,792
-204.9524056239104,686
-202.4248845033651,692
-199.8980623545441,721
-197.37193898751036,732
-194.84651421224817,798
-192.32178783866232,756
-189.79775967657952,717
-187.27442953574644,786
-184.7517972258321,916
-182.2298625564256,875
-179.7086253370378,773
-177.18808537710026,806
-174.66824248596583,772
-172.14909647290835,892
-169.6306471471229,893
-167.11289431772548,908
-164.59583779375328,865
-162.07947738416453,827
-159.5638128978386,932
-157.04884414357605,1051
-154.53457093009854,1014
-152.02099306604828,1064
-149.50811035998936,878
-146.99592262040665,865
-144.48442965570587,1064
-141.97363127421409,1021
-139.46352728417958,990
-136.95411749377126,1042
-134.44540171107985,1040
-131.93737974411636,1031
-129.43005140081357,1274
-126.92341648902493,1617
-124.41747481652521,1696
-121.91222619101006,1578
-119.40767042009657,1674
-116.90380731132257,2313
-114.40063667214702,2748
-111.8981583099503,4257
-109.3963720320337,7519
-106.89527764561933,11540
-104.39487495785067,13885
-101.89516377579241,12017
-99.39614390642998,12071
-96.89781515667039,16846
-94.40017733334128,24134
-91.90323024319173,28787
-89.40697369289148,24858
-86.91140748903172,13515
-84.41653143812482,8384
-81.92234534660395,10878
-79.42884902082358,16133
-76.93604226705907,19197
-74.4439248915071,19663
-71.95249670028534,21085
-69.46175749943245,21048
-66.97170709490854,19139
-64.48234529259423,16933
-61.99367189829195,14176
-59.50568671772464,10783
-57.01838955653636,7129
-54.53178022029283,7108
-52.045858514480074,7514
-49.560624244506016,7939
-47.07607721569923,9068
-44.59221723330904,10560
-42.10904410250669,11562
-39.62655762838392,11293
-37.14475761595372,11117
-34.66364387015028,11338
-32.18321619582866,11629
-29.70347439776515,14069
-27.224418280657005,14642
-24.74604764912317,16754
-22.26836230770266,20785
-19.7913620608565,31606
-17.315046712966478,54595
-14.83941606833514,65040
-12.36446993118659,65040
-9.89020810566592,65040
-7.416630395839093,65040
-4.94373660569363,65040
-2.471526539137585,65040
-6.821210263296962E-13,65040
2.47084320796705,65040
4.941003281093458,65040
7.410480415786196,65040
9.879274808531363,65040
12.347386655893956,65040
14.814816154518212,65040
17.28156350112681,65040
19.74762889252179,65040
22.21301252558385,65040
24.67771459727237,21510
27.141735304626195,4435
29.605074844762612,4229
32.06773341487792,3531
34.52971121224755,2333
36.99100843422559,2502
39.45162527824516,2587
41.91156194181792,1895
44.370818622535126,2051
46.82939551806646,1823
49.287292826160524,1929
51.74451074464503,2504
54.201049471426245,2109
56.65690920448981,1416
59.112090141899785,1324
61.56659248179983,1484
64.02041642241159,1884
66.4735621620365,1956
68.92602989905402,1858
71.37781983192338,1872
73.82893215918205,1745
76.27936707944684,1383
78.72912479141326,1507
81.17820549385567,1320
83.62660938562783,1312
86.07433666566146,1403
88.5213875329681,1159
90.96776218663751,1162
93.41346082583925,1260
95.85848364982041,1516
98.30283085790859,1652
100.7465026495089,1238
103.18949922410604,1429
105.63182078126385,1349
108.07346752062438,1229
110.51443964190923,1240
112.95473734491827,1181
115.39436082953114,1280
117.83331029570547,1100
120.27158594347827,956
122.7091879729652,1022
125.1461165843615,1131
127.58237197794062,1163
130.01795435405518,971
132.4528639131364,1072
134.88710085569494,994
137.32066538231982,1044
139.75355769367923,1154
142.1857779905207,1064
144.61732647366978,943
147.04820334403132,905
149.47840880258934,953
151.90794305040674,1005
154.33680628862487,1055
156.76499871846443,1269
159.19252054122433,1357
161.61937195828352,1469
164.04555317109896,1602
166.47106438120693,1991
168.89590579022217,2174
171.320077599839,2216
173.7435800118302,2262
176.16641322804742,2537
178.58857745042144,2525
181.01007288096173,2546
183.43089972175687,2723
185.85105817497413,2721
188.27054844285988,2711
190.6893707277394,2877
193.10752523201643,2944
195.5250121581745,2988
197.9418317087751,2994
200.3579840864594,3025
202.7734694939469,3101
205.18828813403627,3160
207.6024402096051,3227
210.01592592360964,3274
212.42874547908548,3231
214.84089907914665,3329
217.2523869269868,3164
219.66320922587727,3242
222.0733661791695,3306
224.48285799029293,3195
226.8916848627572,3249
229.29984700014882,3247
231.7073446061355,3376
234.11417788446204,3265
236.520347038953,3322
238.92585227351185,3427
241.33069379212054,3419
243.73487179884035,3378
246.1383864978112,3452
248.541238093252,3473
250.9434267894609,3578
253.34495279081432,3339
255.74581630176783,3366
258.1460175268563,3414
260.54555667069314,3313
262.9444339379703,3349
265.3426495334594,3393
267.7402036620107,3375
270.1370965285529,3244
272.53332833809407,3253
274.9288992957214,3085
277.32380960660055,3160
279.718059475976,3101
282.1116491091717,3048
284.5045787115897,3147
286.89684848871195,3073
289.2884586460981,3011
291.67940938938807,3122
294.0697009242996,3196
296.4593334566299,3080
298.84830719225477,3171
301.23662233712923,3160
303.6242790972866,3046
306.01127767884,2955
308.39761828798066,3076
310.78330113097934,2986
313.16832641418534,2935
315.5526943440269,2927
317.9364051270112,3032
320.3194589697242,2944
322.70185607883093,2996
325.0835966610754,2941
327.4646809232805,2852
329.8451090723478,2912
332.2248813152577,2927
334.6039978590701,2983
336.9824589109231,2913
339.36026467803447,2941
341.7374153677,2774
344.113911187295,2846
346.48975234427337,2803
348.8649390461686,2815
351.2394715005918,2838
353.61334991523415,2756
355.9865744978655,2756
358.35914545633375,2847
360.73106299856715,2819
363.10232733257146,2727
365.47293866643247,2717
367.84289720831396,2785
370.2122031664593,2723
372.5808567491905,2766
374.9488581649083,2686
377.31620762209275,2728
379.6829053293021,2798
382.0489514951745,2752
384.4143463284262,2777
386.7790900378528,2808
389.14318283232853,2722
391.50662492080653,2743
393.86941651231916,2822
396.23155781597745,2770
398.5930490409713,2747
400.9538903965696,2759
403.3140820921202,2782
405.6736243370498,2662
408.03251734086336,2610
410.3907613131465,2653
412.74835646356166,2716
415.10530300185144,2762
417.4616011378372,2694
419.81725108141893,2682
422.1722530425758,2709
424.5266072313656,2600
426.880313857925,2712
429.2333731324701,2670
431.58578526529516,2749
433.9375504667738,2720
436.2886689473588,2736
438.63914091758113,2623
440.9889665880513,2624
443.33814616945835,2617
445.68667987257015,2600
448.03456790823395,2649
450.3818104873759,2584
452.72840782100013,2580
455.07436012019105,2534
457.41966759611057,2712
459.7643304600007,2608
462.10834892318155,2664
464.4517231970525,2564
466.79445349309174,2674
469.1365400228566,2644
471.4779829979826,2676
473.81878263018564,2513
476.15893913125876,2741
478.4984527130747,2739
480.8373235875855,2755
483.17555196682144,2726
485.5131380628919,2699
487.8500820879857,2874
490.1863842543697,2812
492.52204477439034,2986
494.8570638604725,3274
497.1914417251204,3325
499.52517858091653,3518
501.85827464052306,3798
504.19073011668036,3827
506.5225452222086,3826
508.85372017000566,3890
511.18425517304956,3795
513.514150444396,3980
515.8434061971808,4495
518.1720226446176,5297
520.4999999999999,5505
522.8273384766991,5346
525.1540382881666,5058
527.480099647932,4643
529.8055227696037,4038
532.1303078668694,3479
534.454455153496,3115
536.777964843328,2965
539.1008371502907,2800
541.4230722883866,2770
543.744670471698,2904
546.0656319143858,2732
548.3859568306899,2772
550.7056454349294,2750
553.0246979415016,2732
555.3431145648834,2715
557.6608955196306,2787
559.978041020377,2693
562.2945512818363,2656
564.6104265188006,2833
566.9256669461412,2731
569.2402727788082,2777
571.5542442318302,2723
573.8675815203156,2757
576.1802848594508,2795
578.4923544645015,2850
580.8037905508126,2910
583.114593333807,2957
585.4247630289875,2889
587.7342998519354,2850
590.0432040183106,2814
592.3514757438526,2995
594.6591152443794,2849
596.9661227357875,2790
599.2724984340531,2837
601.578242555231,2757
603.8833553154542,2883
606.1878369309362,2840
608.4916876179676,2844
610.7949075929192,2784
613.0974970722403,2748
615.3994562724587,2717
617.7007854101818,2853
620.0014847020951,2824
622.3015543649641,2743
624.6009946156324,2866
626.8998056710224,2770
629.1979877481361,2729
631.4955410640538,2859
633.7924658359349,2768
636.0887622810175,2880
638.3844306166192,2814
640.6794710601358,2905
642.9738838290426,2838
645.2676691408932,2911
647.5608272133207,2770
649.853358264037,2851
652.1452625108324,2764
654.4365401715764,2897
656.7271914642178,2874
659.0172166067838,2900
661.3066158173809,2841
663.5953893141935,2913
665.8835373154867,2870
668.1710600396028,2828
670.4579577049639,2855
672.7442305300709,2843
675.0298787335033,2811
677.3149025339197,2829
679.599302150058,2915
681.8830778007342,2850
684.1662297048437,2903
686.4487580813608,2883
688.7306631493387,2776
691.0119451279091,2877
693.2926042362834,2886
695.5726406937516,2874
697.8520547196814,2788
700.1308465335215,2882
702.4090163547982,2898
704.6865644031171,2931
706.9634908981619,2870
709.2397960596965,2732
711.5154801075631,2885
713.7905432616823,2848
716.0649857420548,2843
718.3388077687592,2899
720.612009561953,2759
722.8845913418733,2757
725.1565533288352,2833
727.427895743234,2818
729.6986188055427,2836
731.9687227363137,2885
734.238207756178,2865
736.5070740858458,2857
738.7753219461066,2856
741.0429515578281,2799
743.3099631419569,2925
745.5763569195191,2790
747.8421331116193,2965
750.1072919394409,2809
752.3718336242467,2882
754.6357583873777,2920
756.8990664502545,2944
759.1617580343765,2801
761.423833361321,2846
763.6852926527457,2882
765.9461361303862,2860
768.206364016058,2930
770.4659765316536,2852
772.7249738991469,2843
774.9833563405886,2924
777.2411240781092,2891
779.4982773339183,2932
781.7548163303044,2939
784.010741289634,2968
786.2660524343538,2985
788.5207499869881,2987
790.7748341701416,2928
793.0283052064964,2980
795.2811633188143,3021
797.5334087299362,2986
799.7850416627813,2873
802.0360623403484,2872
804.2864709857143,2983
806.5362678220353,2927
808.7854530725468,2913
811.0340269605625,3043
813.2819897094754,2940
815.5293415427581,2907
817.77608268396,2917
820.0222133567116,2931
822.2677337847211,2985
824.5126441917765,2974
826.7569448017433,2973
829.0006358385675,2916
831.2437175262731,2982
833.4861900889629,2909
835.7280537508192,2974
837.9693087361026,3035
840.2099552691533,2962
842.4499935743896,2934
844.689423876309,2919
846.9282463994886,2955
849.1664613685833,2965
851.4040690083276,2972
853.6410695435349,2912
855.877463199097,2989
858.1132501999847,3008
860.3484307712487,3037
862.5830051380175,3017
864.8169735254988,3015
867.0503361589791,2981
869.2830932638243,3073
871.5152450654786,3104
873.7467917894654,3044
875.9777336613873,3122
878.2080709069252,3133
880.4378037518389,3001
882.666932421968,2981
884.8954571432301,2956
887.1233781416219,3083
889.3506956432192,3089
891.5774098741766,3112
893.803521060728,2937
896.0290294291852,2976
898.2539352059397,3038
900.4782386174619,2934
902.7019398903011,3060
904.925039251085,3139
907.147536926521,3123
909.3694331433943,2950
911.59072812857,2966
913.8114221089921,2967
916.0315153116827,3005
918.2510079637437,2983
920.4699002923547,2965
922.6881925247761,3071
924.905884888345,3010
927.1229776104793,2945
929.3394709186747,2969
931.555365040506,2955
933.7706602036275,2932
935.9853566357709,2921
938.1994545647489,2941
940.4129542184515,2999
942.6258558248488,2966
944.8381596119883,3000
947.0498658079974,2886
949.2609746410825,2961
951.4714863395287,2974
953.6814011316998,2954
955.8907192460387,2942
958.0994409110671,3002
960.3075663553858,2917
962.5150958076741,3055
964.7220294966913,2960
966.928367651274,2961
969.1341105003388,2993
971.3392582728806,2897
973.5438111979742,2905
975.747769504772,3006
977.9511334225061,2946
980.153903180487,2962
982.3560790081052,2893
984.5576611348289,2907
986.7586497902058,2845
988.9590452038618,2758
991.158847605503,2910
993.3580572249133,2874
995.5566742919558,2818
997.7546990365728,2676
999.952131688785,2843
1002.1489724786926,2897
1004.3452216364743,2771
1006.5408793923874,2760
1008.7359459767691,2743
1010.9304216200343,2682
1013.1243065526781,2695
1015.3176010052733,2655
1017.510305208472,2742
1019.7024193930064,2742
1021.8939437896848,2700
1024.0848786293977,2728
1026.2752241431122,2731
1028.4649805618747,2753
1030.6541481168115,2660
1032.842727039127,2688
1035.0307175601051,2684
1037.2181199111074,2672
1039.4049343235752,2647
1041.591161029029,2691
1043.7768002590683,2686
1045.9618522453698,2604
1048.1463172196918,2752
1050.3301954138697,2720
1052.513487059818,2725
1054.69619238953,2699
1056.8783116350783,2673
1059.0598450286152,2700
1061.2407928023704,2706
1063.4211551886528,2700
1065.6009324198508,2689
1067.780124728432,2783
1069.9587323469414,2629
1072.1367555080046,2673
1074.314194444325,2659
1076.4910493886855,2677
1078.667320573947,2684
1080.843008233051,2722
1083.0181125990161,2658
1085.1926339049414,2636
1087.3665723840027,2604
1089.5399282694575,2681
1091.7127017946405,2635
1093.8848931929647,2655
1096.0565026979243,2692
1098.2275305430899,2649
1100.3979769621128,2699
1102.567842188722,2684
1104.737126456726,2569
1106.9058300000124,2623
1109.0739530525475,2617
1111.2414958483764,2633
1113.4084586216231,2667
1115.5748416064907,2686
1117.7406450372605,2623
1119.9058691482942,2678
1122.0705141740304,2656
1124.2345803489884,2642
1126.3980679077658,2686
1128.5609770850388,2654
1130.7233081155623,2671
1132.8850612341707,2676
1135.0462366757774,2584
1137.2068346753745,2541
1139.3668554680326,2605
1141.526299288901,2617
1143.68516637321,2627
1145.8434569562655,2616
1148.001171273455,2669
1150.158309560244,2617
1152.3148720521767,2687
1154.470858984876,2643
1156.626270594044,2615
1158.7811071154629,2709
1160.9353687849912,2760
1163.089055838569,2588
1165.242168512213,2658
1167.3947070420209,2642
1169.5466716641677,2659
1171.6980626149075,2643
1173.8488801305748,2575
1175.9991244475814,2602
1178.1487958024186,2686
1180.2978944316555,2564
1182.4464205719428,2598
1184.5943744600072,2613
1186.7417563326567,2571
1188.8885664267755,2510
1191.0348049793297,2577
1193.1804722273619,2734
1195.325568407995,2647
1197.4700937584303,2558
1199.614048515948,2578
1201.7574329179074,2635
1203.900247201746,2611
1206.042491604982,2655
1208.1841663652099,2590
1210.3252717201053,2624
1212.465807907422,2657
1214.6057751649923,2743
1216.7451737307279,2689
1218.8840038426192,2667
1221.0222657387353,2609
1223.1599596572241,2655
1225.2970858363137,2633
1227.4336445143094,2675
1229.5696359295966,2694
1231.705060320639,2744
1233.8399179259786,2673
1235.9742089842384,2691
1238.107933734118,2726
1240.2410924143974,2705
1242.373685263935,2682
1244.5057125216676,2652
1246.6371744266116,2657
1248.7680712178621,2754
1250.898403134593,2728
1253.028170416058,2770
1255.1573733015875,2733
1257.2860120305932,2768
1259.4140868425648,2680
1261.54159797707,2763
1263.6685456737569,2738
1265.7949301723515,2647
1267.9207517126597,2743
1270.046010534565,2745
1272.1707068780306,2758
1274.2948409830983,2730
1276.4184130898889,2761
1278.541423438603,2737
1280.6638722695184,2705
1282.785759822993,2742
1284.9070863394636,2665
1287.0278520594447,2775
1289.1480572235314,2764
1291.2677020723963,2803
1293.3867868467923,2861
1295.5053117875495,2799
1297.623277135579,2758
1299.740683131868,2833
1301.8575300174857,2794
1303.973818033578,2852
1306.0895474213703,2868
1308.2047184221678,2906
1310.3193312773528,2910
1312.4333862283888,2844
1314.5468835168163,2840
1316.659823384255,2877
1318.7722060724045,2824
1320.8840318230418,2949
1322.9953008780249,2872
1325.1060134792888,2953
1327.2161698688478,2877
1329.3257702887959,2895
1331.4348149813054,2851
1333.5433041886276,2928
1335.6512381530933,2782
1337.7586171171101,2842
1339.8654413231675,2774
1341.9717110138317,2845
1344.0774264317488,2820
1346.1825878196432,2849
1348.2871954203192,2773
1350.3912494766587,2820
1352.4947502316231,2779
1354.5976979282532,2741
1356.7000928096686,2767
1358.8019351190665,2848
1360.9032250997243,2823
1363.0039629949988,2874
1365.1041490483235,2802
1367.2037835032133,2780
1369.3028666032606,2892
1371.401398592137,2868
1373.4993797135926,2888
1375.5968102114575,2909
1377.6936903296396,2947
1379.7900203121262,2867
1381.8858004029835,2841
1383.9810308463561,2980
1386.075711886469,2902
1388.1698437676241,2808
1390.2634267342032,2783
1392.356461030667,2805
1394.4489469015557,2940
1396.5408845914872,2932
1398.6322743451592,2892
1400.7231164073469,2965
1402.813411022907,2940
1404.903158436773,3015
1406.9923588939578,2931
1409.0810126395531,2949
1411.1691199187303,2952
1413.2566809767386,2891
1415.343696058907,2873
1417.4301654106425,2975
1419.5160892774315,2922
1421.6014679048399,2932
1423.6863015385125,2957
1425.7705904241707,2865
1427.8543348076178,2901
1429.9375349347342,2940
1432.0201910514802,3002
1434.102303403894,3070
1436.1838722380944,3084
1438.2648978002767,2988
1440.3453803367174,3080
1442.4253200937692,3002
1444.5047173178677,2996
1446.5835722555234,2974
1448.6618851533285,3043
1450.739656257952,3098
1452.8168858161434,3147
1454.8935740747306,2954
1456.96972128062,3044
1459.045327680797,3206
1461.120393522327,3223
1463.1949190523528,3284
1465.2689045180973,3268
1467.3423501668608,3324
1469.415256246024,3340
1471.4876230030463,3260
1473.559450685465,3317
1475.6307395408976,3291
1477.7014898170391,3364
1479.771701761665,3313
1481.8413756226287,3285
1483.9105116478618,3460
1485.9791100853772,3485
1488.0471711832643,3428
1490.1146951896926,3588
1492.1816823529098,3569
1494.2481329212433,3575
1496.3140471430984,3596
1498.3794252669609,3601
1500.4442675413939,3624
1502.5085742150404,3611
1504.572345536622,3697
1506.6355817549388,3705
1508.6982831188702,3597
1510.7604498773744,3725
1512.8220822794883,3567
1514.8831805743293,3669
1516.9437450110909,3684
1519.003775839048,3674
1521.0632733075522,3782
1523.1222376660367,3734
1525.1806691640113,3808
1527.2385680510652,3776
1529.2959345768668,3913
1531.3527689911643,3884
1533.4090715437833,3902
1535.4648424846291,3797
1537.5200820636855,3985
1539.5747905310159,3946
1541.6289681367616,3980
1543.6826151311434,4084
1545.7357317644614,4109
1547.7883182870937,4173
1549.8403749494987,4144
1551.8919020022113,4288
1553.9428996958477,4218
1555.9933682811015,4293
1558.0433080087469,4231
1560.0927191296346,4140
1562.1416018946961,4255
1564.1899565549415,4370
1566.2377833614592,4313
1568.2850825654164,4368
1570.3318544180606,4276
1572.3780991707158,4268
1574.423817074788,4130
1576.4690083817595,4066
1578.5136733431923,3809
1580.5578122107272,3877
1582.601425236085,3882
1584.6445126710646,3756
1586.6870747675434,3648
1588.7291117774776,3574
1590.7706239529034,3503
1592.8116115459347,3451
1594.8520748087658,3335
1596.8920139936686,3372
1598.9314293529933,3296
1600.9703211391711,3228
1603.008689604711,3291
1605.0465350022005,3245
1607.0838575843068,3082
1609.1206576037753,3136
1611.1569353134305,3027
1613.1926909661765,3163
1615.2279248149953,3098
1617.2626371129481,3096
1619.2968281131757,3071
1621.3304980688963,2982
1623.3636472334088,2984
1625.39627586009,3016
1627.428384202396,3021
1629.459972513861,2955
1631.4910410480993,3040
1633.5215900588028,3026
1635.551619799744,3057
1637.5811305247717,2928
1639.6101224878166,2934
1641.6385959428862,2934
1643.6665511440683,2939
1645.693988345528,2861
1647.7209078015112,2915
1649.7473097663405,2838
1651.7731944944203,2836
1653.7985622402307,2917
1655.823413258333,2912
1657.847747803366,2879
1659.8715661300494,2880
1661.8948684931793,2891
1663.9176551476316,2821
1665.9399263483624,2875
1667.9616823504057,2869
1669.982923408873,2898
1672.0036497789574,2935
1674.0238617159293,2831
1676.043559475138,2772
1678.0627433120121,2887
1680.081413482059,2896
1682.0995702408654,2845
1684.117213844096,2911
1686.134344547495,2896
1688.1509626068864,2873
1690.1670682781705,2943
1692.182661817329,2829
1694.1977434804217,2805
1696.2123135235875,2856
1698.226372203043,2794
1700.2399197750851,2857
1702.2529564960905,2855
1704.2654826225112,2838
1706.277498410882,2853
1708.2890041178139,2838
1710.2999999999988,2847
1712.3104863142066,2838
1714.3204633172854,2856
1716.329931266163,2866
1718.3388904178469,2823
1720.3473410294214,2913
1722.3552833580516,2884
1724.3627176609807,2894
1726.3696441955308,2831
1728.3760632191033,2841
1730.3819749891782,2825
1732.3873797633146,2849
1734.3922777991502,2853
1736.3966693544012,2804
1738.4005546868639,2784
1740.4039340544127,2804
1742.406807715001,2759
1744.4091759266616,2857
1746.4110389475054,2795
1748.4123970357223,2901
1750.413250449582,2915
1752.4135994474318,2800
1754.4134442876993,2779
1756.4127852288902,2830
1758.4116225295893,2798
1760.4099564484595,2829
1762.407787244244,2795
1764.405115175764,2874
1766.4019405019203,2818
1768.3982634816916,2868
1770.3940843741357,2809
1772.3894034383907,2795
1774.3842209336717,2827
1776.378537119274,2754
1778.372352254571,2761
1780.3656665990156,2773
1782.3584804121397,2774
1784.3507939535534,2763
1786.3426074829463,2801
1788.3339212600863,2752
1790.3247355448211,2756
1792.3150505970766,2845
1794.3048666768573,2783
1796.2941840442477,2837
1798.2830029594106,2853
1800.2713236825884,2865
1802.2591464741004,2882
1804.2464715943465,2905
1806.2332993038058,2856
1808.2196298630352,2852
1810.2054635326708,2852
1812.190800573428,2861
1814.175641246101,2830
1816.1599858115628,2905
1818.1438345307652,2855
1820.127187664738,2859
1822.1100454745924,2839
1824.092408221516,2848
1826.0742761667766,2752
1828.055649571721,2741
1830.0365286977735,2926
1832.0169138064398,2764
1833.9968051593014,2839
1835.9762030180214,2697
1837.9551076443408,2842
1839.9335193000788,2880
1841.9114382471344,2892
1843.888864747485,2803
1845.8657990631878,2743
1847.842241456378,2830
1849.8181921892697,2832
1851.7936515241558,2793
1853.7686197234098,2867
1855.7430970494815,2841
1857.7170837649014,2796
1859.6905801322787,2794
1861.6635864143004,2848
1863.6361028737338,2877
1865.608129773424,2764
1867.5796673762961,2806
1869.5507159453537,2898
1871.521275743678,2857
1873.4913470344313,2887
1875.4609300808534,2845
1877.4300251462632,2875
1879.3986324940588,2881
1881.366752387717,2909
1883.3343850907936,2893
1885.3015308669228,2881
1887.268189979819,2884
1889.2343626932739,2861
1891.2000492711595,2848
1893.1652499774254,2835
1895.1299650761011,2845
1897.0941948312952,2940
1899.0579395071945,2837
1901.0211993680641,2931
1902.98397467825,2857
1904.9462657021745,2792
1906.9080727043415,2881
1908.869395949332,2864
1910.8302357018065,2927
1912.790592226504,2840
1914.7504657882428,2831
1916.7098566519212,2847
1918.6687650825133,2879
1920.6271913450764,2838
1922.5851357047422,2806
1924.5425984267245,2830
1926.499579776314,2809
1928.4560800188833,2809
1930.4120994198802,2839
1932.367638244833,2881
1934.32269675935,2858
1936.2772752291175,2927
1938.231373919899,2836
1940.1849930975404,2853
1942.1381330279637,2769
1944.0907939771696,2859
1946.0429762112412,2811
1947.9946799963363,2817
1949.9459055986945,2859
1951.896653284633,2942
1953.8469233205478,2831
1955.7967159729142,2798
1957.7460315082863,2847
1959.6948701932974,2896
1961.6432322946594,2813
1963.5911180791632,2846
1965.5385278136787,2907
1967.4854617651545,2887
1969.4319202006182,2875
1971.377903387176,2777
1973.3234115920136,2802
1975.268445082395,2811
1977.2130041256642,2899
1979.1570889892423,2738
1981.1006999406304,2994
1983.04383724741,2883
1984.986501177238,2876
1986.928691997853,2956
1988.8704099770712,2886
1990.811655382789,2836
1992.7524284829801,2892
1994.692729545698,2880
1996.6325588390755,2828
1998.5719166313224,2886
2000.5108031907307,2840
2002.4492187856677,2834
2004.387163684583,2826
2006.3246381560011,2836
2008.2616424685298,2852
2010.1981768908527,2778
2012.1342416917332,2922
2014.069837140014,2898
2016.0049635046162,2853
2017.9396210545406,2911
2019.8738100588666,2862
2021.8075307867502,2816
2023.740783507431,2778
2025.6735684902228,2857
2027.6058860045214,2827
2029.5377363198004,2881
2031.4691197056118,2885
2033.4000364315875,2934
2035.3304867674374,2806
2037.260470982952,2965
2039.189989347998,2884
2041.1190421325232,2856
2043.047629606554,2897
2044.9757520401945,2834
2046.9034097036288,2940
2048.8306028671195,2840
2050.7573318010086,2840
2052.683596775716,2830
2054.609398061742,2753
2056.5347359296647,2951
2058.4596106501403,2976
2060.384022493906,2859
2062.3079717317764,2963
2064.231458634646,2937
2066.1544834734873,2924
2068.077046519352,2925
2069.99914804337,2907
2071.9207883167524,2859
2073.8419676107865,2869
2075.7626861968406,2821
2077.6829443463607,2893
2079.6027423308715,2961
2081.522080421977,2985
2083.440958891362,2898
2085.359378010786,2921
2087.2773380520907,2921
2089.194839287196,2904
2091.111881988101,2938
2093.0284664268825,2912
2094.9445928756973,2960
2096.86026160678,2866
2098.775472892446,2898
2100.690227005088,2897
2102.604524217178,2869
2104.5183648012676,2927
2106.431749029985,2898
2108.34467717604,2905
2110.2571495122206,2962
2112.169166311393,2884
2114.080727846503,2921
2115.9918343905747,2949
2117.902486216711,2958
2119.8126835980956,3000
2121.722426807987,3014
2123.6317161197285,2971
2125.5405518067364,2957
2127.448934142509,3022
2129.356863400624,2961
2131.264339854737,3014
2133.1713637785815,3024
2135.077935445972,2979
2136.9840551308002,2969
2138.889723107037,2890
2140.7949396487334,3035
2142.699705030018,2927
2144.6040195250994,2933
2146.507883408264,2883
2148.4112969538774,2981
2150.3142604363848,3027
2152.2167741303097,2937
2154.1188383102535,2955
2156.0204532508997,3040
2157.9216192270064,2977
2159.822336513414,2931
2161.7226053850413,3012
2163.622426116884,3054
2165.5217989840185,3011
2167.4207242616,3048
2169.319202224862,3028
2171.2172331491165,3092
2173.1148173097563,3018
2175.0119549822507,3043
2176.90864644215,3011
2178.8048919650823,3041
2180.7006918267534,3015
2182.596046302952,3025
2184.4909556695407,2995
2186.3854202024645,3150
2188.279440177746,3058
2190.173015871487,3085
2192.066147559868,3051
2193.958835519149,3048
2195.851080025667,2974
2197.7428813558417,2998
2199.6342397861667,2988
2201.5251555932186,3006
2203.415629053651,3046
2205.3056604441986,3111
2207.19525004167,3104
2209.084398122958,3088
2210.9731049650327,3068
2212.861370844941,3112
2214.749196039812,3010
2216.636580826851,3081
2218.523525483344,3157
2220.410030286655,3065
2222.296095514226,3076
2224.1817214435805,3150
2226.066908352319,3126
2227.951656518121,3114
2229.835966218746,3100
2231.71983773203,3161
2233.6032713358913,3200
2235.486267308324,3091
2237.3688259274036,3098
2239.2509474712824,3124
2241.132632218193,3083
2243.013880446447,3113
2244.8946924344323,3125
2246.7750684606203,3103
2248.6550088035574,3054
2250.534513741871,3053
2252.413583554265,3102
2254.292218519526,3050
2256.170418916517,3017
2258.0481850241786,3062
2259.925517121534,3035
2261.8024154876825,3056
2263.678880401803,3175
2265.5549121431536,3116
2267.430510991071,3048
2269.305677224971,3189
2271.180411124348,3051
2273.0547129687766,3091
2274.9285830379076,3145
2276.8020216114737,2991
2278.6750289692845,3055
2280.5476053912294,3003
2282.4197511572766,3097
2284.2914665474727,3144
2286.162751841943,3122
2288.0336073208937,3129
2289.904033264608,3158
2291.774029953448,3113
2293.6435976678554,3171
2295.5127366883517,3179
2297.381447295534,3101
2299.2497297700825,3114
2301.1175843927526,3066
2302.9850114443825,2914
2304.852011205885,2954
2306.7185839582553,3049
2308.5847299825664,2980
2310.4504495599676,2953
2312.3157429716925,2939
2314.1806104990483,2959
2316.0450524234247,2985
2317.9090690262888,2880
2319.772660589186,2978
2321.635827393742,2986
2323.498569721661,2905
2325.3608878547248,2938
2327.2227820747967,2953
2329.0842526638157,2895
2330.945299903803,3013
2332.805924076857,2957
2334.6661254651535,2933
2336.525904350951,2893
2338.3852610165827,3000
2340.244195744464,2960
2342.102708817088,2978
2343.9608005170253,2925
2345.8184711269287,2933
2347.675720929526,2916
2349.532550207628,2945
2351.38895924412,2961
2353.24494832197,2962
2355.100517724223,2945
2356.955667734004,2917
2358.810398634514,2911
2360.664710709037,2907
2362.5186042409337,2891
2364.3720795136437,2939
2366.225136810686,2908
2368.0777764156583,2961
2369.929998612237,2954
2371.7818036841777,2989
2373.633191915315,3009
2375.484163589562,2986
2377.3347189909114,2918
2379.184858403434,3015
2381.03458211128,2904
2382.8838903986775,2996
2384.732783549936,3016
2386.5812618494406,2972
2388.4293255816588,2968
2390.2769750311327,3050
2392.1242104824883,2922
2393.971032220427,3018
2395.8174405297295,3022
2397.6634356952563,2964
2399.509018001947,2971
2401.3541877348193,2960
2403.1989451789705,2970
2405.043290619576,2933
2406.8872243418905,2953
2408.730746631247,2987
2410.5738577730594,2970
2412.4165580528183,3044
2414.258847756095,3015
2416.100727168537,3003
2417.9421965758734,2975
2419.783256263912,2983
2421.623906518538,3003
2423.4641476257157,2977
2425.303979871491,3018
2427.143403541984,3069
2428.9824189233977,2983
2430.821026302012,3010
2432.6592259641866,3048
2434.497018196361,2972
2436.33440328505,3043
2438.171381516851,2890
2440.00795317844,3054
2441.844118556569,3064
2443.6798779380724,3038
2445.5152316098606,3031
2447.3501798589255,3008
2449.1847229723357,2975
2451.0188612372403,2952
2452.8525949408663,3019
2454.6859243705203,2942
2456.518849813587,2945
2458.3513715575314,2956
2460.183489889895,2934
2462.015205098301,3049
2463.8465174704493,2965
2465.67742729412,3085
2467.5079348571717,2969
2469.338040447542,2955
2471.1677443532476,2980
2472.9970468623833,3099
2474.825948263123,3043
2476.6544488437207,3051
2478.482548892508,3089
2480.310248697896,3033
2482.137548548374,3103
2483.9644487325118,3042
2485.790949538956,3068
2487.617051256433,2998
2489.44275417375,3006
2491.26805857979,3008
2493.0929647635157,3023
2494.917473013971,3072
2496.741583620276,3053
2498.5652968716304,3111
2500.3886130573137,3106
2502.2115324666834,3094
2504.0340553891765,3076
2505.856182114308,3132
2507.6779129316733,3058
2509.499248130945,3093
2511.3201880018764,3141
2513.140732834298,3041
2514.9608829181198,3087
2516.780638543331,3153
2518.6,3042
2520.418967578273,3084
2522.237541568376,3079
2524.0557222606144,3082
2525.8735099453706,3114
2527.6909049131086,3046
2529.507907454368,3113
2531.32451785977,3031
2533.140736420014,3094
2534.9565634258774,3175
2536.771999168218,3080
2538.5870439379714,3172
2540.4016980261526,3096
2542.2159617238544,3149
2544.02983532225,3200
2545.8433191125914,3162
2547.656413386209,3199
2549.4691184345115,3175
2551.2814345489874,3081
2553.093362021204,3210
2554.904901142808,3307
2556.716052205523,3217
2558.526815501153,3234
2560.3371913215824,3302
2562.147179958771,3278
2563.956781704761,3239
2565.7659968516705,3262
2567.5748256916986,3193
2569.3832685171224,3232
2571.1913256202984,3171
2572.9989972936614,3310
2574.806283829725,3221
2576.613185521084,3232
2578.4197026604074,3328
2580.2258355404483,3261
2582.031584454035,3392
2583.836949694077,3311
2585.6419315535613,3419
2587.4465303255533,3348
2589.2507463032002,3284
2591.0545797797245,3296
2592.8580310484303,3272
2594.6611004026995,3299
2596.463788135992,3332
2598.266094541849,3238
2600.0680199138874,3285
2601.869564545807,3380
2603.670728731383,3265
2605.4715127644704,3316
2607.2719169390048,3345
2609.071941548998,3327
2610.8715868885433,3334
2612.670853251811,3345
2614.469740933052,3356
2616.268250226594,3482
2618.0663814268455,3410
2619.864134828292,3289
2621.6615107255006,3322
2623.458509413115,3240
2625.2551311858597,3233
2627.0513763385347,3415
2628.8472451660223,3164
2630.6427379632833,3265
2632.4378550253564,3367
2634.232596647359,3249
2636.026963124488,3282
2637.8209547520187,3301
2639.6145718253065,3200
2641.407814639785,3208
2643.200683490966,3333
2644.9931786744414,3233
2646.7853004858807,3202
2648.577049221034,3264
2650.3684251757277,3242
2652.1594286458712,3324
2653.9500599274484,3224
2655.740319316525,3224
2657.5302071092437,3184
2659.3197236018286,3219
2661.10886909058,3188
2662.8976438718782,3184
2664.686048242183,3238
2666.4740824980327,3200
2668.2617469360443,3229
2670.0490418529134,3237
2671.8359675454153,3116
2673.622524310403,3237
2675.408712444811,3135
2677.1945322456495,3284
2678.979984010009,3141
2680.76506803506,3212
2682.5497846180497,3208
2684.334134056306,3111
2686.1181166472343,3079
2687.9017326883213,3232
2689.6849824771293,3098
2691.4678663113013,3235
2693.2503844885596,3201
2695.032537306705,3154
2696.8143250636167,3155
2698.5957480572542,3150
2700.3768065856534,3129
2702.1575009469316,3171
2703.937831439283,3261
2705.717798360982,3123
2707.4974020103837,3173
2709.276642685917,3100
2711.055520686095,3180
2712.834036309506,3233
2714.612189854819,3094
2716.389981620782,3139
2718.1674119062204,3127
2719.944481010041,3063
2721.721189231226,3079
2723.4975368688415,3070
2725.273524222027,3145
2727.0491515900053,3053
2728.824419272075,3116
2730.5993275676146,3137
2732.3738767760838,3135
2734.148067197016,3098
2735.921899130031,3103
2737.6953728748194,3068
2739.468488731156,3086
2741.2412469988926,3095
2743.0136479779617,3150
2744.785691968372,3140
2746.5573792702116,3155
2748.3287101836504,3064
2750.099685008934,3124
2751.870304046388,3217
2753.640567596418,3080
2755.4104759595057,3209
2757.1800294362156,3040
2758.949228327187,3125
2760.7180729331412,3093
2762.486563554877,3149
2764.254700493272,3127
2766.022484049284,3161
2767.789914523947,3082
2769.5569922183786,3106
2771.3237174337705,3022
2773.090090471394,3068
2774.8561116326036,3090
2776.6217812188274,3132
2778.3870995315756,3067
2780.1520668724356,3129
2781.9166835430747,3096
2783.6809498452394,3244
2785.444866080754,3157
2787.2084325515225,3117
2788.971649559527,3121
2790.73451740683,3122
2792.4970363955713,3190
2794.2592068279705,3130
2796.0210290063264,3127
2797.7825032330147,3185
2799.543629810493,3204
2801.304409041296,3115
2803.0648412280366,3153
2804.8249266734088,3161
2806.5846656801846,3176
2808.344058551212,3199
2810.1031055894246,3171
2811.8618070978273,3195
2813.6201633795085,3096
2815.378174737636,3239
2817.1358414754536,3114
2818.893163896285,3103
2820.6501423035334,3189
2822.4067770006814,3161
2824.1630682912883,3134
2825.9190164789957,3212
2827.6746218675207,3084
2829.429884760661,3238
2831.184805462294,3175
2832.9393842763743,3124
2834.693621506936,3045
2836.4475174580916,3144
2838.201072434034,3197
2839.954286739034,3154
2841.707160677441,3105
2843.459694553685,3197
2845.2118886722724,3166
2846.96374333779,3194
2848.7152588549034,3193
2850.4664355283567,3237
2852.217273662973,3190
2853.9677735636546,3139
2855.7179355353833,3241
2857.4677598832186,3218
2859.217246912299,3203
2860.9663969278427,3134
2862.715210235146,3045
2864.4636871395846,3185
2866.211827946614,3154
2867.9596329617652,3218
2869.7071024906536,3157
2871.4542368389684,3274
2873.20103631248,3092
2874.947501217038,3121
2876.6936318585695,3104
2878.4394285430812,3103
2880.1848915766604,3142
2881.9300212654707,3225
2883.6748179157553,3124
2885.4192818338374,3265
2887.1634133261173,3175
2888.907212699077,3167
2890.6506802592744,3149
2892.393816313348,3168
2894.1366211680142,3227
2895.8790951300693,3275
2897.621238506388,3108
2899.363051603925,3264
2901.1045347297118,3228
2902.8456881908596,3181
2904.58651229456,3209
2906.327007348081,3172
2908.067173658772,3228
2909.8070115340597,3183
2911.5465212814497,3139
2913.285703208527,3177
2915.0245576229563,3227
2916.7630848324807,3160
2918.5012851449196,3136
2920.2391588681758,3158
2921.976706310227,3084
2923.7139277791334,3209
2925.4508235830313,3151
2927.187394030137,3176
2928.923639428745,3209
2930.6595600872306,3240
2932.395156314046,3304
2934.1304284177218,3270
2935.8653767068713,3255
2937.6000014901815,3222
2939.3343030764227,3262
2941.068281774442,3279
2942.8019378931644,3245
2944.5352717415976,3163
2946.2682836288236,3194
2948.0009738640065,3175
2949.7333427563885,3312
2951.465390615289,3255
2953.1971177501086,3324
2954.9285244703265,3289
2956.6596110855,3187
2958.3903779052657,3265
2960.1208252393385,3210
2961.8509533975125,3193
2963.5807626896617,3292
2965.3102534257378,3193
2967.0394259157715,3244
2968.768280469873,3136
2970.496817398232,3272
2972.2250370111146,3139
2973.952939618869,3216
2975.6805255319196,3137
2977.4077950607707,3296
2979.134748516006,3282
2980.861386208289,3278
2982.587708448359,3227
2984.313715547037,3254
2986.039407815222,3346
2987.764785563891,3355
2989.489849104102,3299
2991.2145987469908,3212
2992.9390348037705,3208
2994.6631575857346,3176
2996.3869674042576,3175
2998.1104645707887,3197
2999.83364939686,3192
3001.5565221940783,3276
3003.2790832741334,3164
3005.0013329487924,3288
3006.7232715298996,3256
3008.4448993293804,3201
3010.166216659239,3192
3011.887223831558,3160
3013.607921158498,3295
3015.3283089522993,3135
3017.0483875252826,3236
3018.7681571898443,3222
3020.4876182584626,3174
3022.2067710436927,3169
3023.9256158581707,3253
3025.644153014609,3363
3027.362382825801,3281
3029.0803056046193,3229
3030.797921664012,3262
3032.5152313170106,3279
3034.2322348767225,3215
3035.9489326563353,3263
3037.665324969115,3169
3039.3814121284063,3324
3041.097194447633,3313
3042.812672240299,3336
3044.5278458199855,3220
3046.2427155003525,3151
3047.9572815951406,3230
3049.671544418167,3228
3051.38550428333,3225
3053.0991615046073,3188
3054.812516396051,3307
3056.5255692717974,3162
3058.2383204460575,3237
3059.9507702331257,3172
3061.662918947372,3251
3063.3747669032446,3226
3065.0863144152736,3335
3066.7975617980674,3257
3068.508509366309,3231
3070.219157434767,3280
3071.9295063182844,3287
3073.639556331785,3392
3075.3493077902704,3308
3077.058761008821,3201
3078.7679163025964,3337
3080.476773986837,3318
3082.1853343768594,3112
3083.89359778806,3354
3085.6015645359153,3349
3087.3092349359786,3291
3089.016609303884,3315
3090.7236879553434,3281
3092.4304712061476,3251
3094.136959372166,3276
3095.843152769349,3314
3097.5490517137237,3235
3099.2546565213966,3231
3100.959967508554,3313
3102.66498499146,3337
3104.3697092864577,3320
3106.0741407099695,3276
3107.778279578498,3318
3109.482126208622,3308
3111.1856809170004,3372
3112.8889440203716,3318
3114.5919158355528,3291
3116.294596679439,3278
3117.996986869006,3332
3119.6990867213062,3326
3121.4008965534726,3350
3123.102416682717,3416
3124.803647426329,3390
3126.5045891016784,3358
3128.205242026213,3266
3129.90560651746,3365
3131.605682893025,3265
3133.3054714705922,3311
3135.0049725679282,3401
3136.7041865028714,3271
3138.4031135933465,3385
3140.101754157353,3370
3141.800108512971,3256
3143.498176978357,3255
3145.1959598717494,3294
3146.8934575114636,3310
3148.5906702158954,3324
3150.2875983035183,3279
3151.9842420928853,3269
3153.680601902627,3272
3155.376678051456,3262
3157.07247085816,3361
3158.767980641609,3214
3160.463207720748,3306
3162.158152414606,3225
3163.8528150422862,3344
3165.5471959229726,3391
3167.2412953759303,3288
3168.9351137204976,3323
3170.628651276098,3340
3172.3219083622307,3324
3174.014885298474,3359
3175.707582404485,3389
3177.4000000000005,3343
3179.092138404835,3285
3180.7839979388846,3346
3182.47557892212,3357
3184.166881674594,3283
3185.8579065164386,3460
3187.5486537678626,3394
3189.2391237491547,3384
3190.9293167806827,3313
3192.6192331828934,3328
3194.3088732763117,3335
3195.998237381542,3345
3197.687325819268,3277
3199.376138910251,3337
3201.064676975334,3362
3202.7529403354347,3424
3204.4409293115523,3300
3206.1286442247647,3464
3207.816085396229,3349
3209.5032531471825,3395
3211.190147798936,3330
3212.8767696728846,3272
3214.5631190905015,3263
3216.2491963733373,3189
3217.9350018430214,3198
3219.6205358212637,3265
3221.305798629851,3189
3222.990790590651,3207
3224.6755120256103,3179
3226.359963256751,3283
3228.0441446061795,3231
3229.7280563960758,3296
3231.411698948703,3322
3233.0950725863995,3294
3234.778177631587,3333
3236.461014406761,3266
3238.1435832345005,3401
3239.8258844374595,3325
3241.507918338374,3340
3243.1896852600576,3435
3244.8711855254023,3255
3246.552419457381,3385
3248.233387379042,3379
3249.914089613516,3373
3251.59452648401,3381
3253.274698313813,3411
3254.95460542629,3342
3256.6342481448855,3293
3258.313626793125,3286
3259.9927416946084,3316
3261.6715931730196,3387
3263.3501815521176,3327
3265.0285071557437,3350
3266.706570307815,3358
3268.3843713323286,3293
3270.0619105533615,3455
3271.739188295068,3368
3273.4162048816834,3319
3275.0929606375184,3350
3276.769455886966,3445
3278.445690954498,3344
3280.1216661646613,3411
3281.797381842087,3464
3283.4728383114807,3464
3285.1480358976296,3355
3286.8229749253996,3363
3288.4976557197333,3316
3290.172078605655,3327
3291.846243908266,3396
3293.5201519527463,3236
3295.193803064357,3235
3296.8671975684374,3279
3298.5403357904024,3313
3300.21321805575,3332
3301.8858446900567,3410
3303.558216018975,3357
3305.23033236824,3316
3306.9021940636603,3341
3308.57380143113,3455
3310.2451547966184,3427
3311.916254486174,3411
3313.5871008259246,3416
3315.2576941420766,3412
3316.9280347609147,3381
3318.5981230088046,3415
3320.2679592121895,3251
3321.9375436975924,3341
3323.606876791612,3298
3325.27595882093,3350
3326.944790112305,3325
3328.6133709925753,3295
3330.2817017886573,3403
3331.949782827547,3266
3333.617614436319,3404
3335.2851969421245,3441
3336.952530672199,3424
3338.619615953853,3380
3340.286453114475,3358
3341.9530424815357,3454
3343.619384382583,3427
3345.2854791452437,3503
3346.951327097224,3483
3348.6169285663073,3513
3350.2822838803577,3364
3351.947393367319,3441
3353.61225735521,3421
3355.2768761721345,3420
3356.9412501462693,3465
3358.605379605873,3384
3360.2692648792827,3328
3361.9329062949146,3411
3363.596304181263,3314
