CollectionTime,7/10/2024 4:15:40 PM
ExposureUsed,3
CalibratedSpectrum
-962.7078968117929,759
-959.9714848408522,755
-957.2358232597828,788
-954.5009119013725,794
-951.7667505983302,819
-949.0333391832855,858
-946.3006774887896,880
-943.5687653473143,837
-940.837602591253,886
-938.1071890529199,877
-935.3775245645503,811
-932.6486089583007,820
-929.9204420662485,787
-927.1930237203925,833
-924.4663537526524,808
-921.7404319948689,849
-919.0152582788041,891
-916.2908324361409,885
-913.5671542984834,866
-910.8442236973568,809
-908.1220404642074,810
-905.4006044304027,796
-902.679915427231,845
-899.959973285902,809
-897.2407778375464,840
-894.5223289132158,808
-891.8046263438832,797
-889.0876699604426,814
-886.3714595937089,825
-883.6559950744183,808
-880.9412762332282,787
-878.2273029007168,822
-875.5140749073835,840
-872.8015920836489,839
-870.0898542598545,804
-867.3788612662631,799
-864.6686129330585,797
-861.9591090903457,801
-859.2503495681506,856
-856.5423341964203,798
-853.8350628050229,823
-851.1285352237478,845
-848.4227512823054,865
-845.7177108103272,823
-843.0134136373656,845
-840.3098595928943,863
-837.6070485063082,810
-834.9049802069229,854
-832.2036545239757,842
-829.5030712866244,840
-826.8032303239481,859
-824.1041314649472,841
-821.4057745385428,864
-818.7081593735775,872
-816.0112857988148,827
-813.3151536429393,864
-810.6197627345566,836
-807.9251129021936,834
-805.2312039742981,849
-802.5380357792392,808
-799.8456081453069,860
-797.1539209007124,872
-794.462973873588,821
-791.772766891987,798
-789.083299783884,865
-786.3945723771743,860
-783.7065844996748,838
-781.0193359791231,873
-778.3328266431781,876
-775.6470563194197,849
-772.9620248353489,857
-770.2777320183878,826
-767.5941776958798,874
-764.9113616950891,886
-762.2292838432011,880
-759.5479439673222,857
-756.8673418944801,852
-754.1874774516235,860
-751.5083504656222,863
-748.8299607632671,913
-746.15230817127,891
-743.475392516264,916
-740.7992136248035,880
-738.1237713233636,879
-735.4490654383407,904
-732.7750957960521,896
-730.1018622227365,924
-727.4293645445534,957
-724.7576025875837,928
-722.0865761778291,930
-719.4162851412126,921
-716.7467293035781,881
-714.0779084906909,954
-711.409822528237,954
-708.7424712418238,960
-706.0758544569796,925
-703.4099719991541,901
-700.7448236937178,911
-698.0804093659622,940
-695.4167288411002,892
-692.7537819442656,934
-690.0915685005134,923
-687.4300883348199,928
-684.7693412720819,973
-682.1093271371178,997
-679.4500457546669,986
-676.7914969493897,914
-674.1336805458676,922
-671.4765963686034,975
-668.8202442420206,905
-666.1646239904642,921
-663.5097354382001,959
-660.8555784094151,973
-658.2021527282176,951
-655.5494582186366,992
-652.8974947046223,968
-650.2462620100463,953
-647.5957599587009,984
-644.9459883742998,1024
-642.2969470804776,992
-639.6486359007902,1017
-637.0010546587141,1028
-634.3542031776476,1088
-631.7080812809096,1064
-629.0626887917401,961
-626.4180255333008,966
-623.7740913286734,981
-621.1308860008619,1041
-618.4884093727904,1036
-615.8466612673046,984
-613.2056415071715,996
-610.5653499150785,1028
-607.9257863136347,1008
-605.28695052537,1046
-602.6488423727357,1044
-600.0114616781036,1021
-597.3748082637674,992
-594.7388819519412,1026
-592.1036825647604,1052
-589.4692099242818,1040
-586.8354638524829,1022
-584.2024441712624,1019
-581.5701507024403,1056
-578.9385832677575,1067
-576.3077416888759,1100
-573.6776257873787,1055
-571.0482353847704,1056
-568.4195703024757,1018
-565.7916303618415,1058
-563.164415384135,1068
-560.5379251905453,1061
-557.9121596021815,1013
-555.2871184400748,1011
-552.6628015251767,1033
-550.0392086783606,1126
-547.4163397204204,1106
-544.794194472071,1102
-542.1727727539491,1163
-539.5520743866118,1182
-536.9320991905377,1128
-534.3128469861261,1166
-531.6943175936979,1150
-529.0765108334947,1165
-526.4594265256793,1157
-523.8430644903358,1242
-521.2274245474689,1347
-518.612506517005,1414
-515.9983102187913,1398
-513.3848354725959,1383
-510.77208209810846,1474
-508.16004991493924,1550
-505.5487387426199,1585
-502.9381484006032,1691
-500.3282787082628,1678
-497.71912948489364,1740
-495.1107005497117,1593
-492.5029917218539,1500
-489.8960028203786,1385
-487.28973366426493,1369
-484.68418407241325,1307
-482.07935386364494,1248
-479.47524285670266,1226
-476.87185087025,1218
-474.2691777228715,1282
-471.66722323307334,1276
-469.0659872192821,1194
-466.4654694998459,1234
-463.86566989303384,1312
-461.26658821703614,1312
-458.66822428996414,1247
-456.07057792985,1258
-453.4736489546475,1317
-450.877437182231,1192
-448.28194243039627,1279
-445.68716451686,1276
-443.09310325926003,1235
-440.49975847515555,1226
-437.9071299820263,1219
-435.31521759727354,1201
-432.72402113821954,1179
-430.13354042210767,1268
-427.5437752661022,1253
-424.95472548728867,1211
-422.36639090267386,1261
-419.7787713291855,1279
-417.1918665836721,1341
-414.60567648290385,1247
-412.0202008435715,1290
-409.4354394822874,1321
-406.8513922155845,1308
-404.26805885991723,1347
-401.685439231661,1315
-399.103533147112,1403
-396.522340422488,1318
-393.9418608739278,1298
-391.3620943174908,1301
-388.7830405691583,1228
-386.2046994448317,1263
-383.6270707603344,1165
-381.05015433141045,1116
-378.473949973725,983
-375.8984575028645,1027
-373.32367673433623,884
-370.74960748356875,830
-368.1762495659117,766
-365.60360279663576,685
-363.03166699093265,651
-360.4604419639154,572
-357.8899275306178,566
-355.32012350599507,545
-352.7510297049233,565
-350.1826459421999,599
-347.61497203254316,636
-345.04800779059235,549
-342.4817530309082,492
-339.91620756797226,545
-337.35137121618743,522
-334.7872437898774,501
-332.22382510328725,519
-329.66111497058273,485
-327.09911320585127,524
-324.53781962310075,525
-321.9772340362607,559
-319.4173562591816,511
-316.8581861056348,537
-314.2997233893127,531
-311.7419679238294,537
-309.1849195227194,523
-306.62857799943856,542
-304.0729431673641,615
-301.51801483979375,552
-298.963792829947,544
-296.41027695096386,600
-293.85746701590574,669
-291.3053628377552,561
-288.7539642294155,554
-286.2032710037115,576
-283.65328297338897,612
-281.1039999511146,675
-278.5554217494762,657
-276.007548180983,568
-273.4603790580651,595
-270.9139141930734,616
-268.3681533982807,594
-265.8230964858798,622
-263.27874326798565,604
-260.7350935566336,676
-258.1921471637804,705
-255.6499039013039,763
-253.10836358100266,761
-250.56752601459698,724
-248.02739101372765,625
-245.48795838995704,696
-242.94922795476816,760
-240.41119951956557,826
-237.8738728956746,802
-235.33724789434166,790
-232.80132432673452,784
-230.2661020039418,737
-227.73158073697357,738
-225.19776033676033,864
-222.66464061415422,901
-220.1322213799284,901
-217.60050244477725,855
-215.06948361931552,833
-212.53916471408013,875
-210.00954553952818,856
-207.48062590603843,840
-204.9524056239104,795
-202.4248845033651,740
-199.8980623545441,763
-197.37193898751036,740
-194.84651421224817,818
-192.32178783866232,878
-189.79775967657952,894
-187.27442953574644,937
-184.7517972258321,985
-182.2298625564256,901
-179.7086253370378,819
-177.18808537710026,749
-174.66824248596583,878
-172.14909647290835,949
-169.6306471471229,1020
-167.11289431772548,963
-164.59583779375328,952
-162.07947738416453,871
-159.5638128978386,1022
-157.04884414357605,1084
-154.53457093009854,1205
-152.02099306604828,1262
-149.50811035998936,1073
-146.99592262040665,1039
-144.48442965570587,1255
-141.97363127421409,1143
-139.46352728417958,1097
-136.95411749377126,1162
-134.44540171107985,1134
-131.93737974411636,1159
-129.43005140081357,1373
-126.92341648902493,1896
-124.41747481652521,1832
-121.91222619101006,1637
-119.40767042009657,1690
-116.90380731132257,2324
-114.40063667214702,2732
-111.8981583099503,4345
-109.3963720320337,8449
-106.89527764561933,13167
-104.39487495785067,16038
-101.89516377579241,15008
-99.39614390642998,14893
-96.89781515667039,20268
-94.40017733334128,29543
-91.90323024319173,35234
-89.40697369289148,30556
-86.91140748903172,17115
-84.41653143812482,10035
-81.92234534660395,11922
-79.42884902082358,17535
-76.93604226705907,21482
-74.4439248915071,22713
-71.95249670028534,23711
-69.46175749943245,21991
-66.97170709490854,19637
-64.48234529259423,16817
-61.99367189829195,14208
-59.50568671772464,10643
-57.01838955653636,7459
-54.53178022029283,8419
-52.045858514480074,11339
-49.560624244506016,12750
-47.07607721569923,15079
-44.59221723330904,15766
-42.10904410250669,16338
-39.62655762838392,14507
-37.14475761595372,12532
-34.66364387015028,13293
-32.18321619582866,14206
-29.70347439776515,16286
-27.224418280657005,16227
-24.74604764912317,17809
-22.26836230770266,22758
-19.7913620608565,35143
-17.315046712966478,59847
-14.83941606833514,65040
-12.36446993118659,65040
-9.89020810566592,65040
-7.416630395839093,65040
-4.94373660569363,65040
-2.471526539137585,65040
-6.821210263296962E-13,65040
2.47084320796705,65040
4.941003281093458,65040
7.410480415786196,65040
9.879274808531363,65040
12.347386655893956,65040
14.814816154518212,65040
17.28156350112681,65040
19.74762889252179,65040
22.21301252558385,65040
24.67771459727237,21768
27.141735304626195,4820
29.605074844762612,4398
32.06773341487792,3620
34.52971121224755,2984
36.99100843422559,2718
39.45162527824516,2741
41.91156194181792,2031
44.370818622535126,2074
46.82939551806646,1931
49.287292826160524,2143
51.74451074464503,2848
54.201049471426245,1955
56.65690920448981,1394
59.112090141899785,1439
61.56659248179983,1730
64.02041642241159,2208
66.4735621620365,2162
68.92602989905402,2186
71.37781983192338,2304
73.82893215918205,2201
76.27936707944684,1603
78.72912479141326,1371
81.17820549385567,1368
83.62660938562783,1416
86.07433666566146,1321
88.5213875329681,1153
90.96776218663751,1231
93.41346082583925,1487
95.85848364982041,1663
98.30283085790859,1892
100.7465026495089,1421
103.18949922410604,1540
105.63182078126385,1459
108.07346752062438,1330
110.51443964190923,1302
112.95473734491827,1146
115.39436082953114,1329
117.83331029570547,1194
120.27158594347827,1075
122.7091879729652,1206
125.1461165843615,1209
127.58237197794062,1095
130.01795435405518,941
132.4528639131364,1003
134.88710085569494,1196
137.32066538231982,1221
139.75355769367923,1422
142.1857779905207,1242
144.61732647366978,1113
147.04820334403132,1017
149.47840880258934,1084
151.90794305040674,1140
154.33680628862487,1150
156.76499871846443,1170
159.19252054122433,1400
161.61937195828352,1511
164.04555317109896,1580
166.47106438120693,1839
168.89590579022217,2137
171.320077599839,2110
173.7435800118302,2294
176.16641322804742,2521
178.58857745042144,2483
181.01007288096173,2576
183.43089972175687,2750
185.85105817497413,2659
188.27054844285988,2624
190.6893707277394,2764
193.10752523201643,2796
195.5250121581745,2852
197.9418317087751,2947
200.3579840864594,2965
202.7734694939469,2849
205.18828813403627,3006
207.6024402096051,3118
210.01592592360964,3096
212.42874547908548,2957
214.84089907914665,3096
217.2523869269868,2976
219.66320922587727,3042
222.0733661791695,3053
224.48285799029293,3081
226.8916848627572,3095
229.29984700014882,3098
231.7073446061355,3151
234.11417788446204,3167
236.520347038953,3407
238.92585227351185,3348
241.33069379212054,3268
243.73487179884035,3283
246.1383864978112,3293
248.541238093252,3309
250.9434267894609,3344
253.34495279081432,3299
255.74581630176783,3306
258.1460175268563,3199
260.54555667069314,3287
262.9444339379703,3272
265.3426495334594,3160
267.7402036620107,3250
270.1370965285529,3176
272.53332833809407,3110
274.9288992957214,3037
277.32380960660055,3045
279.718059475976,3002
282.1116491091717,2910
284.5045787115897,3053
286.89684848871195,2942
289.2884586460981,3034
291.67940938938807,3146
294.0697009242996,3053
296.4593334566299,2998
298.84830719225477,2994
301.23662233712923,3108
303.6242790972866,2850
306.01127767884,2876
308.39761828798066,2827
310.78330113097934,2922
313.16832641418534,2812
315.5526943440269,2816
317.9364051270112,2843
320.3194589697242,2807
322.70185607883093,2829
325.0835966610754,2783
327.4646809232805,2711
329.8451090723478,2803
332.2248813152577,2794
334.6039978590701,2793
336.9824589109231,2787
339.36026467803447,2780
341.7374153677,2683
344.113911187295,2717
346.48975234427337,2630
348.8649390461686,2751
351.2394715005918,2641
353.61334991523415,2640
355.9865744978655,2717
358.35914545633375,2689
360.73106299856715,2745
363.10232733257146,2651
365.47293866643247,2641
367.84289720831396,2632
370.2122031664593,2610
372.5808567491905,2625
374.9488581649083,2634
377.31620762209275,2514
379.6829053293021,2573
382.0489514951745,2603
384.4143463284262,2570
386.7790900378528,2538
389.14318283232853,2473
391.50662492080653,2579
393.86941651231916,2550
396.23155781597745,2609
398.5930490409713,2629
400.9538903965696,2588
403.3140820921202,2567
405.6736243370498,2547
408.03251734086336,2452
410.3907613131465,2477
412.74835646356166,2498
415.10530300185144,2477
417.4616011378372,2569
419.81725108141893,2572
422.1722530425758,2501
424.5266072313656,2572
426.880313857925,2501
429.2333731324701,2597
431.58578526529516,2562
433.9375504667738,2589
436.2886689473588,2569
438.63914091758113,2570
440.9889665880513,2528
443.33814616945835,2519
445.68667987257015,2458
448.03456790823395,2506
450.3818104873759,2527
452.72840782100013,2482
455.07436012019105,2427
457.41966759611057,2497
459.7643304600007,2465
462.10834892318155,2484
464.4517231970525,2422
466.79445349309174,2475
469.1365400228566,2514
471.4779829979826,2559
473.81878263018564,2551
476.15893913125876,2490
478.4984527130747,2491
480.8373235875855,2542
483.17555196682144,2601
485.5131380628919,2502
487.8500820879857,2702
490.1863842543697,2775
492.52204477439034,2815
494.8570638604725,2962
497.1914417251204,3119
499.52517858091653,3235
501.85827464052306,3546
504.19073011668036,3607
506.5225452222086,3621
508.85372017000566,3733
511.18425517304956,3665
513.514150444396,3859
515.8434061971808,4369
518.1720226446176,4989
520.4999999999999,5287
522.8273384766991,5224
525.1540382881666,4673
527.480099647932,4442
529.8055227696037,3752
532.1303078668694,3180
534.454455153496,2972
536.777964843328,2781
539.1008371502907,2674
541.4230722883866,2603
543.744670471698,2625
546.0656319143858,2643
548.3859568306899,2647
550.7056454349294,2656
553.0246979415016,2611
555.3431145648834,2587
557.6608955196306,2591
559.978041020377,2545
562.2945512818363,2541
564.6104265188006,2584
566.9256669461412,2634
569.2402727788082,2654
571.5542442318302,2600
573.8675815203156,2593
576.1802848594508,2610
578.4923544645015,2600
580.8037905508126,2722
583.114593333807,2707
585.4247630289875,2660
587.7342998519354,2708
590.0432040183106,2584
592.3514757438526,2688
594.6591152443794,2681
596.9661227357875,2628
599.2724984340531,2587
601.578242555231,2628
603.8833553154542,2732
606.1878369309362,2571
608.4916876179676,2459
610.7949075929192,2636
613.0974970722403,2615
615.3994562724587,2537
617.7007854101818,2545
620.0014847020951,2637
622.3015543649641,2516
624.6009946156324,2547
626.8998056710224,2582
629.1979877481361,2585
631.4955410640538,2561
633.7924658359349,2545
636.0887622810175,2634
638.3844306166192,2626
640.6794710601358,2563
642.9738838290426,2646
645.2676691408932,2720
647.5608272133207,2617
649.853358264037,2696
652.1452625108324,2556
654.4365401715764,2637
656.7271914642178,2548
659.0172166067838,2723
661.3066158173809,2725
663.5953893141935,2745
665.8835373154867,2673
668.1710600396028,2675
670.4579577049639,2526
672.7442305300709,2664
675.0298787335033,2711
677.3149025339197,2709
679.599302150058,2649
681.8830778007342,2573
684.1662297048437,2666
686.4487580813608,2694
688.7306631493387,2677
691.0119451279091,2672
693.2926042362834,2671
695.5726406937516,2696
697.8520547196814,2598
700.1308465335215,2659
702.4090163547982,2653
704.6865644031171,2709
706.9634908981619,2706
709.2397960596965,2654
711.5154801075631,2640
713.7905432616823,2788
716.0649857420548,2671
718.3388077687592,2641
720.612009561953,2641
722.8845913418733,2650
725.1565533288352,2751
727.427895743234,2728
729.6986188055427,2619
731.9687227363137,2647
734.238207756178,2717
736.5070740858458,2571
738.7753219461066,2595
741.0429515578281,2639
743.3099631419569,2673
745.5763569195191,2729
747.8421331116193,2713
750.1072919394409,2648
752.3718336242467,2723
754.6357583873777,2707
756.8990664502545,2711
759.1617580343765,2656
761.423833361321,2708
763.6852926527457,2670
765.9461361303862,2775
768.206364016058,2639
770.4659765316536,2696
772.7249738991469,2652
774.9833563405886,2782
777.2411240781092,2729
779.4982773339183,2740
781.7548163303044,2711
784.010741289634,2747
786.2660524343538,2732
788.5207499869881,2712
790.7748341701416,2816
793.0283052064964,2780
795.2811633188143,2781
797.5334087299362,2720
799.7850416627813,2823
802.0360623403484,2824
804.2864709857143,2827
806.5362678220353,2767
808.7854530725468,2770
811.0340269605625,2779
813.2819897094754,2811
815.5293415427581,2721
817.77608268396,2745
820.0222133567116,2837
822.2677337847211,2805
824.5126441917765,2813
826.7569448017433,2742
829.0006358385675,2752
831.2437175262731,2777
833.4861900889629,2660
835.7280537508192,2767
837.9693087361026,2785
840.2099552691533,2661
842.4499935743896,2778
844.689423876309,2748
846.9282463994886,2740
849.1664613685833,2788
851.4040690083276,2799
853.6410695435349,2757
855.877463199097,2817
858.1132501999847,2790
860.3484307712487,2867
862.5830051380175,2892
864.8169735254988,2817
867.0503361589791,2805
869.2830932638243,2797
871.5152450654786,2818
873.7467917894654,2774
875.9777336613873,2748
878.2080709069252,2858
880.4378037518389,2855
882.666932421968,2866
884.8954571432301,2775
887.1233781416219,2846
889.3506956432192,2773
891.5774098741766,2785
893.803521060728,2819
896.0290294291852,2878
898.2539352059397,2771
900.4782386174619,2895
902.7019398903011,2855
904.925039251085,2777
907.147536926521,2755
909.3694331433943,2809
911.59072812857,2785
913.8114221089921,2784
916.0315153116827,2758
918.2510079637437,2685
920.4699002923547,2789
922.6881925247761,2831
924.905884888345,2751
927.1229776104793,2705
929.3394709186747,2705
931.555365040506,2728
933.7706602036275,2748
935.9853566357709,2713
938.1994545647489,2761
940.4129542184515,2754
942.6258558248488,2716
944.8381596119883,2773
947.0498658079974,2788
949.2609746410825,2764
951.4714863395287,2678
953.6814011316998,2874
955.8907192460387,2802
958.0994409110671,2739
960.3075663553858,2754
962.5150958076741,2818
964.7220294966913,2812
966.928367651274,2684
969.1341105003388,2743
971.3392582728806,2632
973.5438111979742,2747
975.747769504772,2653
977.9511334225061,2783
980.153903180487,2787
982.3560790081052,2719
984.5576611348289,2846
986.7586497902058,2758
988.9590452038618,2732
991.158847605503,2652
993.3580572249133,2671
995.5566742919558,2676
997.7546990365728,2647
999.952131688785,2565
1002.1489724786926,2589
1004.3452216364743,2541
1006.5408793923874,2586
1008.7359459767691,2616
1010.9304216200343,2525
1013.1243065526781,2535
1015.3176010052733,2403
1017.510305208472,2585
1019.7024193930064,2537
1021.8939437896848,2553
1024.0848786293977,2566
1026.2752241431122,2576
1028.4649805618747,2597
1030.6541481168115,2549
1032.842727039127,2479
1035.0307175601051,2447
1037.2181199111074,2499
1039.4049343235752,2616
1041.591161029029,2479
1043.7768002590683,2489
1045.9618522453698,2441
1048.1463172196918,2464
1050.3301954138697,2475
1052.513487059818,2480
1054.69619238953,2524
1056.8783116350783,2492
1059.0598450286152,2450
1061.2407928023704,2504
1063.4211551886528,2542
1065.6009324198508,2487
1067.780124728432,2471
1069.9587323469414,2483
1072.1367555080046,2554
1074.314194444325,2506
1076.4910493886855,2531
1078.667320573947,2535
1080.843008233051,2498
1083.0181125990161,2472
1085.1926339049414,2433
1087.3665723840027,2491
1089.5399282694575,2413
1091.7127017946405,2381
1093.8848931929647,2479
1096.0565026979243,2403
1098.2275305430899,2412
1100.3979769621128,2449
1102.567842188722,2431
1104.737126456726,2375
1106.9058300000124,2437
1109.0739530525475,2442
1111.2414958483764,2409
1113.4084586216231,2397
1115.5748416064907,2507
1117.7406450372605,2503
1119.9058691482942,2476
1122.0705141740304,2523
1124.2345803489884,2470
1126.3980679077658,2410
1128.5609770850388,2466
1130.7233081155623,2431
1132.8850612341707,2530
1135.0462366757774,2472
1137.2068346753745,2372
1139.3668554680326,2369
1141.526299288901,2415
1143.68516637321,2442
1145.8434569562655,2415
1148.001171273455,2426
1150.158309560244,2397
1152.3148720521767,2404
1154.470858984876,2468
1156.626270594044,2432
1158.7811071154629,2437
1160.9353687849912,2421
1163.089055838569,2405
1165.242168512213,2425
1167.3947070420209,2505
1169.5466716641677,2469
1171.6980626149075,2426
1173.8488801305748,2478
1175.9991244475814,2450
1178.1487958024186,2393
1180.2978944316555,2417
1182.4464205719428,2361
1184.5943744600072,2396
1186.7417563326567,2350
1188.8885664267755,2359
1191.0348049793297,2378
1193.1804722273619,2470
1195.325568407995,2443
1197.4700937584303,2409
1199.614048515948,2369
1201.7574329179074,2305
1203.900247201746,2500
1206.042491604982,2486
1208.1841663652099,2450
1210.3252717201053,2434
1212.465807907422,2399
1214.6057751649923,2393
1216.7451737307279,2418
1218.8840038426192,2468
1221.0222657387353,2460
1223.1599596572241,2445
1225.2970858363137,2506
1227.4336445143094,2504
1229.5696359295966,2473
1231.705060320639,2471
1233.8399179259786,2509
1235.9742089842384,2598
1238.107933734118,2501
1240.2410924143974,2480
1242.373685263935,2571
1244.5057125216676,2485
1246.6371744266116,2465
1248.7680712178621,2525
1250.898403134593,2438
1253.028170416058,2495
1255.1573733015875,2544
1257.2860120305932,2496
1259.4140868425648,2484
1261.54159797707,2433
1263.6685456737569,2528
1265.7949301723515,2477
1267.9207517126597,2460
1270.046010534565,2581
1272.1707068780306,2511
1274.2948409830983,2496
1276.4184130898889,2541
1278.541423438603,2408
1280.6638722695184,2570
1282.785759822993,2539
1284.9070863394636,2505
1287.0278520594447,2621
1289.1480572235314,2555
1291.2677020723963,2635
1293.3867868467923,2592
1295.5053117875495,2623
1297.623277135579,2635
1299.740683131868,2634
1301.8575300174857,2611
1303.973818033578,2664
1306.0895474213703,2784
1308.2047184221678,2754
1310.3193312773528,2676
1312.4333862283888,2702
1314.5468835168163,2709
1316.659823384255,2652
1318.7722060724045,2677
1320.8840318230418,2693
1322.9953008780249,2645
1325.1060134792888,2657
1327.2161698688478,2685
1329.3257702887959,2629
1331.4348149813054,2689
1333.5433041886276,2655
1335.6512381530933,2699
1337.7586171171101,2613
1339.8654413231675,2707
1341.9717110138317,2567
1344.0774264317488,2671
1346.1825878196432,2623
1348.2871954203192,2702
1350.3912494766587,2621
1352.4947502316231,2698
1354.5976979282532,2660
1356.7000928096686,2640
1358.8019351190665,2618
1360.9032250997243,2689
1363.0039629949988,2618
1365.1041490483235,2687
1367.2037835032133,2622
1369.3028666032606,2578
1371.401398592137,2714
1373.4993797135926,2596
1375.5968102114575,2684
1377.6936903296396,2651
1379.7900203121262,2649
1381.8858004029835,2659
1383.9810308463561,2690
1386.075711886469,2679
1388.1698437676241,2614
1390.2634267342032,2673
1392.356461030667,2664
1394.4489469015557,2641
1396.5408845914872,2690
1398.6322743451592,2624
1400.7231164073469,2644
1402.813411022907,2690
1404.903158436773,2687
1406.9923588939578,2663
1409.0810126395531,2780
1411.1691199187303,2641
1413.2566809767386,2687
1415.343696058907,2719
1417.4301654106425,2699
1419.5160892774315,2720
1421.6014679048399,2708
1423.6863015385125,2768
1425.7705904241707,2784
1427.8543348076178,2696
1429.9375349347342,2771
1432.0201910514802,2906
1434.102303403894,2757
1436.1838722380944,2865
1438.2648978002767,2718
1440.3453803367174,2829
1442.4253200937692,2843
1444.5047173178677,2839
1446.5835722555234,2898
1448.6618851533285,2861
1450.739656257952,2897
1452.8168858161434,2876
1454.8935740747306,2870
1456.96972128062,2933
1459.045327680797,2855
1461.120393522327,3006
1463.1949190523528,3031
1465.2689045180973,3036
1467.3423501668608,3039
1469.415256246024,3046
1471.4876230030463,3084
1473.559450685465,3151
1475.6307395408976,3130
1477.7014898170391,3127
1479.771701761665,3204
1481.8413756226287,3072
1483.9105116478618,3257
1485.9791100853772,3279
1488.0471711832643,3192
1490.1146951896926,3225
1492.1816823529098,3308
1494.2481329212433,3330
1496.3140471430984,3340
1498.3794252669609,3329
1500.4442675413939,3318
1502.5085742150404,3335
1504.572345536622,3374
1506.6355817549388,3387
1508.6982831188702,3362
1510.7604498773744,3342
1512.8220822794883,3388
1514.8831805743293,3533
1516.9437450110909,3500
1519.003775839048,3456
1521.0632733075522,3488
1523.1222376660367,3560
1525.1806691640113,3588
1527.2385680510652,3716
1529.2959345768668,3604
1531.3527689911643,3739
1533.4090715437833,3657
1535.4648424846291,3747
1537.5200820636855,3749
1539.5747905310159,3762
1541.6289681367616,3868
1543.6826151311434,3891
1545.7357317644614,3771
1547.7883182870937,3797
1549.8403749494987,3860
1551.8919020022113,3962
1553.9428996958477,4007
1555.9933682811015,3980
1558.0433080087469,4063
1560.0927191296346,4015
1562.1416018946961,4075
1564.1899565549415,4037
1566.2377833614592,4079
1568.2850825654164,4123
1570.3318544180606,4101
1572.3780991707158,4023
1574.423817074788,3894
1576.4690083817595,3714
1578.5136733431923,3719
1580.5578122107272,3620
1582.601425236085,3546
1584.6445126710646,3520
1586.6870747675434,3499
1588.7291117774776,3481
1590.7706239529034,3357
1592.8116115459347,3207
1594.8520748087658,3236
1596.8920139936686,3123
1598.9314293529933,3106
1600.9703211391711,3073
1603.008689604711,3060
1605.0465350022005,2953
1607.0838575843068,2953
1609.1206576037753,2882
1611.1569353134305,2847
1613.1926909661765,2879
1615.2279248149953,2805
1617.2626371129481,2823
1619.2968281131757,2869
1621.3304980688963,2833
1623.3636472334088,2766
1625.39627586009,2776
1627.428384202396,2802
1629.459972513861,2785
1631.4910410480993,2806
1633.5215900588028,2690
1635.551619799744,2718
1637.5811305247717,2683
1639.6101224878166,2793
1641.6385959428862,2732
1643.6665511440683,2754
1645.693988345528,2648
1647.7209078015112,2665
1649.7473097663405,2808
1651.7731944944203,2694
1653.7985622402307,2683
1655.823413258333,2649
1657.847747803366,2701
1659.8715661300494,2696
1661.8948684931793,2659
1663.9176551476316,2724
1665.9399263483624,2678
1667.9616823504057,2709
1669.982923408873,2659
1672.0036497789574,2587
1674.0238617159293,2692
1676.043559475138,2636
1678.0627433120121,2643
1680.081413482059,2578
1682.0995702408654,2658
1684.117213844096,2788
1686.134344547495,2677
1688.1509626068864,2727
1690.1670682781705,2649
1692.182661817329,2562
1694.1977434804217,2631
1696.2123135235875,2635
1698.226372203043,2691
1700.2399197750851,2582
1702.2529564960905,2656
1704.2654826225112,2670
1706.277498410882,2630
1708.2890041178139,2669
1710.2999999999988,2654
1712.3104863142066,2668
1714.3204633172854,2679
1716.329931266163,2684
1718.3388904178469,2583
1720.3473410294214,2682
1722.3552833580516,2607
1724.3627176609807,2516
1726.3696441955308,2622
1728.3760632191033,2540
1730.3819749891782,2561
1732.3873797633146,2538
1734.3922777991502,2691
1736.3966693544012,2644
1738.4005546868639,2608
1740.4039340544127,2634
1742.406807715001,2597
1744.4091759266616,2634
1746.4110389475054,2651
1748.4123970357223,2615
1750.413250449582,2654
1752.4135994474318,2644
1754.4134442876993,2514
1756.4127852288902,2661
1758.4116225295893,2567
1760.4099564484595,2494
1762.407787244244,2511
1764.405115175764,2657
1766.4019405019203,2592
1768.3982634816916,2636
1770.3940843741357,2582
1772.3894034383907,2577
1774.3842209336717,2510
1776.378537119274,2607
1778.372352254571,2615
1780.3656665990156,2528
1782.3584804121397,2581
1784.3507939535534,2608
1786.3426074829463,2600
1788.3339212600863,2564
1790.3247355448211,2590
1792.3150505970766,2645
1794.3048666768573,2557
1796.2941840442477,2580
1798.2830029594106,2624
1800.2713236825884,2573
1802.2591464741004,2557
1804.2464715943465,2601
1806.2332993038058,2585
1808.2196298630352,2602
1810.2054635326708,2604
1812.190800573428,2702
1814.175641246101,2642
1816.1599858115628,2633
1818.1438345307652,2642
1820.127187664738,2584
1822.1100454745924,2621
1824.092408221516,2570
1826.0742761667766,2611
1828.055649571721,2524
1830.0365286977735,2617
1832.0169138064398,2625
1833.9968051593014,2670
1835.9762030180214,2682
1837.9551076443408,2607
1839.9335193000788,2572
1841.9114382471344,2525
1843.888864747485,2596
1845.8657990631878,2637
1847.842241456378,2544
1849.8181921892697,2630
1851.7936515241558,2554
1853.7686197234098,2703
1855.7430970494815,2653
1857.7170837649014,2611
1859.6905801322787,2631
1861.6635864143004,2624
1863.6361028737338,2592
1865.608129773424,2614
1867.5796673762961,2624
1869.5507159453537,2609
1871.521275743678,2646
1873.4913470344313,2673
1875.4609300808534,2690
1877.4300251462632,2618
1879.3986324940588,2649
1881.366752387717,2623
1883.3343850907936,2577
1885.3015308669228,2614
1887.268189979819,2596
1889.2343626932739,2682
1891.2000492711595,2712
1893.1652499774254,2626
1895.1299650761011,2652
1897.0941948312952,2644
1899.0579395071945,2727
1901.0211993680641,2677
1902.98397467825,2596
1904.9462657021745,2686
1906.9080727043415,2624
1908.869395949332,2745
1910.8302357018065,2705
1912.790592226504,2708
1914.7504657882428,2652
1916.7098566519212,2705
1918.6687650825133,2717
1920.6271913450764,2691
1922.5851357047422,2582
1924.5425984267245,2596
1926.499579776314,2714
1928.4560800188833,2734
1930.4120994198802,2676
1932.367638244833,2708
1934.32269675935,2650
1936.2772752291175,2729
1938.231373919899,2674
1940.1849930975404,2640
1942.1381330279637,2637
1944.0907939771696,2619
1946.0429762112412,2589
1947.9946799963363,2682
1949.9459055986945,2672
1951.896653284633,2710
1953.8469233205478,2696
1955.7967159729142,2667
1957.7460315082863,2618
1959.6948701932974,2686
1961.6432322946594,2670
1963.5911180791632,2649
1965.5385278136787,2625
1967.4854617651545,2723
1969.4319202006182,2709
1971.377903387176,2714
1973.3234115920136,2754
1975.268445082395,2660
1977.2130041256642,2742
1979.1570889892423,2715
1981.1006999406304,2641
1983.04383724741,2627
1984.986501177238,2631
1986.928691997853,2713
1988.8704099770712,2758
1990.811655382789,2691
1992.7524284829801,2643
1994.692729545698,2729
1996.6325588390755,2700
1998.5719166313224,2694
2000.5108031907307,2621
2002.4492187856677,2657
2004.387163684583,2638
2006.3246381560011,2641
2008.2616424685298,2638
2010.1981768908527,2653
2012.1342416917332,2619
2014.069837140014,2632
2016.0049635046162,2719
2017.9396210545406,2679
2019.8738100588666,2574
2021.8075307867502,2706
2023.740783507431,2555
2025.6735684902228,2665
2027.6058860045214,2672
2029.5377363198004,2591
2031.4691197056118,2639
2033.4000364315875,2665
2035.3304867674374,2639
2037.260470982952,2620
2039.189989347998,2625
2041.1190421325232,2706
2043.047629606554,2634
2044.9757520401945,2708
2046.9034097036288,2684
2048.8306028671195,2654
2050.7573318010086,2613
2052.683596775716,2628
2054.609398061742,2690
2056.5347359296647,2733
2058.4596106501403,2753
2060.384022493906,2704
2062.3079717317764,2702
2064.231458634646,2687
2066.1544834734873,2693
2068.077046519352,2676
2069.99914804337,2769
2071.9207883167524,2696
2073.8419676107865,2716
2075.7626861968406,2709
2077.6829443463607,2747
2079.6027423308715,2692
2081.522080421977,2626
2083.440958891362,2662
2085.359378010786,2738
2087.2773380520907,2676
2089.194839287196,2657
2091.111881988101,2754
2093.0284664268825,2745
2094.9445928756973,2729
2096.86026160678,2703
2098.775472892446,2743
2100.690227005088,2758
2102.604524217178,2718
2104.5183648012676,2722
2106.431749029985,2679
2108.34467717604,2711
2110.2571495122206,2751
2112.169166311393,2716
2114.080727846503,2701
2115.9918343905747,2699
2117.902486216711,2725
2119.8126835980956,2729
2121.722426807987,2692
2123.6317161197285,2776
2125.5405518067364,2741
2127.448934142509,2769
2129.356863400624,2801
2131.264339854737,2818
2133.1713637785815,2722
2135.077935445972,2757
2136.9840551308002,2725
2138.889723107037,2723
2140.7949396487334,2785
2142.699705030018,2728
2144.6040195250994,2790
2146.507883408264,2769
2148.4112969538774,2815
2150.3142604363848,2808
2152.2167741303097,2702
2154.1188383102535,2827
2156.0204532508997,2844
2157.9216192270064,2867
2159.822336513414,2787
2161.7226053850413,2789
2163.622426116884,2798
2165.5217989840185,2787
2167.4207242616,2745
2169.319202224862,2811
2171.2172331491165,2822
2173.1148173097563,2795
2175.0119549822507,2841
2176.90864644215,2776
2178.8048919650823,2816
2180.7006918267534,2840
2182.596046302952,2844
2184.4909556695407,2816
2186.3854202024645,2890
2188.279440177746,2774
2190.173015871487,2803
2192.066147559868,2774
2193.958835519149,2730
2195.851080025667,2796
2197.7428813558417,2873
2199.6342397861667,2807
2201.5251555932186,2796
2203.415629053651,2787
2205.3056604441986,2828
2207.19525004167,2848
2209.084398122958,2838
2210.9731049650327,2790
2212.861370844941,2853
2214.749196039812,2829
2216.636580826851,2830
2218.523525483344,2867
2220.410030286655,2842
2222.296095514226,2757
2224.1817214435805,2853
2226.066908352319,2869
2227.951656518121,2936
2229.835966218746,2880
2231.71983773203,2948
2233.6032713358913,2806
2235.486267308324,2886
2237.3688259274036,2849
2239.2509474712824,2900
2241.132632218193,2857
2243.013880446447,2960
2244.8946924344323,2852
2246.7750684606203,2935
2248.6550088035574,2823
2250.534513741871,2921
2252.413583554265,2851
2254.292218519526,2868
2256.170418916517,2952
2258.0481850241786,2823
2259.925517121534,2764
2261.8024154876825,2886
2263.678880401803,2835
2265.5549121431536,2890
2267.430510991071,2865
2269.305677224971,2826
2271.180411124348,2860
2273.0547129687766,2901
2274.9285830379076,2791
2276.8020216114737,2813
2278.6750289692845,2856
2280.5476053912294,2947
2282.4197511572766,2797
2284.2914665474727,2861
2286.162751841943,2877
2288.0336073208937,2877
2289.904033264608,2986
2291.774029953448,2848
2293.6435976678554,2846
2295.5127366883517,2863
2297.381447295534,2837
2299.2497297700825,2887
2301.1175843927526,2790
2302.9850114443825,2831
2304.852011205885,2788
2306.7185839582553,2776
2308.5847299825664,2806
2310.4504495599676,2782
2312.3157429716925,2691
2314.1806104990483,2764
2316.0450524234247,2801
2317.9090690262888,2732
2319.772660589186,2790
2321.635827393742,2688
2323.498569721661,2813
2325.3608878547248,2747
2327.2227820747967,2887
2329.0842526638157,2674
2330.945299903803,2758
2332.805924076857,2758
2334.6661254651535,2723
2336.525904350951,2729
2338.3852610165827,2774
2340.244195744464,2706
2342.102708817088,2698
2343.9608005170253,2812
2345.8184711269287,2798
2347.675720929526,2697
2349.532550207628,2712
2351.38895924412,2761
2353.24494832197,2720
2355.100517724223,2767
2356.955667734004,2820
2358.810398634514,2773
2360.664710709037,2744
2362.5186042409337,2729
2364.3720795136437,2795
2366.225136810686,2683
2368.0777764156583,2764
2369.929998612237,2790
2371.7818036841777,2823
2373.633191915315,2755
2375.484163589562,2820
2377.3347189909114,2752
2379.184858403434,2776
2381.03458211128,2742
2382.8838903986775,2780
2384.732783549936,2787
2386.5812618494406,2794
2388.4293255816588,2780
2390.2769750311327,2733
2392.1242104824883,2786
2393.971032220427,2782
2395.8174405297295,2760
2397.6634356952563,2830
2399.509018001947,2835
2401.3541877348193,2745
2403.1989451789705,2763
2405.043290619576,2791
2406.8872243418905,2708
2408.730746631247,2880
2410.5738577730594,2760
2412.4165580528183,2893
2414.258847756095,2851
2416.100727168537,2740
2417.9421965758734,2851
2419.783256263912,2681
2421.623906518538,2810
2423.4641476257157,2715
2425.303979871491,2774
2427.143403541984,2772
2428.9824189233977,2845
2430.821026302012,2805
2432.6592259641866,2798
2434.497018196361,2737
2436.33440328505,2837
2438.171381516851,2757
2440.00795317844,2833
2441.844118556569,2848
2443.6798779380724,2772
2445.5152316098606,2780
2447.3501798589255,2813
2449.1847229723357,2775
2451.0188612372403,2837
2452.8525949408663,2784
2454.6859243705203,2821
2456.518849813587,2804
2458.3513715575314,2795
2460.183489889895,2834
2462.015205098301,2857
2463.8465174704493,2863
2465.67742729412,2830
2467.5079348571717,2767
2469.338040447542,2771
2471.1677443532476,2815
2472.9970468623833,2838
2474.825948263123,2822
2476.6544488437207,2856
2478.482548892508,2832
2480.310248697896,2844
2482.137548548374,2729
2483.9644487325118,2829
2485.790949538956,2790
2487.617051256433,2888
2489.44275417375,2897
2491.26805857979,2789
2493.0929647635157,2884
2494.917473013971,2835
2496.741583620276,2827
2498.5652968716304,2933
2500.3886130573137,2848
2502.2115324666834,2831
2504.0340553891765,2798
2505.856182114308,2886
2507.6779129316733,2997
2509.499248130945,2851
2511.3201880018764,2870
2513.140732834298,2899
2514.9608829181198,2920
2516.780638543331,2847
2518.6,2930
2520.418967578273,2891
2522.237541568376,2849
2524.0557222606144,2969
2525.8735099453706,2906
2527.6909049131086,2902
2529.507907454368,2883
2531.32451785977,2928
2533.140736420014,2872
2534.9565634258774,2897
2536.771999168218,3021
2538.5870439379714,3000
2540.4016980261526,2865
2542.2159617238544,2989
2544.02983532225,2976
2545.8433191125914,2959
2547.656413386209,2929
2549.4691184345115,3042
2551.2814345489874,3008
2553.093362021204,3002
2554.904901142808,3100
2556.716052205523,2914
2558.526815501153,3015
2560.3371913215824,3005
2562.147179958771,3086
2563.956781704761,2977
2565.7659968516705,3003
2567.5748256916986,3021
2569.3832685171224,3067
2571.1913256202984,3085
2572.9989972936614,3042
2574.806283829725,3080
2576.613185521084,3123
2578.4197026604074,3084
2580.2258355404483,3114
2582.031584454035,3108
2583.836949694077,3025
2585.6419315535613,3068
2587.4465303255533,3129
2589.2507463032002,3180
2591.0545797797245,3015
2592.8580310484303,3073
2594.6611004026995,3059
2596.463788135992,3104
2598.266094541849,3122
2600.0680199138874,3078
2601.869564545807,3156
2603.670728731383,3184
2605.4715127644704,3154
2607.2719169390048,3136
2609.071941548998,3176
2610.8715868885433,3208
2612.670853251811,3117
2614.469740933052,3153
2616.268250226594,3162
2618.0663814268455,3099
2619.864134828292,3159
2621.6615107255006,3112
2623.458509413115,3113
2625.2551311858597,3072
2627.0513763385347,3124
2628.8472451660223,3223
2630.6427379632833,3154
2632.4378550253564,3168
2634.232596647359,3061
2636.026963124488,3057
2637.8209547520187,3062
2639.6145718253065,3080
2641.407814639785,3074
2643.200683490966,2968
2644.9931786744414,3053
2646.7853004858807,3035
2648.577049221034,3145
2650.3684251757277,3080
2652.1594286458712,3047
2653.9500599274484,3061
2655.740319316525,3065
2657.5302071092437,2974
2659.3197236018286,3108
2661.10886909058,2922
2662.8976438718782,2945
2664.686048242183,3057
2666.4740824980327,3029
2668.2617469360443,3047
2670.0490418529134,2966
2671.8359675454153,3008
2673.622524310403,3013
2675.408712444811,2966
2677.1945322456495,3012
2678.979984010009,2954
2680.76506803506,2950
2682.5497846180497,2937
2684.334134056306,2951
2686.1181166472343,2905
2687.9017326883213,2977
2689.6849824771293,2982
2691.4678663113013,2959
2693.2503844885596,2932
2695.032537306705,2972
2696.8143250636167,2968
2698.5957480572542,2928
2700.3768065856534,2999
2702.1575009469316,2921
2703.937831439283,2940
2705.717798360982,2964
2707.4974020103837,2890
2709.276642685917,2898
2711.055520686095,2929
2712.834036309506,2892
2714.612189854819,2849
2716.389981620782,2979
2718.1674119062204,2930
2719.944481010041,2891
2721.721189231226,2851
2723.4975368688415,2934
2725.273524222027,2900
2727.0491515900053,2872
2728.824419272075,2857
2730.5993275676146,2837
2732.3738767760838,2882
2734.148067197016,2858
2735.921899130031,2870
2737.6953728748194,2955
2739.468488731156,2857
2741.2412469988926,2904
2743.0136479779617,2868
2744.785691968372,2837
2746.5573792702116,2923
2748.3287101836504,2866
2750.099685008934,2846
2751.870304046388,2934
2753.640567596418,2890
2755.4104759595057,2833
2757.1800294362156,2942
2758.949228327187,2967
2760.7180729331412,2882
2762.486563554877,2909
2764.254700493272,2918
2766.022484049284,2900
2767.789914523947,2871
2769.5569922183786,2912
2771.3237174337705,2999
2773.090090471394,2980
2774.8561116326036,2942
2776.6217812188274,2899
2778.3870995315756,2934
2780.1520668724356,2892
2781.9166835430747,2931
2783.6809498452394,2884
2785.444866080754,2975
2787.2084325515225,2868
2788.971649559527,2968
2790.73451740683,2932
2792.4970363955713,2950
2794.2592068279705,2870
2796.0210290063264,2945
2797.7825032330147,2956
2799.543629810493,2924
2801.304409041296,2900
2803.0648412280366,2898
2804.8249266734088,2951
2806.5846656801846,3010
2808.344058551212,3020
2810.1031055894246,2986
2811.8618070978273,2962
2813.6201633795085,3022
2815.378174737636,2961
2817.1358414754536,2964
2818.893163896285,2886
2820.6501423035334,3011
2822.4067770006814,3020
2824.1630682912883,2895
2825.9190164789957,2949
2827.6746218675207,2964
2829.429884760661,2922
2831.184805462294,3025
2832.9393842763743,3016
2834.693621506936,2907
2836.4475174580916,2889
2838.201072434034,3013
2839.954286739034,3066
2841.707160677441,2955
2843.459694553685,2933
2845.2118886722724,3002
2846.96374333779,2948
2848.7152588549034,2931
2850.4664355283567,2891
2852.217273662973,3021
2853.9677735636546,2958
2855.7179355353833,2980
2857.4677598832186,2966
2859.217246912299,2856
2860.9663969278427,2981
2862.715210235146,2920
2864.4636871395846,3110
2866.211827946614,2825
2867.9596329617652,3023
2869.7071024906536,3001
2871.4542368389684,2928
2873.20103631248,2912
2874.947501217038,2890
2876.6936318585695,2966
2878.4394285430812,2941
2880.1848915766604,2937
2881.9300212654707,2944
2883.6748179157553,3040
2885.4192818338374,3121
2887.1634133261173,2961
2888.907212699077,2905
2890.6506802592744,2948
2892.393816313348,3048
2894.1366211680142,3028
2895.8790951300693,3003
2897.621238506388,3012
2899.363051603925,2988
2901.1045347297118,3098
2902.8456881908596,2974
2904.58651229456,2926
2906.327007348081,2934
2908.067173658772,2988
2909.8070115340597,2949
2911.5465212814497,2974
2913.285703208527,2908
2915.0245576229563,2983
2916.7630848324807,2985
2918.5012851449196,3009
2920.2391588681758,2961
2921.976706310227,3028
2923.7139277791334,2955
2925.4508235830313,3062
2927.187394030137,2963
2928.923639428745,2985
2930.6595600872306,3025
2932.395156314046,2919
2934.1304284177218,3052
2935.8653767068713,2962
2937.6000014901815,2991
2939.3343030764227,2978
2941.068281774442,2948
2942.8019378931644,2986
2944.5352717415976,2964
2946.2682836288236,3018
2948.0009738640065,3121
2949.7333427563885,2969
2951.465390615289,3028
2953.1971177501086,2996
2954.9285244703265,2926
2956.6596110855,2987
2958.3903779052657,3043
2960.1208252393385,3019
2961.8509533975125,2990
2963.5807626896617,3028
2965.3102534257378,2992
2967.0394259157715,3010
2968.768280469873,2969
2970.496817398232,3008
2972.2250370111146,2993
2973.952939618869,3027
2975.6805255319196,2978
2977.4077950607707,3009
2979.134748516006,2981
2980.861386208289,3089
2982.587708448359,3116
2984.313715547037,3036
2986.039407815222,2999
2987.764785563891,3097
2989.489849104102,3066
2991.2145987469908,2996
2992.9390348037705,3007
2994.6631575857346,3044
2996.3869674042576,2961
2998.1104645707887,2995
2999.83364939686,3065
3001.5565221940783,3068
3003.2790832741334,3091
3005.0013329487924,3018
3006.7232715298996,2917
3008.4448993293804,3036
3010.166216659239,2834
3011.887223831558,3022
3013.607921158498,2980
3015.3283089522993,3162
3017.0483875252826,3059
3018.7681571898443,2998
3020.4876182584626,3101
3022.2067710436927,3164
3023.9256158581707,2989
3025.644153014609,3023
3027.362382825801,3039
3029.0803056046193,2997
3030.797921664012,3102
3032.5152313170106,3044
3034.2322348767225,3140
3035.9489326563353,3063
3037.665324969115,3011
3039.3814121284063,3003
3041.097194447633,2974
3042.812672240299,3053
3044.5278458199855,3028
3046.2427155003525,3074
3047.9572815951406,3004
3049.671544418167,3024
3051.38550428333,3025
3053.0991615046073,3021
3054.812516396051,3040
3056.5255692717974,2972
3058.2383204460575,3034
3059.9507702331257,2972
3061.662918947372,3047
3063.3747669032446,2991
3065.0863144152736,3070
3066.7975617980674,3051
3068.508509366309,3093
3070.219157434767,2997
3071.9295063182844,3122
3073.639556331785,3116
3075.3493077902704,3093
3077.058761008821,3055
3078.7679163025964,3077
3080.476773986837,3039
3082.1853343768594,3098
3083.89359778806,3135
3085.6015645359153,3038
3087.3092349359786,3014
3089.016609303884,3080
3090.7236879553434,3042
3092.4304712061476,3135
3094.136959372166,3171
3095.843152769349,3048
3097.5490517137237,2992
3099.2546565213966,3137
3100.959967508554,3126
3102.66498499146,3083
3104.3697092864577,3086
3106.0741407099695,3114
3107.778279578498,3111
3109.482126208622,3084
3111.1856809170004,3233
3112.8889440203716,3092
3114.5919158355528,3105
3116.294596679439,3220
3117.996986869006,3098
3119.6990867213062,3005
3121.4008965534726,3186
3123.102416682717,3105
3124.803647426329,3127
3126.5045891016784,3282
3128.205242026213,3122
3129.90560651746,3087
3131.605682893025,3173
3133.3054714705922,3166
3135.0049725679282,3119
3136.7041865028714,3110
3138.4031135933465,3163
3140.101754157353,3069
3141.800108512971,3054
3143.498176978357,3045
3145.1959598717494,3212
3146.8934575114636,3072
3148.5906702158954,3147
3150.2875983035183,3144
3151.9842420928853,3087
3153.680601902627,3150
3155.376678051456,3100
3157.07247085816,3079
3158.767980641609,3054
3160.463207720748,3173
3162.158152414606,3215
3163.8528150422862,3185
3165.5471959229726,3148
3167.2412953759303,3107
3168.9351137204976,3104
3170.628651276098,3047
3172.3219083622307,3162
3174.014885298474,3080
3175.707582404485,3199
3177.4000000000005,3232
3179.092138404835,3163
3180.7839979388846,3154
3182.47557892212,3104
3184.166881674594,3153
3185.8579065164386,3158
3187.5486537678626,3188
3189.2391237491547,3271
3190.9293167806827,3149
3192.6192331828934,3100
3194.3088732763117,3153
3195.998237381542,3160
3197.687325819268,3157
3199.376138910251,3044
3201.064676975334,3139
3202.7529403354347,3136
3204.4409293115523,3234
3206.1286442247647,3215
3207.816085396229,3126
3209.5032531471825,3208
3211.190147798936,3036
3212.8767696728846,3065
3214.5631190905015,3147
3216.2491963733373,3079
3217.9350018430214,3045
3219.6205358212637,3041
3221.305798629851,3033
3222.990790590651,3061
3224.6755120256103,3017
3226.359963256751,3111
3228.0441446061795,3085
3229.7280563960758,3085
3231.411698948703,3113
3233.0950725863995,3211
3234.778177631587,3169
3236.461014406761,3166
3238.1435832345005,3220
3239.8258844374595,3208
3241.507918338374,3124
3243.1896852600576,3163
3244.8711855254023,3199
3246.552419457381,3227
3248.233387379042,3107
3249.914089613516,3110
3251.59452648401,3159
3253.274698313813,3289
3254.95460542629,3197
3256.6342481448855,3062
3258.313626793125,3195
3259.9927416946084,3112
3261.6715931730196,3147
3263.3501815521176,3189
3265.0285071557437,3155
3266.706570307815,3063
3268.3843713323286,3147
3270.0619105533615,3164
3271.739188295068,3166
3273.4162048816834,3160
3275.0929606375184,3196
3276.769455886966,3199
3278.445690954498,3169
3280.1216661646613,3134
3281.797381842087,3110
3283.4728383114807,3175
3285.1480358976296,3179
3286.8229749253996,3271
3288.4976557197333,3219
3290.172078605655,3159
3291.846243908266,3161
3293.5201519527463,3153
3295.193803064357,3077
3296.8671975684374,3024
3298.5403357904024,3185
3300.21321805575,3137
3301.8858446900567,3180
3303.558216018975,3144
3305.23033236824,3226
3306.9021940636603,3180
3308.57380143113,3129
3310.2451547966184,3167
3311.916254486174,3238
3313.5871008259246,3175
3315.2576941420766,3227
3316.9280347609147,3117
3318.5981230088046,3102
3320.2679592121895,3100
3321.9375436975924,3079
3323.606876791612,3105
3325.27595882093,3112
3326.944790112305,3172
3328.6133709925753,3151
3330.2817017886573,3177
3331.949782827547,3113
3333.617614436319,3119
3335.2851969421245,3217
3336.952530672199,3223
3338.619615953853,3234
3340.286453114475,3228
3341.9530424815357,3205
3343.619384382583,3283
3345.2854791452437,3278
3346.951327097224,3265
3348.6169285663073,3275
3350.2822838803577,3219
3351.947393367319,3262
3353.61225735521,3245
3355.2768761721345,3281
3356.9412501462693,3197
3358.605379605873,3260
3360.2692648792827,3222
3361.9329062949146,3145
3363.596304181263,3139
