CollectionTime,7/10/2024 4:15:04 PM
ExposureUsed,3
CalibratedSpectrum
-962.7078968117929,770
-959.9714848408522,801
-957.2358232597828,826
-954.5009119013725,825
-951.7667505983302,864
-949.0333391832855,866
-946.3006774887896,849
-943.5687653473143,879
-940.837602591253,884
-938.1071890529199,893
-935.3775245645503,813
-932.6486089583007,849
-929.9204420662485,823
-927.1930237203925,816
-924.4663537526524,832
-921.7404319948689,865
-919.0152582788041,905
-916.2908324361409,936
-913.5671542984834,855
-910.8442236973568,836
-908.1220404642074,854
-905.4006044304027,840
-902.679915427231,868
-899.959973285902,869
-897.2407778375464,824
-894.5223289132158,817
-891.8046263438832,833
-889.0876699604426,832
-886.3714595937089,829
-883.6559950744183,881
-880.9412762332282,799
-878.2273029007168,814
-875.5140749073835,834
-872.8015920836489,846
-870.0898542598545,849
-867.3788612662631,790
-864.6686129330585,837
-861.9591090903457,842
-859.2503495681506,821
-856.5423341964203,828
-853.8350628050229,841
-851.1285352237478,815
-848.4227512823054,830
-845.7177108103272,866
-843.0134136373656,875
-840.3098595928943,881
-837.6070485063082,867
-834.9049802069229,866
-832.2036545239757,863
-829.5030712866244,863
-826.8032303239481,828
-824.1041314649472,849
-821.4057745385428,817
-818.7081593735775,848
-816.0112857988148,884
-813.3151536429393,896
-810.6197627345566,882
-807.9251129021936,866
-805.2312039742981,876
-802.5380357792392,863
-799.8456081453069,867
-797.1539209007124,886
-794.462973873588,900
-791.772766891987,897
-789.083299783884,903
-786.3945723771743,934
-783.7065844996748,891
-781.0193359791231,933
-778.3328266431781,882
-775.6470563194197,900
-772.9620248353489,891
-770.2777320183878,877
-767.5941776958798,909
-764.9113616950891,888
-762.2292838432011,898
-759.5479439673222,889
-756.8673418944801,872
-754.1874774516235,899
-751.5083504656222,923
-748.8299607632671,929
-746.15230817127,929
-743.475392516264,908
-740.7992136248035,879
-738.1237713233636,876
-735.4490654383407,889
-732.7750957960521,904
-730.1018622227365,886
-727.4293645445534,953
-724.7576025875837,916
-722.0865761778291,946
-719.4162851412126,936
-716.7467293035781,975
-714.0779084906909,929
-711.409822528237,919
-708.7424712418238,972
-706.0758544569796,964
-703.4099719991541,980
-700.7448236937178,937
-698.0804093659622,963
-695.4167288411002,967
-692.7537819442656,972
-690.0915685005134,961
-687.4300883348199,952
-684.7693412720819,993
-682.1093271371178,986
-679.4500457546669,1020
-676.7914969493897,972
-674.1336805458676,981
-671.4765963686034,982
-668.8202442420206,1006
-666.1646239904642,1012
-663.5097354382001,960
-660.8555784094151,984
-658.2021527282176,1005
-655.5494582186366,1017
-652.8974947046223,1017
-650.2462620100463,999
-647.5957599587009,1004
-644.9459883742998,1026
-642.2969470804776,1020
-639.6486359007902,993
-637.0010546587141,1051
-634.3542031776476,1136
-631.7080812809096,1043
-629.0626887917401,1052
-626.4180255333008,1011
-623.7740913286734,1052
-621.1308860008619,1091
-618.4884093727904,1032
-615.8466612673046,1079
-613.2056415071715,1022
-610.5653499150785,1019
-607.9257863136347,1021
-605.28695052537,1104
-602.6488423727357,1054
-600.0114616781036,1019
-597.3748082637674,1052
-594.7388819519412,1063
-592.1036825647604,1080
-589.4692099242818,1116
-586.8354638524829,1066
-584.2024441712624,1090
-581.5701507024403,1091
-578.9385832677575,1133
-576.3077416888759,1079
-573.6776257873787,1057
-571.0482353847704,1093
-568.4195703024757,1095
-565.7916303618415,1041
-563.164415384135,1058
-560.5379251905453,1112
-557.9121596021815,1084
-555.2871184400748,1088
-552.6628015251767,1078
-550.0392086783606,1075
-547.4163397204204,1113
-544.794194472071,1160
-542.1727727539491,1148
-539.5520743866118,1138
-536.9320991905377,1102
-534.3128469861261,1178
-531.6943175936979,1213
-529.0765108334947,1199
-526.4594265256793,1219
-523.8430644903358,1355
-521.2274245474689,1453
-518.612506517005,1491
-515.9983102187913,1473
-513.3848354725959,1473
-510.77208209810846,1447
-508.16004991493924,1528
-505.5487387426199,1645
-502.9381484006032,1745
-500.3282787082628,1814
-497.71912948489364,1730
-495.1107005497117,1714
-492.5029917218539,1586
-489.8960028203786,1463
-487.28973366426493,1393
-484.68418407241325,1312
-482.07935386364494,1297
-479.47524285670266,1316
-476.87185087025,1324
-474.2691777228715,1271
-471.66722323307334,1274
-469.0659872192821,1281
-466.4654694998459,1314
-463.86566989303384,1339
-461.26658821703614,1273
-458.66822428996414,1296
-456.07057792985,1360
-453.4736489546475,1298
-450.877437182231,1259
-448.28194243039627,1276
-445.68716451686,1279
-443.09310325926003,1228
-440.49975847515555,1284
-437.9071299820263,1234
-435.31521759727354,1256
-432.72402113821954,1263
-430.13354042210767,1272
-427.5437752661022,1290
-424.95472548728867,1297
-422.36639090267386,1282
-419.7787713291855,1332
-417.1918665836721,1367
-414.60567648290385,1351
-412.0202008435715,1340
-409.4354394822874,1405
-406.8513922155845,1433
-404.26805885991723,1406
-401.685439231661,1339
-399.103533147112,1394
-396.522340422488,1314
-393.9418608739278,1268
-391.3620943174908,1323
-388.7830405691583,1284
-386.2046994448317,1267
-383.6270707603344,1227
-381.05015433141045,1100
-378.473949973725,1087
-375.8984575028645,1053
-373.32367673433623,902
-370.74960748356875,897
-368.1762495659117,793
-365.60360279663576,714
-363.03166699093265,630
-360.4604419639154,556
-357.8899275306178,521
-355.32012350599507,518
-352.7510297049233,510
-350.1826459421999,587
-347.61497203254316,540
-345.04800779059235,504
-342.4817530309082,491
-339.91620756797226,530
-337.35137121618743,556
-334.7872437898774,550
-332.22382510328725,493
-329.66111497058273,486
-327.09911320585127,492
-324.53781962310075,530
-321.9772340362607,562
-319.4173562591816,523
-316.8581861056348,461
-314.2997233893127,502
-311.7419679238294,456
-309.1849195227194,466
-306.62857799943856,558
-304.0729431673641,568
-301.51801483979375,514
-298.963792829947,521
-296.41027695096386,504
-293.85746701590574,586
-291.3053628377552,579
-288.7539642294155,517
-286.2032710037115,571
-283.65328297338897,560
-281.1039999511146,564
-278.5554217494762,577
-276.007548180983,568
-273.4603790580651,544
-270.9139141930734,519
-268.3681533982807,520
-265.8230964858798,556
-263.27874326798565,587
-260.7350935566336,598
-258.1921471637804,615
-255.6499039013039,652
-253.10836358100266,707
-250.56752601459698,679
-248.02739101372765,615
-245.48795838995704,665
-242.94922795476816,654
-240.41119951956557,681
-237.8738728956746,714
-235.33724789434166,713
-232.80132432673452,711
-230.2661020039418,734
-227.73158073697357,723
-225.19776033676033,757
-222.66464061415422,761
-220.1322213799284,841
-217.60050244477725,714
-215.06948361931552,769
-212.53916471408013,759
-210.00954553952818,786
-207.48062590603843,807
-204.9524056239104,702
-202.4248845033651,717
-199.8980623545441,699
-197.37193898751036,719
-194.84651421224817,798
-192.32178783866232,776
-189.79775967657952,720
-187.27442953574644,773
-184.7517972258321,936
-182.2298625564256,893
-179.7086253370378,770
-177.18808537710026,756
-174.66824248596583,798
-172.14909647290835,870
-169.6306471471229,890
-167.11289431772548,845
-164.59583779375328,849
-162.07947738416453,835
-159.5638128978386,896
-157.04884414357605,1061
-154.53457093009854,983
-152.02099306604828,1021
-149.50811035998936,890
-146.99592262040665,883
-144.48442965570587,1054
-141.97363127421409,976
-139.46352728417958,968
-136.95411749377126,1060
-134.44540171107985,1073
-131.93737974411636,1063
-129.43005140081357,1310
-126.92341648902493,1620
-124.41747481652521,1627
-121.91222619101006,1543
-119.40767042009657,1658
-116.90380731132257,2290
-114.40063667214702,2600
-111.8981583099503,4128
-109.3963720320337,7559
-106.89527764561933,11232
-104.39487495785067,13453
-101.89516377579241,11725
-99.39614390642998,11860
-96.89781515667039,16732
-94.40017733334128,23565
-91.90323024319173,28374
-89.40697369289148,23930
-86.91140748903172,13094
-84.41653143812482,8065
-81.92234534660395,10534
-79.42884902082358,15609
-76.93604226705907,18359
-74.4439248915071,18642
-71.95249670028534,20398
-69.46175749943245,19769
-66.97170709490854,18021
-64.48234529259423,15819
-61.99367189829195,13282
-59.50568671772464,10255
-57.01838955653636,7026
-54.53178022029283,6949
-52.045858514480074,7432
-49.560624244506016,7850
-47.07607721569923,9015
-44.59221723330904,10405
-42.10904410250669,11509
-39.62655762838392,10903
-37.14475761595372,10762
-34.66364387015028,11561
-32.18321619582866,11586
-29.70347439776515,13797
-27.224418280657005,14159
-24.74604764912317,16539
-22.26836230770266,20755
-19.7913620608565,31347
-17.315046712966478,53337
-14.83941606833514,65040
-12.36446993118659,65040
-9.89020810566592,65040
-7.416630395839093,65040
-4.94373660569363,65040
-2.471526539137585,65040
-6.821210263296962E-13,65040
2.47084320796705,65040
4.941003281093458,65040
7.410480415786196,65040
9.879274808531363,65040
12.347386655893956,65040
14.814816154518212,65040
17.28156350112681,65040
19.74762889252179,65040
22.21301252558385,65040
24.67771459727237,21635
27.141735304626195,4513
29.605074844762612,4163
32.06773341487792,3510
34.52971121224755,2348
36.99100843422559,2488
39.45162527824516,2629
41.91156194181792,1933
44.370818622535126,2044
46.82939551806646,1779
49.287292826160524,1894
51.74451074464503,2515
54.201049471426245,2115
56.65690920448981,1408
59.112090141899785,1333
61.56659248179983,1439
64.02041642241159,1968
66.4735621620365,2001
68.92602989905402,1868
71.37781983192338,1872
73.82893215918205,1767
76.27936707944684,1312
78.72912479141326,1411
81.17820549385567,1341
83.62660938562783,1328
86.07433666566146,1435
88.5213875329681,1241
90.96776218663751,1172
93.41346082583925,1228
95.85848364982041,1390
98.30283085790859,1566
100.7465026495089,1207
103.18949922410604,1350
105.63182078126385,1391
108.07346752062438,1284
110.51443964190923,1188
112.95473734491827,1139
115.39436082953114,1219
117.83331029570547,1084
120.27158594347827,1030
122.7091879729652,1057
125.1461165843615,1148
127.58237197794062,1159
130.01795435405518,969
132.4528639131364,1043
134.88710085569494,1093
137.32066538231982,1059
139.75355769367923,1158
142.1857779905207,1085
144.61732647366978,917
147.04820334403132,882
149.47840880258934,953
151.90794305040674,977
154.33680628862487,1077
156.76499871846443,1254
159.19252054122433,1333
161.61937195828352,1471
164.04555317109896,1598
166.47106438120693,1904
168.89590579022217,2063
171.320077599839,2103
173.7435800118302,2288
176.16641322804742,2397
178.58857745042144,2540
181.01007288096173,2535
183.43089972175687,2701
185.85105817497413,2647
188.27054844285988,2640
190.6893707277394,2796
193.10752523201643,2911
195.5250121581745,2842
197.9418317087751,2996
200.3579840864594,2979
202.7734694939469,2985
205.18828813403627,3091
207.6024402096051,3264
210.01592592360964,3276
212.42874547908548,3130
214.84089907914665,3134
217.2523869269868,3115
219.66320922587727,3099
222.0733661791695,3119
224.48285799029293,3171
226.8916848627572,3152
229.29984700014882,3118
231.7073446061355,3248
234.11417788446204,3200
236.520347038953,3268
238.92585227351185,3316
241.33069379212054,3311
243.73487179884035,3303
246.1383864978112,3332
248.541238093252,3310
250.9434267894609,3319
253.34495279081432,3272
255.74581630176783,3397
258.1460175268563,3325
260.54555667069314,3252
262.9444339379703,3395
265.3426495334594,3395
267.7402036620107,3382
270.1370965285529,3244
272.53332833809407,3248
274.9288992957214,3121
277.32380960660055,3095
279.718059475976,3089
282.1116491091717,3029
284.5045787115897,3049
286.89684848871195,3126
289.2884586460981,3050
291.67940938938807,3089
294.0697009242996,3083
296.4593334566299,3076
298.84830719225477,3071
301.23662233712923,3030
303.6242790972866,2970
306.01127767884,3028
308.39761828798066,2900
310.78330113097934,3000
313.16832641418534,2889
315.5526943440269,2915
317.9364051270112,2845
320.3194589697242,2873
322.70185607883093,2940
325.0835966610754,2907
327.4646809232805,2821
329.8451090723478,2817
332.2248813152577,2805
334.6039978590701,2860
336.9824589109231,2771
339.36026467803447,2771
341.7374153677,2808
344.113911187295,2756
346.48975234427337,2782
348.8649390461686,2861
351.2394715005918,2708
353.61334991523415,2696
355.9865744978655,2773
358.35914545633375,2690
360.73106299856715,2804
363.10232733257146,2762
365.47293866643247,2705
367.84289720831396,2718
370.2122031664593,2668
372.5808567491905,2733
374.9488581649083,2709
377.31620762209275,2682
379.6829053293021,2703
382.0489514951745,2732
384.4143463284262,2620
386.7790900378528,2619
389.14318283232853,2529
391.50662492080653,2648
393.86941651231916,2719
396.23155781597745,2658
398.5930490409713,2634
400.9538903965696,2772
403.3140820921202,2683
405.6736243370498,2619
408.03251734086336,2607
410.3907613131465,2636
412.74835646356166,2645
415.10530300185144,2618
417.4616011378372,2623
419.81725108141893,2554
422.1722530425758,2634
424.5266072313656,2613
426.880313857925,2555
429.2333731324701,2636
431.58578526529516,2675
433.9375504667738,2653
436.2886689473588,2615
438.63914091758113,2563
440.9889665880513,2564
443.33814616945835,2662
445.68667987257015,2532
448.03456790823395,2558
450.3818104873759,2513
452.72840782100013,2562
455.07436012019105,2572
457.41966759611057,2545
459.7643304600007,2507
462.10834892318155,2520
464.4517231970525,2503
466.79445349309174,2517
469.1365400228566,2631
471.4779829979826,2584
473.81878263018564,2522
476.15893913125876,2557
478.4984527130747,2604
480.8373235875855,2687
483.17555196682144,2681
485.5131380628919,2683
487.8500820879857,2787
490.1863842543697,2788
492.52204477439034,2882
494.8570638604725,3058
497.1914417251204,3286
499.52517858091653,3506
501.85827464052306,3764
504.19073011668036,3806
506.5225452222086,3776
508.85372017000566,3757
511.18425517304956,3738
513.514150444396,3884
515.8434061971808,4454
518.1720226446176,5152
520.4999999999999,5345
522.8273384766991,5308
525.1540382881666,4995
527.480099647932,4446
529.8055227696037,3985
532.1303078668694,3338
534.454455153496,3065
536.777964843328,2904
539.1008371502907,2799
541.4230722883866,2708
543.744670471698,2740
546.0656319143858,2730
548.3859568306899,2714
550.7056454349294,2682
553.0246979415016,2708
555.3431145648834,2680
557.6608955196306,2646
559.978041020377,2553
562.2945512818363,2589
564.6104265188006,2701
566.9256669461412,2822
569.2402727788082,2668
571.5542442318302,2800
573.8675815203156,2735
576.1802848594508,2772
578.4923544645015,2729
580.8037905508126,2799
583.114593333807,2774
585.4247630289875,2838
587.7342998519354,2673
590.0432040183106,2841
592.3514757438526,2721
594.6591152443794,2746
596.9661227357875,2733
599.2724984340531,2661
601.578242555231,2788
603.8833553154542,2752
606.1878369309362,2778
608.4916876179676,2710
610.7949075929192,2759
613.0974970722403,2745
615.3994562724587,2785
617.7007854101818,2707
620.0014847020951,2724
622.3015543649641,2733
624.6009946156324,2683
626.8998056710224,2760
629.1979877481361,2728
631.4955410640538,2697
633.7924658359349,2714
636.0887622810175,2708
638.3844306166192,2843
640.6794710601358,2761
642.9738838290426,2767
645.2676691408932,2718
647.5608272133207,2811
649.853358264037,2748
652.1452625108324,2815
654.4365401715764,2749
656.7271914642178,2792
659.0172166067838,2736
661.3066158173809,2791
663.5953893141935,2783
665.8835373154867,2727
668.1710600396028,2761
670.4579577049639,2717
672.7442305300709,2764
675.0298787335033,2778
677.3149025339197,2792
679.599302150058,2768
681.8830778007342,2751
684.1662297048437,2763
686.4487580813608,2731
688.7306631493387,2822
691.0119451279091,2788
693.2926042362834,2803
695.5726406937516,2781
697.8520547196814,2813
700.1308465335215,2730
702.4090163547982,2828
704.6865644031171,2791
706.9634908981619,2782
709.2397960596965,2747
711.5154801075631,2852
713.7905432616823,2747
716.0649857420548,2735
718.3388077687592,2808
720.612009561953,2810
722.8845913418733,2674
725.1565533288352,2821
727.427895743234,2825
729.6986188055427,2777
731.9687227363137,2762
734.238207756178,2814
736.5070740858458,2723
738.7753219461066,2813
741.0429515578281,2818
743.3099631419569,2827
745.5763569195191,2780
747.8421331116193,2713
750.1072919394409,2816
752.3718336242467,2846
754.6357583873777,2921
756.8990664502545,2895
759.1617580343765,2878
761.423833361321,2761
763.6852926527457,2787
765.9461361303862,2809
768.206364016058,2825
770.4659765316536,2898
772.7249738991469,2853
774.9833563405886,2870
777.2411240781092,2875
779.4982773339183,2904
781.7548163303044,2822
784.010741289634,2887
786.2660524343538,2910
788.5207499869881,2918
790.7748341701416,2799
793.0283052064964,2880
795.2811633188143,2887
797.5334087299362,2878
799.7850416627813,2888
802.0360623403484,2861
804.2864709857143,2878
806.5362678220353,2920
808.7854530725468,2862
811.0340269605625,2846
813.2819897094754,2905
815.5293415427581,2842
817.77608268396,2811
820.0222133567116,2932
822.2677337847211,2865
824.5126441917765,2811
826.7569448017433,2887
829.0006358385675,2814
831.2437175262731,2944
833.4861900889629,2950
835.7280537508192,2890
837.9693087361026,2869
840.2099552691533,2793
842.4499935743896,2839
844.689423876309,2888
846.9282463994886,2917
849.1664613685833,2936
851.4040690083276,2823
853.6410695435349,2895
855.877463199097,2985
858.1132501999847,2912
860.3484307712487,2898
862.5830051380175,2792
864.8169735254988,2899
867.0503361589791,2891
869.2830932638243,2946
871.5152450654786,2840
873.7467917894654,2959
875.9777336613873,2965
878.2080709069252,2936
880.4378037518389,2924
882.666932421968,3018
884.8954571432301,2986
887.1233781416219,2898
889.3506956432192,2929
891.5774098741766,3008
893.803521060728,3045
896.0290294291852,2994
898.2539352059397,2922
900.4782386174619,2890
902.7019398903011,2953
904.925039251085,2986
907.147536926521,2954
909.3694331433943,2880
911.59072812857,2880
913.8114221089921,2825
916.0315153116827,2865
918.2510079637437,2965
920.4699002923547,2908
922.6881925247761,2922
924.905884888345,2804
927.1229776104793,2857
929.3394709186747,2909
931.555365040506,2838
933.7706602036275,2891
935.9853566357709,2786
938.1994545647489,2986
940.4129542184515,2824
942.6258558248488,2927
944.8381596119883,2850
947.0498658079974,2872
949.2609746410825,2885
951.4714863395287,2885
953.6814011316998,2868
955.8907192460387,2826
958.0994409110671,2826
960.3075663553858,2833
962.5150958076741,2874
964.7220294966913,2965
966.928367651274,2916
969.1341105003388,2893
971.3392582728806,2797
973.5438111979742,2791
975.747769504772,2863
977.9511334225061,2825
980.153903180487,2756
982.3560790081052,2812
984.5576611348289,2870
986.7586497902058,2831
988.9590452038618,2809
991.158847605503,2773
993.3580572249133,2763
995.5566742919558,2729
997.7546990365728,2782
999.952131688785,2650
1002.1489724786926,2677
1004.3452216364743,2661
1006.5408793923874,2665
1008.7359459767691,2673
1010.9304216200343,2674
1013.1243065526781,2651
1015.3176010052733,2647
1017.510305208472,2624
1019.7024193930064,2645
1021.8939437896848,2621
1024.0848786293977,2671
1026.2752241431122,2591
1028.4649805618747,2731
1030.6541481168115,2585
1032.842727039127,2600
1035.0307175601051,2591
1037.2181199111074,2590
1039.4049343235752,2690
1041.591161029029,2540
1043.7768002590683,2554
1045.9618522453698,2612
1048.1463172196918,2694
1050.3301954138697,2634
1052.513487059818,2666
1054.69619238953,2648
1056.8783116350783,2618
1059.0598450286152,2628
1061.2407928023704,2607
1063.4211551886528,2646
1065.6009324198508,2550
1067.780124728432,2635
1069.9587323469414,2567
1072.1367555080046,2625
1074.314194444325,2529
1076.4910493886855,2596
1078.667320573947,2529
1080.843008233051,2493
1083.0181125990161,2611
1085.1926339049414,2642
1087.3665723840027,2610
1089.5399282694575,2634
1091.7127017946405,2544
1093.8848931929647,2470
1096.0565026979243,2563
1098.2275305430899,2580
1100.3979769621128,2476
1102.567842188722,2588
1104.737126456726,2567
1106.9058300000124,2603
1109.0739530525475,2549
1111.2414958483764,2635
1113.4084586216231,2553
1115.5748416064907,2586
1117.7406450372605,2498
1119.9058691482942,2555
1122.0705141740304,2527
1124.2345803489884,2556
1126.3980679077658,2539
1128.5609770850388,2535
1130.7233081155623,2564
1132.8850612341707,2639
1135.0462366757774,2495
1137.2068346753745,2531
1139.3668554680326,2582
1141.526299288901,2509
1143.68516637321,2506
1145.8434569562655,2596
1148.001171273455,2510
1150.158309560244,2608
1152.3148720521767,2591
1154.470858984876,2495
1156.626270594044,2545
1158.7811071154629,2498
1160.9353687849912,2505
1163.089055838569,2580
1165.242168512213,2605
1167.3947070420209,2586
1169.5466716641677,2500
1171.6980626149075,2528
1173.8488801305748,2443
1175.9991244475814,2520
1178.1487958024186,2578
1180.2978944316555,2508
1182.4464205719428,2545
1184.5943744600072,2495
1186.7417563326567,2438
1188.8885664267755,2577
1191.0348049793297,2530
1193.1804722273619,2542
1195.325568407995,2589
1197.4700937584303,2557
1199.614048515948,2517
1201.7574329179074,2551
1203.900247201746,2582
1206.042491604982,2476
1208.1841663652099,2509
1210.3252717201053,2519
1212.465807907422,2604
1214.6057751649923,2548
1216.7451737307279,2583
1218.8840038426192,2611
1221.0222657387353,2656
1223.1599596572241,2591
1225.2970858363137,2579
1227.4336445143094,2572
1229.5696359295966,2553
1231.705060320639,2655
1233.8399179259786,2682
1235.9742089842384,2595
1238.107933734118,2537
1240.2410924143974,2559
1242.373685263935,2631
1244.5057125216676,2572
1246.6371744266116,2576
1248.7680712178621,2652
1250.898403134593,2588
1253.028170416058,2630
1255.1573733015875,2671
1257.2860120305932,2580
1259.4140868425648,2613
1261.54159797707,2684
1263.6685456737569,2660
1265.7949301723515,2696
1267.9207517126597,2642
1270.046010534565,2661
1272.1707068780306,2658
1274.2948409830983,2600
1276.4184130898889,2633
1278.541423438603,2697
1280.6638722695184,2680
1282.785759822993,2645
1284.9070863394636,2781
1287.0278520594447,2634
1289.1480572235314,2742
1291.2677020723963,2729
1293.3867868467923,2707
1295.5053117875495,2642
1297.623277135579,2803
1299.740683131868,2792
1301.8575300174857,2754
1303.973818033578,2713
1306.0895474213703,2895
1308.2047184221678,2775
1310.3193312773528,2822
1312.4333862283888,2767
1314.5468835168163,2798
1316.659823384255,2808
1318.7722060724045,2752
1320.8840318230418,2817
1322.9953008780249,2884
1325.1060134792888,2804
1327.2161698688478,2822
1329.3257702887959,2749
1331.4348149813054,2746
1333.5433041886276,2739
1335.6512381530933,2863
1337.7586171171101,2800
1339.8654413231675,2745
1341.9717110138317,2757
1344.0774264317488,2712
1346.1825878196432,2676
1348.2871954203192,2772
1350.3912494766587,2740
1352.4947502316231,2749
1354.5976979282532,2750
1356.7000928096686,2764
1358.8019351190665,2726
1360.9032250997243,2724
1363.0039629949988,2863
1365.1041490483235,2677
1367.2037835032133,2788
1369.3028666032606,2727
1371.401398592137,2728
1373.4993797135926,2762
1375.5968102114575,2740
1377.6936903296396,2821
1379.7900203121262,2740
1381.8858004029835,2802
1383.9810308463561,2800
1386.075711886469,2781
1388.1698437676241,2825
1390.2634267342032,2758
1392.356461030667,2732
1394.4489469015557,2781
1396.5408845914872,2850
1398.6322743451592,2763
1400.7231164073469,2812
1402.813411022907,2814
1404.903158436773,2909
1406.9923588939578,2829
1409.0810126395531,2824
1411.1691199187303,2844
1413.2566809767386,2859
1415.343696058907,2865
1417.4301654106425,2888
1419.5160892774315,2859
1421.6014679048399,2829
1423.6863015385125,2809
1425.7705904241707,2865
1427.8543348076178,2867
1429.9375349347342,2921
1432.0201910514802,2808
1434.102303403894,2934
1436.1838722380944,2832
1438.2648978002767,2969
1440.3453803367174,2931
1442.4253200937692,2950
1444.5047173178677,2928
1446.5835722555234,3014
1448.6618851533285,2916
1450.739656257952,3084
1452.8168858161434,3048
1454.8935740747306,3033
1456.96972128062,3065
1459.045327680797,2990
1461.120393522327,3167
1463.1949190523528,2997
1465.2689045180973,3108
1467.3423501668608,3122
1469.415256246024,3165
1471.4876230030463,3214
1473.559450685465,3188
1475.6307395408976,3337
1477.7014898170391,3329
1479.771701761665,3311
1481.8413756226287,3248
1483.9105116478618,3320
1485.9791100853772,3271
1488.0471711832643,3302
1490.1146951896926,3435
1492.1816823529098,3429
1494.2481329212433,3443
1496.3140471430984,3530
1498.3794252669609,3579
1500.4442675413939,3544
1502.5085742150404,3505
1504.572345536622,3502
1506.6355817549388,3521
1508.6982831188702,3549
1510.7604498773744,3606
1512.8220822794883,3509
1514.8831805743293,3619
1516.9437450110909,3597
1519.003775839048,3709
1521.0632733075522,3705
1523.1222376660367,3737
1525.1806691640113,3751
1527.2385680510652,3814
1529.2959345768668,3718
1531.3527689911643,3788
1533.4090715437833,3758
1535.4648424846291,3933
1537.5200820636855,3929
1539.5747905310159,3889
1541.6289681367616,3990
1543.6826151311434,3977
1545.7357317644614,4006
1547.7883182870937,4038
1549.8403749494987,4056
1551.8919020022113,4070
1553.9428996958477,4235
1555.9933682811015,4296
1558.0433080087469,4096
1560.0927191296346,4211
1562.1416018946961,4316
1564.1899565549415,4322
1566.2377833614592,4218
1568.2850825654164,4232
1570.3318544180606,4185
1572.3780991707158,4106
1574.423817074788,4083
1576.4690083817595,4040
1578.5136733431923,3931
1580.5578122107272,3787
1582.601425236085,3663
1584.6445126710646,3582
1586.6870747675434,3591
1588.7291117774776,3531
1590.7706239529034,3422
1592.8116115459347,3348
1594.8520748087658,3234
1596.8920139936686,3201
1598.9314293529933,3100
1600.9703211391711,3198
1603.008689604711,3181
1605.0465350022005,3149
1607.0838575843068,3114
1609.1206576037753,3067
1611.1569353134305,2982
1613.1926909661765,3069
1615.2279248149953,3002
1617.2626371129481,2956
1619.2968281131757,2992
1621.3304980688963,2899
1623.3636472334088,2884
1625.39627586009,2935
1627.428384202396,2881
1629.459972513861,2867
1631.4910410480993,2908
1633.5215900588028,2844
1635.551619799744,2846
1637.5811305247717,2847
1639.6101224878166,2713
1641.6385959428862,2780
1643.6665511440683,2853
1645.693988345528,2857
1647.7209078015112,2753
1649.7473097663405,2718
1651.7731944944203,2817
1653.7985622402307,2745
1655.823413258333,2831
1657.847747803366,2859
1659.8715661300494,2837
1661.8948684931793,2789
1663.9176551476316,2769
1665.9399263483624,2730
1667.9616823504057,2849
1669.982923408873,2717
1672.0036497789574,2772
1674.0238617159293,2837
1676.043559475138,2800
1678.0627433120121,2707
1680.081413482059,2726
1682.0995702408654,2744
1684.117213844096,2755
1686.134344547495,2808
1688.1509626068864,2782
1690.1670682781705,2811
1692.182661817329,2783
1694.1977434804217,2688
1696.2123135235875,2691
1698.226372203043,2659
1700.2399197750851,2732
1702.2529564960905,2736
1704.2654826225112,2795
1706.277498410882,2788
1708.2890041178139,2697
1710.2999999999988,2830
1712.3104863142066,2748
1714.3204633172854,2735
1716.329931266163,2770
1718.3388904178469,2703
1720.3473410294214,2796
1722.3552833580516,2723
1724.3627176609807,2802
1726.3696441955308,2746
1728.3760632191033,2760
1730.3819749891782,2743
1732.3873797633146,2742
1734.3922777991502,2765
1736.3966693544012,2715
1738.4005546868639,2739
1740.4039340544127,2776
1742.406807715001,2769
1744.4091759266616,2788
1746.4110389475054,2716
1748.4123970357223,2681
1750.413250449582,2779
1752.4135994474318,2700
1754.4134442876993,2680
1756.4127852288902,2640
1758.4116225295893,2696
1760.4099564484595,2757
1762.407787244244,2675
1764.405115175764,2742
1766.4019405019203,2745
1768.3982634816916,2691
1770.3940843741357,2711
1772.3894034383907,2709
1774.3842209336717,2745
1776.378537119274,2696
1778.372352254571,2660
1780.3656665990156,2666
1782.3584804121397,2748
1784.3507939535534,2755
1786.3426074829463,2758
1788.3339212600863,2691
1790.3247355448211,2743
1792.3150505970766,2757
1794.3048666768573,2694
1796.2941840442477,2710
1798.2830029594106,2692
1800.2713236825884,2737
1802.2591464741004,2770
1804.2464715943465,2712
1806.2332993038058,2695
1808.2196298630352,2764
1810.2054635326708,2688
1812.190800573428,2675
1814.175641246101,2725
1816.1599858115628,2694
1818.1438345307652,2784
1820.127187664738,2778
1822.1100454745924,2630
1824.092408221516,2690
1826.0742761667766,2697
1828.055649571721,2731
1830.0365286977735,2758
1832.0169138064398,2695
1833.9968051593014,2685
1835.9762030180214,2796
1837.9551076443408,2783
1839.9335193000788,2802
1841.9114382471344,2725
1843.888864747485,2717
1845.8657990631878,2752
1847.842241456378,2666
1849.8181921892697,2717
1851.7936515241558,2665
1853.7686197234098,2668
1855.7430970494815,2667
1857.7170837649014,2772
1859.6905801322787,2747
1861.6635864143004,2763
1863.6361028737338,2744
1865.608129773424,2826
1867.5796673762961,2725
1869.5507159453537,2792
1871.521275743678,2779
1873.4913470344313,2811
1875.4609300808534,2713
1877.4300251462632,2829
1879.3986324940588,2689
1881.366752387717,2848
1883.3343850907936,2728
1885.3015308669228,2833
1887.268189979819,2822
1889.2343626932739,2818
1891.2000492711595,2730
1893.1652499774254,2716
1895.1299650761011,2806
1897.0941948312952,2681
1899.0579395071945,2796
1901.0211993680641,2757
1902.98397467825,2809
1904.9462657021745,2794
1906.9080727043415,2717
1908.869395949332,2806
1910.8302357018065,2789
1912.790592226504,2698
1914.7504657882428,2705
1916.7098566519212,2695
1918.6687650825133,2751
1920.6271913450764,2711
1922.5851357047422,2780
1924.5425984267245,2916
1926.499579776314,2723
1928.4560800188833,2774
1930.4120994198802,2713
1932.367638244833,2756
1934.32269675935,2792
1936.2772752291175,2674
1938.231373919899,2712
1940.1849930975404,2767
1942.1381330279637,2737
1944.0907939771696,2807
1946.0429762112412,2726
1947.9946799963363,2700
1949.9459055986945,2721
1951.896653284633,2792
1953.8469233205478,2766
1955.7967159729142,2729
1957.7460315082863,2827
1959.6948701932974,2804
1961.6432322946594,2802
1963.5911180791632,2751
1965.5385278136787,2728
1967.4854617651545,2790
1969.4319202006182,2731
1971.377903387176,2751
1973.3234115920136,2811
1975.268445082395,2800
1977.2130041256642,2802
1979.1570889892423,2757
1981.1006999406304,2876
1983.04383724741,2836
1984.986501177238,2836
1986.928691997853,2791
1988.8704099770712,2762
1990.811655382789,2694
1992.7524284829801,2787
1994.692729545698,2707
1996.6325588390755,2806
1998.5719166313224,2817
2000.5108031907307,2845
2002.4492187856677,2796
2004.387163684583,2744
2006.3246381560011,2850
2008.2616424685298,2760
2010.1981768908527,2795
2012.1342416917332,2791
2014.069837140014,2816
2016.0049635046162,2787
2017.9396210545406,2715
2019.8738100588666,2696
2021.8075307867502,2690
2023.740783507431,2786
2025.6735684902228,2703
2027.6058860045214,2682
2029.5377363198004,2859
2031.4691197056118,2815
2033.4000364315875,2824
2035.3304867674374,2731
2037.260470982952,2698
2039.189989347998,2675
2041.1190421325232,2720
2043.047629606554,2752
2044.9757520401945,2756
2046.9034097036288,2763
2048.8306028671195,2805
2050.7573318010086,2748
2052.683596775716,2775
2054.609398061742,2768
2056.5347359296647,2802
2058.4596106501403,2758
2060.384022493906,2664
2062.3079717317764,2729
2064.231458634646,2798
2066.1544834734873,2840
2068.077046519352,2869
2069.99914804337,2763
2071.9207883167524,2756
2073.8419676107865,2800
2075.7626861968406,2776
2077.6829443463607,2823
2079.6027423308715,2837
2081.522080421977,2898
2083.440958891362,2718
2085.359378010786,2705
2087.2773380520907,2817
2089.194839287196,2817
2091.111881988101,2804
2093.0284664268825,2774
2094.9445928756973,2804
2096.86026160678,2748
2098.775472892446,2834
2100.690227005088,2817
2102.604524217178,2880
2104.5183648012676,2771
2106.431749029985,2822
2108.34467717604,2829
2110.2571495122206,2849
2112.169166311393,2770
2114.080727846503,2861
2115.9918343905747,2798
2117.902486216711,2750
2119.8126835980956,2833
2121.722426807987,2831
2123.6317161197285,2902
2125.5405518067364,2948
2127.448934142509,2927
2129.356863400624,2946
2131.264339854737,2861
2133.1713637785815,2864
2135.077935445972,2852
2136.9840551308002,2851
2138.889723107037,2891
2140.7949396487334,2902
2142.699705030018,2839
2144.6040195250994,2998
2146.507883408264,2885
2148.4112969538774,2859
2150.3142604363848,2851
2152.2167741303097,2918
2154.1188383102535,2797
2156.0204532508997,2944
2157.9216192270064,2953
2159.822336513414,2877
2161.7226053850413,2861
2163.622426116884,2897
2165.5217989840185,2920
2167.4207242616,2955
2169.319202224862,2845
2171.2172331491165,2873
2173.1148173097563,3002
2175.0119549822507,2804
2176.90864644215,2952
2178.8048919650823,2948
2180.7006918267534,2877
2182.596046302952,2971
2184.4909556695407,2884
2186.3854202024645,3010
2188.279440177746,2872
2190.173015871487,2975
2192.066147559868,2980
2193.958835519149,2907
2195.851080025667,2956
2197.7428813558417,2912
2199.6342397861667,2922
2201.5251555932186,2972
2203.415629053651,2938
2205.3056604441986,2941
2207.19525004167,2946
2209.084398122958,2960
2210.9731049650327,2937
2212.861370844941,3017
2214.749196039812,2979
2216.636580826851,2964
2218.523525483344,3008
2220.410030286655,3090
2222.296095514226,2865
2224.1817214435805,2966
2226.066908352319,2918
2227.951656518121,2978
2229.835966218746,2929
2231.71983773203,3025
2233.6032713358913,2956
2235.486267308324,3065
2237.3688259274036,2930
2239.2509474712824,3060
2241.132632218193,2944
2243.013880446447,2961
2244.8946924344323,2968
2246.7750684606203,2957
2248.6550088035574,3041
2250.534513741871,3013
2252.413583554265,2920
2254.292218519526,2950
2256.170418916517,2875
2258.0481850241786,2978
2259.925517121534,2889
2261.8024154876825,2836
2263.678880401803,2991
2265.5549121431536,2987
2267.430510991071,2964
2269.305677224971,3002
2271.180411124348,3081
2273.0547129687766,3017
2274.9285830379076,3007
2276.8020216114737,2948
2278.6750289692845,2952
2280.5476053912294,2831
2282.4197511572766,2933
2284.2914665474727,2974
2286.162751841943,3013
2288.0336073208937,2946
2289.904033264608,3039
2291.774029953448,2966
2293.6435976678554,2975
2295.5127366883517,2921
2297.381447295534,2911
2299.2497297700825,2906
2301.1175843927526,2942
2302.9850114443825,2852
2304.852011205885,2925
2306.7185839582553,2923
2308.5847299825664,2850
2310.4504495599676,2758
2312.3157429716925,2772
2314.1806104990483,2826
2316.0450524234247,2790
2317.9090690262888,2910
2319.772660589186,2807
2321.635827393742,2911
2323.498569721661,2869
2325.3608878547248,2766
2327.2227820747967,2737
2329.0842526638157,2818
2330.945299903803,2860
2332.805924076857,2818
2334.6661254651535,2901
2336.525904350951,2831
2338.3852610165827,2884
2340.244195744464,2803
2342.102708817088,2939
2343.9608005170253,2930
2345.8184711269287,2909
2347.675720929526,2894
2349.532550207628,2808
2351.38895924412,2944
2353.24494832197,2809
2355.100517724223,2838
2356.955667734004,2867
2358.810398634514,2826
2360.664710709037,2816
2362.5186042409337,2796
2364.3720795136437,2853
2366.225136810686,2801
2368.0777764156583,2860
2369.929998612237,2857
2371.7818036841777,2869
2373.633191915315,2893
2375.484163589562,2873
2377.3347189909114,2798
2379.184858403434,2872
2381.03458211128,2904
2382.8838903986775,2867
2384.732783549936,2900
2386.5812618494406,2929
2388.4293255816588,2803
2390.2769750311327,2909
2392.1242104824883,2860
2393.971032220427,2897
2395.8174405297295,2867
2397.6634356952563,2879
2399.509018001947,2943
2401.3541877348193,2947
2403.1989451789705,2836
2405.043290619576,2875
2406.8872243418905,2842
2408.730746631247,2833
2410.5738577730594,2870
2412.4165580528183,2877
2414.258847756095,2869
2416.100727168537,2895
2417.9421965758734,2916
2419.783256263912,2915
2421.623906518538,2910
2423.4641476257157,2900
2425.303979871491,2942
2427.143403541984,2894
2428.9824189233977,2906
2430.821026302012,2816
2432.6592259641866,2878
2434.497018196361,2933
2436.33440328505,2877
2438.171381516851,2799
2440.00795317844,2918
2441.844118556569,2948
2443.6798779380724,2903
2445.5152316098606,2897
2447.3501798589255,2844
2449.1847229723357,2969
2451.0188612372403,2983
2452.8525949408663,2870
2454.6859243705203,2815
2456.518849813587,2923
2458.3513715575314,2978
2460.183489889895,2928
2462.015205098301,2842
2463.8465174704493,2894
2465.67742729412,2916
2467.5079348571717,2923
2469.338040447542,2905
2471.1677443532476,3004
2472.9970468623833,3035
2474.825948263123,2924
2476.6544488437207,2888
2478.482548892508,2973
2480.310248697896,2953
2482.137548548374,2900
2483.9644487325118,2931
2485.790949538956,2879
2487.617051256433,2955
2489.44275417375,2847
2491.26805857979,2910
2493.0929647635157,2876
2494.917473013971,3040
2496.741583620276,3040
2498.5652968716304,2923
2500.3886130573137,2986
2502.2115324666834,2942
2504.0340553891765,2965
2505.856182114308,2890
2507.6779129316733,2994
2509.499248130945,2953
2511.3201880018764,3001
2513.140732834298,2994
2514.9608829181198,2904
2516.780638543331,2971
2518.6,2911
2520.418967578273,2920
2522.237541568376,2968
2524.0557222606144,2916
2525.8735099453706,3012
2527.6909049131086,2994
2529.507907454368,3070
2531.32451785977,3074
2533.140736420014,2973
2534.9565634258774,3017
2536.771999168218,2993
2538.5870439379714,3009
2540.4016980261526,3035
2542.2159617238544,3050
2544.02983532225,3168
2545.8433191125914,3072
2547.656413386209,3066
2549.4691184345115,3111
2551.2814345489874,3090
2553.093362021204,3063
2554.904901142808,3110
2556.716052205523,3084
2558.526815501153,3112
2560.3371913215824,3120
2562.147179958771,3117
2563.956781704761,3095
2565.7659968516705,3100
2567.5748256916986,3170
2569.3832685171224,3145
2571.1913256202984,3132
2572.9989972936614,3223
2574.806283829725,3161
2576.613185521084,3215
2578.4197026604074,3203
2580.2258355404483,3190
2582.031584454035,3133
2583.836949694077,3256
2585.6419315535613,3150
2587.4465303255533,3219
2589.2507463032002,3159
2591.0545797797245,3213
2592.8580310484303,3264
2594.6611004026995,3228
2596.463788135992,3241
2598.266094541849,3217
2600.0680199138874,3288
2601.869564545807,3185
2603.670728731383,3276
2605.4715127644704,3125
2607.2719169390048,3184
2609.071941548998,3242
2610.8715868885433,3253
2612.670853251811,3137
2614.469740933052,3197
2616.268250226594,3262
2618.0663814268455,3210
2619.864134828292,3231
2621.6615107255006,3251
2623.458509413115,3125
2625.2551311858597,3170
2627.0513763385347,3145
2628.8472451660223,3252
2630.6427379632833,3170
2632.4378550253564,3240
2634.232596647359,3082
2636.026963124488,3181
2637.8209547520187,3084
2639.6145718253065,3123
2641.407814639785,3090
2643.200683490966,3163
2644.9931786744414,3153
2646.7853004858807,3172
2648.577049221034,3116
2650.3684251757277,3166
2652.1594286458712,3127
2653.9500599274484,3194
2655.740319316525,3058
2657.5302071092437,3099
2659.3197236018286,3118
2661.10886909058,3137
2662.8976438718782,3143
2664.686048242183,3138
2666.4740824980327,3120
2668.2617469360443,3192
2670.0490418529134,3108
2671.8359675454153,3007
2673.622524310403,3080
2675.408712444811,2982
2677.1945322456495,3090
2678.979984010009,3081
2680.76506803506,3040
2682.5497846180497,3128
2684.334134056306,3093
2686.1181166472343,3060
2687.9017326883213,2964
2689.6849824771293,2953
2691.4678663113013,3044
2693.2503844885596,3055
2695.032537306705,3053
2696.8143250636167,3107
2698.5957480572542,3008
2700.3768065856534,3094
2702.1575009469316,2985
2703.937831439283,2984
2705.717798360982,2980
2707.4974020103837,3018
2709.276642685917,2999
2711.055520686095,2990
2712.834036309506,3017
2714.612189854819,3106
2716.389981620782,2942
2718.1674119062204,2998
2719.944481010041,2989
2721.721189231226,3047
2723.4975368688415,3012
2725.273524222027,2997
2727.0491515900053,3000
2728.824419272075,2985
2730.5993275676146,2916
2732.3738767760838,2997
2734.148067197016,3095
2735.921899130031,2975
2737.6953728748194,2993
2739.468488731156,2952
2741.2412469988926,2977
2743.0136479779617,2912
2744.785691968372,3007
2746.5573792702116,3012
2748.3287101836504,3066
2750.099685008934,3064
2751.870304046388,2997
2753.640567596418,3063
2755.4104759595057,3014
2757.1800294362156,3001
2758.949228327187,2918
2760.7180729331412,2975
2762.486563554877,2956
2764.254700493272,2909
2766.022484049284,2940
2767.789914523947,3010
2769.5569922183786,3040
2771.3237174337705,2985
2773.090090471394,2993
2774.8561116326036,3000
2776.6217812188274,3119
2778.3870995315756,2996
2780.1520668724356,3057
2781.9166835430747,3005
2783.6809498452394,2870
2785.444866080754,2920
2787.2084325515225,2976
2788.971649559527,2968
2790.73451740683,2978
2792.4970363955713,2931
2794.2592068279705,3058
2796.0210290063264,2992
2797.7825032330147,2971
2799.543629810493,3044
2801.304409041296,3008
2803.0648412280366,3099
2804.8249266734088,3007
2806.5846656801846,3036
2808.344058551212,3036
2810.1031055894246,2984
2811.8618070978273,3067
2813.6201633795085,3017
2815.378174737636,3070
2817.1358414754536,3071
2818.893163896285,3051
2820.6501423035334,2973
2822.4067770006814,3019
2824.1630682912883,3022
2825.9190164789957,3099
2827.6746218675207,2986
2829.429884760661,3004
2831.184805462294,2993
2832.9393842763743,3093
2834.693621506936,3007
2836.4475174580916,3065
2838.201072434034,3105
2839.954286739034,3112
2841.707160677441,3077
2843.459694553685,3044
2845.2118886722724,3076
2846.96374333779,3067
2848.7152588549034,2974
2850.4664355283567,3067
2852.217273662973,3076
2853.9677735636546,3074
2855.7179355353833,3078
2857.4677598832186,3059
2859.217246912299,2994
2860.9663969278427,3006
2862.715210235146,3078
2864.4636871395846,3110
2866.211827946614,3110
2867.9596329617652,2950
2869.7071024906536,3039
2871.4542368389684,3092
2873.20103631248,3013
2874.947501217038,3066
2876.6936318585695,2963
2878.4394285430812,3039
2880.1848915766604,3038
2881.9300212654707,3071
2883.6748179157553,3093
2885.4192818338374,3165
2887.1634133261173,3005
2888.907212699077,3059
2890.6506802592744,2996
2892.393816313348,3044
2894.1366211680142,3067
2895.8790951300693,3135
2897.621238506388,3153
2899.363051603925,3081
2901.1045347297118,3107
2902.8456881908596,3035
2904.58651229456,3125
2906.327007348081,2954
2908.067173658772,3036
2909.8070115340597,3044
2911.5465212814497,3039
2913.285703208527,2992
2915.0245576229563,3079
2916.7630848324807,3059
2918.5012851449196,3012
2920.2391588681758,3076
2921.976706310227,3007
2923.7139277791334,3041
2925.4508235830313,3121
2927.187394030137,3050
2928.923639428745,3008
2930.6595600872306,3068
2932.395156314046,3094
2934.1304284177218,3158
2935.8653767068713,3031
2937.6000014901815,3108
2939.3343030764227,3143
2941.068281774442,3010
2942.8019378931644,3112
2944.5352717415976,3168
2946.2682836288236,3171
2948.0009738640065,3109
2949.7333427563885,3193
2951.465390615289,3155
2953.1971177501086,3112
2954.9285244703265,3132
2956.6596110855,3087
2958.3903779052657,3079
2960.1208252393385,3069
2961.8509533975125,3081
2963.5807626896617,3138
2965.3102534257378,2990
2967.0394259157715,3086
2968.768280469873,3007
2970.496817398232,3145
2972.2250370111146,3134
2973.952939618869,3196
2975.6805255319196,3071
2977.4077950607707,3121
2979.134748516006,3192
2980.861386208289,3163
2982.587708448359,3132
2984.313715547037,3242
2986.039407815222,3154
2987.764785563891,3092
2989.489849104102,3126
2991.2145987469908,3081
2992.9390348037705,3147
2994.6631575857346,3194
2996.3869674042576,3192
2998.1104645707887,3075
2999.83364939686,3089
3001.5565221940783,3066
3003.2790832741334,3117
3005.0013329487924,3091
3006.7232715298996,3080
3008.4448993293804,3051
3010.166216659239,3109
3011.887223831558,3077
3013.607921158498,3129
3015.3283089522993,3199
3017.0483875252826,3158
3018.7681571898443,3134
3020.4876182584626,3111
3022.2067710436927,3151
3023.9256158581707,3138
3025.644153014609,3219
3027.362382825801,3073
3029.0803056046193,3157
3030.797921664012,3250
3032.5152313170106,3124
3034.2322348767225,3167
3035.9489326563353,3208
3037.665324969115,3123
3039.3814121284063,3050
3041.097194447633,3151
3042.812672240299,3198
3044.5278458199855,3092
3046.2427155003525,3093
3047.9572815951406,3097
3049.671544418167,3161
3051.38550428333,3139
3053.0991615046073,3057
3054.812516396051,3123
3056.5255692717974,3272
3058.2383204460575,3098
3059.9507702331257,3138
3061.662918947372,3172
3063.3747669032446,3108
3065.0863144152736,3228
3066.7975617980674,3137
3068.508509366309,3226
3070.219157434767,3230
3071.9295063182844,3110
3073.639556331785,3227
3075.3493077902704,3219
3077.058761008821,3200
3078.7679163025964,3113
3080.476773986837,3177
3082.1853343768594,3208
3083.89359778806,3214
3085.6015645359153,3140
3087.3092349359786,3123
3089.016609303884,3149
3090.7236879553434,3143
3092.4304712061476,3254
3094.136959372166,3117
3095.843152769349,3244
3097.5490517137237,3270
3099.2546565213966,3231
3100.959967508554,3252
3102.66498499146,3198
3104.3697092864577,3069
3106.0741407099695,3168
3107.778279578498,3272
3109.482126208622,3141
3111.1856809170004,3175
3112.8889440203716,3224
3114.5919158355528,3177
3116.294596679439,3200
3117.996986869006,3228
3119.6990867213062,3172
3121.4008965534726,3207
3123.102416682717,3181
3124.803647426329,3231
3126.5045891016784,3259
3128.205242026213,3271
3129.90560651746,3281
3131.605682893025,3287
3133.3054714705922,3219
3135.0049725679282,3218
3136.7041865028714,3142
3138.4031135933465,3136
3140.101754157353,3192
3141.800108512971,3185
3143.498176978357,3230
3145.1959598717494,3113
3146.8934575114636,3213
3148.5906702158954,3223
3150.2875983035183,3228
3151.9842420928853,3160
3153.680601902627,3247
3155.376678051456,3192
3157.07247085816,3259
3158.767980641609,3155
3160.463207720748,3139
3162.158152414606,3204
3163.8528150422862,3250
3165.5471959229726,3183
3167.2412953759303,3213
3168.9351137204976,3218
3170.628651276098,3205
3172.3219083622307,3260
3174.014885298474,3164
3175.707582404485,3171
3177.4000000000005,3316
3179.092138404835,3182
3180.7839979388846,3206
3182.47557892212,3227
3184.166881674594,3206
3185.8579065164386,3284
3187.5486537678626,3271
3189.2391237491547,3203
3190.9293167806827,3238
3192.6192331828934,3248
3194.3088732763117,3246
3195.998237381542,3198
3197.687325819268,3198
3199.376138910251,3218
3201.064676975334,3212
3202.7529403354347,3233
3204.4409293115523,3287
3206.1286442247647,3257
3207.816085396229,3180
3209.5032531471825,3204
3211.190147798936,3135
3212.8767696728846,3243
3214.5631190905015,3200
3216.2491963733373,3130
3217.9350018430214,3187
3219.6205358212637,3165
3221.305798629851,3165
3222.990790590651,3192
3224.6755120256103,3139
3226.359963256751,3165
3228.0441446061795,3238
3229.7280563960758,3185
3231.411698948703,3270
3233.0950725863995,3149
3234.778177631587,3186
3236.461014406761,3247
3238.1435832345005,3264
3239.8258844374595,3328
3241.507918338374,3230
3243.1896852600576,3326
3244.8711855254023,3228
3246.552419457381,3137
3248.233387379042,3289
3249.914089613516,3185
3251.59452648401,3267
3253.274698313813,3226
3254.95460542629,3256
3256.6342481448855,3171
3258.313626793125,3126
3259.9927416946084,3226
3261.6715931730196,3191
3263.3501815521176,3183
3265.0285071557437,3170
3266.706570307815,3148
3268.3843713323286,3153
3270.0619105533615,3257
3271.739188295068,3124
3273.4162048816834,3196
3275.0929606375184,3167
3276.769455886966,3284
3278.445690954498,3208
3280.1216661646613,3259
3281.797381842087,3322
3283.4728383114807,3210
3285.1480358976296,3271
3286.8229749253996,3185
3288.4976557197333,3258
3290.172078605655,3137
3291.846243908266,3215
3293.5201519527463,3236
3295.193803064357,3092
3296.8671975684374,3321
3298.5403357904024,3202
3300.21321805575,3202
3301.8858446900567,3189
3303.558216018975,3377
3305.23033236824,3264
3306.9021940636603,3217
3308.57380143113,3254
3310.2451547966184,3243
3311.916254486174,3239
3313.5871008259246,3201
3315.2576941420766,3231
3316.9280347609147,3308
3318.5981230088046,3279
3320.2679592121895,3136
3321.9375436975924,3217
3323.606876791612,3205
3325.27595882093,3214
3326.944790112305,3245
3328.6133709925753,3147
3330.2817017886573,3263
3331.949782827547,3240
3333.617614436319,3139
3335.2851969421245,3273
3336.952530672199,3173
3338.619615953853,3334
3340.286453114475,3187
3341.9530424815357,3295
3343.619384382583,3337
3345.2854791452437,3302
3346.951327097224,3249
3348.6169285663073,3332
3350.2822838803577,3413
3351.947393367319,3281
3353.61225735521,3185
3355.2768761721345,3238
3356.9412501462693,3224
3358.605379605873,3276
3360.2692648792827,3294
3361.9329062949146,3306
3363.596304181263,3205
