CollectionTime,7/10/2024 4:11:56 PM
ExposureUsed,3
CalibratedSpectrum
-962.7078968117929,480
-959.9714848408522,506
-957.2358232597828,520
-954.5009119013725,549
-951.7667505983302,552
-949.0333391832855,503
-946.3006774887896,500
-943.5687653473143,523
-940.837602591253,540
-938.1071890529199,506
-935.3775245645503,513
-932.6486089583007,538
-929.9204420662485,541
-927.1930237203925,562
-924.4663537526524,551
-921.7404319948689,555
-919.0152582788041,557
-916.2908324361409,578
-913.5671542984834,534
-910.8442236973568,537
-908.1220404642074,514
-905.4006044304027,554
-902.679915427231,553
-899.959973285902,503
-897.2407778375464,547
-894.5223289132158,554
-891.8046263438832,531
-889.0876699604426,530
-886.3714595937089,543
-883.6559950744183,577
-880.9412762332282,500
-878.2273029007168,511
-875.5140749073835,514
-872.8015920836489,529
-870.0898542598545,507
-867.3788612662631,497
-864.6686129330585,509
-861.9591090903457,503
-859.2503495681506,515
-856.5423341964203,526
-853.8350628050229,528
-851.1285352237478,532
-848.4227512823054,517
-845.7177108103272,521
-843.0134136373656,524
-840.3098595928943,551
-837.6070485063082,575
-834.9049802069229,567
-832.2036545239757,556
-829.5030712866244,556
-826.8032303239481,524
-824.1041314649472,535
-821.4057745385428,551
-818.7081593735775,538
-816.0112857988148,519
-813.3151536429393,550
-810.6197627345566,583
-807.9251129021936,550
-805.2312039742981,564
-802.5380357792392,562
-799.8456081453069,515
-797.1539209007124,533
-794.462973873588,536
-791.772766891987,556
-789.083299783884,533
-786.3945723771743,581
-783.7065844996748,548
-781.0193359791231,555
-778.3328266431781,565
-775.6470563194197,551
-772.9620248353489,516
-770.2777320183878,549
-767.5941776958798,549
-764.9113616950891,571
-762.2292838432011,575
-759.5479439673222,563
-756.8673418944801,545
-754.1874774516235,556
-751.5083504656222,573
-748.8299607632671,551
-746.15230817127,559
-743.475392516264,556
-740.7992136248035,586
-738.1237713233636,557
-735.4490654383407,584
-732.7750957960521,579
-730.1018622227365,567
-727.4293645445534,571
-724.7576025875837,568
-722.0865761778291,561
-719.4162851412126,569
-716.7467293035781,588
-714.0779084906909,570
-711.409822528237,555
-708.7424712418238,599
-706.0758544569796,575
-703.4099719991541,634
-700.7448236937178,597
-698.0804093659622,606
-695.4167288411002,578
-692.7537819442656,564
-690.0915685005134,597
-687.4300883348199,584
-684.7693412720819,610
-682.1093271371178,619
-679.4500457546669,591
-676.7914969493897,610
-674.1336805458676,581
-671.4765963686034,583
-668.8202442420206,606
-666.1646239904642,594
-663.5097354382001,592
-660.8555784094151,632
-658.2021527282176,631
-655.5494582186366,597
-652.8974947046223,609
-650.2462620100463,614
-647.5957599587009,611
-644.9459883742998,641
-642.2969470804776,630
-639.6486359007902,679
-637.0010546587141,684
-634.3542031776476,653
-631.7080812809096,587
-629.0626887917401,625
-626.4180255333008,611
-623.7740913286734,668
-621.1308860008619,696
-618.4884093727904,650
-615.8466612673046,645
-613.2056415071715,651
-610.5653499150785,639
-607.9257863136347,631
-605.28695052537,673
-602.6488423727357,645
-600.0114616781036,610
-597.3748082637674,637
-594.7388819519412,632
-592.1036825647604,673
-589.4692099242818,727
-586.8354638524829,705
-584.2024441712624,679
-581.5701507024403,730
-578.9385832677575,708
-576.3077416888759,693
-573.6776257873787,693
-571.0482353847704,671
-568.4195703024757,718
-565.7916303618415,683
-563.164415384135,676
-560.5379251905453,720
-557.9121596021815,706
-555.2871184400748,706
-552.6628015251767,680
-550.0392086783606,712
-547.4163397204204,660
-544.794194472071,707
-542.1727727539491,744
-539.5520743866118,726
-536.9320991905377,710
-534.3128469861261,790
-531.6943175936979,753
-529.0765108334947,781
-526.4594265256793,845
-523.8430644903358,959
-521.2274245474689,1108
-518.612506517005,1173
-515.9983102187913,1169
-513.3848354725959,1184
-510.77208209810846,1233
-508.16004991493924,1431
-505.5487387426199,1595
-502.9381484006032,1695
-500.3282787082628,1730
-497.71912948489364,1776
-495.1107005497117,1599
-492.5029917218539,1413
-489.8960028203786,1258
-487.28973366426493,1097
-484.68418407241325,1002
-482.07935386364494,924
-479.47524285670266,897
-476.87185087025,886
-474.2691777228715,892
-471.66722323307334,870
-469.0659872192821,884
-466.4654694998459,867
-463.86566989303384,907
-461.26658821703614,857
-458.66822428996414,854
-456.07057792985,889
-453.4736489546475,852
-450.877437182231,835
-448.28194243039627,846
-445.68716451686,812
-443.09310325926003,875
-440.49975847515555,858
-437.9071299820263,816
-435.31521759727354,853
-432.72402113821954,860
-430.13354042210767,862
-427.5437752661022,850
-424.95472548728867,859
-422.36639090267386,912
-419.7787713291855,1025
-417.1918665836721,989
-414.60567648290385,940
-412.0202008435715,940
-409.4354394822874,1002
-406.8513922155845,979
-404.26805885991723,932
-401.685439231661,950
-399.103533147112,970
-396.522340422488,953
-393.9418608739278,914
-391.3620943174908,938
-388.7830405691583,930
-386.2046994448317,892
-383.6270707603344,892
-381.05015433141045,847
-378.473949973725,778
-375.8984575028645,784
-373.32367673433623,733
-370.74960748356875,764
-368.1762495659117,682
-365.60360279663576,606
-363.03166699093265,563
-360.4604419639154,553
-357.8899275306178,569
-355.32012350599507,559
-352.7510297049233,516
-350.1826459421999,527
-347.61497203254316,503
-345.04800779059235,494
-342.4817530309082,502
-339.91620756797226,503
-337.35137121618743,528
-334.7872437898774,559
-332.22382510328725,599
-329.66111497058273,578
-327.09911320585127,543
-324.53781962310075,582
-321.9772340362607,556
-319.4173562591816,528
-316.8581861056348,481
-314.2997233893127,478
-311.7419679238294,475
-309.1849195227194,503
-306.62857799943856,534
-304.0729431673641,568
-301.51801483979375,576
-298.963792829947,550
-296.41027695096386,566
-293.85746701590574,550
-291.3053628377552,573
-288.7539642294155,577
-286.2032710037115,649
-283.65328297338897,643
-281.1039999511146,634
-278.5554217494762,681
-276.007548180983,627
-273.4603790580651,585
-270.9139141930734,572
-268.3681533982807,603
-265.8230964858798,598
-263.27874326798565,603
-260.7350935566336,628
-258.1921471637804,665
-255.6499039013039,652
-253.10836358100266,659
-250.56752601459698,618
-248.02739101372765,649
-245.48795838995704,699
-242.94922795476816,672
-240.41119951956557,613
-237.8738728956746,684
-235.33724789434166,664
-232.80132432673452,669
-230.2661020039418,659
-227.73158073697357,718
-225.19776033676033,731
-222.66464061415422,765
-220.1322213799284,730
-217.60050244477725,657
-215.06948361931552,690
-212.53916471408013,769
-210.00954553952818,827
-207.48062590603843,767
-204.9524056239104,730
-202.4248845033651,756
-199.8980623545441,752
-197.37193898751036,778
-194.84651421224817,834
-192.32178783866232,826
-189.79775967657952,861
-187.27442953574644,873
-184.7517972258321,1050
-182.2298625564256,889
-179.7086253370378,838
-177.18808537710026,944
-174.66824248596583,888
-172.14909647290835,893
-169.6306471471229,914
-167.11289431772548,893
-164.59583779375328,946
-162.07947738416453,912
-159.5638128978386,894
-157.04884414357605,1043
-154.53457093009854,1003
-152.02099306604828,912
-149.50811035998936,817
-146.99592262040665,860
-144.48442965570587,966
-141.97363127421409,938
-139.46352728417958,975
-136.95411749377126,1021
-134.44540171107985,995
-131.93737974411636,950
-129.43005140081357,1057
-126.92341648902493,1293
-124.41747481652521,1706
-121.91222619101006,2006
-119.40767042009657,2286
-116.90380731132257,2541
-114.40063667214702,2936
-111.8981583099503,3212
-109.3963720320337,2887
-106.89527764561933,2323
-104.39487495785067,2173
-101.89516377579241,2893
-99.39614390642998,5217
-96.89781515667039,6670
-94.40017733334128,6352
-91.90323024319173,4979
-89.40697369289148,3945
-86.91140748903172,4827
-84.41653143812482,6033
-81.92234534660395,6780
-79.42884902082358,7005
-76.93604226705907,8900
-74.4439248915071,14809
-71.95249670028534,22380
-69.46175749943245,25450
-66.97170709490854,23880
-64.48234529259423,20494
-61.99367189829195,17362
-59.50568671772464,13361
-57.01838955653636,10527
-54.53178022029283,11888
-52.045858514480074,14198
-49.560624244506016,16131
-47.07607721569923,17639
-44.59221723330904,18146
-42.10904410250669,18769
-39.62655762838392,16806
-37.14475761595372,16560
-34.66364387015028,18614
-32.18321619582866,18544
-29.70347439776515,19180
-27.224418280657005,19558
-24.74604764912317,19954
-22.26836230770266,21653
-19.7913620608565,32219
-17.315046712966478,52272
-14.83941606833514,65037
-12.36446993118659,65037
-9.89020810566592,65037
-7.416630395839093,65037
-4.94373660569363,65037
-2.471526539137585,65037
-6.821210263296962E-13,65037
2.47084320796705,65037
4.941003281093458,65037
7.410480415786196,65037
9.879274808531363,65037
12.347386655893956,65037
14.814816154518212,65037
17.28156350112681,65037
19.74762889252179,65037
22.21301252558385,65037
24.67771459727237,22088
27.141735304626195,4944
29.605074844762612,3511
32.06773341487792,2891
34.52971121224755,2857
36.99100843422559,2958
39.45162527824516,2756
41.91156194181792,2052
44.370818622535126,2010
46.82939551806646,1808
49.287292826160524,1720
51.74451074464503,2139
54.201049471426245,2325
56.65690920448981,2041
59.112090141899785,1706
61.56659248179983,1586
64.02041642241159,1609
66.4735621620365,1473
68.92602989905402,1459
71.37781983192338,1487
73.82893215918205,1653
76.27936707944684,1598
78.72912479141326,1473
81.17820549385567,1299
83.62660938562783,1576
86.07433666566146,1802
88.5213875329681,1407
90.96776218663751,1127
93.41346082583925,1155
95.85848364982041,1251
98.30283085790859,1230
100.7465026495089,1263
103.18949922410604,1311
105.63182078126385,1301
108.07346752062438,1265
110.51443964190923,1223
112.95473734491827,1075
115.39436082953114,1113
117.83331029570547,1048
120.27158594347827,1054
122.7091879729652,1079
125.1461165843615,1157
127.58237197794062,1176
130.01795435405518,1094
132.4528639131364,1024
134.88710085569494,1086
137.32066538231982,1016
139.75355769367923,1004
142.1857779905207,1006
144.61732647366978,1076
147.04820334403132,1060
149.47840880258934,989
151.90794305040674,997
154.33680628862487,1014
156.76499871846443,1233
159.19252054122433,1297
161.61937195828352,1386
164.04555317109896,1553
166.47106438120693,1656
168.89590579022217,1846
171.320077599839,1970
173.7435800118302,2071
176.16641322804742,2191
178.58857745042144,2109
181.01007288096173,2464
183.43089972175687,2492
185.85105817497413,2340
188.27054844285988,2211
190.6893707277394,2388
193.10752523201643,2371
195.5250121581745,2325
197.9418317087751,2452
200.3579840864594,2485
202.7734694939469,2437
205.18828813403627,2529
207.6024402096051,2707
210.01592592360964,2744
212.42874547908548,2636
214.84089907914665,2604
217.2523869269868,2576
219.66320922587727,2519
222.0733661791695,2431
224.48285799029293,2501
226.8916848627572,2494
229.29984700014882,2679
231.7073446061355,2594
234.11417788446204,2490
236.520347038953,2473
238.92585227351185,2501
241.33069379212054,2532
243.73487179884035,2639
246.1383864978112,2650
248.541238093252,2624
250.9434267894609,2612
253.34495279081432,2628
255.74581630176783,2616
258.1460175268563,2493
260.54555667069314,2578
262.9444339379703,2658
265.3426495334594,2683
267.7402036620107,2604
270.1370965285529,2732
272.53332833809407,2554
274.9288992957214,2581
277.32380960660055,2616
279.718059475976,2649
282.1116491091717,2568
284.5045787115897,2588
286.89684848871195,2479
289.2884586460981,2489
291.67940938938807,2636
294.0697009242996,2506
296.4593334566299,2655
298.84830719225477,2588
301.23662233712923,2391
303.6242790972866,2524
306.01127767884,2425
308.39761828798066,2508
310.78330113097934,2529
313.16832641418534,2470
315.5526943440269,2419
317.9364051270112,2335
320.3194589697242,2373
322.70185607883093,2398
325.0835966610754,2440
327.4646809232805,2308
329.8451090723478,2273
332.2248813152577,2223
334.6039978590701,2281
336.9824589109231,2352
339.36026467803447,2237
341.7374153677,2205
344.113911187295,2201
346.48975234427337,2227
348.8649390461686,2238
351.2394715005918,2210
353.61334991523415,2225
355.9865744978655,2280
358.35914545633375,2172
360.73106299856715,2185
363.10232733257146,2170
365.47293866643247,2145
367.84289720831396,2155
370.2122031664593,2177
372.5808567491905,2089
374.9488581649083,2125
377.31620762209275,2141
379.6829053293021,1980
382.0489514951745,2078
384.4143463284262,2044
386.7790900378528,2037
389.14318283232853,2008
391.50662492080653,2117
393.86941651231916,2066
396.23155781597745,2085
398.5930490409713,2108
400.9538903965696,2092
403.3140820921202,2070
405.6736243370498,2141
408.03251734086336,2069
410.3907613131465,2046
412.74835646356166,2011
415.10530300185144,2055
417.4616011378372,2074
419.81725108141893,1977
422.1722530425758,1967
424.5266072313656,2032
426.880313857925,1953
429.2333731324701,2000
431.58578526529516,1990
433.9375504667738,1956
436.2886689473588,1976
438.63914091758113,1864
440.9889665880513,1861
443.33814616945835,1940
445.68667987257015,1891
448.03456790823395,1932
450.3818104873759,1871
452.72840782100013,1977
455.07436012019105,1953
457.41966759611057,1916
459.7643304600007,1881
462.10834892318155,1894
464.4517231970525,1941
466.79445349309174,1945
469.1365400228566,1942
471.4779829979826,1938
473.81878263018564,1965
476.15893913125876,1991
478.4984527130747,2027
480.8373235875855,2121
483.17555196682144,2134
485.5131380628919,2153
487.8500820879857,2147
490.1863842543697,2298
492.52204477439034,2395
494.8570638604725,2616
497.1914417251204,3036
499.52517858091653,3416
501.85827464052306,3609
504.19073011668036,4030
506.5225452222086,3965
508.85372017000566,3904
511.18425517304956,3794
513.514150444396,3876
515.8434061971808,4418
518.1720226446176,5189
520.4999999999999,5368
522.8273384766991,5115
525.1540382881666,4678
527.480099647932,4210
529.8055227696037,3599
532.1303078668694,2909
534.454455153496,2493
536.777964843328,2348
539.1008371502907,2286
541.4230722883866,2206
543.744670471698,2235
546.0656319143858,2211
548.3859568306899,2257
550.7056454349294,2152
553.0246979415016,2127
555.3431145648834,2073
557.6608955196306,2086
559.978041020377,2116
562.2945512818363,2065
564.6104265188006,2181
566.9256669461412,2165
569.2402727788082,2146
571.5542442318302,2109
573.8675815203156,2185
576.1802848594508,2122
578.4923544645015,2199
580.8037905508126,2235
583.114593333807,2289
585.4247630289875,2252
587.7342998519354,2201
590.0432040183106,2197
592.3514757438526,2257
594.6591152443794,2282
596.9661227357875,2203
599.2724984340531,2208
601.578242555231,2157
603.8833553154542,2174
606.1878369309362,2236
608.4916876179676,2121
610.7949075929192,2098
613.0974970722403,2098
615.3994562724587,2137
617.7007854101818,2150
620.0014847020951,2152
622.3015543649641,2057
624.6009946156324,2118
626.8998056710224,2178
629.1979877481361,2131
631.4955410640538,2118
633.7924658359349,2219
636.0887622810175,2136
638.3844306166192,2078
640.6794710601358,2095
642.9738838290426,2128
645.2676691408932,2091
647.5608272133207,2078
649.853358264037,2080
652.1452625108324,2002
654.4365401715764,2069
656.7271914642178,2070
659.0172166067838,2014
661.3066158173809,2066
663.5953893141935,2193
665.8835373154867,2139
668.1710600396028,2054
670.4579577049639,2132
672.7442305300709,2072
675.0298787335033,2069
677.3149025339197,2038
679.599302150058,2074
681.8830778007342,2001
684.1662297048437,2074
686.4487580813608,2056
688.7306631493387,2091
691.0119451279091,2078
693.2926042362834,2141
695.5726406937516,2086
697.8520547196814,2042
700.1308465335215,2062
702.4090163547982,2006
704.6865644031171,2098
706.9634908981619,2059
709.2397960596965,2080
711.5154801075631,2032
713.7905432616823,2097
716.0649857420548,2069
718.3388077687592,2054
720.612009561953,2062
722.8845913418733,2026
725.1565533288352,2083
727.427895743234,2032
729.6986188055427,2160
731.9687227363137,2073
734.238207756178,2112
736.5070740858458,2114
738.7753219461066,2159
741.0429515578281,2082
743.3099631419569,2116
745.5763569195191,2040
747.8421331116193,2094
750.1072919394409,2068
752.3718336242467,2029
754.6357583873777,2113
756.8990664502545,2116
759.1617580343765,2053
761.423833361321,2056
763.6852926527457,2102
765.9461361303862,2098
768.206364016058,2165
770.4659765316536,2052
772.7249738991469,2098
774.9833563405886,2136
777.2411240781092,2094
779.4982773339183,2041
781.7548163303044,2038
784.010741289634,2097
786.2660524343538,2083
788.5207499869881,2129
790.7748341701416,2081
793.0283052064964,2129
795.2811633188143,2088
797.5334087299362,2062
799.7850416627813,2101
802.0360623403484,2190
804.2864709857143,2080
806.5362678220353,2150
808.7854530725468,2064
811.0340269605625,2167
813.2819897094754,2100
815.5293415427581,2135
817.77608268396,2114
820.0222133567116,2121
822.2677337847211,2091
824.5126441917765,2173
826.7569448017433,2103
829.0006358385675,2105
831.2437175262731,2085
833.4861900889629,2142
835.7280537508192,2025
837.9693087361026,2139
840.2099552691533,2098
842.4499935743896,2099
844.689423876309,2086
846.9282463994886,2074
849.1664613685833,2060
851.4040690083276,2205
853.6410695435349,2019
855.877463199097,2184
858.1132501999847,2121
860.3484307712487,2086
862.5830051380175,2145
864.8169735254988,2125
867.0503361589791,2160
869.2830932638243,2190
871.5152450654786,2249
873.7467917894654,2077
875.9777336613873,2139
878.2080709069252,2237
880.4378037518389,2169
882.666932421968,2168
884.8954571432301,2208
887.1233781416219,2207
889.3506956432192,2167
891.5774098741766,2236
893.803521060728,2192
896.0290294291852,2153
898.2539352059397,2181
900.4782386174619,2152
902.7019398903011,2232
904.925039251085,2275
907.147536926521,2188
909.3694331433943,2195
911.59072812857,2215
913.8114221089921,2218
916.0315153116827,2187
918.2510079637437,2151
920.4699002923547,2183
922.6881925247761,2068
924.905884888345,2211
927.1229776104793,2117
929.3394709186747,2138
931.555365040506,2137
933.7706602036275,2114
935.9853566357709,2147
938.1994545647489,2181
940.4129542184515,2103
942.6258558248488,2099
944.8381596119883,2098
947.0498658079974,2085
949.2609746410825,2073
951.4714863395287,2068
953.6814011316998,2119
955.8907192460387,2066
958.0994409110671,1976
960.3075663553858,2104
962.5150958076741,2050
964.7220294966913,2057
966.928367651274,2095
969.1341105003388,2045
971.3392582728806,2029
973.5438111979742,2006
975.747769504772,2020
977.9511334225061,1955
980.153903180487,1948
982.3560790081052,1980
984.5576611348289,2094
986.7586497902058,1981
988.9590452038618,1911
991.158847605503,1944
993.3580572249133,1977
995.5566742919558,1949
997.7546990365728,1854
999.952131688785,1857
1002.1489724786926,1827
1004.3452216364743,1854
1006.5408793923874,1821
1008.7359459767691,1760
1010.9304216200343,1748
1013.1243065526781,1740
1015.3176010052733,1774
1017.510305208472,1739
1019.7024193930064,1752
1021.8939437896848,1659
1024.0848786293977,1778
1026.2752241431122,1703
1028.4649805618747,1784
1030.6541481168115,1720
1032.842727039127,1646
1035.0307175601051,1640
1037.2181199111074,1645
1039.4049343235752,1697
1041.591161029029,1700
1043.7768002590683,1687
1045.9618522453698,1666
1048.1463172196918,1671
1050.3301954138697,1687
1052.513487059818,1655
1054.69619238953,1726
1056.8783116350783,1712
1059.0598450286152,1709
1061.2407928023704,1654
1063.4211551886528,1711
1065.6009324198508,1654
1067.780124728432,1714
1069.9587323469414,1676
1072.1367555080046,1680
1074.314194444325,1628
1076.4910493886855,1704
1078.667320573947,1680
1080.843008233051,1672
1083.0181125990161,1680
1085.1926339049414,1663
1087.3665723840027,1664
1089.5399282694575,1662
1091.7127017946405,1611
1093.8848931929647,1714
1096.0565026979243,1636
1098.2275305430899,1649
1100.3979769621128,1684
1102.567842188722,1700
1104.737126456726,1667
1106.9058300000124,1616
1109.0739530525475,1592
1111.2414958483764,1565
1113.4084586216231,1661
1115.5748416064907,1607
1117.7406450372605,1604
1119.9058691482942,1667
1122.0705141740304,1603
1124.2345803489884,1540
1126.3980679077658,1608
1128.5609770850388,1541
1130.7233081155623,1599
1132.8850612341707,1649
1135.0462366757774,1581
1137.2068346753745,1569
1139.3668554680326,1580
1141.526299288901,1599
1143.68516637321,1578
1145.8434569562655,1612
1148.001171273455,1525
1150.158309560244,1585
1152.3148720521767,1543
1154.470858984876,1503
1156.626270594044,1577
1158.7811071154629,1619
1160.9353687849912,1586
1163.089055838569,1529
1165.242168512213,1529
1167.3947070420209,1586
1169.5466716641677,1540
1171.6980626149075,1502
1173.8488801305748,1561
1175.9991244475814,1557
1178.1487958024186,1534
1180.2978944316555,1538
1182.4464205719428,1497
1184.5943744600072,1517
1186.7417563326567,1580
1188.8885664267755,1532
1191.0348049793297,1518
1193.1804722273619,1518
1195.325568407995,1552
1197.4700937584303,1506
1199.614048515948,1497
1201.7574329179074,1543
1203.900247201746,1564
1206.042491604982,1571
1208.1841663652099,1563
1210.3252717201053,1517
1212.465807907422,1531
1214.6057751649923,1579
1216.7451737307279,1537
1218.8840038426192,1560
1221.0222657387353,1497
1223.1599596572241,1572
1225.2970858363137,1589
1227.4336445143094,1542
1229.5696359295966,1562
1231.705060320639,1553
1233.8399179259786,1532
1235.9742089842384,1544
1238.107933734118,1625
1240.2410924143974,1622
1242.373685263935,1599
1244.5057125216676,1572
1246.6371744266116,1573
1248.7680712178621,1570
1250.898403134593,1584
1253.028170416058,1590
1255.1573733015875,1575
1257.2860120305932,1542
1259.4140868425648,1566
1261.54159797707,1545
1263.6685456737569,1619
1265.7949301723515,1622
1267.9207517126597,1601
1270.046010534565,1581
1272.1707068780306,1567
1274.2948409830983,1561
1276.4184130898889,1575
1278.541423438603,1577
1280.6638722695184,1579
1282.785759822993,1628
1284.9070863394636,1662
1287.0278520594447,1629
1289.1480572235314,1612
1291.2677020723963,1652
1293.3867868467923,1612
1295.5053117875495,1630
1297.623277135579,1656
1299.740683131868,1628
1301.8575300174857,1632
1303.973818033578,1681
1306.0895474213703,1721
1308.2047184221678,1752
1310.3193312773528,1661
1312.4333862283888,1602
1314.5468835168163,1626
1316.659823384255,1695
1318.7722060724045,1630
1320.8840318230418,1669
1322.9953008780249,1664
1325.1060134792888,1613
1327.2161698688478,1625
1329.3257702887959,1620
1331.4348149813054,1633
1333.5433041886276,1629
1335.6512381530933,1659
1337.7586171171101,1589
1339.8654413231675,1618
1341.9717110138317,1605
1344.0774264317488,1654
1346.1825878196432,1648
1348.2871954203192,1639
1350.3912494766587,1686
1352.4947502316231,1582
1354.5976979282532,1623
1356.7000928096686,1614
1358.8019351190665,1643
1360.9032250997243,1653
1363.0039629949988,1593
1365.1041490483235,1694
1367.2037835032133,1593
1369.3028666032606,1593
1371.401398592137,1674
1373.4993797135926,1629
1375.5968102114575,1701
1377.6936903296396,1635
1379.7900203121262,1667
1381.8858004029835,1671
1383.9810308463561,1645
1386.075711886469,1670
1388.1698437676241,1659
1390.2634267342032,1661
1392.356461030667,1662
1394.4489469015557,1666
1396.5408845914872,1633
1398.6322743451592,1683
1400.7231164073469,1735
1402.813411022907,1717
1404.903158436773,1712
1406.9923588939578,1709
1409.0810126395531,1722
1411.1691199187303,1718
1413.2566809767386,1671
1415.343696058907,1654
1417.4301654106425,1734
1419.5160892774315,1760
1421.6014679048399,1750
1423.6863015385125,1720
1425.7705904241707,1707
1427.8543348076178,1752
1429.9375349347342,1717
1432.0201910514802,1766
1434.102303403894,1721
1436.1838722380944,1823
1438.2648978002767,1694
1440.3453803367174,1782
1442.4253200937692,1755
1444.5047173178677,1758
1446.5835722555234,1770
1448.6618851533285,1779
1450.739656257952,1783
1452.8168858161434,1832
1454.8935740747306,1840
1456.96972128062,1818
1459.045327680797,1866
1461.120393522327,1871
1463.1949190523528,1850
1465.2689045180973,1830
1467.3423501668608,1880
1469.415256246024,1883
1471.4876230030463,1877
1473.559450685465,1894
1475.6307395408976,1900
1477.7014898170391,1871
1479.771701761665,1918
1481.8413756226287,1990
1483.9105116478618,1937
1485.9791100853772,1893
1488.0471711832643,1959
1490.1146951896926,1953
1492.1816823529098,2018
1494.2481329212433,1919
1496.3140471430984,2004
1498.3794252669609,2023
1500.4442675413939,2073
1502.5085742150404,2077
1504.572345536622,2002
1506.6355817549388,2079
1508.6982831188702,2073
1510.7604498773744,2083
1512.8220822794883,2096
1514.8831805743293,2060
1516.9437450110909,2070
1519.003775839048,2097
1521.0632733075522,2056
1523.1222376660367,2073
1525.1806691640113,2042
1527.2385680510652,2069
1529.2959345768668,2069
1531.3527689911643,2130
1533.4090715437833,2194
1535.4648424846291,2098
1537.5200820636855,2189
1539.5747905310159,2165
1541.6289681367616,2210
1543.6826151311434,2310
1545.7357317644614,2274
1547.7883182870937,2312
1549.8403749494987,2235
1551.8919020022113,2278
1553.9428996958477,2327
1555.9933682811015,2384
1558.0433080087469,2343
1560.0927191296346,2389
1562.1416018946961,2399
1564.1899565549415,2452
1566.2377833614592,2491
1568.2850825654164,2462
1570.3318544180606,2478
1572.3780991707158,2494
1574.423817074788,2438
1576.4690083817595,2302
1578.5136733431923,2332
1580.5578122107272,2227
1582.601425236085,2264
1584.6445126710646,2265
1586.6870747675434,2190
1588.7291117774776,2079
1590.7706239529034,1970
1592.8116115459347,2055
1594.8520748087658,1957
1596.8920139936686,1944
1598.9314293529933,1872
1600.9703211391711,1942
1603.008689604711,1882
1605.0465350022005,1873
1607.0838575843068,1834
1609.1206576037753,1816
1611.1569353134305,1803
1613.1926909661765,1779
1615.2279248149953,1756
1617.2626371129481,1772
1619.2968281131757,1829
1621.3304980688963,1730
1623.3636472334088,1703
1625.39627586009,1765
1627.428384202396,1712
1629.459972513861,1708
1631.4910410480993,1746
1633.5215900588028,1709
1635.551619799744,1706
1637.5811305247717,1682
1639.6101224878166,1663
1641.6385959428862,1613
1643.6665511440683,1646
1645.693988345528,1610
1647.7209078015112,1658
1649.7473097663405,1693
1651.7731944944203,1640
1653.7985622402307,1688
1655.823413258333,1648
1657.847747803366,1676
1659.8715661300494,1688
1661.8948684931793,1700
1663.9176551476316,1707
1665.9399263483624,1650
1667.9616823504057,1657
1669.982923408873,1664
1672.0036497789574,1644
1674.0238617159293,1650
1676.043559475138,1687
1678.0627433120121,1622
1680.081413482059,1650
1682.0995702408654,1655
1684.117213844096,1634
1686.134344547495,1671
1688.1509626068864,1623
1690.1670682781705,1669
1692.182661817329,1688
1694.1977434804217,1670
1696.2123135235875,1632
1698.226372203043,1624
1700.2399197750851,1644
1702.2529564960905,1660
1704.2654826225112,1679
1706.277498410882,1607
1708.2890041178139,1693
1710.2999999999988,1663
1712.3104863142066,1699
1714.3204633172854,1650
1716.329931266163,1676
1718.3388904178469,1593
1720.3473410294214,1620
1722.3552833580516,1633
1724.3627176609807,1639
1726.3696441955308,1658
1728.3760632191033,1689
1730.3819749891782,1661
1732.3873797633146,1559
1734.3922777991502,1601
1736.3966693544012,1615
1738.4005546868639,1608
1740.4039340544127,1584
1742.406807715001,1634
1744.4091759266616,1606
1746.4110389475054,1637
1748.4123970357223,1657
1750.413250449582,1610
1752.4135994474318,1634
1754.4134442876993,1646
1756.4127852288902,1643
1758.4116225295893,1623
1760.4099564484595,1621
1762.407787244244,1678
1764.405115175764,1636
1766.4019405019203,1604
1768.3982634816916,1589
1770.3940843741357,1646
1772.3894034383907,1581
1774.3842209336717,1591
1776.378537119274,1600
1778.372352254571,1630
1780.3656665990156,1644
1782.3584804121397,1605
1784.3507939535534,1539
1786.3426074829463,1582
1788.3339212600863,1696
1790.3247355448211,1650
1792.3150505970766,1571
1794.3048666768573,1654
1796.2941840442477,1614
1798.2830029594106,1670
1800.2713236825884,1562
1802.2591464741004,1656
1804.2464715943465,1616
1806.2332993038058,1705
1808.2196298630352,1695
1810.2054635326708,1614
1812.190800573428,1648
1814.175641246101,1612
1816.1599858115628,1662
1818.1438345307652,1642
1820.127187664738,1644
1822.1100454745924,1627
1824.092408221516,1658
1826.0742761667766,1635
1828.055649571721,1626
1830.0365286977735,1670
1832.0169138064398,1613
1833.9968051593014,1588
1835.9762030180214,1625
1837.9551076443408,1660
1839.9335193000788,1691
1841.9114382471344,1668
1843.888864747485,1629
1845.8657990631878,1684
1847.842241456378,1653
1849.8181921892697,1651
1851.7936515241558,1608
1853.7686197234098,1645
1855.7430970494815,1640
1857.7170837649014,1607
1859.6905801322787,1634
1861.6635864143004,1655
1863.6361028737338,1578
1865.608129773424,1628
1867.5796673762961,1682
1869.5507159453537,1621
1871.521275743678,1670
1873.4913470344313,1728
1875.4609300808534,1696
1877.4300251462632,1633
1879.3986324940588,1703
1881.366752387717,1680
1883.3343850907936,1643
1885.3015308669228,1564
1887.268189979819,1662
1889.2343626932739,1647
1891.2000492711595,1677
1893.1652499774254,1662
1895.1299650761011,1726
1897.0941948312952,1688
1899.0579395071945,1601
1901.0211993680641,1616
1902.98397467825,1682
1904.9462657021745,1751
1906.9080727043415,1663
1908.869395949332,1668
1910.8302357018065,1720
1912.790592226504,1569
1914.7504657882428,1626
1916.7098566519212,1616
1918.6687650825133,1671
1920.6271913450764,1621
1922.5851357047422,1646
1924.5425984267245,1626
1926.499579776314,1666
1928.4560800188833,1601
1930.4120994198802,1594
1932.367638244833,1629
1934.32269675935,1646
1936.2772752291175,1721
1938.231373919899,1612
1940.1849930975404,1630
1942.1381330279637,1643
1944.0907939771696,1652
1946.0429762112412,1596
1947.9946799963363,1668
1949.9459055986945,1633
1951.896653284633,1647
1953.8469233205478,1657
1955.7967159729142,1625
1957.7460315082863,1603
1959.6948701932974,1629
1961.6432322946594,1570
1963.5911180791632,1597
1965.5385278136787,1649
1967.4854617651545,1596
1969.4319202006182,1572
1971.377903387176,1621
1973.3234115920136,1546
1975.268445082395,1578
1977.2130041256642,1525
1979.1570889892423,1612
1981.1006999406304,1590
1983.04383724741,1617
1984.986501177238,1586
1986.928691997853,1602
1988.8704099770712,1602
1990.811655382789,1651
1992.7524284829801,1680
1994.692729545698,1644
1996.6325588390755,1559
1998.5719166313224,1594
2000.5108031907307,1624
2002.4492187856677,1566
2004.387163684583,1583
2006.3246381560011,1650
2008.2616424685298,1550
2010.1981768908527,1611
2012.1342416917332,1564
2014.069837140014,1553
2016.0049635046162,1570
2017.9396210545406,1546
2019.8738100588666,1543
2021.8075307867502,1617
2023.740783507431,1556
2025.6735684902228,1598
2027.6058860045214,1558
2029.5377363198004,1539
2031.4691197056118,1563
2033.4000364315875,1624
2035.3304867674374,1612
2037.260470982952,1533
2039.189989347998,1553
2041.1190421325232,1572
2043.047629606554,1614
2044.9757520401945,1622
2046.9034097036288,1590
2048.8306028671195,1532
2050.7573318010086,1593
2052.683596775716,1501
2054.609398061742,1578
2056.5347359296647,1519
2058.4596106501403,1494
2060.384022493906,1532
2062.3079717317764,1556
2064.231458634646,1581
2066.1544834734873,1538
2068.077046519352,1554
2069.99914804337,1599
2071.9207883167524,1538
2073.8419676107865,1512
2075.7626861968406,1574
2077.6829443463607,1498
2079.6027423308715,1544
2081.522080421977,1594
2083.440958891362,1523
2085.359378010786,1557
2087.2773380520907,1587
2089.194839287196,1584
2091.111881988101,1546
2093.0284664268825,1616
2094.9445928756973,1572
2096.86026160678,1560
2098.775472892446,1616
2100.690227005088,1585
2102.604524217178,1558
2104.5183648012676,1565
2106.431749029985,1545
2108.34467717604,1673
2110.2571495122206,1562
2112.169166311393,1559
2114.080727846503,1520
2115.9918343905747,1661
2117.902486216711,1572
2119.8126835980956,1574
2121.722426807987,1639
2123.6317161197285,1528
2125.5405518067364,1590
2127.448934142509,1587
2129.356863400624,1585
2131.264339854737,1677
2133.1713637785815,1625
2135.077935445972,1688
2136.9840551308002,1637
2138.889723107037,1672
2140.7949396487334,1584
2142.699705030018,1598
2144.6040195250994,1626
2146.507883408264,1689
2148.4112969538774,1631
2150.3142604363848,1670
2152.2167741303097,1603
2154.1188383102535,1665
2156.0204532508997,1674
2157.9216192270064,1632
2159.822336513414,1669
2161.7226053850413,1625
2163.622426116884,1670
2165.5217989840185,1694
2167.4207242616,1642
2169.319202224862,1653
2171.2172331491165,1648
2173.1148173097563,1639
2175.0119549822507,1748
2176.90864644215,1695
2178.8048919650823,1676
2180.7006918267534,1669
2182.596046302952,1704
2184.4909556695407,1707
2186.3854202024645,1701
2188.279440177746,1701
2190.173015871487,1667
2192.066147559868,1648
2193.958835519149,1680
2195.851080025667,1674
2197.7428813558417,1643
2199.6342397861667,1670
2201.5251555932186,1687
2203.415629053651,1710
2205.3056604441986,1668
2207.19525004167,1653
2209.084398122958,1728
2210.9731049650327,1740
2212.861370844941,1730
2214.749196039812,1680
2216.636580826851,1702
2218.523525483344,1728
2220.410030286655,1735
2222.296095514226,1715
2224.1817214435805,1716
2226.066908352319,1680
2227.951656518121,1701
2229.835966218746,1757
2231.71983773203,1720
2233.6032713358913,1682
2235.486267308324,1751
2237.3688259274036,1665
2239.2509474712824,1642
2241.132632218193,1681
2243.013880446447,1729
2244.8946924344323,1760
2246.7750684606203,1745
2248.6550088035574,1660
2250.534513741871,1726
2252.413583554265,1729
2254.292218519526,1684
2256.170418916517,1644
2258.0481850241786,1692
2259.925517121534,1638
2261.8024154876825,1710
2263.678880401803,1742
2265.5549121431536,1702
2267.430510991071,1706
2269.305677224971,1734
2271.180411124348,1637
2273.0547129687766,1648
2274.9285830379076,1625
2276.8020216114737,1636
2278.6750289692845,1609
2280.5476053912294,1718
2282.4197511572766,1683
2284.2914665474727,1742
2286.162751841943,1703
2288.0336073208937,1688
2289.904033264608,1736
2291.774029953448,1669
2293.6435976678554,1713
2295.5127366883517,1596
2297.381447295534,1631
2299.2497297700825,1629
2301.1175843927526,1623
2302.9850114443825,1533
2304.852011205885,1494
2306.7185839582553,1439
2308.5847299825664,1463
2310.4504495599676,1458
2312.3157429716925,1457
2314.1806104990483,1419
2316.0450524234247,1404
2317.9090690262888,1416
2319.772660589186,1441
2321.635827393742,1419
2323.498569721661,1428
2325.3608878547248,1390
2327.2227820747967,1389
2329.0842526638157,1433
2330.945299903803,1399
2332.805924076857,1427
2334.6661254651535,1383
2336.525904350951,1399
2338.3852610165827,1448
2340.244195744464,1462
2342.102708817088,1428
2343.9608005170253,1381
2345.8184711269287,1412
2347.675720929526,1410
2349.532550207628,1404
2351.38895924412,1414
2353.24494832197,1464
2355.100517724223,1430
2356.955667734004,1418
2358.810398634514,1437
2360.664710709037,1433
2362.5186042409337,1458
2364.3720795136437,1386
2366.225136810686,1442
2368.0777764156583,1426
2369.929998612237,1422
2371.7818036841777,1429
2373.633191915315,1459
2375.484163589562,1409
2377.3347189909114,1437
2379.184858403434,1473
2381.03458211128,1397
2382.8838903986775,1401
2384.732783549936,1437
2386.5812618494406,1398
2388.4293255816588,1434
2390.2769750311327,1431
2392.1242104824883,1450
2393.971032220427,1467
2395.8174405297295,1502
2397.6634356952563,1458
2399.509018001947,1408
2401.3541877348193,1380
2403.1989451789705,1422
2405.043290619576,1425
2406.8872243418905,1409
2408.730746631247,1394
2410.5738577730594,1444
2412.4165580528183,1424
2414.258847756095,1427
2416.100727168537,1370
2417.9421965758734,1451
2419.783256263912,1383
2421.623906518538,1407
2423.4641476257157,1453
2425.303979871491,1425
2427.143403541984,1475
2428.9824189233977,1391
2430.821026302012,1411
2432.6592259641866,1436
2434.497018196361,1430
2436.33440328505,1423
2438.171381516851,1386
2440.00795317844,1464
2441.844118556569,1441
2443.6798779380724,1391
2445.5152316098606,1372
2447.3501798589255,1459
2449.1847229723357,1448
2451.0188612372403,1496
2452.8525949408663,1384
2454.6859243705203,1444
2456.518849813587,1464
2458.3513715575314,1443
2460.183489889895,1413
2462.015205098301,1466
2463.8465174704493,1411
2465.67742729412,1441
2467.5079348571717,1383
2469.338040447542,1413
2471.1677443532476,1434
2472.9970468623833,1378
2474.825948263123,1430
2476.6544488437207,1458
2478.482548892508,1446
2480.310248697896,1366
2482.137548548374,1451
2483.9644487325118,1396
2485.790949538956,1405
2487.617051256433,1430
2489.44275417375,1466
2491.26805857979,1407
2493.0929647635157,1475
2494.917473013971,1418
2496.741583620276,1451
2498.5652968716304,1491
2500.3886130573137,1450
2502.2115324666834,1475
2504.0340553891765,1432
2505.856182114308,1461
2507.6779129316733,1469
2509.499248130945,1487
2511.3201880018764,1462
2513.140732834298,1471
2514.9608829181198,1430
2516.780638543331,1461
2518.6,1434
2520.418967578273,1420
2522.237541568376,1484
2524.0557222606144,1375
2525.8735099453706,1405
2527.6909049131086,1459
2529.507907454368,1495
2531.32451785977,1496
2533.140736420014,1502
2534.9565634258774,1546
2536.771999168218,1513
2538.5870439379714,1501
2540.4016980261526,1460
2542.2159617238544,1526
2544.02983532225,1455
2545.8433191125914,1541
2547.656413386209,1470
2549.4691184345115,1533
2551.2814345489874,1503
2553.093362021204,1525
2554.904901142808,1557
2556.716052205523,1479
2558.526815501153,1526
2560.3371913215824,1541
2562.147179958771,1611
2563.956781704761,1541
2565.7659968516705,1617
2567.5748256916986,1554
2569.3832685171224,1591
2571.1913256202984,1580
2572.9989972936614,1570
2574.806283829725,1524
2576.613185521084,1565
2578.4197026604074,1630
2580.2258355404483,1635
2582.031584454035,1594
2583.836949694077,1629
2585.6419315535613,1600
2587.4465303255533,1587
2589.2507463032002,1670
2591.0545797797245,1614
2592.8580310484303,1606
2594.6611004026995,1635
2596.463788135992,1623
2598.266094541849,1597
2600.0680199138874,1667
2601.869564545807,1621
2603.670728731383,1625
2605.4715127644704,1583
2607.2719169390048,1594
2609.071941548998,1678
2610.8715868885433,1617
2612.670853251811,1627
2614.469740933052,1612
2616.268250226594,1605
2618.0663814268455,1636
2619.864134828292,1572
2621.6615107255006,1547
2623.458509413115,1534
2625.2551311858597,1584
2627.0513763385347,1595
2628.8472451660223,1596
2630.6427379632833,1569
2632.4378550253564,1535
2634.232596647359,1526
2636.026963124488,1567
2637.8209547520187,1503
2639.6145718253065,1565
2641.407814639785,1558
2643.200683490966,1513
2644.9931786744414,1607
2646.7853004858807,1527
2648.577049221034,1540
2650.3684251757277,1480
2652.1594286458712,1574
2653.9500599274484,1511
2655.740319316525,1470
2657.5302071092437,1482
2659.3197236018286,1516
2661.10886909058,1425
2662.8976438718782,1487
2664.686048242183,1479
2666.4740824980327,1489
2668.2617469360443,1568
2670.0490418529134,1468
2671.8359675454153,1489
2673.622524310403,1480
2675.408712444811,1514
2677.1945322456495,1506
2678.979984010009,1460
2680.76506803506,1476
2682.5497846180497,1473
2684.334134056306,1440
2686.1181166472343,1436
2687.9017326883213,1407
2689.6849824771293,1444
2691.4678663113013,1441
2693.2503844885596,1451
2695.032537306705,1402
2696.8143250636167,1475
2698.5957480572542,1405
2700.3768065856534,1457
2702.1575009469316,1431
2703.937831439283,1453
2705.717798360982,1446
2707.4974020103837,1456
2709.276642685917,1388
2711.055520686095,1496
2712.834036309506,1424
2714.612189854819,1427
2716.389981620782,1408
2718.1674119062204,1463
2719.944481010041,1407
2721.721189231226,1378
2723.4975368688415,1423
2725.273524222027,1423
2727.0491515900053,1366
2728.824419272075,1450
2730.5993275676146,1422
2732.3738767760838,1421
2734.148067197016,1360
2735.921899130031,1403
2737.6953728748194,1399
2739.468488731156,1448
2741.2412469988926,1382
2743.0136479779617,1393
2744.785691968372,1348
2746.5573792702116,1401
2748.3287101836504,1358
2750.099685008934,1433
2751.870304046388,1408
2753.640567596418,1447
2755.4104759595057,1456
2757.1800294362156,1440
2758.949228327187,1351
2760.7180729331412,1408
2762.486563554877,1406
2764.254700493272,1397
2766.022484049284,1385
2767.789914523947,1433
2769.5569922183786,1412
2771.3237174337705,1370
2773.090090471394,1428
2774.8561116326036,1412
2776.6217812188274,1376
2778.3870995315756,1437
2780.1520668724356,1451
2781.9166835430747,1348
2783.6809498452394,1429
2785.444866080754,1409
2787.2084325515225,1356
2788.971649559527,1354
2790.73451740683,1377
2792.4970363955713,1435
2794.2592068279705,1436
2796.0210290063264,1371
2797.7825032330147,1370
2799.543629810493,1375
2801.304409041296,1381
2803.0648412280366,1465
2804.8249266734088,1405
2806.5846656801846,1423
2808.344058551212,1422
2810.1031055894246,1404
2811.8618070978273,1386
2813.6201633795085,1446
2815.378174737636,1422
2817.1358414754536,1423
2818.893163896285,1404
2820.6501423035334,1412
2822.4067770006814,1415
2824.1630682912883,1367
2825.9190164789957,1386
2827.6746218675207,1404
2829.429884760661,1423
2831.184805462294,1379
2832.9393842763743,1407
2834.693621506936,1442
2836.4475174580916,1406
2838.201072434034,1402
2839.954286739034,1297
2841.707160677441,1422
2843.459694553685,1398
2845.2118886722724,1408
2846.96374333779,1373
2848.7152588549034,1436
2850.4664355283567,1422
2852.217273662973,1393
2853.9677735636546,1429
2855.7179355353833,1422
2857.4677598832186,1431
2859.217246912299,1401
2860.9663969278427,1474
2862.715210235146,1428
2864.4636871395846,1315
2866.211827946614,1393
2867.9596329617652,1327
2869.7071024906536,1394
2871.4542368389684,1359
2873.20103631248,1394
2874.947501217038,1437
2876.6936318585695,1424
2878.4394285430812,1426
2880.1848915766604,1395
2881.9300212654707,1436
2883.6748179157553,1422
2885.4192818338374,1421
2887.1634133261173,1385
2888.907212699077,1391
2890.6506802592744,1373
2892.393816313348,1408
2894.1366211680142,1459
2895.8790951300693,1410
2897.621238506388,1430
2899.363051603925,1354
2901.1045347297118,1407
2902.8456881908596,1415
2904.58651229456,1391
2906.327007348081,1427
2908.067173658772,1440
2909.8070115340597,1398
2911.5465212814497,1313
2913.285703208527,1386
2915.0245576229563,1395
2916.7630848324807,1400
2918.5012851449196,1401
2920.2391588681758,1385
2921.976706310227,1425
2923.7139277791334,1398
2925.4508235830313,1387
2927.187394030137,1395
2928.923639428745,1363
2930.6595600872306,1406
2932.395156314046,1414
2934.1304284177218,1383
2935.8653767068713,1420
2937.6000014901815,1384
2939.3343030764227,1455
2941.068281774442,1380
2942.8019378931644,1391
2944.5352717415976,1388
2946.2682836288236,1377
2948.0009738640065,1407
2949.7333427563885,1420
2951.465390615289,1419
2953.1971177501086,1428
2954.9285244703265,1415
2956.6596110855,1328
2958.3903779052657,1436
2960.1208252393385,1378
2961.8509533975125,1448
2963.5807626896617,1398
2965.3102534257378,1370
2967.0394259157715,1430
2968.768280469873,1373
2970.496817398232,1370
2972.2250370111146,1378
2973.952939618869,1393
2975.6805255319196,1418
2977.4077950607707,1443
2979.134748516006,1397
2980.861386208289,1354
2982.587708448359,1461
2984.313715547037,1450
2986.039407815222,1388
2987.764785563891,1426
2989.489849104102,1379
2991.2145987469908,1371
2992.9390348037705,1434
2994.6631575857346,1346
2996.3869674042576,1404
2998.1104645707887,1353
2999.83364939686,1380
3001.5565221940783,1453
3003.2790832741334,1436
3005.0013329487924,1379
3006.7232715298996,1369
3008.4448993293804,1315
3010.166216659239,1354
3011.887223831558,1380
3013.607921158498,1409
3015.3283089522993,1346
3017.0483875252826,1348
3018.7681571898443,1329
3020.4876182584626,1319
3022.2067710436927,1411
3023.9256158581707,1389
3025.644153014609,1412
3027.362382825801,1432
3029.0803056046193,1372
3030.797921664012,1406
3032.5152313170106,1410
3034.2322348767225,1394
3035.9489326563353,1448
3037.665324969115,1361
3039.3814121284063,1320
3041.097194447633,1322
3042.812672240299,1309
3044.5278458199855,1366
3046.2427155003525,1387
3047.9572815951406,1372
3049.671544418167,1355
3051.38550428333,1383
3053.0991615046073,1355
3054.812516396051,1392
3056.5255692717974,1404
3058.2383204460575,1365
3059.9507702331257,1366
3061.662918947372,1375
3063.3747669032446,1398
3065.0863144152736,1384
3066.7975617980674,1420
3068.508509366309,1376
3070.219157434767,1373
3071.9295063182844,1329
3073.639556331785,1397
3075.3493077902704,1372
3077.058761008821,1333
3078.7679163025964,1341
3080.476773986837,1410
3082.1853343768594,1367
3083.89359778806,1360
3085.6015645359153,1382
3087.3092349359786,1444
3089.016609303884,1405
3090.7236879553434,1383
3092.4304712061476,1335
3094.136959372166,1337
3095.843152769349,1375
3097.5490517137237,1415
3099.2546565213966,1328
3100.959967508554,1343
3102.66498499146,1401
3104.3697092864577,1343
3106.0741407099695,1399
3107.778279578498,1345
3109.482126208622,1346
3111.1856809170004,1372
3112.8889440203716,1424
3114.5919158355528,1420
3116.294596679439,1377
3117.996986869006,1437
3119.6990867213062,1393
3121.4008965534726,1456
3123.102416682717,1344
3124.803647426329,1397
3126.5045891016784,1389
3128.205242026213,1402
3129.90560651746,1442
3131.605682893025,1367
3133.3054714705922,1377
3135.0049725679282,1421
3136.7041865028714,1373
3138.4031135933465,1414
3140.101754157353,1355
3141.800108512971,1407
3143.498176978357,1398
3145.1959598717494,1353
3146.8934575114636,1312
3148.5906702158954,1252
3150.2875983035183,1324
3151.9842420928853,1386
3153.680601902627,1356
3155.376678051456,1347
3157.07247085816,1352
3158.767980641609,1409
3160.463207720748,1355
3162.158152414606,1337
3163.8528150422862,1391
3165.5471959229726,1411
3167.2412953759303,1358
3168.9351137204976,1404
3170.628651276098,1386
3172.3219083622307,1370
3174.014885298474,1378
3175.707582404485,1380
3177.4000000000005,1411
3179.092138404835,1425
3180.7839979388846,1368
3182.47557892212,1360
3184.166881674594,1399
3185.8579065164386,1394
3187.5486537678626,1373
3189.2391237491547,1402
3190.9293167806827,1397
3192.6192331828934,1347
3194.3088732763117,1332
3195.998237381542,1364
3197.687325819268,1402
3199.376138910251,1413
3201.064676975334,1331
3202.7529403354347,1360
3204.4409293115523,1357
3206.1286442247647,1388
3207.816085396229,1320
3209.5032531471825,1363
3211.190147798936,1323
3212.8767696728846,1305
3214.5631190905015,1347
3216.2491963733373,1309
3217.9350018430214,1363
3219.6205358212637,1341
3221.305798629851,1337
3222.990790590651,1322
3224.6755120256103,1356
3226.359963256751,1317
3228.0441446061795,1347
3229.7280563960758,1319
3231.411698948703,1326
3233.0950725863995,1338
3234.778177631587,1379
3236.461014406761,1367
3238.1435832345005,1317
3239.8258844374595,1361
3241.507918338374,1420
3243.1896852600576,1359
3244.8711855254023,1351
3246.552419457381,1334
3248.233387379042,1321
3249.914089613516,1368
3251.59452648401,1364
3253.274698313813,1396
3254.95460542629,1377
3256.6342481448855,1337
3258.313626793125,1369
3259.9927416946084,1271
3261.6715931730196,1349
3263.3501815521176,1313
3265.0285071557437,1353
3266.706570307815,1317
3268.3843713323286,1313
3270.0619105533615,1341
3271.739188295068,1315
3273.4162048816834,1344
3275.0929606375184,1370
3276.769455886966,1308
3278.445690954498,1332
3280.1216661646613,1381
3281.797381842087,1366
3283.4728383114807,1362
3285.1480358976296,1352
3286.8229749253996,1310
3288.4976557197333,1305
3290.172078605655,1334
3291.846243908266,1322
3293.5201519527463,1305
3295.193803064357,1277
3296.8671975684374,1372
3298.5403357904024,1353
3300.21321805575,1320
3301.8858446900567,1352
3303.558216018975,1376
3305.23033236824,1360
3306.9021940636603,1346
3308.57380143113,1376
3310.2451547966184,1405
3311.916254486174,1369
3313.5871008259246,1327
3315.2576941420766,1313
3316.9280347609147,1295
3318.5981230088046,1367
3320.2679592121895,1338
3321.9375436975924,1282
3323.606876791612,1339
3325.27595882093,1309
3326.944790112305,1356
3328.6133709925753,1321
3330.2817017886573,1320
3331.949782827547,1280
3333.617614436319,1293
3335.2851969421245,1310
3336.952530672199,1365
3338.619615953853,1358
3340.286453114475,1367
3341.9530424815357,1282
3343.619384382583,1361
3345.2854791452437,1351
3346.951327097224,1350
3348.6169285663073,1342
3350.2822838803577,1372
3351.947393367319,1363
3353.61225735521,1378
3355.2768761721345,1404
3356.9412501462693,1355
3358.605379605873,1343
3360.2692648792827,1326
3361.9329062949146,1324
3363.596304181263,1306
