CollectionTime,7/10/2024 4:13:51 PM
ExposureUsed,3
CalibratedSpectrum
-962.7078968117929,1014
-959.9714848408522,973
-957.2358232597828,1008
-954.5009119013725,1060
-951.7667505983302,1059
-949.0333391832855,1092
-946.3006774887896,1045
-943.5687653473143,1071
-940.837602591253,1021
-938.1071890529199,1039
-935.3775245645503,1034
-932.6486089583007,1079
-929.9204420662485,1028
-927.1930237203925,1035
-924.4663537526524,1027
-921.7404319948689,1040
-919.0152582788041,1088
-916.2908324361409,1090
-913.5671542984834,1097
-910.8442236973568,1059
-908.1220404642074,1014
-905.4006044304027,1103
-902.679915427231,1018
-899.959973285902,1047
-897.2407778375464,1028
-894.5223289132158,1073
-891.8046263438832,1034
-889.0876699604426,1092
-886.3714595937089,1045
-883.6559950744183,1050
-880.9412762332282,1046
-878.2273029007168,1068
-875.5140749073835,1029
-872.8015920836489,1036
-870.0898542598545,1036
-867.3788612662631,1033
-864.6686129330585,1050
-861.9591090903457,1044
-859.2503495681506,1029
-856.5423341964203,1038
-853.8350628050229,1063
-851.1285352237478,1091
-848.4227512823054,996
-845.7177108103272,1084
-843.0134136373656,1077
-840.3098595928943,1098
-837.6070485063082,1070
-834.9049802069229,1048
-832.2036545239757,1113
-829.5030712866244,1056
-826.8032303239481,1093
-824.1041314649472,1059
-821.4057745385428,1077
-818.7081593735775,1124
-816.0112857988148,1102
-813.3151536429393,1082
-810.6197627345566,1097
-807.9251129021936,1070
-805.2312039742981,1093
-802.5380357792392,1064
-799.8456081453069,1111
-797.1539209007124,1127
-794.462973873588,1098
-791.772766891987,1088
-789.083299783884,1154
-786.3945723771743,1128
-783.7065844996748,1112
-781.0193359791231,1096
-778.3328266431781,1053
-775.6470563194197,1124
-772.9620248353489,1071
-770.2777320183878,1077
-767.5941776958798,1149
-764.9113616950891,1130
-762.2292838432011,1086
-759.5479439673222,1118
-756.8673418944801,1039
-754.1874774516235,1109
-751.5083504656222,1093
-748.8299607632671,1162
-746.15230817127,1135
-743.475392516264,1142
-740.7992136248035,1145
-738.1237713233636,1095
-735.4490654383407,1169
-732.7750957960521,1149
-730.1018622227365,1115
-727.4293645445534,1137
-724.7576025875837,1107
-722.0865761778291,1196
-719.4162851412126,1200
-716.7467293035781,1157
-714.0779084906909,1205
-711.409822528237,1140
-708.7424712418238,1161
-706.0758544569796,1144
-703.4099719991541,1205
-700.7448236937178,1164
-698.0804093659622,1231
-695.4167288411002,1207
-692.7537819442656,1184
-690.0915685005134,1155
-687.4300883348199,1219
-684.7693412720819,1184
-682.1093271371178,1205
-679.4500457546669,1267
-676.7914969493897,1198
-674.1336805458676,1164
-671.4765963686034,1195
-668.8202442420206,1235
-666.1646239904642,1205
-663.5097354382001,1189
-660.8555784094151,1226
-658.2021527282176,1169
-655.5494582186366,1211
-652.8974947046223,1267
-650.2462620100463,1280
-647.5957599587009,1227
-644.9459883742998,1262
-642.2969470804776,1292
-639.6486359007902,1216
-637.0010546587141,1251
-634.3542031776476,1291
-631.7080812809096,1277
-629.0626887917401,1259
-626.4180255333008,1181
-623.7740913286734,1284
-621.1308860008619,1340
-618.4884093727904,1292
-615.8466612673046,1284
-613.2056415071715,1258
-610.5653499150785,1299
-607.9257863136347,1307
-605.28695052537,1276
-602.6488423727357,1301
-600.0114616781036,1249
-597.3748082637674,1302
-594.7388819519412,1298
-592.1036825647604,1317
-589.4692099242818,1336
-586.8354638524829,1359
-584.2024441712624,1324
-581.5701507024403,1387
-578.9385832677575,1315
-576.3077416888759,1381
-573.6776257873787,1269
-571.0482353847704,1299
-568.4195703024757,1303
-565.7916303618415,1330
-563.164415384135,1284
-560.5379251905453,1327
-557.9121596021815,1266
-555.2871184400748,1334
-552.6628015251767,1316
-550.0392086783606,1338
-547.4163397204204,1305
-544.794194472071,1411
-542.1727727539491,1357
-539.5520743866118,1373
-536.9320991905377,1330
-534.3128469861261,1429
-531.6943175936979,1402
-529.0765108334947,1412
-526.4594265256793,1525
-523.8430644903358,1563
-521.2274245474689,1767
-518.612506517005,1760
-515.9983102187913,1657
-513.3848354725959,1730
-510.77208209810846,1780
-508.16004991493924,1881
-505.5487387426199,1917
-502.9381484006032,2083
-500.3282787082628,2157
-497.71912948489364,2112
-495.1107005497117,1991
-492.5029917218539,1913
-489.8960028203786,1746
-487.28973366426493,1683
-484.68418407241325,1605
-482.07935386364494,1618
-479.47524285670266,1581
-476.87185087025,1600
-474.2691777228715,1583
-471.66722323307334,1555
-469.0659872192821,1573
-466.4654694998459,1550
-463.86566989303384,1623
-461.26658821703614,1537
-458.66822428996414,1552
-456.07057792985,1516
-453.4736489546475,1498
-450.877437182231,1564
-448.28194243039627,1586
-445.68716451686,1559
-443.09310325926003,1475
-440.49975847515555,1466
-437.9071299820263,1551
-435.31521759727354,1507
-432.72402113821954,1498
-430.13354042210767,1467
-427.5437752661022,1587
-424.95472548728867,1452
-422.36639090267386,1545
-419.7787713291855,1616
-417.1918665836721,1577
-414.60567648290385,1599
-412.0202008435715,1607
-409.4354394822874,1600
-406.8513922155845,1577
-404.26805885991723,1611
-401.685439231661,1631
-399.103533147112,1571
-396.522340422488,1628
-393.9418608739278,1604
-391.3620943174908,1649
-388.7830405691583,1529
-386.2046994448317,1559
-383.6270707603344,1411
-381.05015433141045,1395
-378.473949973725,1294
-375.8984575028645,1222
-373.32367673433623,1111
-370.74960748356875,962
-368.1762495659117,829
-365.60360279663576,776
-363.03166699093265,694
-360.4604419639154,612
-357.8899275306178,587
-355.32012350599507,528
-352.7510297049233,517
-350.1826459421999,535
-347.61497203254316,490
-345.04800779059235,489
-342.4817530309082,503
-339.91620756797226,516
-337.35137121618743,477
-334.7872437898774,477
-332.22382510328725,485
-329.66111497058273,497
-327.09911320585127,474
-324.53781962310075,490
-321.9772340362607,523
-319.4173562591816,461
-316.8581861056348,470
-314.2997233893127,465
-311.7419679238294,490
-309.1849195227194,478
-306.62857799943856,508
-304.0729431673641,522
-301.51801483979375,495
-298.963792829947,520
-296.41027695096386,517
-293.85746701590574,529
-291.3053628377552,533
-288.7539642294155,503
-286.2032710037115,532
-283.65328297338897,524
-281.1039999511146,540
-278.5554217494762,554
-276.007548180983,560
-273.4603790580651,541
-270.9139141930734,540
-268.3681533982807,537
-265.8230964858798,520
-263.27874326798565,563
-260.7350935566336,597
-258.1921471637804,571
-255.6499039013039,613
-253.10836358100266,596
-250.56752601459698,618
-248.02739101372765,568
-245.48795838995704,618
-242.94922795476816,606
-240.41119951956557,587
-237.8738728956746,613
-235.33724789434166,672
-232.80132432673452,670
-230.2661020039418,627
-227.73158073697357,670
-225.19776033676033,680
-222.66464061415422,673
-220.1322213799284,684
-217.60050244477725,656
-215.06948361931552,652
-212.53916471408013,670
-210.00954553952818,731
-207.48062590603843,680
-204.9524056239104,653
-202.4248845033651,682
-199.8980623545441,690
-197.37193898751036,679
-194.84651421224817,714
-192.32178783866232,691
-189.79775967657952,719
-187.27442953574644,767
-184.7517972258321,830
-182.2298625564256,783
-179.7086253370378,698
-177.18808537710026,706
-174.66824248596583,723
-172.14909647290835,696
-169.6306471471229,817
-167.11289431772548,832
-164.59583779375328,848
-162.07947738416453,829
-159.5638128978386,846
-157.04884414357605,882
-154.53457093009854,882
-152.02099306604828,842
-149.50811035998936,773
-146.99592262040665,725
-144.48442965570587,856
-141.97363127421409,790
-139.46352728417958,922
-136.95411749377126,885
-134.44540171107985,935
-131.93737974411636,882
-129.43005140081357,1017
-126.92341648902493,1102
-124.41747481652521,1232
-121.91222619101006,1439
-119.40767042009657,1734
-116.90380731132257,2182
-114.40063667214702,2241
-111.8981583099503,2928
-109.3963720320337,3943
-106.89527764561933,4847
-104.39487495785067,5332
-101.89516377579241,4671
-99.39614390642998,5404
-96.89781515667039,7025
-94.40017733334128,8208
-91.90323024319173,8031
-89.40697369289148,5636
-86.91140748903172,3687
-84.41653143812482,4411
-81.92234534660395,6373
-79.42884902082358,7541
-76.93604226705907,7334
-74.4439248915071,7813
-71.95249670028534,10908
-69.46175749943245,12561
-66.97170709490854,12803
-64.48234529259423,12184
-61.99367189829195,10823
-59.50568671772464,9493
-57.01838955653636,7456
-54.53178022029283,7765
-52.045858514480074,8119
-49.560624244506016,8834
-47.07607721569923,10555
-44.59221723330904,11548
-42.10904410250669,11575
-39.62655762838392,10567
-37.14475761595372,10742
-34.66364387015028,11732
-32.18321619582866,12093
-29.70347439776515,14289
-27.224418280657005,15330
-24.74604764912317,16491
-22.26836230770266,17754
-19.7913620608565,25418
-17.315046712966478,41279
-14.83941606833514,55846
-12.36446993118659,65039
-9.89020810566592,65039
-7.416630395839093,65039
-4.94373660569363,65039
-2.471526539137585,65039
-6.821210263296962E-13,65039
2.47084320796705,65039
4.941003281093458,65039
7.410480415786196,65039
9.879274808531363,65039
12.347386655893956,65039
14.814816154518212,65039
17.28156350112681,65039
19.74762889252179,65039
22.21301252558385,65039
24.67771459727237,20727
27.141735304626195,3774
29.605074844762612,2754
32.06773341487792,2270
34.52971121224755,1884
36.99100843422559,2032
39.45162527824516,2051
41.91156194181792,1689
44.370818622535126,1713
46.82939551806646,1444
49.287292826160524,1361
51.74451074464503,1459
54.201049471426245,1426
56.65690920448981,1335
59.112090141899785,1221
61.56659248179983,1306
64.02041642241159,1316
66.4735621620365,1361
68.92602989905402,1238
71.37781983192338,1156
73.82893215918205,1154
76.27936707944684,1133
78.72912479141326,1174
81.17820549385567,1175
83.62660938562783,1183
86.07433666566146,1165
88.5213875329681,1005
90.96776218663751,967
93.41346082583925,1037
95.85848364982041,1073
98.30283085790859,1089
100.7465026495089,1038
103.18949922410604,1159
105.63182078126385,1102
108.07346752062438,1043
110.51443964190923,1010
112.95473734491827,996
115.39436082953114,973
117.83331029570547,995
120.27158594347827,949
122.7091879729652,955
125.1461165843615,1032
127.58237197794062,1073
130.01795435405518,962
132.4528639131364,923
134.88710085569494,896
137.32066538231982,866
139.75355769367923,861
142.1857779905207,792
144.61732647366978,870
147.04820334403132,888
149.47840880258934,934
151.90794305040674,976
154.33680628862487,1010
156.76499871846443,1222
159.19252054122433,1315
161.61937195828352,1398
164.04555317109896,1644
166.47106438120693,1877
168.89590579022217,2187
171.320077599839,2217
173.7435800118302,2330
176.16641322804742,2603
178.58857745042144,2610
181.01007288096173,2821
183.43089972175687,2809
185.85105817497413,2906
188.27054844285988,2971
190.6893707277394,3116
193.10752523201643,3182
195.5250121581745,3267
197.9418317087751,3279
200.3579840864594,3345
202.7734694939469,3255
205.18828813403627,3352
207.6024402096051,3474
210.01592592360964,3560
212.42874547908548,3454
214.84089907914665,3603
217.2523869269868,3463
219.66320922587727,3487
222.0733661791695,3528
224.48285799029293,3471
226.8916848627572,3465
229.29984700014882,3538
231.7073446061355,3538
234.11417788446204,3532
236.520347038953,3606
238.92585227351185,3664
241.33069379212054,3715
243.73487179884035,3710
246.1383864978112,3718
248.541238093252,3711
250.9434267894609,3720
253.34495279081432,3771
255.74581630176783,3855
258.1460175268563,3775
260.54555667069314,3740
262.9444339379703,3713
265.3426495334594,3699
267.7402036620107,3592
270.1370965285529,3636
272.53332833809407,3568
274.9288992957214,3471
277.32380960660055,3473
279.718059475976,3423
282.1116491091717,3411
284.5045787115897,3438
286.89684848871195,3381
289.2884586460981,3392
291.67940938938807,3505
294.0697009242996,3405
296.4593334566299,3309
298.84830719225477,3530
301.23662233712923,3450
303.6242790972866,3407
306.01127767884,3299
308.39761828798066,3300
310.78330113097934,3287
313.16832641418534,3223
315.5526943440269,3280
317.9364051270112,3275
320.3194589697242,3178
322.70185607883093,3193
325.0835966610754,3210
327.4646809232805,3210
329.8451090723478,3100
332.2248813152577,3122
334.6039978590701,3198
336.9824589109231,3164
339.36026467803447,3035
341.7374153677,3110
344.113911187295,3115
346.48975234427337,3126
348.8649390461686,3124
351.2394715005918,3109
353.61334991523415,3046
355.9865744978655,2963
358.35914545633375,3009
360.73106299856715,3077
363.10232733257146,3099
365.47293866643247,3152
367.84289720831396,3081
370.2122031664593,3031
372.5808567491905,3065
374.9488581649083,3039
377.31620762209275,3014
379.6829053293021,3037
382.0489514951745,2973
384.4143463284262,2999
386.7790900378528,3002
389.14318283232853,2951
391.50662492080653,2896
393.86941651231916,2981
396.23155781597745,2968
398.5930490409713,2976
400.9538903965696,2988
403.3140820921202,2930
405.6736243370498,3011
408.03251734086336,2912
410.3907613131465,2944
412.74835646356166,2973
415.10530300185144,2834
417.4616011378372,2948
419.81725108141893,3041
422.1722530425758,2971
424.5266072313656,2985
426.880313857925,2961
429.2333731324701,2928
431.58578526529516,2914
433.9375504667738,2895
436.2886689473588,2989
438.63914091758113,2923
440.9889665880513,2899
443.33814616945835,2924
445.68667987257015,2903
448.03456790823395,2725
450.3818104873759,2862
452.72840782100013,2897
455.07436012019105,2880
457.41966759611057,2913
459.7643304600007,2916
462.10834892318155,2911
464.4517231970525,2941
466.79445349309174,2904
469.1365400228566,2868
471.4779829979826,2953
473.81878263018564,2850
476.15893913125876,2822
478.4984527130747,3032
480.8373235875855,3055
483.17555196682144,3087
485.5131380628919,3068
487.8500820879857,3112
490.1863842543697,3204
492.52204477439034,3321
494.8570638604725,3609
497.1914417251204,3772
499.52517858091653,3981
501.85827464052306,4224
504.19073011668036,4276
506.5225452222086,4332
508.85372017000566,4208
511.18425517304956,4192
513.514150444396,4432
515.8434061971808,4883
518.1720226446176,5618
520.4999999999999,5908
522.8273384766991,5675
525.1540382881666,5233
527.480099647932,4873
529.8055227696037,4314
532.1303078668694,3861
534.454455153496,3369
536.777964843328,3134
539.1008371502907,3085
541.4230722883866,3084
543.744670471698,3042
546.0656319143858,3026
548.3859568306899,2980
550.7056454349294,3015
553.0246979415016,3022
555.3431145648834,3022
557.6608955196306,2948
559.978041020377,2924
562.2945512818363,2992
564.6104265188006,3010
566.9256669461412,3089
569.2402727788082,3020
571.5542442318302,2994
573.8675815203156,3008
576.1802848594508,3053
578.4923544645015,3037
580.8037905508126,3101
583.114593333807,3085
585.4247630289875,3089
587.7342998519354,3171
590.0432040183106,3063
592.3514757438526,3079
594.6591152443794,3085
596.9661227357875,3104
599.2724984340531,2980
601.578242555231,3058
603.8833553154542,3061
606.1878369309362,3101
608.4916876179676,3138
610.7949075929192,3061
613.0974970722403,3022
615.3994562724587,3052
617.7007854101818,3135
620.0014847020951,3061
622.3015543649641,3034
624.6009946156324,3063
626.8998056710224,3135
629.1979877481361,3183
631.4955410640538,3103
633.7924658359349,3104
636.0887622810175,3064
638.3844306166192,3058
640.6794710601358,3054
642.9738838290426,2944
645.2676691408932,3108
647.5608272133207,3054
649.853358264037,3070
652.1452625108324,3142
654.4365401715764,3045
656.7271914642178,3066
659.0172166067838,3102
661.3066158173809,3140
663.5953893141935,3107
665.8835373154867,3149
668.1710600396028,3080
670.4579577049639,3051
672.7442305300709,3054
675.0298787335033,3096
677.3149025339197,3010
679.599302150058,3127
681.8830778007342,3093
684.1662297048437,3098
686.4487580813608,3060
688.7306631493387,3072
691.0119451279091,3033
693.2926042362834,3062
695.5726406937516,3049
697.8520547196814,3137
700.1308465335215,3072
702.4090163547982,3056
704.6865644031171,3090
706.9634908981619,3047
709.2397960596965,2997
711.5154801075631,3031
713.7905432616823,3104
716.0649857420548,3083
718.3388077687592,3097
720.612009561953,3032
722.8845913418733,3190
725.1565533288352,3123
727.427895743234,3095
729.6986188055427,3147
731.9687227363137,3142
734.238207756178,3029
736.5070740858458,3178
738.7753219461066,3049
741.0429515578281,3131
743.3099631419569,3164
745.5763569195191,3134
747.8421331116193,3168
750.1072919394409,3103
752.3718336242467,3114
754.6357583873777,3125
756.8990664502545,3088
759.1617580343765,3029
761.423833361321,3076
763.6852926527457,3149
765.9461361303862,3154
768.206364016058,3166
770.4659765316536,3133
772.7249738991469,3217
774.9833563405886,3190
777.2411240781092,3195
779.4982773339183,3116
781.7548163303044,3182
784.010741289634,3135
786.2660524343538,3240
788.5207499869881,3129
790.7748341701416,3173
793.0283052064964,3174
795.2811633188143,3027
797.5334087299362,3239
799.7850416627813,3165
802.0360623403484,3168
804.2864709857143,3193
806.5362678220353,3089
808.7854530725468,3063
811.0340269605625,3071
813.2819897094754,3120
815.5293415427581,3168
817.77608268396,3065
820.0222133567116,3218
822.2677337847211,3144
824.5126441917765,3208
826.7569448017433,3264
829.0006358385675,3128
831.2437175262731,3159
833.4861900889629,3182
835.7280537508192,3185
837.9693087361026,3199
840.2099552691533,3133
842.4499935743896,3125
844.689423876309,3139
846.9282463994886,3112
849.1664613685833,3188
851.4040690083276,3090
853.6410695435349,3159
855.877463199097,3145
858.1132501999847,3207
860.3484307712487,3172
862.5830051380175,3253
864.8169735254988,3097
867.0503361589791,3264
869.2830932638243,3198
871.5152450654786,3205
873.7467917894654,3104
875.9777336613873,3175
878.2080709069252,3188
880.4378037518389,3169
882.666932421968,3219
884.8954571432301,3193
887.1233781416219,3299
889.3506956432192,3274
891.5774098741766,3195
893.803521060728,3317
896.0290294291852,3265
898.2539352059397,3264
900.4782386174619,3138
902.7019398903011,3291
904.925039251085,3254
907.147536926521,3199
909.3694331433943,3241
911.59072812857,3210
913.8114221089921,3212
916.0315153116827,3257
918.2510079637437,3183
920.4699002923547,3159
922.6881925247761,3191
924.905884888345,3116
927.1229776104793,3157
929.3394709186747,3088
931.555365040506,3194
933.7706602036275,3251
935.9853566357709,3173
938.1994545647489,3217
940.4129542184515,3181
942.6258558248488,3206
944.8381596119883,3205
947.0498658079974,3224
949.2609746410825,3100
951.4714863395287,3205
953.6814011316998,3182
955.8907192460387,3131
958.0994409110671,3108
960.3075663553858,3133
962.5150958076741,3145
964.7220294966913,3128
966.928367651274,3154
969.1341105003388,3061
971.3392582728806,3132
973.5438111979742,3054
975.747769504772,3038
977.9511334225061,3108
980.153903180487,3071
982.3560790081052,3116
984.5576611348289,3080
986.7586497902058,3115
988.9590452038618,3051
991.158847605503,3041
993.3580572249133,3145
995.5566742919558,2921
997.7546990365728,2995
999.952131688785,2904
1002.1489724786926,3013
1004.3452216364743,2948
1006.5408793923874,2898
1008.7359459767691,2849
1010.9304216200343,2939
1013.1243065526781,2798
1015.3176010052733,2870
1017.510305208472,2827
1019.7024193930064,2852
1021.8939437896848,2849
1024.0848786293977,2910
1026.2752241431122,2808
1028.4649805618747,2859
1030.6541481168115,2855
1032.842727039127,2783
1035.0307175601051,2862
1037.2181199111074,2799
1039.4049343235752,2784
1041.591161029029,2828
1043.7768002590683,2791
1045.9618522453698,2808
1048.1463172196918,2834
1050.3301954138697,2745
1052.513487059818,2845
1054.69619238953,2845
1056.8783116350783,2825
1059.0598450286152,2804
1061.2407928023704,2855
1063.4211551886528,2829
1065.6009324198508,2856
1067.780124728432,2899
1069.9587323469414,2738
1072.1367555080046,2843
1074.314194444325,2755
1076.4910493886855,2772
1078.667320573947,2823
1080.843008233051,2761
1083.0181125990161,2811
1085.1926339049414,2790
1087.3665723840027,2738
1089.5399282694575,2753
1091.7127017946405,2755
1093.8848931929647,2693
1096.0565026979243,2776
1098.2275305430899,2737
1100.3979769621128,2758
1102.567842188722,2685
1104.737126456726,2748
1106.9058300000124,2787
1109.0739530525475,2794
1111.2414958483764,2842
1113.4084586216231,2815
1115.5748416064907,2792
1117.7406450372605,2768
1119.9058691482942,2762
1122.0705141740304,2774
1124.2345803489884,2692
1126.3980679077658,2732
1128.5609770850388,2777
1130.7233081155623,2816
1132.8850612341707,2743
1135.0462366757774,2701
1137.2068346753745,2720
1139.3668554680326,2820
1141.526299288901,2750
1143.68516637321,2812
1145.8434569562655,2736
1148.001171273455,2778
1150.158309560244,2729
1152.3148720521767,2730
1154.470858984876,2705
1156.626270594044,2681
1158.7811071154629,2773
1160.9353687849912,2724
1163.089055838569,2709
1165.242168512213,2691
1167.3947070420209,2755
1169.5466716641677,2685
1171.6980626149075,2686
1173.8488801305748,2717
1175.9991244475814,2719
1178.1487958024186,2625
1180.2978944316555,2732
1182.4464205719428,2719
1184.5943744600072,2699
1186.7417563326567,2684
1188.8885664267755,2651
1191.0348049793297,2648
1193.1804722273619,2665
1195.325568407995,2626
1197.4700937584303,2726
1199.614048515948,2724
1201.7574329179074,2694
1203.900247201746,2672
1206.042491604982,2850
1208.1841663652099,2685
1210.3252717201053,2814
1212.465807907422,2728
1214.6057751649923,2741
1216.7451737307279,2711
1218.8840038426192,2788
1221.0222657387353,2788
1223.1599596572241,2746
1225.2970858363137,2756
1227.4336445143094,2737
1229.5696359295966,2763
1231.705060320639,2791
1233.8399179259786,2741
1235.9742089842384,2719
1238.107933734118,2726
1240.2410924143974,2754
1242.373685263935,2773
1244.5057125216676,2814
1246.6371744266116,2745
1248.7680712178621,2850
1250.898403134593,2826
1253.028170416058,2759
1255.1573733015875,2791
1257.2860120305932,2771
1259.4140868425648,2779
1261.54159797707,2779
1263.6685456737569,2680
1265.7949301723515,2783
1267.9207517126597,2744
1270.046010534565,2824
1272.1707068780306,2847
1274.2948409830983,2775
1276.4184130898889,2702
1278.541423438603,2851
1280.6638722695184,2827
1282.785759822993,2798
1284.9070863394636,2859
1287.0278520594447,2851
1289.1480572235314,2892
1291.2677020723963,2921
1293.3867868467923,2911
1295.5053117875495,2910
1297.623277135579,2861
1299.740683131868,2840
1301.8575300174857,2880
1303.973818033578,2879
1306.0895474213703,2968
1308.2047184221678,3004
1310.3193312773528,2914
1312.4333862283888,2943
1314.5468835168163,2924
1316.659823384255,2861
1318.7722060724045,2877
1320.8840318230418,2987
1322.9953008780249,2974
1325.1060134792888,2922
1327.2161698688478,2910
1329.3257702887959,2907
1331.4348149813054,2878
1333.5433041886276,3007
1335.6512381530933,2928
1337.7586171171101,2887
1339.8654413231675,2948
1341.9717110138317,2933
1344.0774264317488,2879
1346.1825878196432,2882
1348.2871954203192,2915
1350.3912494766587,2889
1352.4947502316231,2936
1354.5976979282532,2813
1356.7000928096686,2879
1358.8019351190665,2912
1360.9032250997243,2902
1363.0039629949988,2921
1365.1041490483235,2821
1367.2037835032133,2915
1369.3028666032606,2829
1371.401398592137,2860
1373.4993797135926,2953
1375.5968102114575,2835
1377.6936903296396,2861
1379.7900203121262,2830
1381.8858004029835,2926
1383.9810308463561,2917
1386.075711886469,2889
1388.1698437676241,2920
1390.2634267342032,2879
1392.356461030667,2947
1394.4489469015557,2966
1396.5408845914872,2916
1398.6322743451592,3001
1400.7231164073469,2875
1402.813411022907,2970
1404.903158436773,3033
1406.9923588939578,2966
1409.0810126395531,3000
1411.1691199187303,2961
1413.2566809767386,3011
1415.343696058907,2936
1417.4301654106425,2953
1419.5160892774315,3001
1421.6014679048399,2964
1423.6863015385125,3002
1425.7705904241707,2923
1427.8543348076178,2939
1429.9375349347342,3083
1432.0201910514802,2929
1434.102303403894,3007
1436.1838722380944,3101
1438.2648978002767,2988
1440.3453803367174,3041
1442.4253200937692,3067
1444.5047173178677,3106
1446.5835722555234,3036
1448.6618851533285,3168
1450.739656257952,3176
1452.8168858161434,3148
1454.8935740747306,3205
1456.96972128062,3126
1459.045327680797,3293
1461.120393522327,3265
1463.1949190523528,3170
1465.2689045180973,3231
1467.3423501668608,3256
1469.415256246024,3323
1471.4876230030463,3332
1473.559450685465,3338
1475.6307395408976,3346
1477.7014898170391,3378
1479.771701761665,3491
1481.8413756226287,3527
1483.9105116478618,3427
1485.9791100853772,3545
1488.0471711832643,3505
1490.1146951896926,3473
1492.1816823529098,3556
1494.2481329212433,3716
1496.3140471430984,3792
1498.3794252669609,3700
1500.4442675413939,3624
1502.5085742150404,3607
1504.572345536622,3694
1506.6355817549388,3623
1508.6982831188702,3668
1510.7604498773744,3653
1512.8220822794883,3782
1514.8831805743293,3679
1516.9437450110909,3702
1519.003775839048,3854
1521.0632733075522,3785
1523.1222376660367,3864
1525.1806691640113,3851
1527.2385680510652,3946
1529.2959345768668,3857
1531.3527689911643,3922
1533.4090715437833,3933
1535.4648424846291,4011
1537.5200820636855,4072
1539.5747905310159,4090
1541.6289681367616,4060
1543.6826151311434,4152
1545.7357317644614,4111
1547.7883182870937,4192
1549.8403749494987,4245
1551.8919020022113,4246
1553.9428996958477,4361
1555.9933682811015,4371
1558.0433080087469,4385
1560.0927191296346,4416
1562.1416018946961,4475
1564.1899565549415,4468
1566.2377833614592,4444
1568.2850825654164,4325
1570.3318544180606,4319
1572.3780991707158,4185
1574.423817074788,4205
1576.4690083817595,3998
1578.5136733431923,4102
1580.5578122107272,3898
1582.601425236085,3813
1584.6445126710646,3761
1586.6870747675434,3645
1588.7291117774776,3603
1590.7706239529034,3483
1592.8116115459347,3492
1594.8520748087658,3379
1596.8920139936686,3412
1598.9314293529933,3333
1600.9703211391711,3283
1603.008689604711,3175
1605.0465350022005,3138
1607.0838575843068,3318
1609.1206576037753,3148
1611.1569353134305,3103
1613.1926909661765,3089
1615.2279248149953,3056
1617.2626371129481,2924
1619.2968281131757,3152
1621.3304980688963,3059
1623.3636472334088,3025
1625.39627586009,2997
1627.428384202396,2924
1629.459972513861,2942
1631.4910410480993,3015
1633.5215900588028,2953
1635.551619799744,3010
1637.5811305247717,3008
1639.6101224878166,2876
1641.6385959428862,2903
1643.6665511440683,2910
1645.693988345528,2883
1647.7209078015112,2904
1649.7473097663405,2915
1651.7731944944203,2958
1653.7985622402307,2928
1655.823413258333,2906
1657.847747803366,2860
1659.8715661300494,2783
1661.8948684931793,2891
1663.9176551476316,2880
1665.9399263483624,2906
1667.9616823504057,2841
1669.982923408873,2897
1672.0036497789574,2826
1674.0238617159293,2823
1676.043559475138,2783
1678.0627433120121,2821
1680.081413482059,2822
1682.0995702408654,2808
1684.117213844096,2907
1686.134344547495,2865
1688.1509626068864,2851
1690.1670682781705,2913
1692.182661817329,2892
1694.1977434804217,2867
1696.2123135235875,2808
1698.226372203043,2751
1700.2399197750851,2920
1702.2529564960905,2856
1704.2654826225112,2876
1706.277498410882,2844
1708.2890041178139,2860
1710.2999999999988,2875
1712.3104863142066,2813
1714.3204633172854,2890
1716.329931266163,2814
1718.3388904178469,2888
1720.3473410294214,2786
1722.3552833580516,2960
1724.3627176609807,2919
1726.3696441955308,2884
1728.3760632191033,2834
1730.3819749891782,2807
1732.3873797633146,2836
1734.3922777991502,2806
1736.3966693544012,2731
1738.4005546868639,2849
1740.4039340544127,2809
1742.406807715001,2817
1744.4091759266616,2730
1746.4110389475054,2818
1748.4123970357223,2780
1750.413250449582,2756
1752.4135994474318,2786
1754.4134442876993,2765
1756.4127852288902,2768
1758.4116225295893,2874
1760.4099564484595,2723
1762.407787244244,2810
1764.405115175764,2742
1766.4019405019203,2746
1768.3982634816916,2766
1770.3940843741357,2809
1772.3894034383907,2752
1774.3842209336717,2735
1776.378537119274,2817
1778.372352254571,2723
1780.3656665990156,2809
1782.3584804121397,2773
1784.3507939535534,2698
1786.3426074829463,2768
1788.3339212600863,2804
1790.3247355448211,2714
1792.3150505970766,2857
1794.3048666768573,2788
1796.2941840442477,2714
1798.2830029594106,2758
1800.2713236825884,2778
1802.2591464741004,2744
1804.2464715943465,2805
1806.2332993038058,2806
1808.2196298630352,2774
1810.2054635326708,2798
1812.190800573428,2717
1814.175641246101,2755
1816.1599858115628,2759
1818.1438345307652,2748
1820.127187664738,2736
1822.1100454745924,2819
1824.092408221516,2718
1826.0742761667766,2792
1828.055649571721,2751
1830.0365286977735,2712
1832.0169138064398,2761
1833.9968051593014,2797
1835.9762030180214,2694
1837.9551076443408,2829
1839.9335193000788,2784
1841.9114382471344,2827
1843.888864747485,2652
1845.8657990631878,2719
1847.842241456378,2716
1849.8181921892697,2743
1851.7936515241558,2721
1853.7686197234098,2770
1855.7430970494815,2768
1857.7170837649014,2721
1859.6905801322787,2758
1861.6635864143004,2800
1863.6361028737338,2761
1865.608129773424,2641
1867.5796673762961,2730
1869.5507159453537,2698
1871.521275743678,2758
1873.4913470344313,2808
1875.4609300808534,2758
1877.4300251462632,2739
1879.3986324940588,2828
1881.366752387717,2787
1883.3343850907936,2850
1885.3015308669228,2734
1887.268189979819,2637
1889.2343626932739,2780
1891.2000492711595,2810
1893.1652499774254,2674
1895.1299650761011,2760
1897.0941948312952,2852
1899.0579395071945,2893
1901.0211993680641,2787
1902.98397467825,2800
1904.9462657021745,2811
1906.9080727043415,2765
1908.869395949332,2787
1910.8302357018065,2806
1912.790592226504,2718
1914.7504657882428,2746
1916.7098566519212,2712
1918.6687650825133,2758
1920.6271913450764,2768
1922.5851357047422,2659
1924.5425984267245,2690
1926.499579776314,2759
1928.4560800188833,2713
1930.4120994198802,2703
1932.367638244833,2778
1934.32269675935,2666
1936.2772752291175,2737
1938.231373919899,2692
1940.1849930975404,2696
1942.1381330279637,2750
1944.0907939771696,2757
1946.0429762112412,2823
1947.9946799963363,2741
1949.9459055986945,2745
1951.896653284633,2781
1953.8469233205478,2762
1955.7967159729142,2697
1957.7460315082863,2726
1959.6948701932974,2636
1961.6432322946594,2752
1963.5911180791632,2734
1965.5385278136787,2683
1967.4854617651545,2689
1969.4319202006182,2698
1971.377903387176,2721
1973.3234115920136,2757
1975.268445082395,2769
1977.2130041256642,2699
1979.1570889892423,2791
1981.1006999406304,2776
1983.04383724741,2674
1984.986501177238,2761
1986.928691997853,2662
1988.8704099770712,2672
1990.811655382789,2665
1992.7524284829801,2744
1994.692729545698,2767
1996.6325588390755,2710
1998.5719166313224,2670
2000.5108031907307,2779
2002.4492187856677,2705
2004.387163684583,2731
2006.3246381560011,2698
2008.2616424685298,2668
2010.1981768908527,2688
2012.1342416917332,2746
2014.069837140014,2690
2016.0049635046162,2696
2017.9396210545406,2683
2019.8738100588666,2659
2021.8075307867502,2650
2023.740783507431,2693
2025.6735684902228,2664
2027.6058860045214,2662
2029.5377363198004,2673
2031.4691197056118,2649
2033.4000364315875,2638
2035.3304867674374,2754
2037.260470982952,2651
2039.189989347998,2681
2041.1190421325232,2755
2043.047629606554,2628
2044.9757520401945,2722
2046.9034097036288,2739
2048.8306028671195,2723
2050.7573318010086,2684
2052.683596775716,2654
2054.609398061742,2647
2056.5347359296647,2670
2058.4596106501403,2748
2060.384022493906,2710
2062.3079717317764,2729
2064.231458634646,2767
2066.1544834734873,2697
2068.077046519352,2694
2069.99914804337,2734
2071.9207883167524,2749
2073.8419676107865,2661
2075.7626861968406,2658
2077.6829443463607,2698
2079.6027423308715,2711
2081.522080421977,2680
2083.440958891362,2786
2085.359378010786,2651
2087.2773380520907,2679
2089.194839287196,2701
2091.111881988101,2739
2093.0284664268825,2676
2094.9445928756973,2710
2096.86026160678,2651
2098.775472892446,2670
2100.690227005088,2760
2102.604524217178,2704
2104.5183648012676,2629
2106.431749029985,2706
2108.34467717604,2733
2110.2571495122206,2684
2112.169166311393,2658
2114.080727846503,2703
2115.9918343905747,2691
2117.902486216711,2641
2119.8126835980956,2670
2121.722426807987,2653
2123.6317161197285,2785
2125.5405518067364,2819
2127.448934142509,2717
2129.356863400624,2701
2131.264339854737,2765
2133.1713637785815,2707
2135.077935445972,2708
2136.9840551308002,2819
2138.889723107037,2858
2140.7949396487334,2706
2142.699705030018,2775
2144.6040195250994,2762
2146.507883408264,2740
2148.4112969538774,2787
2150.3142604363848,2761
2152.2167741303097,2785
2154.1188383102535,2805
2156.0204532508997,2818
2157.9216192270064,2774
2159.822336513414,2814
2161.7226053850413,2802
2163.622426116884,2751
2165.5217989840185,2793
2167.4207242616,2754
2169.319202224862,2811
2171.2172331491165,2790
2173.1148173097563,2812
2175.0119549822507,2856
2176.90864644215,2779
2178.8048919650823,2839
2180.7006918267534,2779
2182.596046302952,2785
2184.4909556695407,2830
2186.3854202024645,2846
2188.279440177746,2823
2190.173015871487,2819
2192.066147559868,2790
2193.958835519149,2804
2195.851080025667,2825
2197.7428813558417,2842
2199.6342397861667,2816
2201.5251555932186,2815
2203.415629053651,2888
2205.3056604441986,2783
2207.19525004167,2799
2209.084398122958,2848
2210.9731049650327,2863
2212.861370844941,2867
2214.749196039812,2916
2216.636580826851,2781
2218.523525483344,2785
2220.410030286655,2850
2222.296095514226,2867
2224.1817214435805,2938
2226.066908352319,2793
2227.951656518121,2902
2229.835966218746,2948
2231.71983773203,2810
2233.6032713358913,2896
2235.486267308324,2898
2237.3688259274036,2869
2239.2509474712824,2837
2241.132632218193,2921
2243.013880446447,2824
2244.8946924344323,2822
2246.7750684606203,2899
2248.6550088035574,2869
2250.534513741871,2811
2252.413583554265,2909
2254.292218519526,2882
2256.170418916517,2842
2258.0481850241786,2816
2259.925517121534,2851
2261.8024154876825,2897
2263.678880401803,2856
2265.5549121431536,2859
2267.430510991071,2896
2269.305677224971,2821
2271.180411124348,2797
2273.0547129687766,2747
2274.9285830379076,2884
2276.8020216114737,2772
2278.6750289692845,2795
2280.5476053912294,2818
2282.4197511572766,2868
2284.2914665474727,2823
2286.162751841943,2795
2288.0336073208937,2880
2289.904033264608,2912
2291.774029953448,2817
2293.6435976678554,2889
2295.5127366883517,2764
2297.381447295534,2912
2299.2497297700825,2806
2301.1175843927526,2748
2302.9850114443825,2727
2304.852011205885,2671
2306.7185839582553,2720
2308.5847299825664,2755
2310.4504495599676,2670
2312.3157429716925,2743
2314.1806104990483,2583
2316.0450524234247,2725
2317.9090690262888,2716
2319.772660589186,2611
2321.635827393742,2669
2323.498569721661,2732
2325.3608878547248,2619
2327.2227820747967,2690
2329.0842526638157,2670
2330.945299903803,2657
2332.805924076857,2665
2334.6661254651535,2614
2336.525904350951,2669
2338.3852610165827,2603
2340.244195744464,2624
2342.102708817088,2611
2343.9608005170253,2711
2345.8184711269287,2641
2347.675720929526,2627
2349.532550207628,2652
2351.38895924412,2649
2353.24494832197,2519
2355.100517724223,2633
2356.955667734004,2667
2358.810398634514,2689
2360.664710709037,2555
2362.5186042409337,2627
2364.3720795136437,2617
2366.225136810686,2529
2368.0777764156583,2709
2369.929998612237,2621
2371.7818036841777,2646
2373.633191915315,2626
2375.484163589562,2685
2377.3347189909114,2714
2379.184858403434,2730
2381.03458211128,2662
2382.8838903986775,2611
2384.732783549936,2697
2386.5812618494406,2697
2388.4293255816588,2639
2390.2769750311327,2636
2392.1242104824883,2674
2393.971032220427,2675
2395.8174405297295,2679
2397.6634356952563,2661
2399.509018001947,2637
2401.3541877348193,2660
2403.1989451789705,2678
2405.043290619576,2587
2406.8872243418905,2637
2408.730746631247,2699
2410.5738577730594,2670
2412.4165580528183,2629
2414.258847756095,2657
2416.100727168537,2601
2417.9421965758734,2674
2419.783256263912,2704
2421.623906518538,2726
2423.4641476257157,2646
2425.303979871491,2666
2427.143403541984,2665
2428.9824189233977,2592
2430.821026302012,2631
2432.6592259641866,2734
2434.497018196361,2622
2436.33440328505,2643
2438.171381516851,2653
2440.00795317844,2658
2441.844118556569,2645
2443.6798779380724,2650
2445.5152316098606,2662
2447.3501798589255,2678
2449.1847229723357,2591
2451.0188612372403,2637
2452.8525949408663,2617
2454.6859243705203,2652
2456.518849813587,2612
2458.3513715575314,2601
2460.183489889895,2670
2462.015205098301,2630
2463.8465174704493,2621
2465.67742729412,2743
2467.5079348571717,2651
2469.338040447542,2654
2471.1677443532476,2655
2472.9970468623833,2662
2474.825948263123,2683
2476.6544488437207,2658
2478.482548892508,2651
2480.310248697896,2695
2482.137548548374,2638
2483.9644487325118,2676
2485.790949538956,2680
2487.617051256433,2652
2489.44275417375,2658
2491.26805857979,2773
2493.0929647635157,2739
2494.917473013971,2732
2496.741583620276,2688
2498.5652968716304,2704
2500.3886130573137,2779
2502.2115324666834,2665
2504.0340553891765,2674
2505.856182114308,2672
2507.6779129316733,2642
2509.499248130945,2797
2511.3201880018764,2706
2513.140732834298,2614
2514.9608829181198,2761
2516.780638543331,2681
2518.6,2739
2520.418967578273,2727
2522.237541568376,2698
2524.0557222606144,2752
2525.8735099453706,2728
2527.6909049131086,2751
2529.507907454368,2768
2531.32451785977,2774
2533.140736420014,2760
2534.9565634258774,2754
2536.771999168218,2716
2538.5870439379714,2857
2540.4016980261526,2719
2542.2159617238544,2696
2544.02983532225,2726
2545.8433191125914,2842
2547.656413386209,2793
2549.4691184345115,2798
2551.2814345489874,2811
2553.093362021204,2843
2554.904901142808,2744
2556.716052205523,2764
2558.526815501153,2807
2560.3371913215824,2708
2562.147179958771,2865
2563.956781704761,2897
2565.7659968516705,2857
2567.5748256916986,2781
2569.3832685171224,2887
2571.1913256202984,2850
2572.9989972936614,2950
2574.806283829725,2911
2576.613185521084,2887
2578.4197026604074,2891
2580.2258355404483,2892
2582.031584454035,2930
2583.836949694077,2881
2585.6419315535613,2892
2587.4465303255533,2986
2589.2507463032002,2885
2591.0545797797245,2881
2592.8580310484303,2924
2594.6611004026995,2951
2596.463788135992,2939
2598.266094541849,2850
2600.0680199138874,2901
2601.869564545807,2933
2603.670728731383,2925
2605.4715127644704,2891
2607.2719169390048,3035
2609.071941548998,3004
2610.8715868885433,2855
2612.670853251811,2943
2614.469740933052,2933
2616.268250226594,2933
2618.0663814268455,2851
2619.864134828292,2938
2621.6615107255006,2950
2623.458509413115,2978
2625.2551311858597,2913
2627.0513763385347,2860
2628.8472451660223,2906
2630.6427379632833,2904
2632.4378550253564,2899
2634.232596647359,2918
2636.026963124488,2917
2637.8209547520187,2911
2639.6145718253065,2892
2641.407814639785,2844
2643.200683490966,2903
2644.9931786744414,2852
2646.7853004858807,2881
2648.577049221034,2774
2650.3684251757277,2756
2652.1594286458712,2813
2653.9500599274484,2718
2655.740319316525,2795
2657.5302071092437,2790
2659.3197236018286,2742
2661.10886909058,2727
2662.8976438718782,2839
2664.686048242183,2794
2666.4740824980327,2748
2668.2617469360443,2728
2670.0490418529134,2840
2671.8359675454153,2752
2673.622524310403,2683
2675.408712444811,2737
2677.1945322456495,2736
2678.979984010009,2706
2680.76506803506,2686
2682.5497846180497,2710
2684.334134056306,2678
2686.1181166472343,2705
2687.9017326883213,2756
2689.6849824771293,2724
2691.4678663113013,2750
2693.2503844885596,2619
2695.032537306705,2705
2696.8143250636167,2775
2698.5957480572542,2738
2700.3768065856534,2740
2702.1575009469316,2709
2703.937831439283,2599
2705.717798360982,2668
2707.4974020103837,2612
2709.276642685917,2748
2711.055520686095,2647
2712.834036309506,2674
2714.612189854819,2670
2716.389981620782,2724
2718.1674119062204,2702
2719.944481010041,2582
2721.721189231226,2615
2723.4975368688415,2615
2725.273524222027,2654
2727.0491515900053,2623
2728.824419272075,2597
2730.5993275676146,2663
2732.3738767760838,2658
2734.148067197016,2678
2735.921899130031,2714
2737.6953728748194,2667
2739.468488731156,2547
2741.2412469988926,2650
2743.0136479779617,2675
2744.785691968372,2596
2746.5573792702116,2666
2748.3287101836504,2749
2750.099685008934,2675
2751.870304046388,2630
2753.640567596418,2634
2755.4104759595057,2711
2757.1800294362156,2623
2758.949228327187,2637
2760.7180729331412,2677
2762.486563554877,2581
2764.254700493272,2649
2766.022484049284,2669
2767.789914523947,2573
2769.5569922183786,2605
2771.3237174337705,2634
2773.090090471394,2684
2774.8561116326036,2641
2776.6217812188274,2554
2778.3870995315756,2691
2780.1520668724356,2625
2781.9166835430747,2618
2783.6809498452394,2612
2785.444866080754,2673
2787.2084325515225,2616
2788.971649559527,2653
2790.73451740683,2609
2792.4970363955713,2655
2794.2592068279705,2656
2796.0210290063264,2625
2797.7825032330147,2594
2799.543629810493,2573
2801.304409041296,2672
2803.0648412280366,2682
2804.8249266734088,2670
2806.5846656801846,2598
2808.344058551212,2584
2810.1031055894246,2654
2811.8618070978273,2606
2813.6201633795085,2696
2815.378174737636,2614
2817.1358414754536,2604
2818.893163896285,2695
2820.6501423035334,2622
2822.4067770006814,2626
2824.1630682912883,2641
2825.9190164789957,2642
2827.6746218675207,2683
2829.429884760661,2676
2831.184805462294,2697
2832.9393842763743,2687
2834.693621506936,2745
2836.4475174580916,2559
2838.201072434034,2648
2839.954286739034,2725
2841.707160677441,2690
2843.459694553685,2678
2845.2118886722724,2724
2846.96374333779,2668
2848.7152588549034,2596
2850.4664355283567,2638
2852.217273662973,2602
2853.9677735636546,2663
2855.7179355353833,2729
2857.4677598832186,2640
2859.217246912299,2667
2860.9663969278427,2616
2862.715210235146,2702
2864.4636871395846,2700
2866.211827946614,2601
2867.9596329617652,2611
2869.7071024906536,2635
2871.4542368389684,2723
2873.20103631248,2570
2874.947501217038,2605
2876.6936318585695,2586
2878.4394285430812,2623
2880.1848915766604,2649
2881.9300212654707,2635
2883.6748179157553,2616
2885.4192818338374,2590
2887.1634133261173,2578
2888.907212699077,2649
2890.6506802592744,2732
2892.393816313348,2666
2894.1366211680142,2645
2895.8790951300693,2618
2897.621238506388,2666
2899.363051603925,2709
2901.1045347297118,2619
2902.8456881908596,2574
2904.58651229456,2640
2906.327007348081,2750
2908.067173658772,2714
2909.8070115340597,2572
2911.5465212814497,2591
2913.285703208527,2614
2915.0245576229563,2617
2916.7630848324807,2603
2918.5012851449196,2638
2920.2391588681758,2583
2921.976706310227,2677
2923.7139277791334,2518
2925.4508235830313,2630
2927.187394030137,2770
2928.923639428745,2629
2930.6595600872306,2691
2932.395156314046,2712
2934.1304284177218,2547
2935.8653767068713,2663
2937.6000014901815,2639
2939.3343030764227,2706
2941.068281774442,2585
2942.8019378931644,2675
2944.5352717415976,2696
2946.2682836288236,2714
2948.0009738640065,2709
2949.7333427563885,2638
2951.465390615289,2599
2953.1971177501086,2623
2954.9285244703265,2647
2956.6596110855,2714
2958.3903779052657,2636
2960.1208252393385,2603
2961.8509533975125,2650
2963.5807626896617,2654
2965.3102534257378,2655
2967.0394259157715,2652
2968.768280469873,2723
2970.496817398232,2680
2972.2250370111146,2634
2973.952939618869,2669
2975.6805255319196,2626
2977.4077950607707,2658
2979.134748516006,2695
2980.861386208289,2632
2982.587708448359,2615
2984.313715547037,2692
2986.039407815222,2766
2987.764785563891,2663
2989.489849104102,2657
2991.2145987469908,2596
2992.9390348037705,2563
2994.6631575857346,2671
2996.3869674042576,2609
2998.1104645707887,2686
2999.83364939686,2686
3001.5565221940783,2670
3003.2790832741334,2695
3005.0013329487924,2633
3006.7232715298996,2608
3008.4448993293804,2756
3010.166216659239,2647
3011.887223831558,2544
3013.607921158498,2610
3015.3283089522993,2590
3017.0483875252826,2664
3018.7681571898443,2612
3020.4876182584626,2665
3022.2067710436927,2708
3023.9256158581707,2655
3025.644153014609,2602
3027.362382825801,2609
3029.0803056046193,2707
3030.797921664012,2667
3032.5152313170106,2649
3034.2322348767225,2599
3035.9489326563353,2677
3037.665324969115,2656
3039.3814121284063,2652
3041.097194447633,2666
3042.812672240299,2700
3044.5278458199855,2628
3046.2427155003525,2710
3047.9572815951406,2590
3049.671544418167,2634
3051.38550428333,2623
3053.0991615046073,2628
3054.812516396051,2526
3056.5255692717974,2568
3058.2383204460575,2531
3059.9507702331257,2602
3061.662918947372,2558
3063.3747669032446,2588
3065.0863144152736,2649
3066.7975617980674,2666
3068.508509366309,2669
3070.219157434767,2696
3071.9295063182844,2723
3073.639556331785,2678
3075.3493077902704,2592
3077.058761008821,2694
3078.7679163025964,2560
3080.476773986837,2673
3082.1853343768594,2627
3083.89359778806,2585
3085.6015645359153,2622
3087.3092349359786,2672
3089.016609303884,2637
3090.7236879553434,2644
3092.4304712061476,2684
3094.136959372166,2659
3095.843152769349,2627
3097.5490517137237,2706
3099.2546565213966,2653
3100.959967508554,2659
3102.66498499146,2685
3104.3697092864577,2640
3106.0741407099695,2638
3107.778279578498,2696
3109.482126208622,2656
3111.1856809170004,2643
3112.8889440203716,2637
3114.5919158355528,2646
3116.294596679439,2705
3117.996986869006,2772
3119.6990867213062,2711
3121.4008965534726,2655
3123.102416682717,2572
3124.803647426329,2731
3126.5045891016784,2771
3128.205242026213,2691
3129.90560651746,2709
3131.605682893025,2737
3133.3054714705922,2762
3135.0049725679282,2641
3136.7041865028714,2598
3138.4031135933465,2598
3140.101754157353,2585
3141.800108512971,2640
3143.498176978357,2656
3145.1959598717494,2670
3146.8934575114636,2663
3148.5906702158954,2604
3150.2875983035183,2646
3151.9842420928853,2647
3153.680601902627,2651
3155.376678051456,2544
3157.07247085816,2609
3158.767980641609,2616
3160.463207720748,2603
3162.158152414606,2696
3163.8528150422862,2642
3165.5471959229726,2642
3167.2412953759303,2643
3168.9351137204976,2708
3170.628651276098,2638
3172.3219083622307,2584
3174.014885298474,2662
3175.707582404485,2692
3177.4000000000005,2617
3179.092138404835,2725
3180.7839979388846,2684
3182.47557892212,2649
3184.166881674594,2669
3185.8579065164386,2672
3187.5486537678626,2709
3189.2391237491547,2589
3190.9293167806827,2619
3192.6192331828934,2670
3194.3088732763117,2659
3195.998237381542,2670
3197.687325819268,2567
3199.376138910251,2668
3201.064676975334,2665
3202.7529403354347,2626
3204.4409293115523,2642
3206.1286442247647,2599
3207.816085396229,2639
3209.5032531471825,2593
3211.190147798936,2690
3212.8767696728846,2575
3214.5631190905015,2529
3216.2491963733373,2593
3217.9350018430214,2629
3219.6205358212637,2670
3221.305798629851,2566
3222.990790590651,2570
3224.6755120256103,2566
3226.359963256751,2534
3228.0441446061795,2542
3229.7280563960758,2675
3231.411698948703,2692
3233.0950725863995,2652
3234.778177631587,2587
3236.461014406761,2648
3238.1435832345005,2580
3239.8258844374595,2688
3241.507918338374,2591
3243.1896852600576,2637
3244.8711855254023,2610
3246.552419457381,2708
3248.233387379042,2603
3249.914089613516,2636
3251.59452648401,2624
3253.274698313813,2605
3254.95460542629,2611
3256.6342481448855,2662
3258.313626793125,2628
3259.9927416946084,2570
3261.6715931730196,2563
3263.3501815521176,2628
3265.0285071557437,2574
3266.706570307815,2629
3268.3843713323286,2627
3270.0619105533615,2557
3271.739188295068,2610
3273.4162048816834,2633
3275.0929606375184,2668
3276.769455886966,2655
3278.445690954498,2740
3280.1216661646613,2626
3281.797381842087,2688
3283.4728383114807,2594
3285.1480358976296,2538
3286.8229749253996,2605
3288.4976557197333,2619
3290.172078605655,2614
3291.846243908266,2601
3293.5201519527463,2648
3295.193803064357,2610
3296.8671975684374,2573
3298.5403357904024,2515
3300.21321805575,2621
3301.8858446900567,2550
3303.558216018975,2529
3305.23033236824,2558
3306.9021940636603,2627
3308.57380143113,2578
3310.2451547966184,2572
3311.916254486174,2629
3313.5871008259246,2619
3315.2576941420766,2676
3316.9280347609147,2598
3318.5981230088046,2570
3320.2679592121895,2539
3321.9375436975924,2607
3323.606876791612,2612
3325.27595882093,2584
3326.944790112305,2535
3328.6133709925753,2522
3330.2817017886573,2560
3331.949782827547,2545
3333.617614436319,2611
3335.2851969421245,2623
3336.952530672199,2608
3338.619615953853,2646
3340.286453114475,2590
3341.9530424815357,2611
3343.619384382583,2601
3345.2854791452437,2611
3346.951327097224,2691
3348.6169285663073,2715
3350.2822838803577,2600
3351.947393367319,2712
3353.61225735521,2637
3355.2768761721345,2569
3356.9412501462693,2517
3358.605379605873,2651
3360.2692648792827,2582
3361.9329062949146,2671
3363.596304181263,2727
