CollectionTime,7/10/2024 4:15:37 PM
ExposureUsed,3
CalibratedSpectrum
-962.7078968117929,822
-959.9714848408522,875
-957.2358232597828,905
-954.5009119013725,873
-951.7667505983302,919
-949.0333391832855,966
-946.3006774887896,927
-943.5687653473143,893
-940.837602591253,956
-938.1071890529199,952
-935.3775245645503,917
-932.6486089583007,937
-929.9204420662485,901
-927.1930237203925,881
-924.4663537526524,929
-921.7404319948689,938
-919.0152582788041,951
-916.2908324361409,934
-913.5671542984834,910
-910.8442236973568,953
-908.1220404642074,902
-905.4006044304027,868
-902.679915427231,933
-899.959973285902,878
-897.2407778375464,867
-894.5223289132158,881
-891.8046263438832,898
-889.0876699604426,920
-886.3714595937089,911
-883.6559950744183,911
-880.9412762332282,909
-878.2273029007168,837
-875.5140749073835,872
-872.8015920836489,931
-870.0898542598545,905
-867.3788612662631,882
-864.6686129330585,890
-861.9591090903457,938
-859.2503495681506,902
-856.5423341964203,915
-853.8350628050229,897
-851.1285352237478,904
-848.4227512823054,919
-845.7177108103272,899
-843.0134136373656,944
-840.3098595928943,920
-837.6070485063082,896
-834.9049802069229,964
-832.2036545239757,937
-829.5030712866244,907
-826.8032303239481,913
-824.1041314649472,912
-821.4057745385428,914
-818.7081593735775,891
-816.0112857988148,929
-813.3151536429393,972
-810.6197627345566,901
-807.9251129021936,931
-805.2312039742981,917
-802.5380357792392,947
-799.8456081453069,923
-797.1539209007124,927
-794.462973873588,925
-791.772766891987,911
-789.083299783884,914
-786.3945723771743,929
-783.7065844996748,950
-781.0193359791231,950
-778.3328266431781,989
-775.6470563194197,942
-772.9620248353489,954
-770.2777320183878,936
-767.5941776958798,990
-764.9113616950891,971
-762.2292838432011,956
-759.5479439673222,953
-756.8673418944801,989
-754.1874774516235,973
-751.5083504656222,980
-748.8299607632671,1006
-746.15230817127,1000
-743.475392516264,1001
-740.7992136248035,1001
-738.1237713233636,964
-735.4490654383407,988
-732.7750957960521,972
-730.1018622227365,999
-727.4293645445534,1030
-724.7576025875837,1038
-722.0865761778291,992
-719.4162851412126,1001
-716.7467293035781,1041
-714.0779084906909,1047
-711.409822528237,1052
-708.7424712418238,1005
-706.0758544569796,1028
-703.4099719991541,1015
-700.7448236937178,1022
-698.0804093659622,1078
-695.4167288411002,981
-692.7537819442656,1033
-690.0915685005134,981
-687.4300883348199,1035
-684.7693412720819,1033
-682.1093271371178,1070
-679.4500457546669,1015
-676.7914969493897,1066
-674.1336805458676,1061
-671.4765963686034,1072
-668.8202442420206,1072
-666.1646239904642,1085
-663.5097354382001,1081
-660.8555784094151,1041
-658.2021527282176,1082
-655.5494582186366,1076
-652.8974947046223,1033
-650.2462620100463,1070
-647.5957599587009,1083
-644.9459883742998,1082
-642.2969470804776,1074
-639.6486359007902,1142
-637.0010546587141,1185
-634.3542031776476,1136
-631.7080812809096,1157
-629.0626887917401,1118
-626.4180255333008,1127
-623.7740913286734,1073
-621.1308860008619,1159
-618.4884093727904,1153
-615.8466612673046,1123
-613.2056415071715,1140
-610.5653499150785,1097
-607.9257863136347,1164
-605.28695052537,1151
-602.6488423727357,1122
-600.0114616781036,1086
-597.3748082637674,1158
-594.7388819519412,1113
-592.1036825647604,1131
-589.4692099242818,1116
-586.8354638524829,1126
-584.2024441712624,1158
-581.5701507024403,1145
-578.9385832677575,1187
-576.3077416888759,1170
-573.6776257873787,1157
-571.0482353847704,1157
-568.4195703024757,1149
-565.7916303618415,1183
-563.164415384135,1154
-560.5379251905453,1192
-557.9121596021815,1152
-555.2871184400748,1108
-552.6628015251767,1177
-550.0392086783606,1208
-547.4163397204204,1222
-544.794194472071,1227
-542.1727727539491,1280
-539.5520743866118,1234
-536.9320991905377,1268
-534.3128469861261,1288
-531.6943175936979,1288
-529.0765108334947,1276
-526.4594265256793,1267
-523.8430644903358,1429
-521.2274245474689,1560
-518.612506517005,1547
-515.9983102187913,1568
-513.3848354725959,1558
-510.77208209810846,1563
-508.16004991493924,1579
-505.5487387426199,1708
-502.9381484006032,1774
-500.3282787082628,1725
-497.71912948489364,1764
-495.1107005497117,1774
-492.5029917218539,1670
-489.8960028203786,1476
-487.28973366426493,1487
-484.68418407241325,1401
-482.07935386364494,1361
-479.47524285670266,1350
-476.87185087025,1372
-474.2691777228715,1412
-471.66722323307334,1380
-469.0659872192821,1375
-466.4654694998459,1356
-463.86566989303384,1392
-461.26658821703614,1426
-458.66822428996414,1401
-456.07057792985,1406
-453.4736489546475,1378
-450.877437182231,1341
-448.28194243039627,1334
-445.68716451686,1350
-443.09310325926003,1323
-440.49975847515555,1372
-437.9071299820263,1313
-435.31521759727354,1313
-432.72402113821954,1348
-430.13354042210767,1409
-427.5437752661022,1397
-424.95472548728867,1410
-422.36639090267386,1368
-419.7787713291855,1419
-417.1918665836721,1433
-414.60567648290385,1427
-412.0202008435715,1456
-409.4354394822874,1408
-406.8513922155845,1513
-404.26805885991723,1447
-401.685439231661,1482
-399.103533147112,1442
-396.522340422488,1471
-393.9418608739278,1414
-391.3620943174908,1397
-388.7830405691583,1383
-386.2046994448317,1319
-383.6270707603344,1288
-381.05015433141045,1193
-378.473949973725,1082
-375.8984575028645,1091
-373.32367673433623,969
-370.74960748356875,846
-368.1762495659117,801
-365.60360279663576,752
-363.03166699093265,671
-360.4604419639154,571
-357.8899275306178,526
-355.32012350599507,550
-352.7510297049233,573
-350.1826459421999,593
-347.61497203254316,571
-345.04800779059235,543
-342.4817530309082,507
-339.91620756797226,490
-337.35137121618743,515
-334.7872437898774,483
-332.22382510328725,521
-329.66111497058273,500
-327.09911320585127,520
-324.53781962310075,547
-321.9772340362607,550
-319.4173562591816,484
-316.8581861056348,534
-314.2997233893127,512
-311.7419679238294,513
-309.1849195227194,526
-306.62857799943856,590
-304.0729431673641,615
-301.51801483979375,544
-298.963792829947,518
-296.41027695096386,581
-293.85746701590574,651
-291.3053628377552,568
-288.7539642294155,514
-286.2032710037115,571
-283.65328297338897,612
-281.1039999511146,654
-278.5554217494762,640
-276.007548180983,603
-273.4603790580651,573
-270.9139141930734,579
-268.3681533982807,626
-265.8230964858798,599
-263.27874326798565,576
-260.7350935566336,636
-258.1921471637804,669
-255.6499039013039,765
-253.10836358100266,743
-250.56752601459698,725
-248.02739101372765,631
-245.48795838995704,711
-242.94922795476816,746
-240.41119951956557,787
-237.8738728956746,804
-235.33724789434166,785
-232.80132432673452,771
-230.2661020039418,728
-227.73158073697357,789
-225.19776033676033,886
-222.66464061415422,921
-220.1322213799284,924
-217.60050244477725,818
-215.06948361931552,818
-212.53916471408013,824
-210.00954553952818,839
-207.48062590603843,807
-204.9524056239104,765
-202.4248845033651,766
-199.8980623545441,761
-197.37193898751036,736
-194.84651421224817,814
-192.32178783866232,858
-189.79775967657952,812
-187.27442953574644,904
-184.7517972258321,987
-182.2298625564256,930
-179.7086253370378,804
-177.18808537710026,796
-174.66824248596583,826
-172.14909647290835,974
-169.6306471471229,1006
-167.11289431772548,966
-164.59583779375328,930
-162.07947738416453,865
-159.5638128978386,993
-157.04884414357605,1124
-154.53457093009854,1202
-152.02099306604828,1300
-149.50811035998936,1125
-146.99592262040665,984
-144.48442965570587,1264
-141.97363127421409,1167
-139.46352728417958,1149
-136.95411749377126,1205
-134.44540171107985,1210
-131.93737974411636,1157
-129.43005140081357,1451
-126.92341648902493,1917
-124.41747481652521,1883
-121.91222619101006,1613
-119.40767042009657,1806
-116.90380731132257,2358
-114.40063667214702,2832
-111.8981583099503,4451
-109.3963720320337,8415
-106.89527764561933,13226
-104.39487495785067,16087
-101.89516377579241,14869
-99.39614390642998,15259
-96.89781515667039,20647
-94.40017733334128,29682
-91.90323024319173,35501
-89.40697369289148,31426
-86.91140748903172,17434
-84.41653143812482,10362
-81.92234534660395,11771
-79.42884902082358,17369
-76.93604226705907,21218
-74.4439248915071,21748
-71.95249670028534,23000
-69.46175749943245,21277
-66.97170709490854,18724
-64.48234529259423,16289
-61.99367189829195,13822
-59.50568671772464,10423
-57.01838955653636,7489
-54.53178022029283,8416
-52.045858514480074,11269
-49.560624244506016,12581
-47.07607721569923,14827
-44.59221723330904,15472
-42.10904410250669,15905
-39.62655762838392,14139
-37.14475761595372,12237
-34.66364387015028,12877
-32.18321619582866,14126
-29.70347439776515,16302
-27.224418280657005,16410
-24.74604764912317,18218
-22.26836230770266,23040
-19.7913620608565,36230
-17.315046712966478,62639
-14.83941606833514,65041
-12.36446993118659,65041
-9.89020810566592,65041
-7.416630395839093,65041
-4.94373660569363,65041
-2.471526539137585,65041
-6.821210263296962E-13,65041
2.47084320796705,65041
4.941003281093458,65041
7.410480415786196,65041
9.879274808531363,65041
12.347386655893956,65041
14.814816154518212,65041
17.28156350112681,65041
19.74762889252179,65041
22.21301252558385,65041
24.67771459727237,21708
27.141735304626195,4795
29.605074844762612,4481
32.06773341487792,3640
34.52971121224755,3033
36.99100843422559,2668
39.45162527824516,2776
41.91156194181792,2096
44.370818622535126,2102
46.82939551806646,1941
49.287292826160524,2225
51.74451074464503,2711
54.201049471426245,1993
56.65690920448981,1387
59.112090141899785,1440
61.56659248179983,1686
64.02041642241159,2113
66.4735621620365,2339
68.92602989905402,2261
71.37781983192338,2305
73.82893215918205,2018
76.27936707944684,1585
78.72912479141326,1340
81.17820549385567,1313
83.62660938562783,1352
86.07433666566146,1319
88.5213875329681,1224
90.96776218663751,1269
93.41346082583925,1485
95.85848364982041,1639
98.30283085790859,1874
100.7465026495089,1378
103.18949922410604,1484
105.63182078126385,1407
108.07346752062438,1356
110.51443964190923,1326
112.95473734491827,1189
115.39436082953114,1251
117.83331029570547,1180
120.27158594347827,1084
122.7091879729652,1162
125.1461165843615,1215
127.58237197794062,1137
130.01795435405518,971
132.4528639131364,1023
134.88710085569494,1203
137.32066538231982,1199
139.75355769367923,1376
142.1857779905207,1243
144.61732647366978,1165
147.04820334403132,1022
149.47840880258934,1019
151.90794305040674,1117
154.33680628862487,1204
156.76499871846443,1208
159.19252054122433,1399
161.61937195828352,1606
164.04555317109896,1659
166.47106438120693,2008
168.89590579022217,2172
171.320077599839,2228
173.7435800118302,2475
176.16641322804742,2515
178.58857745042144,2648
181.01007288096173,2711
183.43089972175687,2902
185.85105817497413,2823
188.27054844285988,2785
190.6893707277394,2932
193.10752523201643,3042
195.5250121581745,3069
197.9418317087751,3112
200.3579840864594,3025
202.7734694939469,3029
205.18828813403627,3317
207.6024402096051,3274
210.01592592360964,3265
212.42874547908548,3186
214.84089907914665,3281
217.2523869269868,3281
219.66320922587727,3224
222.0733661791695,3318
224.48285799029293,3289
226.8916848627572,3279
229.29984700014882,3309
231.7073446061355,3429
234.11417788446204,3361
236.520347038953,3538
238.92585227351185,3514
241.33069379212054,3461
243.73487179884035,3561
246.1383864978112,3459
248.541238093252,3487
250.9434267894609,3589
253.34495279081432,3608
255.74581630176783,3435
258.1460175268563,3295
260.54555667069314,3419
262.9444339379703,3329
265.3426495334594,3419
267.7402036620107,3389
270.1370965285529,3325
272.53332833809407,3266
274.9288992957214,3254
277.32380960660055,3216
279.718059475976,3132
282.1116491091717,3138
284.5045787115897,3189
286.89684848871195,3224
289.2884586460981,3207
291.67940938938807,3279
294.0697009242996,3290
296.4593334566299,3324
298.84830719225477,3235
301.23662233712923,3183
303.6242790972866,3167
306.01127767884,3043
308.39761828798066,3121
310.78330113097934,3175
313.16832641418534,3155
315.5526943440269,3064
317.9364051270112,3019
320.3194589697242,3012
322.70185607883093,3009
325.0835966610754,3151
327.4646809232805,3026
329.8451090723478,3003
332.2248813152577,2923
334.6039978590701,2947
336.9824589109231,3105
339.36026467803447,2986
341.7374153677,2915
344.113911187295,2827
346.48975234427337,2969
348.8649390461686,2871
351.2394715005918,2880
353.61334991523415,2836
355.9865744978655,2838
358.35914545633375,2922
360.73106299856715,2904
363.10232733257146,2876
365.47293866643247,2876
367.84289720831396,2873
370.2122031664593,2850
372.5808567491905,2819
374.9488581649083,2861
377.31620762209275,2840
379.6829053293021,2801
382.0489514951745,2787
384.4143463284262,2808
386.7790900378528,2851
389.14318283232853,2735
391.50662492080653,2750
393.86941651231916,2814
396.23155781597745,2791
398.5930490409713,2764
400.9538903965696,2784
403.3140820921202,2797
405.6736243370498,2781
408.03251734086336,2734
410.3907613131465,2718
412.74835646356166,2767
415.10530300185144,2862
417.4616011378372,2829
419.81725108141893,2682
422.1722530425758,2729
424.5266072313656,2792
426.880313857925,2717
429.2333731324701,2740
431.58578526529516,2755
433.9375504667738,2785
436.2886689473588,2721
438.63914091758113,2760
440.9889665880513,2732
443.33814616945835,2758
445.68667987257015,2635
448.03456790823395,2735
450.3818104873759,2783
452.72840782100013,2754
455.07436012019105,2693
457.41966759611057,2668
459.7643304600007,2675
462.10834892318155,2703
464.4517231970525,2697
466.79445349309174,2690
469.1365400228566,2698
471.4779829979826,2793
473.81878263018564,2680
476.15893913125876,2696
478.4984527130747,2632
480.8373235875855,2788
483.17555196682144,2823
485.5131380628919,2815
487.8500820879857,2892
490.1863842543697,2986
492.52204477439034,3055
494.8570638604725,3289
497.1914417251204,3443
499.52517858091653,3497
501.85827464052306,3711
504.19073011668036,3876
506.5225452222086,3845
508.85372017000566,3874
511.18425517304956,3893
513.514150444396,4045
515.8434061971808,4527
518.1720226446176,5418
520.4999999999999,5647
522.8273384766991,5424
525.1540382881666,5093
527.480099647932,4623
529.8055227696037,4008
532.1303078668694,3512
534.454455153496,3130
536.777964843328,3036
539.1008371502907,2944
541.4230722883866,2895
543.744670471698,2894
546.0656319143858,2853
548.3859568306899,2846
550.7056454349294,2829
553.0246979415016,2892
555.3431145648834,2890
557.6608955196306,2718
559.978041020377,2753
562.2945512818363,2719
564.6104265188006,2757
566.9256669461412,2822
569.2402727788082,2739
571.5542442318302,2798
573.8675815203156,2838
576.1802848594508,2821
578.4923544645015,2913
580.8037905508126,2934
583.114593333807,2807
585.4247630289875,2891
587.7342998519354,2821
590.0432040183106,2876
592.3514757438526,2834
594.6591152443794,2827
596.9661227357875,2853
599.2724984340531,2841
601.578242555231,2850
603.8833553154542,2891
606.1878369309362,2944
608.4916876179676,2848
610.7949075929192,2784
613.0974970722403,2791
615.3994562724587,2803
617.7007854101818,2837
620.0014847020951,2866
622.3015543649641,2867
624.6009946156324,2808
626.8998056710224,2770
629.1979877481361,2889
631.4955410640538,2842
633.7924658359349,2906
636.0887622810175,2922
638.3844306166192,2841
640.6794710601358,2818
642.9738838290426,2941
645.2676691408932,2894
647.5608272133207,2871
649.853358264037,2958
652.1452625108324,2818
654.4365401715764,2893
656.7271914642178,2832
659.0172166067838,2878
661.3066158173809,2906
663.5953893141935,2876
665.8835373154867,2869
668.1710600396028,2961
670.4579577049639,2962
672.7442305300709,3035
675.0298787335033,2931
677.3149025339197,2977
679.599302150058,2849
681.8830778007342,2872
684.1662297048437,2969
686.4487580813608,2909
688.7306631493387,2904
691.0119451279091,3026
693.2926042362834,2950
695.5726406937516,2956
697.8520547196814,3007
700.1308465335215,2931
702.4090163547982,2856
704.6865644031171,2944
706.9634908981619,2899
709.2397960596965,3001
711.5154801075631,2945
713.7905432616823,2848
716.0649857420548,2987
718.3388077687592,2967
720.612009561953,2908
722.8845913418733,2930
725.1565533288352,2964
727.427895743234,2829
729.6986188055427,2953
731.9687227363137,2949
734.238207756178,2946
736.5070740858458,2957
738.7753219461066,2917
741.0429515578281,2913
743.3099631419569,2989
745.5763569195191,2984
747.8421331116193,2968
750.1072919394409,2913
752.3718336242467,3087
754.6357583873777,3015
756.8990664502545,2973
759.1617580343765,2958
761.423833361321,3060
763.6852926527457,2950
765.9461361303862,3003
768.206364016058,2953
770.4659765316536,2943
772.7249738991469,2987
774.9833563405886,3033
777.2411240781092,3019
779.4982773339183,2995
781.7548163303044,2895
784.010741289634,2906
786.2660524343538,3062
788.5207499869881,3005
790.7748341701416,2942
793.0283052064964,3015
795.2811633188143,2989
797.5334087299362,3085
799.7850416627813,3013
802.0360623403484,3022
804.2864709857143,3038
806.5362678220353,3001
808.7854530725468,3015
811.0340269605625,3023
813.2819897094754,3017
815.5293415427581,3034
817.77608268396,3099
820.0222133567116,3015
822.2677337847211,3009
824.5126441917765,2967
826.7569448017433,3070
829.0006358385675,2997
831.2437175262731,3040
833.4861900889629,3010
835.7280537508192,3040
837.9693087361026,3012
840.2099552691533,3075
842.4499935743896,2965
844.689423876309,3113
846.9282463994886,3006
849.1664613685833,3042
851.4040690083276,3116
853.6410695435349,3085
855.877463199097,3102
858.1132501999847,3090
860.3484307712487,3058
862.5830051380175,3104
864.8169735254988,3157
867.0503361589791,3062
869.2830932638243,3050
871.5152450654786,3023
873.7467917894654,3093
875.9777336613873,3099
878.2080709069252,3203
880.4378037518389,3188
882.666932421968,3092
884.8954571432301,3081
887.1233781416219,2966
889.3506956432192,3129
891.5774098741766,3068
893.803521060728,3141
896.0290294291852,3104
898.2539352059397,3066
900.4782386174619,3125
902.7019398903011,3090
904.925039251085,3127
907.147536926521,3066
909.3694331433943,3057
911.59072812857,3184
913.8114221089921,3135
916.0315153116827,3076
918.2510079637437,2996
920.4699002923547,3029
922.6881925247761,2928
924.905884888345,2990
927.1229776104793,3103
929.3394709186747,3002
931.555365040506,3000
933.7706602036275,3113
935.9853566357709,2978
938.1994545647489,3017
940.4129542184515,2968
942.6258558248488,2974
944.8381596119883,3033
947.0498658079974,3046
949.2609746410825,3027
951.4714863395287,2951
953.6814011316998,3102
955.8907192460387,3013
958.0994409110671,3105
960.3075663553858,3057
962.5150958076741,3027
964.7220294966913,3044
966.928367651274,3035
969.1341105003388,2989
971.3392582728806,3048
973.5438111979742,3004
975.747769504772,2916
977.9511334225061,3014
980.153903180487,2947
982.3560790081052,2981
984.5576611348289,3003
986.7586497902058,2914
988.9590452038618,2974
991.158847605503,2893
993.3580572249133,2991
995.5566742919558,2927
997.7546990365728,2882
999.952131688785,2937
1002.1489724786926,2824
1004.3452216364743,2902
1006.5408793923874,2826
1008.7359459767691,2824
1010.9304216200343,2889
1013.1243065526781,2862
1015.3176010052733,2833
1017.510305208472,2801
1019.7024193930064,2880
1021.8939437896848,2860
1024.0848786293977,2836
1026.2752241431122,2841
1028.4649805618747,2800
1030.6541481168115,2903
1032.842727039127,2747
1035.0307175601051,2810
1037.2181199111074,2715
1039.4049343235752,2750
1041.591161029029,2753
1043.7768002590683,2691
1045.9618522453698,2775
1048.1463172196918,2811
1050.3301954138697,2799
1052.513487059818,2786
1054.69619238953,2806
1056.8783116350783,2822
1059.0598450286152,2762
1061.2407928023704,2771
1063.4211551886528,2833
1065.6009324198508,2817
1067.780124728432,2793
1069.9587323469414,2726
1072.1367555080046,2799
1074.314194444325,2783
1076.4910493886855,2732
1078.667320573947,2722
1080.843008233051,2735
1083.0181125990161,2707
1085.1926339049414,2723
1087.3665723840027,2784
1089.5399282694575,2643
1091.7127017946405,2626
1093.8848931929647,2708
1096.0565026979243,2700
1098.2275305430899,2748
1100.3979769621128,2698
1102.567842188722,2660
1104.737126456726,2667
1106.9058300000124,2704
1109.0739530525475,2681
1111.2414958483764,2712
1113.4084586216231,2641
1115.5748416064907,2621
1117.7406450372605,2784
1119.9058691482942,2788
1122.0705141740304,2713
1124.2345803489884,2668
1126.3980679077658,2675
1128.5609770850388,2779
1130.7233081155623,2706
1132.8850612341707,2782
1135.0462366757774,2744
1137.2068346753745,2784
1139.3668554680326,2812
1141.526299288901,2752
1143.68516637321,2643
1145.8434569562655,2698
1148.001171273455,2688
1150.158309560244,2771
1152.3148720521767,2665
1154.470858984876,2622
1156.626270594044,2719
1158.7811071154629,2688
1160.9353687849912,2751
1163.089055838569,2744
1165.242168512213,2758
1167.3947070420209,2745
1169.5466716641677,2717
1171.6980626149075,2707
1173.8488801305748,2740
1175.9991244475814,2717
1178.1487958024186,2731
1180.2978944316555,2687
1182.4464205719428,2651
1184.5943744600072,2691
1186.7417563326567,2645
1188.8885664267755,2687
1191.0348049793297,2706
1193.1804722273619,2722
1195.325568407995,2674
1197.4700937584303,2622
1199.614048515948,2597
1201.7574329179074,2551
1203.900247201746,2793
1206.042491604982,2671
1208.1841663652099,2683
1210.3252717201053,2769
1212.465807907422,2741
1214.6057751649923,2783
1216.7451737307279,2752
1218.8840038426192,2850
1221.0222657387353,2729
1223.1599596572241,2855
1225.2970858363137,2774
1227.4336445143094,2685
1229.5696359295966,2796
1231.705060320639,2814
1233.8399179259786,2805
1235.9742089842384,2821
1238.107933734118,2821
1240.2410924143974,2794
1242.373685263935,2789
1244.5057125216676,2755
1246.6371744266116,2758
1248.7680712178621,2766
1250.898403134593,2747
1253.028170416058,2797
1255.1573733015875,2719
1257.2860120305932,2759
1259.4140868425648,2797
1261.54159797707,2831
1263.6685456737569,2809
1265.7949301723515,2757
1267.9207517126597,2779
1270.046010534565,2740
1272.1707068780306,2847
1274.2948409830983,2792
1276.4184130898889,2828
1278.541423438603,2844
1280.6638722695184,2823
1282.785759822993,2841
1284.9070863394636,2840
1287.0278520594447,2819
1289.1480572235314,2727
1291.2677020723963,2791
1293.3867868467923,2840
1295.5053117875495,2926
1297.623277135579,2866
1299.740683131868,2861
1301.8575300174857,2920
1303.973818033578,2982
1306.0895474213703,2964
1308.2047184221678,2870
1310.3193312773528,2918
1312.4333862283888,2922
1314.5468835168163,2987
1316.659823384255,3039
1318.7722060724045,3060
1320.8840318230418,2977
1322.9953008780249,2921
1325.1060134792888,2989
1327.2161698688478,3022
1329.3257702887959,2966
1331.4348149813054,2980
1333.5433041886276,2908
1335.6512381530933,3014
1337.7586171171101,3001
1339.8654413231675,2992
1341.9717110138317,2911
1344.0774264317488,2846
1346.1825878196432,2979
1348.2871954203192,2855
1350.3912494766587,2905
1352.4947502316231,2898
1354.5976979282532,2956
1356.7000928096686,2981
1358.8019351190665,2953
1360.9032250997243,2960
1363.0039629949988,2922
1365.1041490483235,2907
1367.2037835032133,2949
1369.3028666032606,3034
1371.401398592137,2967
1373.4993797135926,2932
1375.5968102114575,2943
1377.6936903296396,3019
1379.7900203121262,2907
1381.8858004029835,2890
1383.9810308463561,2902
1386.075711886469,2959
1388.1698437676241,2956
1390.2634267342032,2973
1392.356461030667,2964
1394.4489469015557,2998
1396.5408845914872,3001
1398.6322743451592,2995
1400.7231164073469,3040
1402.813411022907,3036
1404.903158436773,3070
1406.9923588939578,3004
1409.0810126395531,3057
1411.1691199187303,2980
1413.2566809767386,3030
1415.343696058907,2975
1417.4301654106425,2964
1419.5160892774315,3046
1421.6014679048399,2995
1423.6863015385125,2952
1425.7705904241707,3027
1427.8543348076178,3106
1429.9375349347342,3120
1432.0201910514802,3023
1434.102303403894,3066
1436.1838722380944,3131
1438.2648978002767,3053
1440.3453803367174,3168
1442.4253200937692,3037
1444.5047173178677,3141
1446.5835722555234,3166
1448.6618851533285,3149
1450.739656257952,3198
1452.8168858161434,3361
1454.8935740747306,3191
1456.96972128062,3226
1459.045327680797,3140
1461.120393522327,3304
1463.1949190523528,3398
1465.2689045180973,3394
1467.3423501668608,3396
1469.415256246024,3355
1471.4876230030463,3357
1473.559450685465,3506
1475.6307395408976,3415
1477.7014898170391,3493
1479.771701761665,3513
1481.8413756226287,3544
1483.9105116478618,3509
1485.9791100853772,3651
1488.0471711832643,3612
1490.1146951896926,3563
1492.1816823529098,3519
1494.2481329212433,3656
1496.3140471430984,3566
1498.3794252669609,3691
1500.4442675413939,3698
1502.5085742150404,3686
1504.572345536622,3663
1506.6355817549388,3688
1508.6982831188702,3684
1510.7604498773744,3758
1512.8220822794883,3749
1514.8831805743293,3768
1516.9437450110909,3665
1519.003775839048,3865
1521.0632733075522,3859
1523.1222376660367,3851
1525.1806691640113,3864
1527.2385680510652,3844
1529.2959345768668,3901
1531.3527689911643,3908
1533.4090715437833,4010
1535.4648424846291,4003
1537.5200820636855,4038
1539.5747905310159,4105
1541.6289681367616,4126
1543.6826151311434,4031
1545.7357317644614,4180
1547.7883182870937,4105
1549.8403749494987,4254
1551.8919020022113,4220
1553.9428996958477,4405
1555.9933682811015,4290
1558.0433080087469,4285
1560.0927191296346,4473
1562.1416018946961,4468
1564.1899565549415,4450
1566.2377833614592,4383
1568.2850825654164,4357
1570.3318544180606,4313
1572.3780991707158,4268
1574.423817074788,4263
1576.4690083817595,4125
1578.5136733431923,4069
1580.5578122107272,3925
1582.601425236085,3912
1584.6445126710646,3808
1586.6870747675434,3751
1588.7291117774776,3589
1590.7706239529034,3556
1592.8116115459347,3553
1594.8520748087658,3466
1596.8920139936686,3451
1598.9314293529933,3493
1600.9703211391711,3415
1603.008689604711,3292
1605.0465350022005,3283
1607.0838575843068,3313
1609.1206576037753,3269
1611.1569353134305,3244
1613.1926909661765,3208
1615.2279248149953,3223
1617.2626371129481,3187
1619.2968281131757,3181
1621.3304980688963,3154
1623.3636472334088,3064
1625.39627586009,3150
1627.428384202396,3090
1629.459972513861,3081
1631.4910410480993,3056
1633.5215900588028,3162
1635.551619799744,3053
1637.5811305247717,2940
1639.6101224878166,3028
1641.6385959428862,2998
1643.6665511440683,3010
1645.693988345528,3061
1647.7209078015112,2979
1649.7473097663405,3053
1651.7731944944203,3068
1653.7985622402307,2958
1655.823413258333,2947
1657.847747803366,3041
1659.8715661300494,3022
1661.8948684931793,2931
1663.9176551476316,3009
1665.9399263483624,3028
1667.9616823504057,3015
1669.982923408873,2894
1672.0036497789574,3023
1674.0238617159293,2974
1676.043559475138,2941
1678.0627433120121,2951
1680.081413482059,2906
1682.0995702408654,2993
1684.117213844096,2893
1686.134344547495,2975
1688.1509626068864,2870
1690.1670682781705,2954
1692.182661817329,2901
1694.1977434804217,3102
1696.2123135235875,2976
1698.226372203043,2935
1700.2399197750851,3043
1702.2529564960905,3073
1704.2654826225112,2989
1706.277498410882,2975
1708.2890041178139,2953
1710.2999999999988,2971
1712.3104863142066,3031
1714.3204633172854,3016
1716.329931266163,2841
1718.3388904178469,3027
1720.3473410294214,2959
1722.3552833580516,2875
1724.3627176609807,2963
1726.3696441955308,2996
1728.3760632191033,2902
1730.3819749891782,2913
1732.3873797633146,2900
1734.3922777991502,2954
1736.3966693544012,2904
1738.4005546868639,2890
1740.4039340544127,2988
1742.406807715001,2933
1744.4091759266616,2868
1746.4110389475054,2936
1748.4123970357223,2966
1750.413250449582,3030
1752.4135994474318,2925
1754.4134442876993,2976
1756.4127852288902,2917
1758.4116225295893,2998
1760.4099564484595,2818
1762.407787244244,2855
1764.405115175764,2910
1766.4019405019203,2940
1768.3982634816916,2948
1770.3940843741357,2928
1772.3894034383907,2946
1774.3842209336717,2939
1776.378537119274,2906
1778.372352254571,2942
1780.3656665990156,2905
1782.3584804121397,2914
1784.3507939535534,2930
1786.3426074829463,2948
1788.3339212600863,2936
1790.3247355448211,2969
1792.3150505970766,2890
1794.3048666768573,2919
1796.2941840442477,2854
1798.2830029594106,2822
1800.2713236825884,3032
1802.2591464741004,2943
1804.2464715943465,2992
1806.2332993038058,2920
1808.2196298630352,2985
1810.2054635326708,2887
1812.190800573428,2979
1814.175641246101,3016
1816.1599858115628,2914
1818.1438345307652,3011
1820.127187664738,2991
1822.1100454745924,3023
1824.092408221516,2934
1826.0742761667766,2934
1828.055649571721,2942
1830.0365286977735,2988
1832.0169138064398,2945
1833.9968051593014,2992
1835.9762030180214,2980
1837.9551076443408,2946
1839.9335193000788,2981
1841.9114382471344,2935
1843.888864747485,3016
1845.8657990631878,3009
1847.842241456378,2901
1849.8181921892697,3021
1851.7936515241558,2986
1853.7686197234098,2956
1855.7430970494815,2940
1857.7170837649014,3019
1859.6905801322787,2947
1861.6635864143004,2976
1863.6361028737338,2926
1865.608129773424,2944
1867.5796673762961,2966
1869.5507159453537,2920
1871.521275743678,2987
1873.4913470344313,2964
1875.4609300808534,3022
1877.4300251462632,2959
1879.3986324940588,2963
1881.366752387717,2950
1883.3343850907936,2983
1885.3015308669228,3000
1887.268189979819,2963
1889.2343626932739,2937
1891.2000492711595,2945
1893.1652499774254,2988
1895.1299650761011,3076
1897.0941948312952,2969
1899.0579395071945,2933
1901.0211993680641,2984
1902.98397467825,3045
1904.9462657021745,2971
1906.9080727043415,3095
1908.869395949332,2988
1910.8302357018065,2983
1912.790592226504,2957
1914.7504657882428,2930
1916.7098566519212,3043
1918.6687650825133,3047
1920.6271913450764,3027
1922.5851357047422,2975
1924.5425984267245,2947
1926.499579776314,2999
1928.4560800188833,3014
1930.4120994198802,3024
1932.367638244833,3052
1934.32269675935,3082
1936.2772752291175,3088
1938.231373919899,3010
1940.1849930975404,3020
1942.1381330279637,2979
1944.0907939771696,3009
1946.0429762112412,3056
1947.9946799963363,2970
1949.9459055986945,3016
1951.896653284633,2981
1953.8469233205478,3028
1955.7967159729142,2920
1957.7460315082863,2991
1959.6948701932974,3011
1961.6432322946594,2975
1963.5911180791632,2992
1965.5385278136787,3009
1967.4854617651545,2982
1969.4319202006182,2961
1971.377903387176,2958
1973.3234115920136,3088
1975.268445082395,2969
1977.2130041256642,2969
1979.1570889892423,2996
1981.1006999406304,3034
1983.04383724741,3013
1984.986501177238,2976
1986.928691997853,3033
1988.8704099770712,2949
1990.811655382789,3007
1992.7524284829801,3039
1994.692729545698,3001
1996.6325588390755,3071
1998.5719166313224,2960
2000.5108031907307,3004
2002.4492187856677,2945
2004.387163684583,2979
2006.3246381560011,2927
2008.2616424685298,2945
2010.1981768908527,3031
2012.1342416917332,2933
2014.069837140014,2944
2016.0049635046162,3042
2017.9396210545406,3004
2019.8738100588666,2910
2021.8075307867502,2984
2023.740783507431,2960
2025.6735684902228,2994
2027.6058860045214,2939
2029.5377363198004,2985
2031.4691197056118,3014
2033.4000364315875,3009
2035.3304867674374,2930
2037.260470982952,3017
2039.189989347998,2974
2041.1190421325232,3081
2043.047629606554,3056
2044.9757520401945,3036
2046.9034097036288,2984
2048.8306028671195,3019
2050.7573318010086,3010
2052.683596775716,3006
2054.609398061742,2995
2056.5347359296647,2988
2058.4596106501403,3153
2060.384022493906,2958
2062.3079717317764,2967
2064.231458634646,2992
2066.1544834734873,3037
2068.077046519352,2966
2069.99914804337,2997
2071.9207883167524,2958
2073.8419676107865,3100
2075.7626861968406,3003
2077.6829443463607,3016
2079.6027423308715,3066
2081.522080421977,2940
2083.440958891362,2977
2085.359378010786,2974
2087.2773380520907,2971
2089.194839287196,3077
2091.111881988101,3062
2093.0284664268825,3079
2094.9445928756973,2948
2096.86026160678,2996
2098.775472892446,3043
2100.690227005088,3005
2102.604524217178,3016
2104.5183648012676,2991
2106.431749029985,2974
2108.34467717604,3020
2110.2571495122206,3128
2112.169166311393,3129
2114.080727846503,3100
2115.9918343905747,3094
2117.902486216711,3024
2119.8126835980956,3096
2121.722426807987,3125
2123.6317161197285,3058
2125.5405518067364,3029
2127.448934142509,3118
2129.356863400624,3025
2131.264339854737,3239
2133.1713637785815,3112
2135.077935445972,3078
2136.9840551308002,3052
2138.889723107037,3122
2140.7949396487334,3148
2142.699705030018,3098
2144.6040195250994,3116
2146.507883408264,3091
2148.4112969538774,3103
2150.3142604363848,3107
2152.2167741303097,3229
2154.1188383102535,3164
2156.0204532508997,3042
2157.9216192270064,3009
2159.822336513414,3180
2161.7226053850413,3065
2163.622426116884,3090
2165.5217989840185,3122
2167.4207242616,3131
2169.319202224862,3163
2171.2172331491165,3129
2173.1148173097563,3179
2175.0119549822507,3225
2176.90864644215,3212
2178.8048919650823,3290
2180.7006918267534,3101
2182.596046302952,3172
2184.4909556695407,3125
2186.3854202024645,3141
2188.279440177746,3130
2190.173015871487,3105
2192.066147559868,3130
2193.958835519149,3203
2195.851080025667,3194
2197.7428813558417,3175
2199.6342397861667,3164
2201.5251555932186,3179
2203.415629053651,3231
2205.3056604441986,3158
2207.19525004167,3279
2209.084398122958,3193
2210.9731049650327,3167
2212.861370844941,3250
2214.749196039812,3234
2216.636580826851,3242
2218.523525483344,3221
2220.410030286655,3242
2222.296095514226,3254
2224.1817214435805,3168
2226.066908352319,3200
2227.951656518121,3250
2229.835966218746,3240
2231.71983773203,3251
2233.6032713358913,3223
2235.486267308324,3205
2237.3688259274036,3203
2239.2509474712824,3166
2241.132632218193,3246
2243.013880446447,3233
2244.8946924344323,3162
2246.7750684606203,3294
2248.6550088035574,3134
2250.534513741871,3235
2252.413583554265,3290
2254.292218519526,3312
2256.170418916517,3202
2258.0481850241786,3252
2259.925517121534,3264
2261.8024154876825,3251
2263.678880401803,3134
2265.5549121431536,3264
2267.430510991071,3173
2269.305677224971,3205
2271.180411124348,3173
2273.0547129687766,3237
2274.9285830379076,3253
2276.8020216114737,3255
2278.6750289692845,3171
2280.5476053912294,3200
2282.4197511572766,3236
2284.2914665474727,3214
2286.162751841943,3245
2288.0336073208937,3312
2289.904033264608,3214
2291.774029953448,3296
2293.6435976678554,3281
2295.5127366883517,3137
2297.381447295534,3161
2299.2497297700825,3174
2301.1175843927526,3135
2302.9850114443825,3195
2304.852011205885,3084
2306.7185839582553,3062
2308.5847299825664,3156
2310.4504495599676,3072
2312.3157429716925,3130
2314.1806104990483,3205
2316.0450524234247,3083
2317.9090690262888,3129
2319.772660589186,3206
2321.635827393742,3135
2323.498569721661,3075
2325.3608878547248,3103
2327.2227820747967,3006
2329.0842526638157,3099
2330.945299903803,3107
2332.805924076857,3189
2334.6661254651535,3064
2336.525904350951,3106
2338.3852610165827,3101
2340.244195744464,3112
2342.102708817088,3091
2343.9608005170253,3108
2345.8184711269287,3055
2347.675720929526,3061
2349.532550207628,3069
2351.38895924412,3103
2353.24494832197,3111
2355.100517724223,3118
2356.955667734004,3191
2358.810398634514,3087
2360.664710709037,3109
2362.5186042409337,3122
2364.3720795136437,3171
2366.225136810686,3162
2368.0777764156583,3107
2369.929998612237,3154
2371.7818036841777,3045
2373.633191915315,3151
2375.484163589562,3120
2377.3347189909114,3177
2379.184858403434,3241
2381.03458211128,3195
2382.8838903986775,3236
2384.732783549936,3157
2386.5812618494406,3097
2388.4293255816588,3227
2390.2769750311327,3130
2392.1242104824883,3120
2393.971032220427,3207
2395.8174405297295,3094
2397.6634356952563,3107
2399.509018001947,3190
2401.3541877348193,3064
2403.1989451789705,3161
2405.043290619576,3327
2406.8872243418905,3198
2408.730746631247,3089
2410.5738577730594,3102
2412.4165580528183,3129
2414.258847756095,3100
2416.100727168537,3123
2417.9421965758734,3125
2419.783256263912,3154
2421.623906518538,3156
2423.4641476257157,3158
2425.303979871491,3143
2427.143403541984,3135
2428.9824189233977,3153
2430.821026302012,3157
2432.6592259641866,3124
2434.497018196361,3125
2436.33440328505,3131
2438.171381516851,3152
2440.00795317844,3183
2441.844118556569,3211
2443.6798779380724,3182
2445.5152316098606,3208
2447.3501798589255,3261
2449.1847229723357,3183
2451.0188612372403,3210
2452.8525949408663,3237
2454.6859243705203,3192
2456.518849813587,3314
2458.3513715575314,3121
2460.183489889895,3194
2462.015205098301,3247
2463.8465174704493,3160
2465.67742729412,3215
2467.5079348571717,3165
2469.338040447542,3297
2471.1677443532476,3223
2472.9970468623833,3235
2474.825948263123,3118
2476.6544488437207,3162
2478.482548892508,3213
2480.310248697896,3135
2482.137548548374,3220
2483.9644487325118,3253
2485.790949538956,3187
2487.617051256433,3308
2489.44275417375,3287
2491.26805857979,3256
2493.0929647635157,3241
2494.917473013971,3157
2496.741583620276,3277
2498.5652968716304,3283
2500.3886130573137,3295
2502.2115324666834,3282
2504.0340553891765,3228
2505.856182114308,3173
2507.6779129316733,3266
2509.499248130945,3229
2511.3201880018764,3223
2513.140732834298,3263
2514.9608829181198,3326
2516.780638543331,3186
2518.6,3266
2520.418967578273,3230
2522.237541568376,3289
2524.0557222606144,3277
2525.8735099453706,3261
2527.6909049131086,3262
2529.507907454368,3304
2531.32451785977,3206
2533.140736420014,3350
2534.9565634258774,3354
2536.771999168218,3323
2538.5870439379714,3351
2540.4016980261526,3299
2542.2159617238544,3321
2544.02983532225,3283
2545.8433191125914,3327
2547.656413386209,3359
2549.4691184345115,3212
2551.2814345489874,3340
2553.093362021204,3334
2554.904901142808,3379
2556.716052205523,3345
2558.526815501153,3426
2560.3371913215824,3398
2562.147179958771,3344
2563.956781704761,3525
2565.7659968516705,3364
2567.5748256916986,3439
2569.3832685171224,3306
2571.1913256202984,3455
2572.9989972936614,3388
2574.806283829725,3373
2576.613185521084,3425
2578.4197026604074,3472
2580.2258355404483,3412
2582.031584454035,3494
2583.836949694077,3330
2585.6419315535613,3476
2587.4465303255533,3474
2589.2507463032002,3496
2591.0545797797245,3413
2592.8580310484303,3524
2594.6611004026995,3502
2596.463788135992,3491
2598.266094541849,3508
2600.0680199138874,3539
2601.869564545807,3492
2603.670728731383,3564
2605.4715127644704,3528
2607.2719169390048,3423
2609.071941548998,3441
2610.8715868885433,3508
2612.670853251811,3475
2614.469740933052,3514
2616.268250226594,3510
2618.0663814268455,3434
2619.864134828292,3509
2621.6615107255006,3439
2623.458509413115,3596
2625.2551311858597,3607
2627.0513763385347,3432
2628.8472451660223,3361
2630.6427379632833,3549
2632.4378550253564,3508
2634.232596647359,3450
2636.026963124488,3437
2637.8209547520187,3436
2639.6145718253065,3465
2641.407814639785,3469
2643.200683490966,3468
2644.9931786744414,3440
2646.7853004858807,3415
2648.577049221034,3411
2650.3684251757277,3409
2652.1594286458712,3372
2653.9500599274484,3349
2655.740319316525,3431
2657.5302071092437,3407
2659.3197236018286,3388
2661.10886909058,3432
2662.8976438718782,3374
2664.686048242183,3354
2666.4740824980327,3460
2668.2617469360443,3306
2670.0490418529134,3349
2671.8359675454153,3472
2673.622524310403,3471
2675.408712444811,3373
2677.1945322456495,3410
2678.979984010009,3310
2680.76506803506,3369
2682.5497846180497,3267
2684.334134056306,3433
2686.1181166472343,3408
2687.9017326883213,3351
2689.6849824771293,3279
2691.4678663113013,3281
2693.2503844885596,3234
2695.032537306705,3367
2696.8143250636167,3297
2698.5957480572542,3382
2700.3768065856534,3236
2702.1575009469316,3274
2703.937831439283,3341
2705.717798360982,3283
2707.4974020103837,3255
2709.276642685917,3307
2711.055520686095,3381
2712.834036309506,3335
2714.612189854819,3271
2716.389981620782,3359
2718.1674119062204,3290
2719.944481010041,3253
2721.721189231226,3332
2723.4975368688415,3273
2725.273524222027,3325
2727.0491515900053,3263
2728.824419272075,3293
2730.5993275676146,3238
2732.3738767760838,3275
2734.148067197016,3332
2735.921899130031,3341
2737.6953728748194,3258
2739.468488731156,3342
2741.2412469988926,3332
2743.0136479779617,3227
2744.785691968372,3260
2746.5573792702116,3259
2748.3287101836504,3259
2750.099685008934,3306
2751.870304046388,3263
2753.640567596418,3309
2755.4104759595057,3347
2757.1800294362156,3324
2758.949228327187,3283
2760.7180729331412,3207
2762.486563554877,3285
2764.254700493272,3271
2766.022484049284,3239
2767.789914523947,3282
2769.5569922183786,3274
2771.3237174337705,3332
2773.090090471394,3306
2774.8561116326036,3342
2776.6217812188274,3314
2778.3870995315756,3370
2780.1520668724356,3353
2781.9166835430747,3313
2783.6809498452394,3345
2785.444866080754,3371
2787.2084325515225,3293
2788.971649559527,3212
2790.73451740683,3346
2792.4970363955713,3413
2794.2592068279705,3295
2796.0210290063264,3328
2797.7825032330147,3411
2799.543629810493,3392
2801.304409041296,3248
2803.0648412280366,3333
2804.8249266734088,3349
2806.5846656801846,3444
2808.344058551212,3398
2810.1031055894246,3299
2811.8618070978273,3402
2813.6201633795085,3358
2815.378174737636,3330
2817.1358414754536,3303
2818.893163896285,3310
2820.6501423035334,3312
2822.4067770006814,3381
2824.1630682912883,3333
2825.9190164789957,3328
2827.6746218675207,3357
2829.429884760661,3343
2831.184805462294,3391
2832.9393842763743,3412
2834.693621506936,3349
2836.4475174580916,3414
2838.201072434034,3303
2839.954286739034,3360
2841.707160677441,3317
2843.459694553685,3442
2845.2118886722724,3359
2846.96374333779,3374
2848.7152588549034,3311
2850.4664355283567,3412
2852.217273662973,3388
2853.9677735636546,3419
2855.7179355353833,3410
2857.4677598832186,3340
2859.217246912299,3327
2860.9663969278427,3329
2862.715210235146,3330
2864.4636871395846,3306
2866.211827946614,3375
2867.9596329617652,3376
2869.7071024906536,3400
2871.4542368389684,3417
2873.20103631248,3297
2874.947501217038,3428
2876.6936318585695,3349
2878.4394285430812,3397
2880.1848915766604,3265
2881.9300212654707,3398
2883.6748179157553,3270
2885.4192818338374,3270
2887.1634133261173,3387
2888.907212699077,3394
2890.6506802592744,3430
2892.393816313348,3458
2894.1366211680142,3397
2895.8790951300693,3413
2897.621238506388,3389
2899.363051603925,3438
2901.1045347297118,3374
2902.8456881908596,3346
2904.58651229456,3481
2906.327007348081,3421
2908.067173658772,3425
2909.8070115340597,3341
2911.5465212814497,3436
2913.285703208527,3431
2915.0245576229563,3448
2916.7630848324807,3430
2918.5012851449196,3370
2920.2391588681758,3426
2921.976706310227,3391
2923.7139277791334,3397
2925.4508235830313,3443
2927.187394030137,3442
2928.923639428745,3415
2930.6595600872306,3400
2932.395156314046,3498
2934.1304284177218,3348
2935.8653767068713,3489
2937.6000014901815,3536
2939.3343030764227,3499
2941.068281774442,3462
2942.8019378931644,3439
2944.5352717415976,3452
2946.2682836288236,3461
2948.0009738640065,3520
2949.7333427563885,3454
2951.465390615289,3470
2953.1971177501086,3421
2954.9285244703265,3469
2956.6596110855,3382
2958.3903779052657,3396
2960.1208252393385,3401
2961.8509533975125,3358
2963.5807626896617,3452
2965.3102534257378,3431
2967.0394259157715,3405
2968.768280469873,3382
2970.496817398232,3301
2972.2250370111146,3471
2973.952939618869,3411
2975.6805255319196,3400
2977.4077950607707,3424
2979.134748516006,3454
2980.861386208289,3495
2982.587708448359,3510
2984.313715547037,3395
2986.039407815222,3450
2987.764785563891,3422
2989.489849104102,3490
2991.2145987469908,3397
2992.9390348037705,3437
2994.6631575857346,3448
2996.3869674042576,3378
2998.1104645707887,3490
2999.83364939686,3494
3001.5565221940783,3375
3003.2790832741334,3443
3005.0013329487924,3465
3006.7232715298996,3532
3008.4448993293804,3428
3010.166216659239,3525
3011.887223831558,3434
3013.607921158498,3341
3015.3283089522993,3360
3017.0483875252826,3394
3018.7681571898443,3489
3020.4876182584626,3446
3022.2067710436927,3474
3023.9256158581707,3540
3025.644153014609,3361
3027.362382825801,3364
3029.0803056046193,3432
3030.797921664012,3463
3032.5152313170106,3525
3034.2322348767225,3440
3035.9489326563353,3472
3037.665324969115,3564
3039.3814121284063,3494
3041.097194447633,3521
3042.812672240299,3443
3044.5278458199855,3503
3046.2427155003525,3476
3047.9572815951406,3489
3049.671544418167,3408
3051.38550428333,3454
3053.0991615046073,3425
3054.812516396051,3467
3056.5255692717974,3459
3058.2383204460575,3445
3059.9507702331257,3429
3061.662918947372,3417
3063.3747669032446,3495
3065.0863144152736,3458
3066.7975617980674,3527
3068.508509366309,3417
3070.219157434767,3543
3071.9295063182844,3548
3073.639556331785,3436
3075.3493077902704,3516
3077.058761008821,3414
3078.7679163025964,3419
3080.476773986837,3471
3082.1853343768594,3559
3083.89359778806,3505
3085.6015645359153,3552
3087.3092349359786,3516
3089.016609303884,3508
3090.7236879553434,3552
3092.4304712061476,3508
3094.136959372166,3449
3095.843152769349,3592
3097.5490517137237,3525
3099.2546565213966,3503
3100.959967508554,3496
3102.66498499146,3506
3104.3697092864577,3533
3106.0741407099695,3493
3107.778279578498,3583
3109.482126208622,3508
3111.1856809170004,3551
3112.8889440203716,3638
3114.5919158355528,3522
3116.294596679439,3452
3117.996986869006,3586
3119.6990867213062,3509
3121.4008965534726,3485
3123.102416682717,3559
3124.803647426329,3596
3126.5045891016784,3569
3128.205242026213,3517
3129.90560651746,3554
3131.605682893025,3507
3133.3054714705922,3609
3135.0049725679282,3576
3136.7041865028714,3575
3138.4031135933465,3555
3140.101754157353,3543
3141.800108512971,3563
3143.498176978357,3467
3145.1959598717494,3508
3146.8934575114636,3475
3148.5906702158954,3473
3150.2875983035183,3545
3151.9842420928853,3418
3153.680601902627,3471
3155.376678051456,3534
3157.07247085816,3546
3158.767980641609,3373
3160.463207720748,3477
3162.158152414606,3548
3163.8528150422862,3580
3165.5471959229726,3616
3167.2412953759303,3525
3168.9351137204976,3669
3170.628651276098,3649
3172.3219083622307,3538
3174.014885298474,3526
3175.707582404485,3644
3177.4000000000005,3582
3179.092138404835,3582
3180.7839979388846,3562
3182.47557892212,3582
3184.166881674594,3600
3185.8579065164386,3690
3187.5486537678626,3632
3189.2391237491547,3576
3190.9293167806827,3539
3192.6192331828934,3609
3194.3088732763117,3600
3195.998237381542,3577
3197.687325819268,3528
3199.376138910251,3586
3201.064676975334,3592
3202.7529403354347,3613
3204.4409293115523,3604
3206.1286442247647,3532
3207.816085396229,3544
3209.5032531471825,3448
3211.190147798936,3521
3212.8767696728846,3534
3214.5631190905015,3548
3216.2491963733373,3587
3217.9350018430214,3459
3219.6205358212637,3556
3221.305798629851,3500
3222.990790590651,3488
3224.6755120256103,3553
3226.359963256751,3517
3228.0441446061795,3533
3229.7280563960758,3604
3231.411698948703,3546
3233.0950725863995,3640
3234.778177631587,3557
3236.461014406761,3523
3238.1435832345005,3647
3239.8258844374595,3599
3241.507918338374,3573
3243.1896852600576,3624
3244.8711855254023,3602
3246.552419457381,3530
3248.233387379042,3689
3249.914089613516,3643
3251.59452648401,3617
3253.274698313813,3591
3254.95460542629,3555
3256.6342481448855,3543
3258.313626793125,3481
3259.9927416946084,3504
3261.6715931730196,3563
3263.3501815521176,3574
3265.0285071557437,3598
3266.706570307815,3609
3268.3843713323286,3547
3270.0619105533615,3513
3271.739188295068,3569
3273.4162048816834,3580
3275.0929606375184,3611
3276.769455886966,3685
3278.445690954498,3608
3280.1216661646613,3746
3281.797381842087,3693
3283.4728383114807,3656
3285.1480358976296,3682
3286.8229749253996,3496
3288.4976557197333,3585
3290.172078605655,3672
3291.846243908266,3601
3293.5201519527463,3495
3295.193803064357,3540
3296.8671975684374,3586
3298.5403357904024,3544
3300.21321805575,3595
3301.8858446900567,3567
3303.558216018975,3660
3305.23033236824,3607
3306.9021940636603,3631
3308.57380143113,3625
3310.2451547966184,3622
3311.916254486174,3589
3313.5871008259246,3683
3315.2576941420766,3618
3316.9280347609147,3641
3318.5981230088046,3505
3320.2679592121895,3493
3321.9375436975924,3552
3323.606876791612,3572
3325.27595882093,3563
3326.944790112305,3573
3328.6133709925753,3588
3330.2817017886573,3568
3331.949782827547,3687
3333.617614436319,3559
3335.2851969421245,3597
3336.952530672199,3662
3338.619615953853,3696
3340.286453114475,3692
3341.9530424815357,3672
3343.619384382583,3661
3345.2854791452437,3746
3346.951327097224,3760
3348.6169285663073,3664
3350.2822838803577,3693
3351.947393367319,3656
3353.61225735521,3721
3355.2768761721345,3742
3356.9412501462693,3625
3358.605379605873,3670
3360.2692648792827,3639
3361.9329062949146,3572
3363.596304181263,3503
