CollectionTime,7/10/2024 4:14:57 PM
ExposureUsed,3
CalibratedSpectrum
-962.7078968117929,761
-959.9714848408522,840
-957.2358232597828,903
-954.5009119013725,854
-951.7667505983302,876
-949.0333391832855,890
-946.3006774887896,879
-943.5687653473143,914
-940.837602591253,859
-938.1071890529199,916
-935.3775245645503,874
-932.6486089583007,879
-929.9204420662485,871
-927.1930237203925,894
-924.4663537526524,864
-921.7404319948689,961
-919.0152582788041,906
-916.2908324361409,947
-913.5671542984834,938
-910.8442236973568,839
-908.1220404642074,861
-905.4006044304027,870
-902.679915427231,904
-899.959973285902,853
-897.2407778375464,821
-894.5223289132158,863
-891.8046263438832,875
-889.0876699604426,906
-886.3714595937089,856
-883.6559950744183,854
-880.9412762332282,862
-878.2273029007168,859
-875.5140749073835,864
-872.8015920836489,873
-870.0898542598545,860
-867.3788612662631,861
-864.6686129330585,864
-861.9591090903457,883
-859.2503495681506,910
-856.5423341964203,900
-853.8350628050229,879
-851.1285352237478,903
-848.4227512823054,896
-845.7177108103272,921
-843.0134136373656,883
-840.3098595928943,905
-837.6070485063082,892
-834.9049802069229,876
-832.2036545239757,931
-829.5030712866244,904
-826.8032303239481,916
-824.1041314649472,916
-821.4057745385428,879
-818.7081593735775,938
-816.0112857988148,873
-813.3151536429393,946
-810.6197627345566,899
-807.9251129021936,914
-805.2312039742981,890
-802.5380357792392,896
-799.8456081453069,887
-797.1539209007124,918
-794.462973873588,905
-791.772766891987,933
-789.083299783884,920
-786.3945723771743,952
-783.7065844996748,921
-781.0193359791231,929
-778.3328266431781,916
-775.6470563194197,891
-772.9620248353489,945
-770.2777320183878,949
-767.5941776958798,904
-764.9113616950891,938
-762.2292838432011,977
-759.5479439673222,909
-756.8673418944801,907
-754.1874774516235,943
-751.5083504656222,956
-748.8299607632671,957
-746.15230817127,992
-743.475392516264,964
-740.7992136248035,941
-738.1237713233636,951
-735.4490654383407,946
-732.7750957960521,975
-730.1018622227365,971
-727.4293645445534,980
-724.7576025875837,961
-722.0865761778291,956
-719.4162851412126,969
-716.7467293035781,1003
-714.0779084906909,1001
-711.409822528237,1006
-708.7424712418238,993
-706.0758544569796,969
-703.4099719991541,993
-700.7448236937178,995
-698.0804093659622,979
-695.4167288411002,992
-692.7537819442656,981
-690.0915685005134,937
-687.4300883348199,1001
-684.7693412720819,982
-682.1093271371178,997
-679.4500457546669,1029
-676.7914969493897,992
-674.1336805458676,1070
-671.4765963686034,1006
-668.8202442420206,1016
-666.1646239904642,994
-663.5097354382001,990
-660.8555784094151,1045
-658.2021527282176,1046
-655.5494582186366,1041
-652.8974947046223,1017
-650.2462620100463,1059
-647.5957599587009,1079
-644.9459883742998,1093
-642.2969470804776,1079
-639.6486359007902,1102
-637.0010546587141,1106
-634.3542031776476,1165
-631.7080812809096,1071
-629.0626887917401,1064
-626.4180255333008,1073
-623.7740913286734,1083
-621.1308860008619,1135
-618.4884093727904,1104
-615.8466612673046,1068
-613.2056415071715,1112
-610.5653499150785,1109
-607.9257863136347,1108
-605.28695052537,1100
-602.6488423727357,1088
-600.0114616781036,1104
-597.3748082637674,1092
-594.7388819519412,1109
-592.1036825647604,1093
-589.4692099242818,1135
-586.8354638524829,1149
-584.2024441712624,1167
-581.5701507024403,1179
-578.9385832677575,1207
-576.3077416888759,1182
-573.6776257873787,1120
-571.0482353847704,1132
-568.4195703024757,1140
-565.7916303618415,1124
-563.164415384135,1131
-560.5379251905453,1155
-557.9121596021815,1141
-555.2871184400748,1152
-552.6628015251767,1139
-550.0392086783606,1131
-547.4163397204204,1164
-544.794194472071,1194
-542.1727727539491,1254
-539.5520743866118,1155
-536.9320991905377,1179
-534.3128469861261,1278
-531.6943175936979,1277
-529.0765108334947,1251
-526.4594265256793,1291
-523.8430644903358,1390
-521.2274245474689,1486
-518.612506517005,1525
-515.9983102187913,1534
-513.3848354725959,1549
-510.77208209810846,1603
-508.16004991493924,1642
-505.5487387426199,1757
-502.9381484006032,1812
-500.3282787082628,1780
-497.71912948489364,1781
-495.1107005497117,1733
-492.5029917218539,1597
-489.8960028203786,1474
-487.28973366426493,1423
-484.68418407241325,1414
-482.07935386364494,1315
-479.47524285670266,1366
-476.87185087025,1269
-474.2691777228715,1362
-471.66722323307334,1376
-469.0659872192821,1341
-466.4654694998459,1409
-463.86566989303384,1367
-461.26658821703614,1367
-458.66822428996414,1329
-456.07057792985,1378
-453.4736489546475,1412
-450.877437182231,1330
-448.28194243039627,1307
-445.68716451686,1293
-443.09310325926003,1294
-440.49975847515555,1313
-437.9071299820263,1320
-435.31521759727354,1344
-432.72402113821954,1237
-430.13354042210767,1330
-427.5437752661022,1355
-424.95472548728867,1288
-422.36639090267386,1355
-419.7787713291855,1441
-417.1918665836721,1417
-414.60567648290385,1404
-412.0202008435715,1365
-409.4354394822874,1405
-406.8513922155845,1409
-404.26805885991723,1464
-401.685439231661,1412
-399.103533147112,1462
-396.522340422488,1454
-393.9418608739278,1371
-391.3620943174908,1379
-388.7830405691583,1352
-386.2046994448317,1278
-383.6270707603344,1236
-381.05015433141045,1135
-378.473949973725,1048
-375.8984575028645,1044
-373.32367673433623,972
-370.74960748356875,865
-368.1762495659117,841
-365.60360279663576,708
-363.03166699093265,631
-360.4604419639154,565
-357.8899275306178,563
-355.32012350599507,541
-352.7510297049233,506
-350.1826459421999,549
-347.61497203254316,548
-345.04800779059235,523
-342.4817530309082,473
-339.91620756797226,531
-337.35137121618743,539
-334.7872437898774,535
-332.22382510328725,497
-329.66111497058273,497
-327.09911320585127,486
-324.53781962310075,533
-321.9772340362607,539
-319.4173562591816,489
-316.8581861056348,489
-314.2997233893127,490
-311.7419679238294,463
-309.1849195227194,498
-306.62857799943856,578
-304.0729431673641,559
-301.51801483979375,534
-298.963792829947,523
-296.41027695096386,526
-293.85746701590574,558
-291.3053628377552,586
-288.7539642294155,528
-286.2032710037115,584
-283.65328297338897,574
-281.1039999511146,539
-278.5554217494762,600
-276.007548180983,564
-273.4603790580651,542
-270.9139141930734,549
-268.3681533982807,521
-265.8230964858798,536
-263.27874326798565,565
-260.7350935566336,594
-258.1921471637804,593
-255.6499039013039,652
-253.10836358100266,696
-250.56752601459698,681
-248.02739101372765,598
-245.48795838995704,670
-242.94922795476816,629
-240.41119951956557,663
-237.8738728956746,737
-235.33724789434166,728
-232.80132432673452,729
-230.2661020039418,658
-227.73158073697357,734
-225.19776033676033,773
-222.66464061415422,788
-220.1322213799284,789
-217.60050244477725,767
-215.06948361931552,733
-212.53916471408013,729
-210.00954553952818,811
-207.48062590603843,795
-204.9524056239104,707
-202.4248845033651,695
-199.8980623545441,681
-197.37193898751036,724
-194.84651421224817,786
-192.32178783866232,770
-189.79775967657952,728
-187.27442953574644,780
-184.7517972258321,851
-182.2298625564256,885
-179.7086253370378,732
-177.18808537710026,717
-174.66824248596583,773
-172.14909647290835,872
-169.6306471471229,908
-167.11289431772548,906
-164.59583779375328,877
-162.07947738416453,784
-159.5638128978386,902
-157.04884414357605,995
-154.53457093009854,992
-152.02099306604828,1066
-149.50811035998936,908
-146.99592262040665,856
-144.48442965570587,1055
-141.97363127421409,941
-139.46352728417958,934
-136.95411749377126,1058
-134.44540171107985,1106
-131.93737974411636,1044
-129.43005140081357,1220
-126.92341648902493,1513
-124.41747481652521,1635
-121.91222619101006,1543
-119.40767042009657,1747
-116.90380731132257,2338
-114.40063667214702,2695
-111.8981583099503,4143
-109.3963720320337,7352
-106.89527764561933,11055
-104.39487495785067,12986
-101.89516377579241,11647
-99.39614390642998,11640
-96.89781515667039,16549
-94.40017733334128,23489
-91.90323024319173,27420
-89.40697369289148,23785
-86.91140748903172,13007
-84.41653143812482,8072
-81.92234534660395,10471
-79.42884902082358,14674
-76.93604226705907,17109
-74.4439248915071,16959
-71.95249670028534,18153
-69.46175749943245,17729
-66.97170709490854,16337
-64.48234529259423,14363
-61.99367189829195,12477
-59.50568671772464,9534
-57.01838955653636,6783
-54.53178022029283,6893
-52.045858514480074,7331
-49.560624244506016,7734
-47.07607721569923,8430
-44.59221723330904,9472
-42.10904410250669,10934
-39.62655762838392,10524
-37.14475761595372,10331
-34.66364387015028,11366
-32.18321619582866,11588
-29.70347439776515,13525
-27.224418280657005,13904
-24.74604764912317,16320
-22.26836230770266,20561
-19.7913620608565,30974
-17.315046712966478,52183
-14.83941606833514,65040
-12.36446993118659,65040
-9.89020810566592,65040
-7.416630395839093,65040
-4.94373660569363,65040
-2.471526539137585,65040
-6.821210263296962E-13,65040
2.47084320796705,65040
4.941003281093458,65040
7.410480415786196,65040
9.879274808531363,65040
12.347386655893956,65040
14.814816154518212,65040
17.28156350112681,65040
19.74762889252179,65040
22.21301252558385,65040
24.67771459727237,21603
27.141735304626195,4523
29.605074844762612,3949
32.06773341487792,3245
34.52971121224755,2197
36.99100843422559,2299
39.45162527824516,2554
41.91156194181792,1962
44.370818622535126,2048
46.82939551806646,1776
49.287292826160524,1870
51.74451074464503,2325
54.201049471426245,2066
56.65690920448981,1406
59.112090141899785,1273
61.56659248179983,1510
64.02041642241159,1835
66.4735621620365,1862
68.92602989905402,1845
71.37781983192338,1842
73.82893215918205,1753
76.27936707944684,1396
78.72912479141326,1364
81.17820549385567,1357
83.62660938562783,1274
86.07433666566146,1341
88.5213875329681,1137
90.96776218663751,1181
93.41346082583925,1233
95.85848364982041,1361
98.30283085790859,1541
100.7465026495089,1157
103.18949922410604,1385
105.63182078126385,1350
108.07346752062438,1222
110.51443964190923,1225
112.95473734491827,1160
115.39436082953114,1234
117.83331029570547,1092
120.27158594347827,968
122.7091879729652,991
125.1461165843615,1107
127.58237197794062,1144
130.01795435405518,962
132.4528639131364,1036
134.88710085569494,1063
137.32066538231982,1025
139.75355769367923,1103
142.1857779905207,1033
144.61732647366978,926
147.04820334403132,907
149.47840880258934,972
151.90794305040674,952
154.33680628862487,1031
156.76499871846443,1230
159.19252054122433,1348
161.61937195828352,1497
164.04555317109896,1655
166.47106438120693,2025
168.89590579022217,2078
171.320077599839,2123
173.7435800118302,2283
176.16641322804742,2482
178.58857745042144,2613
181.01007288096173,2648
183.43089972175687,2690
185.85105817497413,2711
188.27054844285988,2751
190.6893707277394,2887
193.10752523201643,2938
195.5250121581745,2990
197.9418317087751,3094
200.3579840864594,3099
202.7734694939469,2993
205.18828813403627,3116
207.6024402096051,3335
210.01592592360964,3287
212.42874547908548,3214
214.84089907914665,3223
217.2523869269868,3232
219.66320922587727,3242
222.0733661791695,3269
224.48285799029293,3196
226.8916848627572,3217
229.29984700014882,3232
231.7073446061355,3321
234.11417788446204,3276
236.520347038953,3350
238.92585227351185,3364
241.33069379212054,3383
243.73487179884035,3392
246.1383864978112,3411
248.541238093252,3433
250.9434267894609,3454
253.34495279081432,3436
255.74581630176783,3320
258.1460175268563,3365
260.54555667069314,3374
262.9444339379703,3355
265.3426495334594,3406
267.7402036620107,3345
270.1370965285529,3377
272.53332833809407,3285
274.9288992957214,3235
277.32380960660055,3203
279.718059475976,3124
282.1116491091717,3148
284.5045787115897,3133
286.89684848871195,3086
289.2884586460981,3097
291.67940938938807,3087
294.0697009242996,3136
296.4593334566299,3258
298.84830719225477,3121
301.23662233712923,3104
303.6242790972866,3165
306.01127767884,3053
308.39761828798066,3099
310.78330113097934,3031
313.16832641418534,2994
315.5526943440269,2930
317.9364051270112,2928
320.3194589697242,3029
322.70185607883093,2987
325.0835966610754,3012
327.4646809232805,2910
329.8451090723478,2990
332.2248813152577,2939
334.6039978590701,3042
336.9824589109231,3009
339.36026467803447,2921
341.7374153677,2835
344.113911187295,2770
346.48975234427337,2845
348.8649390461686,2876
351.2394715005918,2834
353.61334991523415,2813
355.9865744978655,2871
358.35914545633375,2773
360.73106299856715,2780
363.10232733257146,2770
365.47293866643247,2895
367.84289720831396,2855
370.2122031664593,2840
372.5808567491905,2810
374.9488581649083,2808
377.31620762209275,2761
379.6829053293021,2808
382.0489514951745,2711
384.4143463284262,2736
386.7790900378528,2732
389.14318283232853,2656
391.50662492080653,2727
393.86941651231916,2676
396.23155781597745,2706
398.5930490409713,2703
400.9538903965696,2840
403.3140820921202,2781
405.6736243370498,2754
408.03251734086336,2668
410.3907613131465,2724
412.74835646356166,2680
415.10530300185144,2742
417.4616011378372,2692
419.81725108141893,2606
422.1722530425758,2748
424.5266072313656,2706
426.880313857925,2696
429.2333731324701,2812
431.58578526529516,2747
433.9375504667738,2728
436.2886689473588,2691
438.63914091758113,2635
440.9889665880513,2678
443.33814616945835,2663
445.68667987257015,2684
448.03456790823395,2543
450.3818104873759,2568
452.72840782100013,2622
455.07436012019105,2604
457.41966759611057,2669
459.7643304600007,2708
462.10834892318155,2713
464.4517231970525,2686
466.79445349309174,2624
469.1365400228566,2670
471.4779829979826,2680
473.81878263018564,2593
476.15893913125876,2656
478.4984527130747,2786
480.8373235875855,2734
483.17555196682144,2801
485.5131380628919,2798
487.8500820879857,2838
490.1863842543697,2931
492.52204477439034,3027
494.8570638604725,3137
497.1914417251204,3357
499.52517858091653,3453
501.85827464052306,3811
504.19073011668036,3884
506.5225452222086,3956
508.85372017000566,3953
511.18425517304956,3978
513.514150444396,4093
515.8434061971808,4633
518.1720226446176,5426
520.4999999999999,5578
522.8273384766991,5367
525.1540382881666,5061
527.480099647932,4647
529.8055227696037,4007
532.1303078668694,3351
534.454455153496,3125
536.777964843328,2953
539.1008371502907,2837
541.4230722883866,2901
543.744670471698,2846
546.0656319143858,2841
548.3859568306899,2816
550.7056454349294,2807
553.0246979415016,2814
555.3431145648834,2794
557.6608955196306,2829
559.978041020377,2690
562.2945512818363,2796
564.6104265188006,2789
566.9256669461412,2824
569.2402727788082,2845
571.5542442318302,2792
573.8675815203156,2848
576.1802848594508,2846
578.4923544645015,2876
580.8037905508126,2921
583.114593333807,2851
585.4247630289875,2817
587.7342998519354,2848
590.0432040183106,2876
592.3514757438526,2857
594.6591152443794,2923
596.9661227357875,2928
599.2724984340531,2863
601.578242555231,2816
603.8833553154542,2866
606.1878369309362,2868
608.4916876179676,2829
610.7949075929192,2752
613.0974970722403,2784
615.3994562724587,2797
617.7007854101818,2862
620.0014847020951,2832
622.3015543649641,2769
624.6009946156324,2812
626.8998056710224,2852
629.1979877481361,2838
631.4955410640538,2732
633.7924658359349,2882
636.0887622810175,2846
638.3844306166192,2765
640.6794710601358,2792
642.9738838290426,2837
645.2676691408932,2830
647.5608272133207,2930
649.853358264037,2875
652.1452625108324,2892
654.4365401715764,2879
656.7271914642178,2801
659.0172166067838,2927
661.3066158173809,2863
663.5953893141935,2865
665.8835373154867,2911
668.1710600396028,2915
670.4579577049639,2872
672.7442305300709,2807
675.0298787335033,2943
677.3149025339197,2811
679.599302150058,2854
681.8830778007342,2966
684.1662297048437,2922
686.4487580813608,2930
688.7306631493387,2907
691.0119451279091,2880
693.2926042362834,2897
695.5726406937516,2925
697.8520547196814,2847
700.1308465335215,2792
702.4090163547982,2825
704.6865644031171,2893
706.9634908981619,2938
709.2397960596965,2818
711.5154801075631,2964
713.7905432616823,2802
716.0649857420548,2895
718.3388077687592,2931
720.612009561953,2839
722.8845913418733,2874
725.1565533288352,2794
727.427895743234,2827
729.6986188055427,2897
731.9687227363137,2870
734.238207756178,2946
736.5070740858458,2900
738.7753219461066,2941
741.0429515578281,2952
743.3099631419569,2913
745.5763569195191,2929
747.8421331116193,2947
750.1072919394409,2831
752.3718336242467,2954
754.6357583873777,2954
756.8990664502545,2905
759.1617580343765,2846
761.423833361321,2951
763.6852926527457,2833
765.9461361303862,2889
768.206364016058,2873
770.4659765316536,2897
772.7249738991469,2881
774.9833563405886,2931
777.2411240781092,2893
779.4982773339183,2880
781.7548163303044,2994
784.010741289634,2977
786.2660524343538,3082
788.5207499869881,2996
790.7748341701416,2876
793.0283052064964,3022
795.2811633188143,2980
797.5334087299362,2958
799.7850416627813,2956
802.0360623403484,2860
804.2864709857143,3002
806.5362678220353,2906
808.7854530725468,2929
811.0340269605625,2938
813.2819897094754,3065
815.5293415427581,2911
817.77608268396,2997
820.0222133567116,3004
822.2677337847211,2967
824.5126441917765,2988
826.7569448017433,2910
829.0006358385675,2968
831.2437175262731,2958
833.4861900889629,3017
835.7280537508192,2965
837.9693087361026,2868
840.2099552691533,3026
842.4499935743896,2993
844.689423876309,2940
846.9282463994886,2999
849.1664613685833,2906
851.4040690083276,3061
853.6410695435349,3012
855.877463199097,2987
858.1132501999847,3034
860.3484307712487,3016
862.5830051380175,3052
864.8169735254988,3010
867.0503361589791,2966
869.2830932638243,3078
871.5152450654786,3078
873.7467917894654,2988
875.9777336613873,2957
878.2080709069252,3098
880.4378037518389,3084
882.666932421968,3020
884.8954571432301,3075
887.1233781416219,2966
889.3506956432192,3029
891.5774098741766,3016
893.803521060728,3034
896.0290294291852,3073
898.2539352059397,3004
900.4782386174619,3047
902.7019398903011,3096
904.925039251085,3061
907.147536926521,3031
909.3694331433943,3025
911.59072812857,3173
913.8114221089921,3047
916.0315153116827,2963
918.2510079637437,2981
920.4699002923547,3010
922.6881925247761,2983
924.905884888345,2989
927.1229776104793,2949
929.3394709186747,3035
931.555365040506,3008
933.7706602036275,3006
935.9853566357709,2948
938.1994545647489,2898
940.4129542184515,2870
942.6258558248488,2986
944.8381596119883,2986
947.0498658079974,3043
949.2609746410825,2991
951.4714863395287,3054
953.6814011316998,3087
955.8907192460387,3041
958.0994409110671,2977
960.3075663553858,2984
962.5150958076741,3070
964.7220294966913,2989
966.928367651274,2948
969.1341105003388,2922
971.3392582728806,2940
973.5438111979742,2958
975.747769504772,2936
977.9511334225061,2989
980.153903180487,2932
982.3560790081052,2939
984.5576611348289,2962
986.7586497902058,2916
988.9590452038618,2871
991.158847605503,2840
993.3580572249133,2943
995.5566742919558,2996
997.7546990365728,2756
999.952131688785,2923
1002.1489724786926,2713
1004.3452216364743,2785
1006.5408793923874,2746
1008.7359459767691,2741
1010.9304216200343,2775
1013.1243065526781,2775
1015.3176010052733,2809
1017.510305208472,2791
1019.7024193930064,2739
1021.8939437896848,2718
1024.0848786293977,2712
1026.2752241431122,2743
1028.4649805618747,2692
1030.6541481168115,2744
1032.842727039127,2674
1035.0307175601051,2739
1037.2181199111074,2711
1039.4049343235752,2734
1041.591161029029,2729
1043.7768002590683,2703
1045.9618522453698,2701
1048.1463172196918,2756
1050.3301954138697,2746
1052.513487059818,2808
1054.69619238953,2718
1056.8783116350783,2729
1059.0598450286152,2786
1061.2407928023704,2741
1063.4211551886528,2816
1065.6009324198508,2671
1067.780124728432,2735
1069.9587323469414,2667
1072.1367555080046,2679
1074.314194444325,2762
1076.4910493886855,2752
1078.667320573947,2676
1080.843008233051,2681
1083.0181125990161,2627
1085.1926339049414,2680
1087.3665723840027,2719
1089.5399282694575,2607
1091.7127017946405,2740
1093.8848931929647,2682
1096.0565026979243,2646
1098.2275305430899,2701
1100.3979769621128,2710
1102.567842188722,2745
1104.737126456726,2713
1106.9058300000124,2647
1109.0739530525475,2607
1111.2414958483764,2725
1113.4084586216231,2628
1115.5748416064907,2631
1117.7406450372605,2723
1119.9058691482942,2600
1122.0705141740304,2660
1124.2345803489884,2634
1126.3980679077658,2654
1128.5609770850388,2598
1130.7233081155623,2683
1132.8850612341707,2708
1135.0462366757774,2681
1137.2068346753745,2734
1139.3668554680326,2730
1141.526299288901,2665
1143.68516637321,2645
1145.8434569562655,2728
1148.001171273455,2641
1150.158309560244,2587
1152.3148720521767,2648
1154.470858984876,2621
1156.626270594044,2739
1158.7811071154629,2690
1160.9353687849912,2679
1163.089055838569,2596
1165.242168512213,2753
1167.3947070420209,2669
1169.5466716641677,2595
1171.6980626149075,2644
1173.8488801305748,2593
1175.9991244475814,2695
1178.1487958024186,2588
1180.2978944316555,2596
1182.4464205719428,2710
1184.5943744600072,2656
1186.7417563326567,2593
1188.8885664267755,2602
1191.0348049793297,2647
1193.1804722273619,2643
1195.325568407995,2571
1197.4700937584303,2686
1199.614048515948,2638
1201.7574329179074,2605
1203.900247201746,2677
1206.042491604982,2691
1208.1841663652099,2641
1210.3252717201053,2670
1212.465807907422,2704
1214.6057751649923,2752
1216.7451737307279,2691
1218.8840038426192,2761
1221.0222657387353,2718
1223.1599596572241,2759
1225.2970858363137,2694
1227.4336445143094,2691
1229.5696359295966,2741
1231.705060320639,2768
1233.8399179259786,2712
1235.9742089842384,2709
1238.107933734118,2833
1240.2410924143974,2751
1242.373685263935,2744
1244.5057125216676,2700
1246.6371744266116,2717
1248.7680712178621,2720
1250.898403134593,2703
1253.028170416058,2719
1255.1573733015875,2792
1257.2860120305932,2815
1259.4140868425648,2737
1261.54159797707,2744
1263.6685456737569,2736
1265.7949301723515,2735
1267.9207517126597,2751
1270.046010534565,2823
1272.1707068780306,2743
1274.2948409830983,2871
1276.4184130898889,2868
1278.541423438603,2714
1280.6638722695184,2702
1282.785759822993,2656
1284.9070863394636,2883
1287.0278520594447,2795
1289.1480572235314,2730
1291.2677020723963,2790
1293.3867868467923,2812
1295.5053117875495,2855
1297.623277135579,2892
1299.740683131868,2877
1301.8575300174857,2873
1303.973818033578,2887
1306.0895474213703,2927
1308.2047184221678,2815
1310.3193312773528,2994
1312.4333862283888,2953
1314.5468835168163,2903
1316.659823384255,2892
1318.7722060724045,2895
1320.8840318230418,2890
1322.9953008780249,2904
1325.1060134792888,2834
1327.2161698688478,2988
1329.3257702887959,2925
1331.4348149813054,2907
1333.5433041886276,2860
1335.6512381530933,2867
1337.7586171171101,2933
1339.8654413231675,2872
1341.9717110138317,2868
1344.0774264317488,2816
1346.1825878196432,2842
1348.2871954203192,2954
1350.3912494766587,2823
1352.4947502316231,2939
1354.5976979282532,2843
1356.7000928096686,2908
1358.8019351190665,2872
1360.9032250997243,2901
1363.0039629949988,2877
1365.1041490483235,2826
1367.2037835032133,2961
1369.3028666032606,2925
1371.401398592137,2948
1373.4993797135926,2916
1375.5968102114575,3026
1377.6936903296396,2947
1379.7900203121262,2912
1381.8858004029835,2908
1383.9810308463561,2852
1386.075711886469,2900
1388.1698437676241,2937
1390.2634267342032,2932
1392.356461030667,2967
1394.4489469015557,2920
1396.5408845914872,2872
1398.6322743451592,2932
1400.7231164073469,2941
1402.813411022907,2998
1404.903158436773,2931
1406.9923588939578,3019
1409.0810126395531,2954
1411.1691199187303,2949
1413.2566809767386,2977
1415.343696058907,3046
1417.4301654106425,2958
1419.5160892774315,2923
1421.6014679048399,2993
1423.6863015385125,3081
1425.7705904241707,2956
1427.8543348076178,3024
1429.9375349347342,2973
1432.0201910514802,3068
1434.102303403894,3052
1436.1838722380944,2997
1438.2648978002767,3025
1440.3453803367174,3100
1442.4253200937692,3052
1444.5047173178677,3138
1446.5835722555234,3171
1448.6618851533285,3140
1450.739656257952,3214
1452.8168858161434,3147
1454.8935740747306,3220
1456.96972128062,3159
1459.045327680797,3275
1461.120393522327,3222
1463.1949190523528,3164
1465.2689045180973,3331
1467.3423501668608,3246
1469.415256246024,3318
1471.4876230030463,3352
1473.559450685465,3320
1475.6307395408976,3442
1477.7014898170391,3468
1479.771701761665,3427
1481.8413756226287,3447
1483.9105116478618,3424
1485.9791100853772,3503
1488.0471711832643,3528
1490.1146951896926,3496
1492.1816823529098,3574
1494.2481329212433,3549
1496.3140471430984,3551
1498.3794252669609,3672
1500.4442675413939,3646
1502.5085742150404,3624
1504.572345536622,3638
1506.6355817549388,3682
1508.6982831188702,3712
1510.7604498773744,3797
1512.8220822794883,3615
1514.8831805743293,3676
1516.9437450110909,3745
1519.003775839048,3770
1521.0632733075522,3815
1523.1222376660367,3815
1525.1806691640113,3801
1527.2385680510652,3868
1529.2959345768668,3937
1531.3527689911643,3857
1533.4090715437833,3891
1535.4648424846291,3977
1537.5200820636855,4033
1539.5747905310159,4041
1541.6289681367616,3959
1543.6826151311434,4093
1545.7357317644614,4117
1547.7883182870937,4061
1549.8403749494987,4183
1551.8919020022113,4219
1553.9428996958477,4301
1555.9933682811015,4234
1558.0433080087469,4334
1560.0927191296346,4425
1562.1416018946961,4399
1564.1899565549415,4355
1566.2377833614592,4308
1568.2850825654164,4347
1570.3318544180606,4228
1572.3780991707158,4317
1574.423817074788,4242
1576.4690083817595,4128
1578.5136733431923,4081
1580.5578122107272,4002
1582.601425236085,3828
1584.6445126710646,3751
1586.6870747675434,3868
1588.7291117774776,3587
1590.7706239529034,3636
1592.8116115459347,3526
1594.8520748087658,3418
1596.8920139936686,3381
1598.9314293529933,3382
1600.9703211391711,3319
1603.008689604711,3289
1605.0465350022005,3244
1607.0838575843068,3227
1609.1206576037753,3257
1611.1569353134305,3171
1613.1926909661765,3121
1615.2279248149953,3127
1617.2626371129481,3114
1619.2968281131757,3077
1621.3304980688963,3024
1623.3636472334088,3048
1625.39627586009,2944
1627.428384202396,2937
1629.459972513861,2947
1631.4910410480993,2987
1633.5215900588028,3013
1635.551619799744,3020
1637.5811305247717,2961
1639.6101224878166,2931
1641.6385959428862,2956
1643.6665511440683,2992
1645.693988345528,3000
1647.7209078015112,2917
1649.7473097663405,2935
1651.7731944944203,3024
1653.7985622402307,2924
1655.823413258333,2995
1657.847747803366,2846
1659.8715661300494,2863
1661.8948684931793,2953
1663.9176551476316,2871
1665.9399263483624,2936
1667.9616823504057,2888
1669.982923408873,2930
1672.0036497789574,2915
1674.0238617159293,2841
1676.043559475138,2757
1678.0627433120121,2944
1680.081413482059,2866
1682.0995702408654,2848
1684.117213844096,2881
1686.134344547495,2915
1688.1509626068864,2929
1690.1670682781705,2820
1692.182661817329,2919
1694.1977434804217,2927
1696.2123135235875,2957
1698.226372203043,2943
1700.2399197750851,3004
1702.2529564960905,2955
1704.2654826225112,2844
1706.277498410882,2940
1708.2890041178139,2879
1710.2999999999988,2883
1712.3104863142066,2901
1714.3204633172854,2832
1716.329931266163,2857
1718.3388904178469,2818
1720.3473410294214,2934
1722.3552833580516,2875
1724.3627176609807,2863
1726.3696441955308,2755
1728.3760632191033,2920
1730.3819749891782,2862
1732.3873797633146,2880
1734.3922777991502,2881
1736.3966693544012,2912
1738.4005546868639,2862
1740.4039340544127,2839
1742.406807715001,2912
1744.4091759266616,2890
1746.4110389475054,2801
1748.4123970357223,2836
1750.413250449582,2944
1752.4135994474318,2869
1754.4134442876993,2854
1756.4127852288902,2854
1758.4116225295893,2841
1760.4099564484595,2756
1762.407787244244,2860
1764.405115175764,2866
1766.4019405019203,2915
1768.3982634816916,2824
1770.3940843741357,2786
1772.3894034383907,2797
1774.3842209336717,2759
1776.378537119274,2882
1778.372352254571,2841
1780.3656665990156,2939
1782.3584804121397,2714
1784.3507939535534,2802
1786.3426074829463,2807
1788.3339212600863,2882
1790.3247355448211,2859
1792.3150505970766,2957
1794.3048666768573,2809
1796.2941840442477,2744
1798.2830029594106,2846
1800.2713236825884,2824
1802.2591464741004,2839
1804.2464715943465,2893
1806.2332993038058,2838
1808.2196298630352,2775
1810.2054635326708,2945
1812.190800573428,2816
1814.175641246101,2818
1816.1599858115628,2893
1818.1438345307652,2877
1820.127187664738,2875
1822.1100454745924,2929
1824.092408221516,2911
1826.0742761667766,2837
1828.055649571721,2883
1830.0365286977735,2859
1832.0169138064398,2836
1833.9968051593014,2912
1835.9762030180214,2848
1837.9551076443408,2851
1839.9335193000788,2869
1841.9114382471344,2876
1843.888864747485,2849
1845.8657990631878,2809
1847.842241456378,2789
1849.8181921892697,2887
1851.7936515241558,2826
1853.7686197234098,2850
1855.7430970494815,2864
1857.7170837649014,2869
1859.6905801322787,2833
1861.6635864143004,2822
1863.6361028737338,2780
1865.608129773424,2801
1867.5796673762961,2840
1869.5507159453537,2870
1871.521275743678,2848
1873.4913470344313,2789
1875.4609300808534,2900
1877.4300251462632,2891
1879.3986324940588,2868
1881.366752387717,2860
1883.3343850907936,2805
1885.3015308669228,2917
1887.268189979819,2942
1889.2343626932739,2947
1891.2000492711595,2937
1893.1652499774254,2805
1895.1299650761011,2813
1897.0941948312952,2776
1899.0579395071945,2869
1901.0211993680641,2859
1902.98397467825,2956
1904.9462657021745,2880
1906.9080727043415,2937
1908.869395949332,2913
1910.8302357018065,2887
1912.790592226504,2837
1914.7504657882428,2909
1916.7098566519212,3004
1918.6687650825133,2898
1920.6271913450764,2791
1922.5851357047422,2935
1924.5425984267245,2853
1926.499579776314,2884
1928.4560800188833,2827
1930.4120994198802,2889
1932.367638244833,2892
1934.32269675935,2897
1936.2772752291175,2854
1938.231373919899,2895
1940.1849930975404,2905
1942.1381330279637,2852
1944.0907939771696,2850
1946.0429762112412,2848
1947.9946799963363,3006
1949.9459055986945,2847
1951.896653284633,2888
1953.8469233205478,2888
1955.7967159729142,2951
1957.7460315082863,2918
1959.6948701932974,2839
1961.6432322946594,2933
1963.5911180791632,2903
1965.5385278136787,2848
1967.4854617651545,2782
1969.4319202006182,2852
1971.377903387176,2949
1973.3234115920136,2864
1975.268445082395,2931
1977.2130041256642,2881
1979.1570889892423,2944
1981.1006999406304,2910
1983.04383724741,2892
1984.986501177238,2884
1986.928691997853,2855
1988.8704099770712,2888
1990.811655382789,2873
1992.7524284829801,2885
1994.692729545698,2881
1996.6325588390755,2891
1998.5719166313224,2964
2000.5108031907307,2941
2002.4492187856677,2901
2004.387163684583,2796
2006.3246381560011,2937
2008.2616424685298,2920
2010.1981768908527,2959
2012.1342416917332,2874
2014.069837140014,2831
2016.0049635046162,2872
2017.9396210545406,2813
2019.8738100588666,2908
2021.8075307867502,2927
2023.740783507431,2883
2025.6735684902228,2880
2027.6058860045214,2838
2029.5377363198004,2805
2031.4691197056118,2902
2033.4000364315875,2887
2035.3304867674374,2956
2037.260470982952,2900
2039.189989347998,2960
2041.1190421325232,2885
2043.047629606554,2931
2044.9757520401945,2973
2046.9034097036288,2968
2048.8306028671195,2891
2050.7573318010086,2932
2052.683596775716,2859
2054.609398061742,2889
2056.5347359296647,2883
2058.4596106501403,2920
2060.384022493906,2885
2062.3079717317764,2953
2064.231458634646,3065
2066.1544834734873,2941
2068.077046519352,2968
2069.99914804337,2910
2071.9207883167524,2952
2073.8419676107865,2902
2075.7626861968406,2976
2077.6829443463607,2972
2079.6027423308715,2969
2081.522080421977,2952
2083.440958891362,2939
2085.359378010786,2909
2087.2773380520907,2908
2089.194839287196,2971
2091.111881988101,2890
2093.0284664268825,2884
2094.9445928756973,2982
2096.86026160678,2873
2098.775472892446,2899
2100.690227005088,2915
2102.604524217178,2900
2104.5183648012676,2958
2106.431749029985,2895
2108.34467717604,3021
2110.2571495122206,3009
2112.169166311393,2922
2114.080727846503,2958
2115.9918343905747,3057
2117.902486216711,3016
2119.8126835980956,2939
2121.722426807987,3021
2123.6317161197285,2944
2125.5405518067364,2964
2127.448934142509,3050
2129.356863400624,2958
2131.264339854737,2905
2133.1713637785815,2990
2135.077935445972,3046
2136.9840551308002,2931
2138.889723107037,2991
2140.7949396487334,3011
2142.699705030018,3132
2144.6040195250994,3059
2146.507883408264,3000
2148.4112969538774,3030
2150.3142604363848,3074
2152.2167741303097,2999
2154.1188383102535,2962
2156.0204532508997,2940
2157.9216192270064,3082
2159.822336513414,3081
2161.7226053850413,3086
2163.622426116884,3072
2165.5217989840185,2984
2167.4207242616,3020
2169.319202224862,3079
2171.2172331491165,3119
2173.1148173097563,2963
2175.0119549822507,3048
2176.90864644215,3044
2178.8048919650823,3162
2180.7006918267534,3039
2182.596046302952,3078
2184.4909556695407,3055
2186.3854202024645,3109
2188.279440177746,3135
2190.173015871487,3127
2192.066147559868,3036
2193.958835519149,3063
2195.851080025667,3055
2197.7428813558417,2980
2199.6342397861667,3128
2201.5251555932186,3121
2203.415629053651,3095
2205.3056604441986,3028
2207.19525004167,3022
2209.084398122958,3115
2210.9731049650327,3114
2212.861370844941,3145
2214.749196039812,3148
2216.636580826851,3112
2218.523525483344,3062
2220.410030286655,3185
2222.296095514226,3059
2224.1817214435805,3099
2226.066908352319,3086
2227.951656518121,3168
2229.835966218746,3109
2231.71983773203,3132
2233.6032713358913,3133
2235.486267308324,3220
2237.3688259274036,3088
2239.2509474712824,3105
2241.132632218193,3145
2243.013880446447,3197
2244.8946924344323,3178
2246.7750684606203,3041
2248.6550088035574,3047
2250.534513741871,3042
2252.413583554265,3059
2254.292218519526,3091
2256.170418916517,3060
2258.0481850241786,3083
2259.925517121534,3151
2261.8024154876825,3125
2263.678880401803,3124
2265.5549121431536,3088
2267.430510991071,3176
2269.305677224971,3186
2271.180411124348,3109
2273.0547129687766,3119
2274.9285830379076,3042
2276.8020216114737,3036
2278.6750289692845,3064
2280.5476053912294,3092
2282.4197511572766,3152
2284.2914665474727,3161
2286.162751841943,3115
2288.0336073208937,3124
2289.904033264608,3236
2291.774029953448,3124
2293.6435976678554,3088
2295.5127366883517,3016
2297.381447295534,3091
2299.2497297700825,3079
2301.1175843927526,3118
2302.9850114443825,3059
2304.852011205885,3065
2306.7185839582553,2994
2308.5847299825664,2987
2310.4504495599676,3048
2312.3157429716925,2964
2314.1806104990483,2976
2316.0450524234247,2987
2317.9090690262888,3007
2319.772660589186,3014
2321.635827393742,2971
2323.498569721661,2857
2325.3608878547248,3013
2327.2227820747967,3080
2329.0842526638157,2926
2330.945299903803,2991
2332.805924076857,2944
2334.6661254651535,2961
2336.525904350951,2988
2338.3852610165827,3050
2340.244195744464,2974
2342.102708817088,2977
2343.9608005170253,3078
2345.8184711269287,2846
2347.675720929526,2914
2349.532550207628,2949
2351.38895924412,2950
2353.24494832197,3005
2355.100517724223,2921
2356.955667734004,3024
2358.810398634514,2913
2360.664710709037,3004
2362.5186042409337,3065
2364.3720795136437,2952
2366.225136810686,3014
2368.0777764156583,3105
2369.929998612237,2963
2371.7818036841777,2997
2373.633191915315,3005
2375.484163589562,2998
2377.3347189909114,2997
2379.184858403434,2966
2381.03458211128,3038
2382.8838903986775,2997
2384.732783549936,3079
2386.5812618494406,3089
2388.4293255816588,3078
2390.2769750311327,3074
2392.1242104824883,2933
2393.971032220427,2881
2395.8174405297295,2941
2397.6634356952563,2987
2399.509018001947,2990
2401.3541877348193,3008
2403.1989451789705,3002
2405.043290619576,3025
2406.8872243418905,3142
2408.730746631247,3006
2410.5738577730594,2954
2412.4165580528183,2975
2414.258847756095,3024
2416.100727168537,3034
2417.9421965758734,3029
2419.783256263912,2971
2421.623906518538,2975
2423.4641476257157,3076
2425.303979871491,2971
2427.143403541984,2923
2428.9824189233977,3020
2430.821026302012,3035
2432.6592259641866,2994
2434.497018196361,3014
2436.33440328505,3011
2438.171381516851,3049
2440.00795317844,3085
2441.844118556569,3093
2443.6798779380724,2965
2445.5152316098606,3055
2447.3501798589255,2977
2449.1847229723357,3080
2451.0188612372403,3015
2452.8525949408663,3013
2454.6859243705203,3033
2456.518849813587,3048
2458.3513715575314,3053
2460.183489889895,2971
2462.015205098301,3035
2463.8465174704493,2980
2465.67742729412,3054
2467.5079348571717,3062
2469.338040447542,3143
2471.1677443532476,3114
2472.9970468623833,3067
2474.825948263123,2998
2476.6544488437207,3063
2478.482548892508,3001
2480.310248697896,3085
2482.137548548374,3026
2483.9644487325118,3049
2485.790949538956,3108
2487.617051256433,3164
2489.44275417375,3083
2491.26805857979,3103
2493.0929647635157,3105
2494.917473013971,3144
2496.741583620276,3078
2498.5652968716304,3036
2500.3886130573137,3041
2502.2115324666834,3110
2504.0340553891765,3140
2505.856182114308,3058
2507.6779129316733,3125
2509.499248130945,3075
2511.3201880018764,3182
2513.140732834298,3176
2514.9608829181198,3170
2516.780638543331,3115
2518.6,3105
2520.418967578273,3159
2522.237541568376,3106
2524.0557222606144,3190
2525.8735099453706,3115
2527.6909049131086,3149
2529.507907454368,3134
2531.32451785977,3095
2533.140736420014,3228
2534.9565634258774,3198
2536.771999168218,3160
2538.5870439379714,3234
2540.4016980261526,3190
2542.2159617238544,3133
2544.02983532225,3166
2545.8433191125914,3251
2547.656413386209,3254
2549.4691184345115,3140
2551.2814345489874,3290
2553.093362021204,3277
2554.904901142808,3191
2556.716052205523,3275
2558.526815501153,3310
2560.3371913215824,3304
2562.147179958771,3232
2563.956781704761,3327
2565.7659968516705,3293
2567.5748256916986,3361
2569.3832685171224,3275
2571.1913256202984,3320
2572.9989972936614,3333
2574.806283829725,3298
2576.613185521084,3262
2578.4197026604074,3349
2580.2258355404483,3361
2582.031584454035,3261
2583.836949694077,3389
2585.6419315535613,3385
2587.4465303255533,3296
2589.2507463032002,3343
2591.0545797797245,3296
2592.8580310484303,3291
2594.6611004026995,3364
2596.463788135992,3319
2598.266094541849,3467
2600.0680199138874,3356
2601.869564545807,3366
2603.670728731383,3377
2605.4715127644704,3437
2607.2719169390048,3412
2609.071941548998,3444
2610.8715868885433,3500
2612.670853251811,3268
2614.469740933052,3415
2616.268250226594,3339
2618.0663814268455,3305
2619.864134828292,3319
2621.6615107255006,3314
2623.458509413115,3314
2625.2551311858597,3370
2627.0513763385347,3389
2628.8472451660223,3340
2630.6427379632833,3418
2632.4378550253564,3386
2634.232596647359,3393
2636.026963124488,3417
2637.8209547520187,3383
2639.6145718253065,3292
2641.407814639785,3380
2643.200683490966,3340
2644.9931786744414,3255
2646.7853004858807,3298
2648.577049221034,3302
2650.3684251757277,3303
2652.1594286458712,3269
2653.9500599274484,3350
2655.740319316525,3310
2657.5302071092437,3288
2659.3197236018286,3243
2661.10886909058,3246
2662.8976438718782,3224
2664.686048242183,3257
2666.4740824980327,3254
2668.2617469360443,3236
2670.0490418529134,3213
2671.8359675454153,3190
2673.622524310403,3202
2675.408712444811,3277
2677.1945322456495,3163
2678.979984010009,3200
2680.76506803506,3300
2682.5497846180497,3235
2684.334134056306,3153
2686.1181166472343,3203
2687.9017326883213,3098
2689.6849824771293,3216
2691.4678663113013,3191
2693.2503844885596,3320
2695.032537306705,3194
2696.8143250636167,3139
2698.5957480572542,3191
2700.3768065856534,3197
2702.1575009469316,3119
2703.937831439283,3125
2705.717798360982,3144
2707.4974020103837,3261
2709.276642685917,3206
2711.055520686095,3075
2712.834036309506,3156
2714.612189854819,3164
2716.389981620782,3157
2718.1674119062204,3114
2719.944481010041,3109
2721.721189231226,3059
2723.4975368688415,3123
2725.273524222027,3105
2727.0491515900053,3115
2728.824419272075,3040
2730.5993275676146,3220
2732.3738767760838,3113
2734.148067197016,3125
2735.921899130031,3081
2737.6953728748194,3107
2739.468488731156,3140
2741.2412469988926,3162
2743.0136479779617,3158
2744.785691968372,3114
2746.5573792702116,3140
2748.3287101836504,3098
2750.099685008934,3109
2751.870304046388,3095
2753.640567596418,3179
2755.4104759595057,3106
2757.1800294362156,3148
2758.949228327187,3139
2760.7180729331412,3142
2762.486563554877,3102
2764.254700493272,3124
2766.022484049284,3182
2767.789914523947,3243
2769.5569922183786,3176
2771.3237174337705,3143
2773.090090471394,3145
2774.8561116326036,3106
2776.6217812188274,3148
2778.3870995315756,3208
2780.1520668724356,3075
2781.9166835430747,3081
2783.6809498452394,3120
2785.444866080754,3261
2787.2084325515225,3089
2788.971649559527,3094
2790.73451740683,3099
2792.4970363955713,3115
2794.2592068279705,3138
2796.0210290063264,3069
2797.7825032330147,3179
2799.543629810493,3047
2801.304409041296,3193
2803.0648412280366,3178
2804.8249266734088,3326
2806.5846656801846,3182
2808.344058551212,3136
2810.1031055894246,3246
2811.8618070978273,3297
2813.6201633795085,3179
2815.378174737636,3213
2817.1358414754536,3183
2818.893163896285,3186
2820.6501423035334,3217
2822.4067770006814,3156
2824.1630682912883,3268
2825.9190164789957,3202
2827.6746218675207,3195
2829.429884760661,3189
2831.184805462294,3171
2832.9393842763743,3157
2834.693621506936,3097
2836.4475174580916,3163
2838.201072434034,3259
2839.954286739034,3171
2841.707160677441,3240
2843.459694553685,3163
2845.2118886722724,3086
2846.96374333779,3196
2848.7152588549034,3178
2850.4664355283567,3204
2852.217273662973,3200
2853.9677735636546,3172
2855.7179355353833,3247
2857.4677598832186,3167
2859.217246912299,3210
2860.9663969278427,3205
2862.715210235146,3240
2864.4636871395846,3217
2866.211827946614,3209
2867.9596329617652,3212
2869.7071024906536,3306
2871.4542368389684,3116
2873.20103631248,3154
2874.947501217038,3143
2876.6936318585695,3163
2878.4394285430812,3173
2880.1848915766604,3266
2881.9300212654707,3212
2883.6748179157553,3275
2885.4192818338374,3219
2887.1634133261173,3256
2888.907212699077,3242
2890.6506802592744,3179
2892.393816313348,3241
2894.1366211680142,3231
2895.8790951300693,3269
2897.621238506388,3315
2899.363051603925,3304
2901.1045347297118,3182
2902.8456881908596,3244
2904.58651229456,3125
2906.327007348081,3202
2908.067173658772,3230
2909.8070115340597,3149
2911.5465212814497,3264
2913.285703208527,3166
2915.0245576229563,3144
2916.7630848324807,3229
2918.5012851449196,3192
2920.2391588681758,3117
2921.976706310227,3253
2923.7139277791334,3266
2925.4508235830313,3218
2927.187394030137,3209
2928.923639428745,3264
2930.6595600872306,3298
2932.395156314046,3262
2934.1304284177218,3231
2935.8653767068713,3297
2937.6000014901815,3230
2939.3343030764227,3285
2941.068281774442,3197
2942.8019378931644,3319
2944.5352717415976,3268
2946.2682836288236,3317
2948.0009738640065,3264
2949.7333427563885,3228
2951.465390615289,3289
2953.1971177501086,3276
2954.9285244703265,3297
2956.6596110855,3272
2958.3903779052657,3271
2960.1208252393385,3318
2961.8509533975125,3260
2963.5807626896617,3238
2965.3102534257378,3299
2967.0394259157715,3291
2968.768280469873,3212
2970.496817398232,3272
2972.2250370111146,3241
2973.952939618869,3233
2975.6805255319196,3233
2977.4077950607707,3173
2979.134748516006,3360
2980.861386208289,3407
2982.587708448359,3262
2984.313715547037,3247
2986.039407815222,3225
2987.764785563891,3239
2989.489849104102,3344
2991.2145987469908,3404
2992.9390348037705,3355
2994.6631575857346,3339
2996.3869674042576,3301
2998.1104645707887,3389
2999.83364939686,3367
3001.5565221940783,3284
3003.2790832741334,3254
3005.0013329487924,3293
3006.7232715298996,3250
3008.4448993293804,3283
3010.166216659239,3264
3011.887223831558,3324
3013.607921158498,3255
3015.3283089522993,3233
3017.0483875252826,3263
3018.7681571898443,3227
3020.4876182584626,3246
3022.2067710436927,3220
3023.9256158581707,3305
3025.644153014609,3204
3027.362382825801,3282
3029.0803056046193,3227
3030.797921664012,3219
3032.5152313170106,3297
3034.2322348767225,3333
3035.9489326563353,3287
3037.665324969115,3211
3039.3814121284063,3256
3041.097194447633,3204
3042.812672240299,3260
3044.5278458199855,3282
3046.2427155003525,3203
3047.9572815951406,3228
3049.671544418167,3176
3051.38550428333,3269
3053.0991615046073,3317
3054.812516396051,3215
3056.5255692717974,3322
3058.2383204460575,3253
3059.9507702331257,3176
3061.662918947372,3199
3063.3747669032446,3194
3065.0863144152736,3202
3066.7975617980674,3379
3068.508509366309,3285
3070.219157434767,3373
3071.9295063182844,3300
3073.639556331785,3331
3075.3493077902704,3426
3077.058761008821,3385
3078.7679163025964,3290
3080.476773986837,3250
3082.1853343768594,3349
3083.89359778806,3279
3085.6015645359153,3298
3087.3092349359786,3365
3089.016609303884,3345
3090.7236879553434,3330
3092.4304712061476,3297
3094.136959372166,3397
3095.843152769349,3310
3097.5490517137237,3257
3099.2546565213966,3251
3100.959967508554,3377
3102.66498499146,3274
3104.3697092864577,3416
3106.0741407099695,3340
3107.778279578498,3286
3109.482126208622,3405
3111.1856809170004,3356
3112.8889440203716,3371
3114.5919158355528,3240
3116.294596679439,3347
3117.996986869006,3341
3119.6990867213062,3350
3121.4008965534726,3453
3123.102416682717,3328
3124.803647426329,3496
3126.5045891016784,3396
3128.205242026213,3315
3129.90560651746,3299
3131.605682893025,3340
3133.3054714705922,3393
3135.0049725679282,3375
3136.7041865028714,3321
3138.4031135933465,3275
3140.101754157353,3276
3141.800108512971,3499
3143.498176978357,3429
3145.1959598717494,3320
3146.8934575114636,3331
3148.5906702158954,3343
3150.2875983035183,3324
3151.9842420928853,3338
3153.680601902627,3359
3155.376678051456,3298
3157.07247085816,3349
3158.767980641609,3426
3160.463207720748,3386
3162.158152414606,3353
3163.8528150422862,3392
3165.5471959229726,3399
3167.2412953759303,3343
3168.9351137204976,3401
3170.628651276098,3426
3172.3219083622307,3468
3174.014885298474,3326
3175.707582404485,3387
3177.4000000000005,3361
3179.092138404835,3335
3180.7839979388846,3454
3182.47557892212,3404
3184.166881674594,3333
3185.8579065164386,3405
3187.5486537678626,3427
3189.2391237491547,3350
3190.9293167806827,3344
3192.6192331828934,3383
3194.3088732763117,3330
3195.998237381542,3414
3197.687325819268,3464
3199.376138910251,3387
3201.064676975334,3375
3202.7529403354347,3326
3204.4409293115523,3377
3206.1286442247647,3268
3207.816085396229,3439
3209.5032531471825,3332
3211.190147798936,3223
3212.8767696728846,3271
3214.5631190905015,3257
3216.2491963733373,3363
3217.9350018430214,3292
3219.6205358212637,3361
3221.305798629851,3407
3222.990790590651,3331
3224.6755120256103,3361
3226.359963256751,3305
3228.0441446061795,3365
3229.7280563960758,3387
3231.411698948703,3347
3233.0950725863995,3328
3234.778177631587,3305
3236.461014406761,3248
3238.1435832345005,3521
3239.8258844374595,3355
3241.507918338374,3378
3243.1896852600576,3370
3244.8711855254023,3349
3246.552419457381,3312
3248.233387379042,3368
3249.914089613516,3378
3251.59452648401,3339
3253.274698313813,3449
3254.95460542629,3306
3256.6342481448855,3332
3258.313626793125,3373
3259.9927416946084,3332
3261.6715931730196,3347
3263.3501815521176,3370
3265.0285071557437,3321
3266.706570307815,3298
3268.3843713323286,3342
3270.0619105533615,3312
3271.739188295068,3319
3273.4162048816834,3584
3275.0929606375184,3365
3276.769455886966,3358
3278.445690954498,3483
3280.1216661646613,3326
3281.797381842087,3316
3283.4728383114807,3320
3285.1480358976296,3421
3286.8229749253996,3436
3288.4976557197333,3474
3290.172078605655,3406
3291.846243908266,3300
3293.5201519527463,3260
3295.193803064357,3339
3296.8671975684374,3414
3298.5403357904024,3380
3300.21321805575,3371
3301.8858446900567,3364
3303.558216018975,3480
3305.23033236824,3484
3306.9021940636603,3467
3308.57380143113,3437
3310.2451547966184,3470
3311.916254486174,3355
3313.5871008259246,3477
3315.2576941420766,3495
3316.9280347609147,3292
3318.5981230088046,3515
3320.2679592121895,3292
3321.9375436975924,3229
3323.606876791612,3367
3325.27595882093,3365
3326.944790112305,3341
3328.6133709925753,3345
3330.2817017886573,3488
3331.949782827547,3360
3333.617614436319,3402
3335.2851969421245,3416
3336.952530672199,3416
3338.619615953853,3449
3340.286453114475,3432
3341.9530424815357,3405
3343.619384382583,3497
3345.2854791452437,3515
3346.951327097224,3476
3348.6169285663073,3462
3350.2822838803577,3472
3351.947393367319,3403
3353.61225735521,3471
3355.2768761721345,3381
3356.9412501462693,3476
3358.605379605873,3420
3360.2692648792827,3391
3361.9329062949146,3529
3363.596304181263,3346
