CollectionTime,6/28/2024 1:32:23 PM
ExposureUsed,3
CalibratedSpectrum
-962.7078968117929,528
-959.9714848408522,511
-957.2358232597828,546
-954.5009119013725,501
-951.7667505983302,527
-949.0333391832855,526
-946.3006774887896,523
-943.5687653473143,513
-940.837602591253,518
-938.1071890529199,525
-935.3775245645503,535
-932.6486089583007,544
-929.9204420662485,550
-927.1930237203925,551
-924.4663537526524,536
-921.7404319948689,543
-919.0152582788041,547
-916.2908324361409,574
-913.5671542984834,551
-910.8442236973568,579
-908.1220404642074,570
-905.4006044304027,570
-902.679915427231,572
-899.959973285902,543
-897.2407778375464,515
-894.5223289132158,531
-891.8046263438832,500
-889.0876699604426,539
-886.3714595937089,509
-883.6559950744183,498
-880.9412762332282,497
-878.2273029007168,462
-875.5140749073835,511
-872.8015920836489,522
-870.0898542598545,497
-867.3788612662631,480
-864.6686129330585,516
-861.9591090903457,506
-859.2503495681506,495
-856.5423341964203,504
-853.8350628050229,509
-851.1285352237478,513
-848.4227512823054,489
-845.7177108103272,471
-843.0134136373656,501
-840.3098595928943,519
-837.6070485063082,527
-834.9049802069229,499
-832.2036545239757,490
-829.5030712866244,511
-826.8032303239481,497
-824.1041314649472,496
-821.4057745385428,499
-818.7081593735775,517
-816.0112857988148,521
-813.3151536429393,506
-810.6197627345566,488
-807.9251129021936,515
-805.2312039742981,529
-802.5380357792392,541
-799.8456081453069,506
-797.1539209007124,497
-794.462973873588,507
-791.772766891987,502
-789.083299783884,496
-786.3945723771743,514
-783.7065844996748,505
-781.0193359791231,530
-778.3328266431781,523
-775.6470563194197,520
-772.9620248353489,504
-770.2777320183878,515
-767.5941776958798,497
-764.9113616950891,539
-762.2292838432011,515
-759.5479439673222,533
-756.8673418944801,513
-754.1874774516235,536
-751.5083504656222,518
-748.8299607632671,531
-746.15230817127,520
-743.475392516264,538
-740.7992136248035,530
-738.1237713233636,522
-735.4490654383407,490
-732.7750957960521,518
-730.1018622227365,525
-727.4293645445534,529
-724.7576025875837,530
-722.0865761778291,557
-719.4162851412126,548
-716.7467293035781,512
-714.0779084906909,546
-711.409822528237,539
-708.7424712418238,518
-706.0758544569796,513
-703.4099719991541,543
-700.7448236937178,524
-698.0804093659622,548
-695.4167288411002,551
-692.7537819442656,516
-690.0915685005134,516
-687.4300883348199,505
-684.7693412720819,539
-682.1093271371178,542
-679.4500457546669,539
-676.7914969493897,551
-674.1336805458676,533
-671.4765963686034,560
-668.8202442420206,610
-666.1646239904642,571
-663.5097354382001,544
-660.8555784094151,539
-658.2021527282176,552
-655.5494582186366,580
-652.8974947046223,635
-650.2462620100463,548
-647.5957599587009,566
-644.9459883742998,620
-642.2969470804776,696
-639.6486359007902,674
-637.0010546587141,644
-634.3542031776476,667
-631.7080812809096,643
-629.0626887917401,596
-626.4180255333008,600
-623.7740913286734,582
-621.1308860008619,566
-618.4884093727904,579
-615.8466612673046,621
-613.2056415071715,603
-610.5653499150785,615
-607.9257863136347,581
-605.28695052537,591
-602.6488423727357,615
-600.0114616781036,590
-597.3748082637674,634
-594.7388819519412,648
-592.1036825647604,610
-589.4692099242818,620
-586.8354638524829,621
-584.2024441712624,591
-581.5701507024403,593
-578.9385832677575,608
-576.3077416888759,579
-573.6776257873787,602
-571.0482353847704,644
-568.4195703024757,650
-565.7916303618415,666
-563.164415384135,643
-560.5379251905453,604
-557.9121596021815,661
-555.2871184400748,630
-552.6628015251767,649
-550.0392086783606,678
-547.4163397204204,683
-544.794194472071,692
-542.1727727539491,682
-539.5520743866118,719
-536.9320991905377,706
-534.3128469861261,721
-531.6943175936979,721
-529.0765108334947,750
-526.4594265256793,875
-523.8430644903358,975
-521.2274245474689,1076
-518.612506517005,1280
-515.9983102187913,1356
-513.3848354725959,1649
-510.77208209810846,1806
-508.16004991493924,2138
-505.5487387426199,2306
-502.9381484006032,2518
-500.3282787082628,2483
-497.71912948489364,2451
-495.1107005497117,2165
-492.5029917218539,1825
-489.8960028203786,1413
-487.28973366426493,1247
-484.68418407241325,1100
-482.07935386364494,976
-479.47524285670266,931
-476.87185087025,970
-474.2691777228715,953
-471.66722323307334,935
-469.0659872192821,890
-466.4654694998459,913
-463.86566989303384,851
-461.26658821703614,832
-458.66822428996414,819
-456.07057792985,834
-453.4736489546475,840
-450.877437182231,888
-448.28194243039627,839
-445.68716451686,773
-443.09310325926003,771
-440.49975847515555,808
-437.9071299820263,756
-435.31521759727354,789
-432.72402113821954,797
-430.13354042210767,831
-427.5437752661022,844
-424.95472548728867,841
-422.36639090267386,896
-419.7787713291855,873
-417.1918665836721,880
-414.60567648290385,876
-412.0202008435715,932
-409.4354394822874,907
-406.8513922155845,913
-404.26805885991723,930
-401.685439231661,903
-399.103533147112,865
-396.522340422488,825
-393.9418608739278,853
-391.3620943174908,866
-388.7830405691583,800
-386.2046994448317,869
-383.6270707603344,804
-381.05015433141045,723
-378.473949973725,700
-375.8984575028645,672
-373.32367673433623,671
-370.74960748356875,686
-368.1762495659117,596
-365.60360279663576,569
-363.03166699093265,556
-360.4604419639154,589
-357.8899275306178,572
-355.32012350599507,550
-352.7510297049233,564
-350.1826459421999,519
-347.61497203254316,558
-345.04800779059235,499
-342.4817530309082,542
-339.91620756797226,537
-337.35137121618743,533
-334.7872437898774,508
-332.22382510328725,512
-329.66111497058273,540
-327.09911320585127,549
-324.53781962310075,569
-321.9772340362607,607
-319.4173562591816,546
-316.8581861056348,552
-314.2997233893127,590
-311.7419679238294,589
-309.1849195227194,604
-306.62857799943856,565
-304.0729431673641,581
-301.51801483979375,560
-298.963792829947,545
-296.41027695096386,552
-293.85746701590574,642
-291.3053628377552,668
-288.7539642294155,680
-286.2032710037115,638
-283.65328297338897,615
-281.1039999511146,646
-278.5554217494762,649
-276.007548180983,639
-273.4603790580651,628
-270.9139141930734,592
-268.3681533982807,660
-265.8230964858798,660
-263.27874326798565,689
-260.7350935566336,667
-258.1921471637804,644
-255.6499039013039,659
-253.10836358100266,713
-250.56752601459698,702
-248.02739101372765,800
-245.48795838995704,887
-242.94922795476816,869
-240.41119951956557,777
-237.8738728956746,790
-235.33724789434166,887
-232.80132432673452,974
-230.2661020039418,832
-227.73158073697357,704
-225.19776033676033,685
-222.66464061415422,727
-220.1322213799284,780
-217.60050244477725,792
-215.06948361931552,778
-212.53916471408013,786
-210.00954553952818,804
-207.48062590603843,907
-204.9524056239104,972
-202.4248845033651,874
-199.8980623545441,795
-197.37193898751036,915
-194.84651421224817,844
-192.32178783866232,831
-189.79775967657952,802
-187.27442953574644,941
-184.7517972258321,871
-182.2298625564256,904
-179.7086253370378,917
-177.18808537710026,834
-174.66824248596583,851
-172.14909647290835,924
-169.6306471471229,906
-167.11289431772548,880
-164.59583779375328,856
-162.07947738416453,926
-159.5638128978386,955
-157.04884414357605,1017
-154.53457093009854,997
-152.02099306604828,1064
-149.50811035998936,970
-146.99592262040665,1016
-144.48442965570587,1141
-141.97363127421409,1149
-139.46352728417958,1077
-136.95411749377126,1115
-134.44540171107985,1310
-131.93737974411636,1264
-129.43005140081357,1251
-126.92341648902493,1195
-124.41747481652521,1155
-121.91222619101006,1170
-119.40767042009657,1139
-116.90380731132257,1203
-114.40063667214702,1184
-111.8981583099503,1334
-109.3963720320337,1398
-106.89527764561933,1498
-104.39487495785067,1562
-101.89516377579241,1745
-99.39614390642998,1635
-96.89781515667039,1466
-94.40017733334128,1680
-91.90323024319173,1712
-89.40697369289148,1937
-86.91140748903172,1776
-84.41653143812482,1795
-81.92234534660395,1802
-79.42884902082358,2129
-76.93604226705907,2348
-74.4439248915071,2078
-71.95249670028534,2147
-69.46175749943245,2366
-66.97170709490854,2742
-64.48234529259423,3069
-61.99367189829195,2422
-59.50568671772464,2251
-57.01838955653636,2415
-54.53178022029283,3214
-52.045858514480074,3159
-49.560624244506016,2931
-47.07607721569923,3157
-44.59221723330904,3486
-42.10904410250669,3667
-39.62655762838392,3847
-37.14475761595372,4928
-34.66364387015028,6851
-32.18321619582866,7756
-29.70347439776515,8074
-27.224418280657005,9591
-24.74604764912317,14988
-22.26836230770266,25892
-19.7913620608565,40646
-17.315046712966478,50561
-14.83941606833514,59704
-12.36446993118659,65032
-9.89020810566592,65032
-7.416630395839093,65032
-4.94373660569363,65032
-2.471526539137585,65032
-6.821210263296962E-13,65032
2.47084320796705,65032
4.941003281093458,65032
7.410480415786196,65032
9.879274808531363,65032
12.347386655893956,65032
14.814816154518212,65032
17.28156350112681,65032
19.74762889252179,65032
22.21301252558385,65032
24.67771459727237,45556
27.141735304626195,17289
29.605074844762612,9895
32.06773341487792,7922
34.52971121224755,8887
36.99100843422559,7586
39.45162527824516,7689
41.91156194181792,9943
44.370818622535126,13469
46.82939551806646,16683
49.287292826160524,18456
51.74451074464503,18011
54.201049471426245,14315
56.65690920448981,9547
59.112090141899785,6538
61.56659248179983,5072
64.02041642241159,4434
66.4735621620365,3369
68.92602989905402,2949
71.37781983192338,2862
73.82893215918205,2610
76.27936707944684,2433
78.72912479141326,2291
81.17820549385567,2181
83.62660938562783,2082
86.07433666566146,2280
88.5213875329681,2203
90.96776218663751,2115
93.41346082583925,2068
95.85848364982041,2211
98.30283085790859,2023
100.7465026495089,1983
103.18949922410604,1776
105.63182078126385,1559
108.07346752062438,1950
110.51443964190923,1946
112.95473734491827,1497
115.39436082953114,1424
117.83331029570547,1507
120.27158594347827,1649
122.7091879729652,1310
125.1461165843615,1371
127.58237197794062,1486
130.01795435405518,1474
132.4528639131364,1351
134.88710085569494,1439
137.32066538231982,1562
139.75355769367923,1486
142.1857779905207,1321
144.61732647366978,1278
147.04820334403132,1420
149.47840880258934,1406
151.90794305040674,1336
154.33680628862487,1365
156.76499871846443,1404
159.19252054122433,1445
161.61937195828352,1480
164.04555317109896,1596
166.47106438120693,1622
168.89590579022217,1928
171.320077599839,1969
173.7435800118302,2061
176.16641322804742,1974
178.58857745042144,1928
181.01007288096173,2051
183.43089972175687,2124
185.85105817497413,2093
188.27054844285988,1962
190.6893707277394,1869
193.10752523201643,1957
195.5250121581745,2025
197.9418317087751,2108
200.3579840864594,2164
202.7734694939469,2125
205.18828813403627,2178
207.6024402096051,2107
210.01592592360964,2129
212.42874547908548,2088
214.84089907914665,2067
217.2523869269868,2182
219.66320922587727,2148
222.0733661791695,2148
224.48285799029293,2157
226.8916848627572,2260
229.29984700014882,2284
231.7073446061355,2240
234.11417788446204,2331
236.520347038953,2322
238.92585227351185,2465
241.33069379212054,2444
243.73487179884035,2440
246.1383864978112,2243
248.541238093252,2223
250.9434267894609,2357
253.34495279081432,2276
255.74581630176783,2305
258.1460175268563,2263
260.54555667069314,2307
262.9444339379703,2452
265.3426495334594,2395
267.7402036620107,2403
270.1370965285529,2245
272.53332833809407,2383
274.9288992957214,2422
277.32380960660055,2350
279.718059475976,2409
282.1116491091717,2447
284.5045787115897,2416
286.89684848871195,2315
289.2884586460981,2419
291.67940938938807,2452
294.0697009242996,2350
296.4593334566299,2273
298.84830719225477,2311
301.23662233712923,2313
303.6242790972866,2390
306.01127767884,2314
308.39761828798066,2343
310.78330113097934,2365
313.16832641418534,2307
315.5526943440269,2223
317.9364051270112,2197
320.3194589697242,2068
322.70185607883093,2193
325.0835966610754,2154
327.4646809232805,2117
329.8451090723478,2105
332.2248813152577,2051
334.6039978590701,2079
336.9824589109231,2060
339.36026467803447,2159
341.7374153677,2116
344.113911187295,1913
346.48975234427337,1945
348.8649390461686,1960
351.2394715005918,2000
353.61334991523415,1955
355.9865744978655,2035
358.35914545633375,2059
360.73106299856715,1992
363.10232733257146,1937
365.47293866643247,1953
367.84289720831396,1989
370.2122031664593,1864
372.5808567491905,1962
374.9488581649083,1924
377.31620762209275,1813
379.6829053293021,1897
382.0489514951745,1814
384.4143463284262,1835
386.7790900378528,1877
389.14318283232853,1919
391.50662492080653,1859
393.86941651231916,1831
396.23155781597745,1768
398.5930490409713,1876
400.9538903965696,1819
403.3140820921202,1801
405.6736243370498,1780
408.03251734086336,1815
410.3907613131465,1845
412.74835646356166,1761
415.10530300185144,1869
417.4616011378372,1913
419.81725108141893,1891
422.1722530425758,1841
424.5266072313656,1878
426.880313857925,1810
429.2333731324701,1736
431.58578526529516,1744
433.9375504667738,1791
436.2886689473588,1810
438.63914091758113,1768
440.9889665880513,1794
443.33814616945835,1778
445.68667987257015,1721
448.03456790823395,1664
450.3818104873759,1721
452.72840782100013,1742
455.07436012019105,1648
457.41966759611057,1719
459.7643304600007,1671
462.10834892318155,1752
464.4517231970525,1792
466.79445349309174,1791
469.1365400228566,1798
471.4779829979826,1809
473.81878263018564,1804
476.15893913125876,1842
478.4984527130747,1906
480.8373235875855,1879
483.17555196682144,1987
485.5131380628919,1980
487.8500820879857,2166
490.1863842543697,2207
492.52204477439034,2416
494.8570638604725,2771
497.1914417251204,3145
499.52517858091653,3703
501.85827464052306,4217
504.19073011668036,4522
506.5225452222086,4718
508.85372017000566,4787
511.18425517304956,4685
513.514150444396,4607
515.8434061971808,4724
518.1720226446176,4740
520.4999999999999,4897
522.8273384766991,4936
525.1540382881666,4985
527.480099647932,4663
529.8055227696037,3724
532.1303078668694,2592
534.454455153496,2082
536.777964843328,1836
539.1008371502907,1770
541.4230722883866,1749
543.744670471698,1690
546.0656319143858,1761
548.3859568306899,1769
550.7056454349294,1660
553.0246979415016,1568
555.3431145648834,1599
557.6608955196306,1558
559.978041020377,1540
562.2945512818363,1616
564.6104265188006,1489
566.9256669461412,1506
569.2402727788082,1566
571.5542442318302,1505
573.8675815203156,1529
576.1802848594508,1516
578.4923544645015,1492
580.8037905508126,1558
583.114593333807,1529
585.4247630289875,1537
587.7342998519354,1550
590.0432040183106,1529
592.3514757438526,1562
594.6591152443794,1543
596.9661227357875,1563
599.2724984340531,1587
601.578242555231,1560
603.8833553154542,1512
606.1878369309362,1553
608.4916876179676,1616
610.7949075929192,1679
613.0974970722403,1610
615.3994562724587,1607
617.7007854101818,1563
620.0014847020951,1571
622.3015543649641,1523
624.6009946156324,1559
626.8998056710224,1556
629.1979877481361,1540
631.4955410640538,1540
633.7924658359349,1564
636.0887622810175,1536
638.3844306166192,1524
640.6794710601358,1608
642.9738838290426,1532
645.2676691408932,1620
647.5608272133207,1520
649.853358264037,1531
652.1452625108324,1590
654.4365401715764,1634
656.7271914642178,1591
659.0172166067838,1571
661.3066158173809,1554
663.5953893141935,1601
665.8835373154867,1582
668.1710600396028,1603
670.4579577049639,1581
672.7442305300709,1486
675.0298787335033,1545
677.3149025339197,1600
679.599302150058,1567
681.8830778007342,1529
684.1662297048437,1571
686.4487580813608,1533
688.7306631493387,1587
691.0119451279091,1569
693.2926042362834,1588
695.5726406937516,1649
697.8520547196814,1640
700.1308465335215,1653
702.4090163547982,1596
704.6865644031171,1532
706.9634908981619,1537
709.2397960596965,1559
711.5154801075631,1575
713.7905432616823,1537
716.0649857420548,1569
718.3388077687592,1523
720.612009561953,1577
722.8845913418733,1581
725.1565533288352,1539
727.427895743234,1569
729.6986188055427,1552
731.9687227363137,1521
734.238207756178,1611
736.5070740858458,1594
738.7753219461066,1588
741.0429515578281,1544
743.3099631419569,1570
745.5763569195191,1567
747.8421331116193,1656
750.1072919394409,1591
752.3718336242467,1575
754.6357583873777,1618
756.8990664502545,1560
759.1617580343765,1573
761.423833361321,1573
763.6852926527457,1583
765.9461361303862,1631
768.206364016058,1568
770.4659765316536,1628
772.7249738991469,1641
774.9833563405886,1596
777.2411240781092,1649
779.4982773339183,1712
781.7548163303044,1718
784.010741289634,1657
786.2660524343538,1720
788.5207499869881,1665
790.7748341701416,1618
793.0283052064964,1692
795.2811633188143,1682
797.5334087299362,1627
799.7850416627813,1627
802.0360623403484,1646
804.2864709857143,1674
806.5362678220353,1648
808.7854530725468,1707
811.0340269605625,1708
813.2819897094754,1658
815.5293415427581,1636
817.77608268396,1584
820.0222133567116,1676
822.2677337847211,1668
824.5126441917765,1663
826.7569448017433,1608
829.0006358385675,1640
831.2437175262731,1659
833.4861900889629,1612
835.7280537508192,1675
837.9693087361026,1599
840.2099552691533,1612
842.4499935743896,1629
844.689423876309,1644
846.9282463994886,1607
849.1664613685833,1579
851.4040690083276,1606
853.6410695435349,1639
855.877463199097,1567
858.1132501999847,1656
860.3484307712487,1638
862.5830051380175,1613
864.8169735254988,1637
867.0503361589791,1583
869.2830932638243,1610
871.5152450654786,1630
873.7467917894654,1676
875.9777336613873,1717
878.2080709069252,1652
880.4378037518389,1667
882.666932421968,1606
884.8954571432301,1676
887.1233781416219,1753
889.3506956432192,1681
891.5774098741766,1661
893.803521060728,1675
896.0290294291852,1671
898.2539352059397,1651
900.4782386174619,1713
902.7019398903011,1671
904.925039251085,1752
907.147536926521,1711
909.3694331433943,1687
911.59072812857,1756
913.8114221089921,1710
916.0315153116827,1698
918.2510079637437,1615
920.4699002923547,1749
922.6881925247761,1718
924.905884888345,1724
927.1229776104793,1627
929.3394709186747,1696
931.555365040506,1644
933.7706602036275,1691
935.9853566357709,1757
938.1994545647489,1725
940.4129542184515,1689
942.6258558248488,1729
944.8381596119883,1676
947.0498658079974,1750
949.2609746410825,1723
951.4714863395287,1680
953.6814011316998,1717
955.8907192460387,1721
958.0994409110671,1647
960.3075663553858,1635
962.5150958076741,1629
964.7220294966913,1622
966.928367651274,1655
969.1341105003388,1639
971.3392582728806,1566
973.5438111979742,1579
975.747769504772,1589
977.9511334225061,1518
980.153903180487,1518
982.3560790081052,1589
984.5576611348289,1607
986.7586497902058,1569
988.9590452038618,1537
991.158847605503,1428
993.3580572249133,1429
995.5566742919558,1447
997.7546990365728,1455
999.952131688785,1464
1002.1489724786926,1397
1004.3452216364743,1376
1006.5408793923874,1408
1008.7359459767691,1357
1010.9304216200343,1346
1013.1243065526781,1277
1015.3176010052733,1374
1017.510305208472,1305
1019.7024193930064,1328
1021.8939437896848,1289
1024.0848786293977,1287
1026.2752241431122,1277
1028.4649805618747,1243
1030.6541481168115,1307
1032.842727039127,1228
1035.0307175601051,1216
1037.2181199111074,1267
1039.4049343235752,1264
1041.591161029029,1234
1043.7768002590683,1231
1045.9618522453698,1208
1048.1463172196918,1269
1050.3301954138697,1228
1052.513487059818,1238
1054.69619238953,1238
1056.8783116350783,1198
1059.0598450286152,1214
1061.2407928023704,1181
1063.4211551886528,1206
1065.6009324198508,1204
1067.780124728432,1206
1069.9587323469414,1157
1072.1367555080046,1257
1074.314194444325,1223
1076.4910493886855,1200
1078.667320573947,1157
1080.843008233051,1226
1083.0181125990161,1188
1085.1926339049414,1206
1087.3665723840027,1105
1089.5399282694575,1120
1091.7127017946405,1141
1093.8848931929647,1122
1096.0565026979243,1190
1098.2275305430899,1148
1100.3979769621128,1148
1102.567842188722,1137
1104.737126456726,1140
1106.9058300000124,1115
1109.0739530525475,1144
1111.2414958483764,1183
1113.4084586216231,1176
1115.5748416064907,1193
1117.7406450372605,1125
1119.9058691482942,1121
1122.0705141740304,1131
1124.2345803489884,1173
1126.3980679077658,1178
1128.5609770850388,1151
1130.7233081155623,1147
1132.8850612341707,1161
1135.0462366757774,1113
1137.2068346753745,1160
1139.3668554680326,1138
1141.526299288901,1134
1143.68516637321,1091
1145.8434569562655,1136
1148.001171273455,1102
1150.158309560244,1115
1152.3148720521767,1168
1154.470858984876,1187
1156.626270594044,1140
1158.7811071154629,1136
1160.9353687849912,1127
1163.089055838569,1139
1165.242168512213,1133
1167.3947070420209,1108
1169.5466716641677,1152
1171.6980626149075,1130
1173.8488801305748,1093
1175.9991244475814,1099
1178.1487958024186,1136
1180.2978944316555,1087
1182.4464205719428,1119
1184.5943744600072,1113
1186.7417563326567,1085
1188.8885664267755,1105
1191.0348049793297,1097
1193.1804722273619,1119
1195.325568407995,1105
1197.4700937584303,1072
1199.614048515948,1068
1201.7574329179074,1108
1203.900247201746,1084
1206.042491604982,1064
1208.1841663652099,1084
1210.3252717201053,1116
1212.465807907422,1115
1214.6057751649923,1086
1216.7451737307279,1128
1218.8840038426192,1112
1221.0222657387353,1108
1223.1599596572241,1148
1225.2970858363137,1118
1227.4336445143094,1125
1229.5696359295966,1082
1231.705060320639,1120
1233.8399179259786,1113
1235.9742089842384,1057
1238.107933734118,1075
1240.2410924143974,1099
1242.373685263935,1060
1244.5057125216676,1099
1246.6371744266116,1146
1248.7680712178621,1117
1250.898403134593,1064
1253.028170416058,1101
1255.1573733015875,1130
1257.2860120305932,1072
1259.4140868425648,1084
1261.54159797707,1049
1263.6685456737569,1080
1265.7949301723515,1098
1267.9207517126597,1050
1270.046010534565,1107
1272.1707068780306,1088
1274.2948409830983,1053
1276.4184130898889,1109
1278.541423438603,1105
1280.6638722695184,1114
1282.785759822993,1092
1284.9070863394636,1084
1287.0278520594447,1102
1289.1480572235314,1124
1291.2677020723963,1134
1293.3867868467923,1123
1295.5053117875495,1146
1297.623277135579,1125
1299.740683131868,1100
1301.8575300174857,1113
1303.973818033578,1090
1306.0895474213703,1063
1308.2047184221678,1108
1310.3193312773528,1090
1312.4333862283888,1100
1314.5468835168163,1139
1316.659823384255,1109
1318.7722060724045,1121
1320.8840318230418,1078
1322.9953008780249,1124
1325.1060134792888,1090
1327.2161698688478,1112
1329.3257702887959,1124
1331.4348149813054,1135
1333.5433041886276,1147
1335.6512381530933,1104
1337.7586171171101,1138
1339.8654413231675,1105
1341.9717110138317,1105
1344.0774264317488,1086
1346.1825878196432,1123
1348.2871954203192,1174
1350.3912494766587,1122
1352.4947502316231,1118
1354.5976979282532,1120
1356.7000928096686,1103
1358.8019351190665,1102
1360.9032250997243,1096
1363.0039629949988,1076
1365.1041490483235,1171
1367.2037835032133,1138
1369.3028666032606,1065
1371.401398592137,1106
1373.4993797135926,1103
1375.5968102114575,1162
1377.6936903296396,1130
1379.7900203121262,1085
1381.8858004029835,1134
1383.9810308463561,1111
1386.075711886469,1134
1388.1698437676241,1147
1390.2634267342032,1142
1392.356461030667,1161
1394.4489469015557,1139
1396.5408845914872,1127
1398.6322743451592,1157
1400.7231164073469,1092
1402.813411022907,1107
1404.903158436773,1142
1406.9923588939578,1129
1409.0810126395531,1155
1411.1691199187303,1099
1413.2566809767386,1126
1415.343696058907,1119
1417.4301654106425,1144
1419.5160892774315,1118
1421.6014679048399,1121
1423.6863015385125,1175
1425.7705904241707,1107
1427.8543348076178,1099
1429.9375349347342,1036
1432.0201910514802,1128
1434.102303403894,1175
1436.1838722380944,1126
1438.2648978002767,1143
1440.3453803367174,1107
1442.4253200937692,1115
1444.5047173178677,1077
1446.5835722555234,1143
1448.6618851533285,1124
1450.739656257952,1173
1452.8168858161434,1131
1454.8935740747306,1147
1456.96972128062,1129
1459.045327680797,1135
1461.120393522327,1137
1463.1949190523528,1129
1465.2689045180973,1126
1467.3423501668608,1123
1469.415256246024,1119
1471.4876230030463,1172
1473.559450685465,1116
1475.6307395408976,1094
1477.7014898170391,1107
1479.771701761665,1124
1481.8413756226287,1116
1483.9105116478618,1147
1485.9791100853772,1088
1488.0471711832643,1093
1490.1146951896926,1134
1492.1816823529098,1110
1494.2481329212433,1131
1496.3140471430984,1066
1498.3794252669609,1122
1500.4442675413939,1121
1502.5085742150404,1108
1504.572345536622,1137
1506.6355817549388,1057
1508.6982831188702,1128
1510.7604498773744,1099
1512.8220822794883,1113
1514.8831805743293,1169
1516.9437450110909,1102
1519.003775839048,1108
1521.0632733075522,1109
1523.1222376660367,1163
1525.1806691640113,1200
1527.2385680510652,1166
1529.2959345768668,1137
1531.3527689911643,1123
1533.4090715437833,1114
1535.4648424846291,1128
1537.5200820636855,1090
1539.5747905310159,1139
1541.6289681367616,1143
1543.6826151311434,1125
1545.7357317644614,1148
1547.7883182870937,1113
1549.8403749494987,1132
1551.8919020022113,1119
1553.9428996958477,1138
1555.9933682811015,1172
1558.0433080087469,1132
1560.0927191296346,1150
1562.1416018946961,1191
1564.1899565549415,1144
1566.2377833614592,1102
1568.2850825654164,1096
1570.3318544180606,1146
1572.3780991707158,1110
1574.423817074788,1130
1576.4690083817595,1123
1578.5136733431923,1144
1580.5578122107272,1078
1582.601425236085,1168
1584.6445126710646,1162
1586.6870747675434,1133
1588.7291117774776,1093
1590.7706239529034,1126
1592.8116115459347,1118
1594.8520748087658,1128
1596.8920139936686,1141
1598.9314293529933,1116
1600.9703211391711,1114
1603.008689604711,1143
1605.0465350022005,1134
1607.0838575843068,1143
1609.1206576037753,1152
1611.1569353134305,1163
1613.1926909661765,1123
1615.2279248149953,1152
1617.2626371129481,1120
1619.2968281131757,1068
1621.3304980688963,1130
1623.3636472334088,1149
1625.39627586009,1121
1627.428384202396,1120
1629.459972513861,1155
1631.4910410480993,1150
1633.5215900588028,1133
1635.551619799744,1112
1637.5811305247717,1169
1639.6101224878166,1195
1641.6385959428862,1137
1643.6665511440683,1176
1645.693988345528,1167
1647.7209078015112,1120
1649.7473097663405,1154
1651.7731944944203,1107
1653.7985622402307,1155
1655.823413258333,1197
1657.847747803366,1135
1659.8715661300494,1109
1661.8948684931793,1076
1663.9176551476316,1142
1665.9399263483624,1174
1667.9616823504057,1177
1669.982923408873,1141
1672.0036497789574,1115
1674.0238617159293,1162
1676.043559475138,1123
1678.0627433120121,1157
1680.081413482059,1120
1682.0995702408654,1108
1684.117213844096,1124
1686.134344547495,1134
1688.1509626068864,1175
1690.1670682781705,1143
1692.182661817329,1156
1694.1977434804217,1132
1696.2123135235875,1175
1698.226372203043,1154
1700.2399197750851,1108
1702.2529564960905,1120
1704.2654826225112,1151
1706.277498410882,1156
1708.2890041178139,1175
1710.2999999999988,1200
1712.3104863142066,1126
1714.3204633172854,1185
1716.329931266163,1165
1718.3388904178469,1157
1720.3473410294214,1139
1722.3552833580516,1141
1724.3627176609807,1141
1726.3696441955308,1082
1728.3760632191033,1134
1730.3819749891782,1124
1732.3873797633146,1151
1734.3922777991502,1152
1736.3966693544012,1151
1738.4005546868639,1180
1740.4039340544127,1194
1742.406807715001,1150
1744.4091759266616,1189
1746.4110389475054,1114
1748.4123970357223,1076
1750.413250449582,1163
1752.4135994474318,1114
1754.4134442876993,1143
1756.4127852288902,1142
1758.4116225295893,1124
1760.4099564484595,1085
1762.407787244244,1152
1764.405115175764,1116
1766.4019405019203,1132
1768.3982634816916,1192
1770.3940843741357,1161
1772.3894034383907,1130
1774.3842209336717,1154
1776.378537119274,1142
1778.372352254571,1147
1780.3656665990156,1150
1782.3584804121397,1111
1784.3507939535534,1140
1786.3426074829463,1174
1788.3339212600863,1175
1790.3247355448211,1088
1792.3150505970766,1130
1794.3048666768573,1146
1796.2941840442477,1145
1798.2830029594106,1076
1800.2713236825884,1160
1802.2591464741004,1124
1804.2464715943465,1147
1806.2332993038058,1138
1808.2196298630352,1092
1810.2054635326708,1101
1812.190800573428,1118
1814.175641246101,1146
1816.1599858115628,1170
1818.1438345307652,1172
1820.127187664738,1158
1822.1100454745924,1175
1824.092408221516,1147
1826.0742761667766,1157
1828.055649571721,1132
1830.0365286977735,1148
1832.0169138064398,1188
1833.9968051593014,1162
1835.9762030180214,1129
1837.9551076443408,1123
1839.9335193000788,1151
1841.9114382471344,1143
1843.888864747485,1191
1845.8657990631878,1183
1847.842241456378,1106
1849.8181921892697,1126
1851.7936515241558,1160
1853.7686197234098,1149
1855.7430970494815,1113
1857.7170837649014,1154
1859.6905801322787,1111
1861.6635864143004,1128
1863.6361028737338,1188
1865.608129773424,1168
1867.5796673762961,1143
1869.5507159453537,1125
1871.521275743678,1172
1873.4913470344313,1168
1875.4609300808534,1143
1877.4300251462632,1141
1879.3986324940588,1187
1881.366752387717,1129
1883.3343850907936,1167
1885.3015308669228,1155
1887.268189979819,1140
1889.2343626932739,1138
1891.2000492711595,1174
1893.1652499774254,1170
1895.1299650761011,1157
1897.0941948312952,1135
1899.0579395071945,1179
1901.0211993680641,1133
1902.98397467825,1174
1904.9462657021745,1167
1906.9080727043415,1155
1908.869395949332,1150
1910.8302357018065,1189
1912.790592226504,1155
1914.7504657882428,1151
1916.7098566519212,1178
1918.6687650825133,1209
1920.6271913450764,1161
1922.5851357047422,1160
1924.5425984267245,1119
1926.499579776314,1165
1928.4560800188833,1182
1930.4120994198802,1127
1932.367638244833,1097
1934.32269675935,1122
1936.2772752291175,1244
1938.231373919899,1128
1940.1849930975404,1144
1942.1381330279637,1150
1944.0907939771696,1090
1946.0429762112412,1171
1947.9946799963363,1146
1949.9459055986945,1172
1951.896653284633,1122
1953.8469233205478,1149
1955.7967159729142,1179
1957.7460315082863,1127
1959.6948701932974,1174
1961.6432322946594,1146
1963.5911180791632,1148
1965.5385278136787,1182
1967.4854617651545,1129
1969.4319202006182,1116
1971.377903387176,1150
1973.3234115920136,1219
1975.268445082395,1149
1977.2130041256642,1132
1979.1570889892423,1147
1981.1006999406304,1155
1983.04383724741,1135
1984.986501177238,1161
1986.928691997853,1153
1988.8704099770712,1110
1990.811655382789,1176
1992.7524284829801,1213
1994.692729545698,1138
1996.6325588390755,1165
1998.5719166313224,1185
2000.5108031907307,1211
2002.4492187856677,1139
2004.387163684583,1218
2006.3246381560011,1142
2008.2616424685298,1188
2010.1981768908527,1168
2012.1342416917332,1158
2014.069837140014,1166
2016.0049635046162,1152
2017.9396210545406,1161
2019.8738100588666,1138
2021.8075307867502,1228
2023.740783507431,1147
2025.6735684902228,1126
2027.6058860045214,1188
2029.5377363198004,1150
2031.4691197056118,1153
2033.4000364315875,1187
2035.3304867674374,1128
2037.260470982952,1137
2039.189989347998,1175
2041.1190421325232,1194
2043.047629606554,1130
2044.9757520401945,1133
2046.9034097036288,1158
2048.8306028671195,1134
2050.7573318010086,1195
2052.683596775716,1217
2054.609398061742,1186
2056.5347359296647,1175
2058.4596106501403,1199
2060.384022493906,1182
2062.3079717317764,1204
2064.231458634646,1151
2066.1544834734873,1173
2068.077046519352,1199
2069.99914804337,1152
2071.9207883167524,1153
2073.8419676107865,1182
2075.7626861968406,1071
2077.6829443463607,1107
2079.6027423308715,1181
2081.522080421977,1133
2083.440958891362,1148
2085.359378010786,1191
2087.2773380520907,1153
2089.194839287196,1202
2091.111881988101,1169
2093.0284664268825,1170
2094.9445928756973,1127
2096.86026160678,1178
2098.775472892446,1170
2100.690227005088,1128
2102.604524217178,1134
2104.5183648012676,1198
2106.431749029985,1154
2108.34467717604,1150
2110.2571495122206,1197
2112.169166311393,1148
2114.080727846503,1113
2115.9918343905747,1168
2117.902486216711,1185
2119.8126835980956,1125
2121.722426807987,1160
2123.6317161197285,1160
2125.5405518067364,1123
2127.448934142509,1147
2129.356863400624,1168
2131.264339854737,1168
2133.1713637785815,1164
2135.077935445972,1117
2136.9840551308002,1137
2138.889723107037,1161
2140.7949396487334,1148
2142.699705030018,1122
2144.6040195250994,1151
2146.507883408264,1160
2148.4112969538774,1160
2150.3142604363848,1218
2152.2167741303097,1174
2154.1188383102535,1208
2156.0204532508997,1141
2157.9216192270064,1138
2159.822336513414,1123
2161.7226053850413,1181
2163.622426116884,1141
2165.5217989840185,1193
2167.4207242616,1160
2169.319202224862,1164
2171.2172331491165,1124
2173.1148173097563,1165
2175.0119549822507,1171
2176.90864644215,1175
2178.8048919650823,1178
2180.7006918267534,1150
2182.596046302952,1138
2184.4909556695407,1170
2186.3854202024645,1114
2188.279440177746,1183
2190.173015871487,1165
2192.066147559868,1105
2193.958835519149,1121
2195.851080025667,1158
2197.7428813558417,1174
2199.6342397861667,1157
2201.5251555932186,1191
2203.415629053651,1180
2205.3056604441986,1201
2207.19525004167,1208
2209.084398122958,1157
2210.9731049650327,1196
2212.861370844941,1137
2214.749196039812,1181
2216.636580826851,1203
2218.523525483344,1180
2220.410030286655,1130
2222.296095514226,1212
2224.1817214435805,1183
2226.066908352319,1180
2227.951656518121,1198
2229.835966218746,1180
2231.71983773203,1193
2233.6032713358913,1172
2235.486267308324,1133
2237.3688259274036,1224
2239.2509474712824,1151
2241.132632218193,1195
2243.013880446447,1182
2244.8946924344323,1163
2246.7750684606203,1146
2248.6550088035574,1164
2250.534513741871,1115
2252.413583554265,1129
2254.292218519526,1157
2256.170418916517,1090
2258.0481850241786,1167
2259.925517121534,1100
2261.8024154876825,1162
2263.678880401803,1177
2265.5549121431536,1147
2267.430510991071,1132
2269.305677224971,1193
2271.180411124348,1118
2273.0547129687766,1163
2274.9285830379076,1160
2276.8020216114737,1186
2278.6750289692845,1083
2280.5476053912294,1153
2282.4197511572766,1186
2284.2914665474727,1222
2286.162751841943,1119
2288.0336073208937,1145
2289.904033264608,1161
2291.774029953448,1182
2293.6435976678554,1183
2295.5127366883517,1176
2297.381447295534,1149
2299.2497297700825,1162
2301.1175843927526,1152
2302.9850114443825,1103
2304.852011205885,1125
2306.7185839582553,1144
2308.5847299825664,1170
2310.4504495599676,1119
2312.3157429716925,1175
2314.1806104990483,1184
2316.0450524234247,1140
2317.9090690262888,1206
2319.772660589186,1188
2321.635827393742,1193
2323.498569721661,1185
2325.3608878547248,1184
2327.2227820747967,1138
2329.0842526638157,1174
2330.945299903803,1149
2332.805924076857,1185
2334.6661254651535,1193
2336.525904350951,1185
2338.3852610165827,1195
2340.244195744464,1183
2342.102708817088,1145
2343.9608005170253,1149
2345.8184711269287,1122
2347.675720929526,1157
2349.532550207628,1161
2351.38895924412,1165
2353.24494832197,1185
2355.100517724223,1159
2356.955667734004,1159
2358.810398634514,1146
2360.664710709037,1158
2362.5186042409337,1130
2364.3720795136437,1192
2366.225136810686,1181
2368.0777764156583,1159
2369.929998612237,1152
2371.7818036841777,1213
2373.633191915315,1149
2375.484163589562,1114
2377.3347189909114,1164
2379.184858403434,1168
2381.03458211128,1151
2382.8838903986775,1179
2384.732783549936,1171
2386.5812618494406,1132
2388.4293255816588,1155
2390.2769750311327,1167
2392.1242104824883,1162
2393.971032220427,1140
2395.8174405297295,1168
2397.6634356952563,1154
2399.509018001947,1190
2401.3541877348193,1162
2403.1989451789705,1188
2405.043290619576,1155
2406.8872243418905,1164
2408.730746631247,1189
2410.5738577730594,1210
2412.4165580528183,1205
2414.258847756095,1168
2416.100727168537,1165
2417.9421965758734,1159
2419.783256263912,1181
2421.623906518538,1193
2423.4641476257157,1197
2425.303979871491,1216
2427.143403541984,1188
2428.9824189233977,1163
2430.821026302012,1188
2432.6592259641866,1183
2434.497018196361,1186
2436.33440328505,1201
2438.171381516851,1150
2440.00795317844,1157
2441.844118556569,1215
2443.6798779380724,1212
2445.5152316098606,1236
2447.3501798589255,1171
2449.1847229723357,1202
2451.0188612372403,1213
2452.8525949408663,1194
2454.6859243705203,1200
2456.518849813587,1147
2458.3513715575314,1173
2460.183489889895,1150
2462.015205098301,1165
2463.8465174704493,1199
2465.67742729412,1189
2467.5079348571717,1175
2469.338040447542,1178
2471.1677443532476,1164
2472.9970468623833,1190
2474.825948263123,1152
2476.6544488437207,1147
2478.482548892508,1182
2480.310248697896,1197
2482.137548548374,1150
2483.9644487325118,1171
2485.790949538956,1192
2487.617051256433,1198
2489.44275417375,1157
2491.26805857979,1126
2493.0929647635157,1192
2494.917473013971,1146
2496.741583620276,1187
2498.5652968716304,1127
2500.3886130573137,1225
2502.2115324666834,1180
2504.0340553891765,1212
2505.856182114308,1182
2507.6779129316733,1216
2509.499248130945,1150
2511.3201880018764,1152
2513.140732834298,1184
2514.9608829181198,1188
2516.780638543331,1185
2518.6,1155
2520.418967578273,1160
2522.237541568376,1159
2524.0557222606144,1126
2525.8735099453706,1185
2527.6909049131086,1200
2529.507907454368,1153
2531.32451785977,1116
2533.140736420014,1126
2534.9565634258774,1158
2536.771999168218,1143
2538.5870439379714,1160
2540.4016980261526,1143
2542.2159617238544,1187
2544.02983532225,1148
2545.8433191125914,1132
2547.656413386209,1180
2549.4691184345115,1159
2551.2814345489874,1184
2553.093362021204,1133
2554.904901142808,1137
2556.716052205523,1148
2558.526815501153,1191
2560.3371913215824,1189
2562.147179958771,1179
2563.956781704761,1133
2565.7659968516705,1124
2567.5748256916986,1169
2569.3832685171224,1166
2571.1913256202984,1173
2572.9989972936614,1130
2574.806283829725,1141
2576.613185521084,1153
2578.4197026604074,1149
2580.2258355404483,1183
2582.031584454035,1141
2583.836949694077,1188
2585.6419315535613,1126
2587.4465303255533,1108
2589.2507463032002,1126
2591.0545797797245,1140
2592.8580310484303,1150
2594.6611004026995,1127
2596.463788135992,1160
2598.266094541849,1197
2600.0680199138874,1181
2601.869564545807,1184
2603.670728731383,1177
2605.4715127644704,1135
2607.2719169390048,1130
2609.071941548998,1134
2610.8715868885433,1150
2612.670853251811,1188
2614.469740933052,1175
2616.268250226594,1180
2618.0663814268455,1128
2619.864134828292,1132
2621.6615107255006,1146
2623.458509413115,1174
2625.2551311858597,1142
2627.0513763385347,1117
2628.8472451660223,1145
2630.6427379632833,1166
2632.4378550253564,1139
2634.232596647359,1137
2636.026963124488,1088
2637.8209547520187,1196
2639.6145718253065,1223
2641.407814639785,1129
2643.200683490966,1102
2644.9931786744414,1136
2646.7853004858807,1136
2648.577049221034,1181
2650.3684251757277,1148
2652.1594286458712,1136
2653.9500599274484,1134
2655.740319316525,1085
2657.5302071092437,1201
2659.3197236018286,1171
2661.10886909058,1153
2662.8976438718782,1179
2664.686048242183,1137
2666.4740824980327,1127
2668.2617469360443,1129
2670.0490418529134,1122
2671.8359675454153,1114
2673.622524310403,1131
2675.408712444811,1132
2677.1945322456495,1159
2678.979984010009,1162
2680.76506803506,1167
2682.5497846180497,1127
2684.334134056306,1177
2686.1181166472343,1149
2687.9017326883213,1144
2689.6849824771293,1153
2691.4678663113013,1155
2693.2503844885596,1139
2695.032537306705,1105
2696.8143250636167,1114
2698.5957480572542,1139
2700.3768065856534,1140
2702.1575009469316,1187
2703.937831439283,1152
2705.717798360982,1129
2707.4974020103837,1134
2709.276642685917,1131
2711.055520686095,1176
2712.834036309506,1092
2714.612189854819,1124
2716.389981620782,1165
2718.1674119062204,1133
2719.944481010041,1161
2721.721189231226,1160
2723.4975368688415,1183
2725.273524222027,1153
2727.0491515900053,1131
2728.824419272075,1169
2730.5993275676146,1181
2732.3738767760838,1175
2734.148067197016,1226
2735.921899130031,1116
2737.6953728748194,1151
2739.468488731156,1167
2741.2412469988926,1134
2743.0136479779617,1149
2744.785691968372,1150
2746.5573792702116,1170
2748.3287101836504,1146
2750.099685008934,1135
2751.870304046388,1121
2753.640567596418,1135
2755.4104759595057,1151
2757.1800294362156,1120
2758.949228327187,1141
2760.7180729331412,1150
2762.486563554877,1120
2764.254700493272,1122
2766.022484049284,1205
2767.789914523947,1213
2769.5569922183786,1164
2771.3237174337705,1163
2773.090090471394,1166
2774.8561116326036,1146
2776.6217812188274,1137
2778.3870995315756,1186
2780.1520668724356,1157
2781.9166835430747,1134
2783.6809498452394,1173
2785.444866080754,1151
2787.2084325515225,1188
2788.971649559527,1124
2790.73451740683,1121
2792.4970363955713,1125
2794.2592068279705,1148
2796.0210290063264,1125
2797.7825032330147,1112
2799.543629810493,1133
2801.304409041296,1118
2803.0648412280366,1178
2804.8249266734088,1172
2806.5846656801846,1157
2808.344058551212,1180
2810.1031055894246,1139
2811.8618070978273,1131
2813.6201633795085,1194
2815.378174737636,1159
2817.1358414754536,1146
2818.893163896285,1093
2820.6501423035334,1185
2822.4067770006814,1177
2824.1630682912883,1131
2825.9190164789957,1216
2827.6746218675207,1168
2829.429884760661,1188
2831.184805462294,1119
2832.9393842763743,1143
2834.693621506936,1150
2836.4475174580916,1184
2838.201072434034,1170
2839.954286739034,1156
2841.707160677441,1139
2843.459694553685,1149
2845.2118886722724,1156
2846.96374333779,1120
2848.7152588549034,1216
2850.4664355283567,1174
2852.217273662973,1172
2853.9677735636546,1160
2855.7179355353833,1154
2857.4677598832186,1117
2859.217246912299,1198
2860.9663969278427,1160
2862.715210235146,1178
2864.4636871395846,1166
2866.211827946614,1198
2867.9596329617652,1153
2869.7071024906536,1124
2871.4542368389684,1112
2873.20103631248,1172
2874.947501217038,1175
2876.6936318585695,1159
2878.4394285430812,1167
2880.1848915766604,1187
2881.9300212654707,1137
2883.6748179157553,1158
2885.4192818338374,1163
2887.1634133261173,1138
2888.907212699077,1175
2890.6506802592744,1169
2892.393816313348,1205
2894.1366211680142,1150
2895.8790951300693,1132
2897.621238506388,1127
2899.363051603925,1167
2901.1045347297118,1144
2902.8456881908596,1153
2904.58651229456,1170
2906.327007348081,1110
2908.067173658772,1151
2909.8070115340597,1133
2911.5465212814497,1164
2913.285703208527,1146
2915.0245576229563,1140
2916.7630848324807,1175
2918.5012851449196,1145
2920.2391588681758,1154
2921.976706310227,1115
2923.7139277791334,1150
2925.4508235830313,1151
2927.187394030137,1160
2928.923639428745,1099
2930.6595600872306,1140
2932.395156314046,1127
2934.1304284177218,1216
2935.8653767068713,1199
2937.6000014901815,1175
2939.3343030764227,1175
2941.068281774442,1139
2942.8019378931644,1159
2944.5352717415976,1183
2946.2682836288236,1192
2948.0009738640065,1178
2949.7333427563885,1225
2951.465390615289,1172
2953.1971177501086,1165
2954.9285244703265,1172
2956.6596110855,1208
2958.3903779052657,1172
2960.1208252393385,1156
2961.8509533975125,1173
2963.5807626896617,1101
2965.3102534257378,1174
2967.0394259157715,1135
2968.768280469873,1173
2970.496817398232,1151
2972.2250370111146,1136
2973.952939618869,1146
2975.6805255319196,1173
2977.4077950607707,1169
2979.134748516006,1146
2980.861386208289,1222
2982.587708448359,1160
2984.313715547037,1167
2986.039407815222,1179
2987.764785563891,1164
2989.489849104102,1125
2991.2145987469908,1101
2992.9390348037705,1174
2994.6631575857346,1179
2996.3869674042576,1131
2998.1104645707887,1159
2999.83364939686,1131
3001.5565221940783,1158
3003.2790832741334,1160
3005.0013329487924,1110
3006.7232715298996,1129
3008.4448993293804,1170
3010.166216659239,1151
3011.887223831558,1126
3013.607921158498,1154
3015.3283089522993,1179
3017.0483875252826,1139
3018.7681571898443,1164
3020.4876182584626,1134
3022.2067710436927,1161
3023.9256158581707,1150
3025.644153014609,1191
3027.362382825801,1104
3029.0803056046193,1154
3030.797921664012,1182
3032.5152313170106,1147
3034.2322348767225,1163
3035.9489326563353,1149
3037.665324969115,1184
3039.3814121284063,1128
3041.097194447633,1160
3042.812672240299,1106
3044.5278458199855,1150
3046.2427155003525,1181
3047.9572815951406,1155
3049.671544418167,1137
3051.38550428333,1120
3053.0991615046073,1153
3054.812516396051,1145
3056.5255692717974,1127
3058.2383204460575,1131
3059.9507702331257,1177
3061.662918947372,1106
3063.3747669032446,1109
3065.0863144152736,1157
3066.7975617980674,1154
3068.508509366309,1150
3070.219157434767,1159
3071.9295063182844,1173
3073.639556331785,1143
3075.3493077902704,1128
3077.058761008821,1145
3078.7679163025964,1127
3080.476773986837,1143
3082.1853343768594,1151
3083.89359778806,1158
3085.6015645359153,1129
3087.3092349359786,1070
3089.016609303884,1148
3090.7236879553434,1146
3092.4304712061476,1121
3094.136959372166,1110
3095.843152769349,1190
3097.5490517137237,1129
3099.2546565213966,1161
3100.959967508554,1169
3102.66498499146,1179
3104.3697092864577,1187
3106.0741407099695,1130
3107.778279578498,1145
3109.482126208622,1177
3111.1856809170004,1148
3112.8889440203716,1193
3114.5919158355528,1086
3116.294596679439,1137
3117.996986869006,1138
3119.6990867213062,1168
3121.4008965534726,1139
3123.102416682717,1111
3124.803647426329,1153
3126.5045891016784,1125
3128.205242026213,1207
3129.90560651746,1157
3131.605682893025,1091
3133.3054714705922,1171
3135.0049725679282,1156
3136.7041865028714,1094
3138.4031135933465,1130
3140.101754157353,1118
3141.800108512971,1124
3143.498176978357,1132
3145.1959598717494,1174
3146.8934575114636,1139
3148.5906702158954,1103
3150.2875983035183,1180
3151.9842420928853,1149
3153.680601902627,1146
3155.376678051456,1152
3157.07247085816,1101
3158.767980641609,1133
3160.463207720748,1157
3162.158152414606,1141
3163.8528150422862,1117
3165.5471959229726,1154
3167.2412953759303,1127
3168.9351137204976,1107
3170.628651276098,1160
3172.3219083622307,1129
3174.014885298474,1152
3175.707582404485,1174
3177.4000000000005,1120
3179.092138404835,1148
3180.7839979388846,1158
3182.47557892212,1150
3184.166881674594,1215
3185.8579065164386,1172
3187.5486537678626,1125
3189.2391237491547,1196
3190.9293167806827,1189
3192.6192331828934,1130
3194.3088732763117,1169
3195.998237381542,1125
3197.687325819268,1135
3199.376138910251,1175
3201.064676975334,1160
3202.7529403354347,1216
3204.4409293115523,1111
3206.1286442247647,1127
3207.816085396229,1075
3209.5032531471825,1147
3211.190147798936,1089
3212.8767696728846,1229
3214.5631190905015,1143
3216.2491963733373,1158
3217.9350018430214,1148
3219.6205358212637,1125
3221.305798629851,1125
3222.990790590651,1132
3224.6755120256103,1148
3226.359963256751,1115
3228.0441446061795,1123
3229.7280563960758,1157
3231.411698948703,1168
3233.0950725863995,1133
3234.778177631587,1157
3236.461014406761,1143
3238.1435832345005,1160
3239.8258844374595,1112
3241.507918338374,1140
3243.1896852600576,1095
3244.8711855254023,1149
3246.552419457381,1148
3248.233387379042,1168
3249.914089613516,1153
3251.59452648401,1135
3253.274698313813,1125
3254.95460542629,1132
3256.6342481448855,1160
3258.313626793125,1147
3259.9927416946084,1121
3261.6715931730196,1109
3263.3501815521176,1124
3265.0285071557437,1180
3266.706570307815,1134
3268.3843713323286,1146
3270.0619105533615,1110
3271.739188295068,1143
3273.4162048816834,1119
3275.0929606375184,1165
3276.769455886966,1133
3278.445690954498,1134
3280.1216661646613,1152
3281.797381842087,1164
3283.4728383114807,1151
3285.1480358976296,1150
3286.8229749253996,1139
3288.4976557197333,1149
3290.172078605655,1151
3291.846243908266,1107
3293.5201519527463,1156
3295.193803064357,1088
3296.8671975684374,1130
3298.5403357904024,1121
3300.21321805575,1104
3301.8858446900567,1111
3303.558216018975,1134
3305.23033236824,1145
3306.9021940636603,1151
3308.57380143113,1169
3310.2451547966184,1182
3311.916254486174,1175
3313.5871008259246,1151
3315.2576941420766,1128
3316.9280347609147,1110
3318.5981230088046,1130
3320.2679592121895,1130
3321.9375436975924,1135
3323.606876791612,1157
3325.27595882093,1121
3326.944790112305,1144
3328.6133709925753,1087
3330.2817017886573,1115
3331.949782827547,1169
3333.617614436319,1094
3335.2851969421245,1116
3336.952530672199,1154
3338.619615953853,1155
3340.286453114475,1135
3341.9530424815357,1179
3343.619384382583,1240
3345.2854791452437,1149
3346.951327097224,1134
3348.6169285663073,1135
3350.2822838803577,1125
3351.947393367319,1159
3353.61225735521,1135
3355.2768761721345,1160
3356.9412501462693,1186
3358.605379605873,1107
3360.2692648792827,1125
3361.9329062949146,1158
3363.596304181263,1141
