CollectionTime,6/28/2024 1:36:28 PM
ExposureUsed,3
CalibratedSpectrum
-962.7078968117929,737
-959.9714848408522,820
-957.2358232597828,774
-954.5009119013725,758
-951.7667505983302,775
-949.0333391832855,825
-946.3006774887896,841
-943.5687653473143,813
-940.837602591253,841
-938.1071890529199,818
-935.3775245645503,816
-932.6486089583007,772
-929.9204420662485,785
-927.1930237203925,837
-924.4663537526524,816
-921.7404319948689,795
-919.0152582788041,791
-916.2908324361409,861
-913.5671542984834,818
-910.8442236973568,804
-908.1220404642074,805
-905.4006044304027,778
-902.679915427231,796
-899.959973285902,786
-897.2407778375464,796
-894.5223289132158,792
-891.8046263438832,809
-889.0876699604426,747
-886.3714595937089,755
-883.6559950744183,733
-880.9412762332282,729
-878.2273029007168,740
-875.5140749073835,737
-872.8015920836489,699
-870.0898542598545,740
-867.3788612662631,702
-864.6686129330585,727
-861.9591090903457,722
-859.2503495681506,730
-856.5423341964203,719
-853.8350628050229,736
-851.1285352237478,725
-848.4227512823054,736
-845.7177108103272,731
-843.0134136373656,707
-840.3098595928943,737
-837.6070485063082,734
-834.9049802069229,728
-832.2036545239757,729
-829.5030712866244,770
-826.8032303239481,754
-824.1041314649472,740
-821.4057745385428,771
-818.7081593735775,763
-816.0112857988148,715
-813.3151536429393,720
-810.6197627345566,725
-807.9251129021936,729
-805.2312039742981,754
-802.5380357792392,731
-799.8456081453069,720
-797.1539209007124,716
-794.462973873588,746
-791.772766891987,731
-789.083299783884,735
-786.3945723771743,759
-783.7065844996748,753
-781.0193359791231,713
-778.3328266431781,725
-775.6470563194197,732
-772.9620248353489,733
-770.2777320183878,734
-767.5941776958798,769
-764.9113616950891,780
-762.2292838432011,730
-759.5479439673222,706
-756.8673418944801,729
-754.1874774516235,782
-751.5083504656222,758
-748.8299607632671,725
-746.15230817127,750
-743.475392516264,770
-740.7992136248035,751
-738.1237713233636,756
-735.4490654383407,768
-732.7750957960521,777
-730.1018622227365,778
-727.4293645445534,786
-724.7576025875837,803
-722.0865761778291,781
-719.4162851412126,797
-716.7467293035781,795
-714.0779084906909,829
-711.409822528237,824
-708.7424712418238,831
-706.0758544569796,844
-703.4099719991541,858
-700.7448236937178,883
-698.0804093659622,808
-695.4167288411002,834
-692.7537819442656,844
-690.0915685005134,827
-687.4300883348199,874
-684.7693412720819,833
-682.1093271371178,837
-679.4500457546669,879
-676.7914969493897,837
-674.1336805458676,831
-671.4765963686034,850
-668.8202442420206,840
-666.1646239904642,871
-663.5097354382001,862
-660.8555784094151,870
-658.2021527282176,870
-655.5494582186366,879
-652.8974947046223,912
-650.2462620100463,920
-647.5957599587009,902
-644.9459883742998,909
-642.2969470804776,947
-639.6486359007902,962
-637.0010546587141,874
-634.3542031776476,940
-631.7080812809096,932
-629.0626887917401,884
-626.4180255333008,873
-623.7740913286734,869
-621.1308860008619,858
-618.4884093727904,860
-615.8466612673046,864
-613.2056415071715,869
-610.5653499150785,862
-607.9257863136347,867
-605.28695052537,880
-602.6488423727357,894
-600.0114616781036,899
-597.3748082637674,876
-594.7388819519412,861
-592.1036825647604,815
-589.4692099242818,830
-586.8354638524829,878
-584.2024441712624,859
-581.5701507024403,865
-578.9385832677575,864
-576.3077416888759,846
-573.6776257873787,880
-571.0482353847704,850
-568.4195703024757,877
-565.7916303618415,884
-563.164415384135,853
-560.5379251905453,935
-557.9121596021815,842
-555.2871184400748,861
-552.6628015251767,889
-550.0392086783606,862
-547.4163397204204,851
-544.794194472071,861
-542.1727727539491,926
-539.5520743866118,949
-536.9320991905377,925
-534.3128469861261,939
-531.6943175936979,895
-529.0765108334947,991
-526.4594265256793,1093
-523.8430644903358,1169
-521.2274245474689,1191
-518.612506517005,1370
-515.9983102187913,1434
-513.3848354725959,1581
-510.77208209810846,1678
-508.16004991493924,1779
-505.5487387426199,1885
-502.9381484006032,1934
-500.3282787082628,1951
-497.71912948489364,1930
-495.1107005497117,1811
-492.5029917218539,1718
-489.8960028203786,1377
-487.28973366426493,1310
-484.68418407241325,1157
-482.07935386364494,1077
-479.47524285670266,1093
-476.87185087025,1148
-474.2691777228715,1085
-471.66722323307334,1129
-469.0659872192821,1085
-466.4654694998459,1135
-463.86566989303384,1103
-461.26658821703614,1025
-458.66822428996414,1071
-456.07057792985,1101
-453.4736489546475,1059
-450.877437182231,1093
-448.28194243039627,1053
-445.68716451686,1015
-443.09310325926003,1026
-440.49975847515555,1016
-437.9071299820263,1039
-435.31521759727354,1014
-432.72402113821954,1065
-430.13354042210767,1058
-427.5437752661022,1067
-424.95472548728867,1068
-422.36639090267386,1129
-419.7787713291855,1123
-417.1918665836721,1142
-414.60567648290385,1092
-412.0202008435715,1117
-409.4354394822874,1162
-406.8513922155845,1151
-404.26805885991723,1101
-401.685439231661,1145
-399.103533147112,1136
-396.522340422488,1086
-393.9418608739278,1055
-391.3620943174908,1035
-388.7830405691583,986
-386.2046994448317,1028
-383.6270707603344,908
-381.05015433141045,870
-378.473949973725,795
-375.8984575028645,796
-373.32367673433623,692
-370.74960748356875,663
-368.1762495659117,590
-365.60360279663576,530
-363.03166699093265,523
-360.4604419639154,493
-357.8899275306178,525
-355.32012350599507,481
-352.7510297049233,486
-350.1826459421999,497
-347.61497203254316,503
-345.04800779059235,492
-342.4817530309082,459
-339.91620756797226,461
-337.35137121618743,473
-334.7872437898774,447
-332.22382510328725,461
-329.66111497058273,433
-327.09911320585127,460
-324.53781962310075,490
-321.9772340362607,500
-319.4173562591816,476
-316.8581861056348,485
-314.2997233893127,499
-311.7419679238294,528
-309.1849195227194,519
-306.62857799943856,474
-304.0729431673641,495
-301.51801483979375,464
-298.963792829947,491
-296.41027695096386,496
-293.85746701590574,542
-291.3053628377552,534
-288.7539642294155,564
-286.2032710037115,566
-283.65328297338897,505
-281.1039999511146,539
-278.5554217494762,574
-276.007548180983,581
-273.4603790580651,556
-270.9139141930734,534
-268.3681533982807,554
-265.8230964858798,548
-263.27874326798565,623
-260.7350935566336,620
-258.1921471637804,595
-255.6499039013039,629
-253.10836358100266,620
-250.56752601459698,619
-248.02739101372765,675
-245.48795838995704,691
-242.94922795476816,692
-240.41119951956557,635
-237.8738728956746,695
-235.33724789434166,729
-232.80132432673452,762
-230.2661020039418,731
-227.73158073697357,601
-225.19776033676033,587
-222.66464061415422,619
-220.1322213799284,624
-217.60050244477725,679
-215.06948361931552,640
-212.53916471408013,632
-210.00954553952818,636
-207.48062590603843,696
-204.9524056239104,789
-202.4248845033651,703
-199.8980623545441,645
-197.37193898751036,633
-194.84651421224817,718
-192.32178783866232,698
-189.79775967657952,682
-187.27442953574644,664
-184.7517972258321,684
-182.2298625564256,770
-179.7086253370378,727
-177.18808537710026,626
-174.66824248596583,680
-172.14909647290835,746
-169.6306471471229,786
-167.11289431772548,748
-164.59583779375328,715
-162.07947738416453,739
-159.5638128978386,732
-157.04884414357605,826
-154.53457093009854,862
-152.02099306604828,914
-149.50811035998936,746
-146.99592262040665,779
-144.48442965570587,848
-141.97363127421409,867
-139.46352728417958,796
-136.95411749377126,878
-134.44540171107985,946
-131.93737974411636,922
-129.43005140081357,935
-126.92341648902493,943
-124.41747481652521,929
-121.91222619101006,955
-119.40767042009657,988
-116.90380731132257,1000
-114.40063667214702,882
-111.8981583099503,953
-109.3963720320337,1095
-106.89527764561933,1203
-104.39487495785067,1144
-101.89516377579241,1156
-99.39614390642998,1234
-96.89781515667039,1228
-94.40017733334128,1472
-91.90323024319173,1336
-89.40697369289148,1346
-86.91140748903172,1311
-84.41653143812482,1263
-81.92234534660395,1335
-79.42884902082358,1615
-76.93604226705907,1786
-74.4439248915071,1442
-71.95249670028534,1461
-69.46175749943245,1730
-66.97170709490854,2095
-64.48234529259423,2358
-61.99367189829195,1833
-59.50568671772464,1815
-57.01838955653636,2014
-54.53178022029283,2187
-52.045858514480074,2344
-49.560624244506016,2226
-47.07607721569923,2380
-44.59221723330904,2546
-42.10904410250669,2669
-39.62655762838392,2844
-37.14475761595372,3786
-34.66364387015028,4742
-32.18321619582866,5480
-29.70347439776515,5753
-27.224418280657005,6924
-24.74604764912317,10835
-22.26836230770266,17479
-19.7913620608565,27337
-17.315046712966478,36346
-14.83941606833514,41159
-12.36446993118659,65030
-9.89020810566592,65030
-7.416630395839093,65030
-4.94373660569363,65030
-2.471526539137585,65030
-6.821210263296962E-13,65030
2.47084320796705,65030
4.941003281093458,65030
7.410480415786196,65030
9.879274808531363,65030
12.347386655893956,65030
14.814816154518212,65030
17.28156350112681,65030
19.74762889252179,65030
22.21301252558385,37278
24.67771459727237,13292
27.141735304626195,8296
29.605074844762612,6812
32.06773341487792,6601
34.52971121224755,6905
36.99100843422559,5563
39.45162527824516,5274
41.91156194181792,6324
44.370818622535126,10170
46.82939551806646,12871
49.287292826160524,13746
51.74451074464503,13970
54.201049471426245,10366
56.65690920448981,6303
59.112090141899785,4709
61.56659248179983,4426
64.02041642241159,3407
66.4735621620365,2452
68.92602989905402,1966
71.37781983192338,1819
73.82893215918205,1848
76.27936707944684,2007
78.72912479141326,1985
81.17820549385567,1980
83.62660938562783,1542
86.07433666566146,1708
88.5213875329681,1880
90.96776218663751,1583
93.41346082583925,1390
95.85848364982041,1412
98.30283085790859,1471
100.7465026495089,1316
103.18949922410604,1418
105.63182078126385,1386
108.07346752062438,1297
110.51443964190923,1173
112.95473734491827,1077
115.39436082953114,993
117.83331029570547,1191
120.27158594347827,1438
122.7091879729652,1057
125.1461165843615,1014
127.58237197794062,1097
130.01795435405518,1215
132.4528639131364,1119
134.88710085569494,1155
137.32066538231982,1084
139.75355769367923,1098
142.1857779905207,1031
144.61732647366978,1107
147.04820334403132,1200
149.47840880258934,1229
151.90794305040674,1336
154.33680628862487,1373
156.76499871846443,1408
159.19252054122433,1541
161.61937195828352,1653
164.04555317109896,1838
166.47106438120693,1936
168.89590579022217,2076
171.320077599839,2276
173.7435800118302,2285
176.16641322804742,2340
178.58857745042144,2568
181.01007288096173,2702
183.43089972175687,2737
185.85105817497413,2666
188.27054844285988,2705
190.6893707277394,2579
193.10752523201643,2551
195.5250121581745,2790
197.9418317087751,2788
200.3579840864594,2851
202.7734694939469,2848
205.18828813403627,2842
207.6024402096051,2817
210.01592592360964,2781
212.42874547908548,2801
214.84089907914665,2859
217.2523869269868,2744
219.66320922587727,2865
222.0733661791695,2870
224.48285799029293,2983
226.8916848627572,2969
229.29984700014882,3086
231.7073446061355,3078
234.11417788446204,3160
236.520347038953,3521
238.92585227351185,3605
241.33069379212054,3621
243.73487179884035,3620
246.1383864978112,3645
248.541238093252,3740
250.9434267894609,3861
253.34495279081432,3946
255.74581630176783,4076
258.1460175268563,4226
260.54555667069314,4322
262.9444339379703,4294
265.3426495334594,4240
267.7402036620107,3960
270.1370965285529,3632
272.53332833809407,3564
274.9288992957214,3358
277.32380960660055,3028
279.718059475976,2942
282.1116491091717,2888
284.5045787115897,2818
286.89684848871195,2809
289.2884586460981,2825
291.67940938938807,2705
294.0697009242996,2835
296.4593334566299,2827
298.84830719225477,2709
301.23662233712923,2735
303.6242790972866,2709
306.01127767884,2718
308.39761828798066,2710
310.78330113097934,2561
313.16832641418534,2493
315.5526943440269,2475
317.9364051270112,2362
320.3194589697242,2396
322.70185607883093,2426
325.0835966610754,2370
327.4646809232805,2278
329.8451090723478,2415
332.2248813152577,2324
334.6039978590701,2344
336.9824589109231,2192
339.36026467803447,2252
341.7374153677,2157
344.113911187295,2240
346.48975234427337,2199
348.8649390461686,2154
351.2394715005918,2072
353.61334991523415,2126
355.9865744978655,2167
358.35914545633375,2178
360.73106299856715,2132
363.10232733257146,2091
365.47293866643247,2208
367.84289720831396,2127
370.2122031664593,2092
372.5808567491905,2087
374.9488581649083,2068
377.31620762209275,2109
379.6829053293021,1980
382.0489514951745,2027
384.4143463284262,2007
386.7790900378528,1979
389.14318283232853,2001
391.50662492080653,2020
393.86941651231916,1984
396.23155781597745,2009
398.5930490409713,2027
400.9538903965696,2067
403.3140820921202,1973
405.6736243370498,1952
408.03251734086336,1951
410.3907613131465,1949
412.74835646356166,2008
415.10530300185144,1995
417.4616011378372,1928
419.81725108141893,1938
422.1722530425758,1998
424.5266072313656,2045
426.880313857925,2002
429.2333731324701,1958
431.58578526529516,1975
433.9375504667738,1993
436.2886689473588,1945
438.63914091758113,1925
440.9889665880513,1903
443.33814616945835,1888
445.68667987257015,1920
448.03456790823395,1872
450.3818104873759,1890
452.72840782100013,1888
455.07436012019105,1951
457.41966759611057,1983
459.7643304600007,1942
462.10834892318155,1984
464.4517231970525,1904
466.79445349309174,2037
469.1365400228566,1923
471.4779829979826,1952
473.81878263018564,1850
476.15893913125876,1961
478.4984527130747,1949
480.8373235875855,1986
483.17555196682144,2016
485.5131380628919,2028
487.8500820879857,2124
490.1863842543697,2185
492.52204477439034,2221
494.8570638604725,2474
497.1914417251204,2828
499.52517858091653,3060
501.85827464052306,3304
504.19073011668036,3600
506.5225452222086,3484
508.85372017000566,3558
511.18425517304956,3562
513.514150444396,3570
515.8434061971808,3914
518.1720226446176,4085
520.4999999999999,4375
522.8273384766991,4529
525.1540382881666,4503
527.480099647932,4240
529.8055227696037,3434
532.1303078668694,2540
534.454455153496,2189
536.777964843328,1980
539.1008371502907,1905
541.4230722883866,1812
543.744670471698,1830
546.0656319143858,1917
548.3859568306899,1857
550.7056454349294,1886
553.0246979415016,1805
555.3431145648834,1733
557.6608955196306,1734
559.978041020377,1772
562.2945512818363,1772
564.6104265188006,1713
566.9256669461412,1750
569.2402727788082,1751
571.5542442318302,1699
573.8675815203156,1685
576.1802848594508,1724
578.4923544645015,1745
580.8037905508126,1776
583.114593333807,1756
585.4247630289875,1778
587.7342998519354,1768
590.0432040183106,1745
592.3514757438526,1710
594.6591152443794,1757
596.9661227357875,1722
599.2724984340531,1691
601.578242555231,1794
603.8833553154542,1754
606.1878369309362,1742
608.4916876179676,1812
610.7949075929192,1854
613.0974970722403,1738
615.3994562724587,1780
617.7007854101818,1783
620.0014847020951,1720
622.3015543649641,1784
624.6009946156324,1803
626.8998056710224,1762
629.1979877481361,1821
631.4955410640538,1780
633.7924658359349,1794
636.0887622810175,1825
638.3844306166192,1815
640.6794710601358,1824
642.9738838290426,1820
645.2676691408932,1886
647.5608272133207,1916
649.853358264037,1859
652.1452625108324,1903
654.4365401715764,1870
656.7271914642178,1904
659.0172166067838,1918
661.3066158173809,1913
663.5953893141935,1854
665.8835373154867,1903
668.1710600396028,1882
670.4579577049639,1946
672.7442305300709,1899
675.0298787335033,1879
677.3149025339197,1926
679.599302150058,1933
681.8830778007342,1856
684.1662297048437,1870
686.4487580813608,1934
688.7306631493387,1828
691.0119451279091,1881
693.2926042362834,2029
695.5726406937516,1849
697.8520547196814,1861
700.1308465335215,1903
702.4090163547982,1810
704.6865644031171,1836
706.9634908981619,1849
709.2397960596965,1898
711.5154801075631,1924
713.7905432616823,1857
716.0649857420548,1848
718.3388077687592,1879
720.612009561953,1851
722.8845913418733,1864
725.1565533288352,1789
727.427895743234,1820
729.6986188055427,1806
731.9687227363137,1887
734.238207756178,1771
736.5070740858458,1825
738.7753219461066,1818
741.0429515578281,1761
743.3099631419569,1784
745.5763569195191,1788
747.8421331116193,1850
750.1072919394409,1777
752.3718336242467,1806
754.6357583873777,1795
756.8990664502545,1814
759.1617580343765,1814
761.423833361321,1811
763.6852926527457,1791
765.9461361303862,1793
768.206364016058,1796
770.4659765316536,1830
772.7249738991469,1779
774.9833563405886,1794
777.2411240781092,1763
779.4982773339183,1817
781.7548163303044,1840
784.010741289634,1857
786.2660524343538,1911
788.5207499869881,1818
790.7748341701416,1834
793.0283052064964,1853
795.2811633188143,1898
797.5334087299362,1872
799.7850416627813,1789
802.0360623403484,1781
804.2864709857143,1832
806.5362678220353,1844
808.7854530725468,1850
811.0340269605625,1893
813.2819897094754,1849
815.5293415427581,1906
817.77608268396,1930
820.0222133567116,1859
822.2677337847211,1865
824.5126441917765,1794
826.7569448017433,1844
829.0006358385675,1823
831.2437175262731,1924
833.4861900889629,1922
835.7280537508192,1912
837.9693087361026,1793
840.2099552691533,1835
842.4499935743896,1809
844.689423876309,1833
846.9282463994886,1795
849.1664613685833,1862
851.4040690083276,1867
853.6410695435349,1847
855.877463199097,1852
858.1132501999847,1876
860.3484307712487,1892
862.5830051380175,1827
864.8169735254988,1832
867.0503361589791,1854
869.2830932638243,1881
871.5152450654786,1858
873.7467917894654,1853
875.9777336613873,1894
878.2080709069252,1916
880.4378037518389,1863
882.666932421968,1875
884.8954571432301,1852
887.1233781416219,1959
889.3506956432192,1895
891.5774098741766,1933
893.803521060728,1927
896.0290294291852,1938
898.2539352059397,1929
900.4782386174619,1922
902.7019398903011,1963
904.925039251085,1996
907.147536926521,1956
909.3694331433943,1884
911.59072812857,1890
913.8114221089921,1957
916.0315153116827,1972
918.2510079637437,1922
920.4699002923547,1931
922.6881925247761,1937
924.905884888345,1845
927.1229776104793,1927
929.3394709186747,1887
931.555365040506,1965
933.7706602036275,1935
935.9853566357709,1860
938.1994545647489,1937
940.4129542184515,1957
942.6258558248488,1878
944.8381596119883,1969
947.0498658079974,1901
949.2609746410825,1915
951.4714863395287,1891
953.6814011316998,1906
955.8907192460387,1938
958.0994409110671,1990
960.3075663553858,1890
962.5150958076741,1886
964.7220294966913,1976
966.928367651274,1873
969.1341105003388,1878
971.3392582728806,1863
973.5438111979742,1867
975.747769504772,1820
977.9511334225061,1851
980.153903180487,1787
982.3560790081052,1837
984.5576611348289,1827
986.7586497902058,1787
988.9590452038618,1774
991.158847605503,1715
993.3580572249133,1728
995.5566742919558,1689
997.7546990365728,1691
999.952131688785,1697
1002.1489724786926,1638
1004.3452216364743,1620
1006.5408793923874,1617
1008.7359459767691,1589
1010.9304216200343,1610
1013.1243065526781,1579
1015.3176010052733,1578
1017.510305208472,1526
1019.7024193930064,1614
1021.8939437896848,1584
1024.0848786293977,1497
1026.2752241431122,1617
1028.4649805618747,1563
1030.6541481168115,1558
1032.842727039127,1561
1035.0307175601051,1595
1037.2181199111074,1577
1039.4049343235752,1546
1041.591161029029,1530
1043.7768002590683,1541
1045.9618522453698,1503
1048.1463172196918,1571
1050.3301954138697,1528
1052.513487059818,1505
1054.69619238953,1551
1056.8783116350783,1534
1059.0598450286152,1599
1061.2407928023704,1452
1063.4211551886528,1484
1065.6009324198508,1486
1067.780124728432,1493
1069.9587323469414,1475
1072.1367555080046,1488
1074.314194444325,1503
1076.4910493886855,1467
1078.667320573947,1498
1080.843008233051,1410
1083.0181125990161,1423
1085.1926339049414,1458
1087.3665723840027,1429
1089.5399282694575,1446
1091.7127017946405,1462
1093.8848931929647,1494
1096.0565026979243,1477
1098.2275305430899,1431
1100.3979769621128,1393
1102.567842188722,1407
1104.737126456726,1387
1106.9058300000124,1385
1109.0739530525475,1373
1111.2414958483764,1423
1113.4084586216231,1386
1115.5748416064907,1470
1117.7406450372605,1457
1119.9058691482942,1405
1122.0705141740304,1428
1124.2345803489884,1385
1126.3980679077658,1424
1128.5609770850388,1396
1130.7233081155623,1433
1132.8850612341707,1376
1135.0462366757774,1370
1137.2068346753745,1410
1139.3668554680326,1376
1141.526299288901,1334
1143.68516637321,1380
1145.8434569562655,1393
1148.001171273455,1349
1150.158309560244,1355
1152.3148720521767,1383
1154.470858984876,1409
1156.626270594044,1326
1158.7811071154629,1355
1160.9353687849912,1368
1163.089055838569,1377
1165.242168512213,1370
1167.3947070420209,1362
1169.5466716641677,1306
1171.6980626149075,1421
1173.8488801305748,1359
1175.9991244475814,1328
1178.1487958024186,1321
1180.2978944316555,1339
1182.4464205719428,1349
1184.5943744600072,1407
1186.7417563326567,1324
1188.8885664267755,1391
1191.0348049793297,1408
1193.1804722273619,1342
1195.325568407995,1402
1197.4700937584303,1372
1199.614048515948,1350
1201.7574329179074,1401
1203.900247201746,1381
1206.042491604982,1365
1208.1841663652099,1433
1210.3252717201053,1408
1212.465807907422,1350
1214.6057751649923,1348
1216.7451737307279,1350
1218.8840038426192,1381
1221.0222657387353,1414
1223.1599596572241,1415
1225.2970858363137,1385
1227.4336445143094,1386
1229.5696359295966,1385
1231.705060320639,1441
1233.8399179259786,1434
1235.9742089842384,1391
1238.107933734118,1412
1240.2410924143974,1456
1242.373685263935,1417
1244.5057125216676,1436
1246.6371744266116,1466
1248.7680712178621,1440
1250.898403134593,1362
1253.028170416058,1424
1255.1573733015875,1430
1257.2860120305932,1379
1259.4140868425648,1415
1261.54159797707,1430
1263.6685456737569,1484
1265.7949301723515,1472
1267.9207517126597,1452
1270.046010534565,1454
1272.1707068780306,1413
1274.2948409830983,1479
1276.4184130898889,1510
1278.541423438603,1514
1280.6638722695184,1474
1282.785759822993,1513
1284.9070863394636,1530
1287.0278520594447,1534
1289.1480572235314,1529
1291.2677020723963,1489
1293.3867868467923,1558
1295.5053117875495,1546
1297.623277135579,1602
1299.740683131868,1548
1301.8575300174857,1541
1303.973818033578,1539
1306.0895474213703,1542
1308.2047184221678,1519
1310.3193312773528,1508
1312.4333862283888,1576
1314.5468835168163,1615
1316.659823384255,1618
1318.7722060724045,1548
1320.8840318230418,1576
1322.9953008780249,1578
1325.1060134792888,1621
1327.2161698688478,1577
1329.3257702887959,1582
1331.4348149813054,1599
1333.5433041886276,1567
1335.6512381530933,1556
1337.7586171171101,1568
1339.8654413231675,1581
1341.9717110138317,1604
1344.0774264317488,1557
1346.1825878196432,1543
1348.2871954203192,1564
1350.3912494766587,1545
1352.4947502316231,1539
1354.5976979282532,1543
1356.7000928096686,1528
1358.8019351190665,1568
1360.9032250997243,1570
1363.0039629949988,1595
1365.1041490483235,1543
1367.2037835032133,1598
1369.3028666032606,1573
1371.401398592137,1581
1373.4993797135926,1593
1375.5968102114575,1513
1377.6936903296396,1571
1379.7900203121262,1559
1381.8858004029835,1575
1383.9810308463561,1628
1386.075711886469,1593
1388.1698437676241,1541
1390.2634267342032,1658
1392.356461030667,1665
1394.4489469015557,1684
1396.5408845914872,1646
1398.6322743451592,1676
1400.7231164073469,1678
1402.813411022907,1622
1404.903158436773,1639
1406.9923588939578,1604
1409.0810126395531,1640
1411.1691199187303,1743
1413.2566809767386,1751
1415.343696058907,1735
1417.4301654106425,1690
1419.5160892774315,1758
1421.6014679048399,1760
1423.6863015385125,1781
1425.7705904241707,1795
1427.8543348076178,1770
1429.9375349347342,1812
1432.0201910514802,1790
1434.102303403894,1874
1436.1838722380944,1877
1438.2648978002767,1905
1440.3453803367174,1889
1442.4253200937692,1924
1444.5047173178677,1962
1446.5835722555234,1940
1448.6618851533285,2032
1450.739656257952,2070
1452.8168858161434,2113
1454.8935740747306,2074
1456.96972128062,2162
1459.045327680797,2215
1461.120393522327,2337
1463.1949190523528,2350
1465.2689045180973,2328
1467.3423501668608,2403
1469.415256246024,2426
1471.4876230030463,2406
1473.559450685465,2486
1475.6307395408976,2589
1477.7014898170391,2690
1479.771701761665,2720
1481.8413756226287,2646
1483.9105116478618,2698
1485.9791100853772,2684
1488.0471711832643,2816
1490.1146951896926,2928
1492.1816823529098,2936
1494.2481329212433,2930
1496.3140471430984,2943
1498.3794252669609,3041
1500.4442675413939,2973
1502.5085742150404,3086
1504.572345536622,3124
1506.6355817549388,3082
1508.6982831188702,3057
1510.7604498773744,3047
1512.8220822794883,3108
1514.8831805743293,3180
1516.9437450110909,2992
1519.003775839048,3080
1521.0632733075522,3102
1523.1222376660367,3150
1525.1806691640113,3139
1527.2385680510652,3101
1529.2959345768668,3101
1531.3527689911643,3164
1533.4090715437833,3126
1535.4648424846291,3225
1537.5200820636855,3193
1539.5747905310159,3302
1541.6289681367616,3287
1543.6826151311434,3365
1545.7357317644614,3338
1547.7883182870937,3277
1549.8403749494987,3514
1551.8919020022113,3604
1553.9428996958477,3492
1555.9933682811015,3684
1558.0433080087469,3661
1560.0927191296346,3751
1562.1416018946961,3872
1564.1899565549415,3858
1566.2377833614592,3710
1568.2850825654164,3829
1570.3318544180606,3835
1572.3780991707158,3696
1574.423817074788,3678
1576.4690083817595,3485
1578.5136733431923,3338
1580.5578122107272,3180
1582.601425236085,3061
1584.6445126710646,2854
1586.6870747675434,2791
1588.7291117774776,2728
1590.7706239529034,2561
1592.8116115459347,2466
1594.8520748087658,2353
1596.8920139936686,2338
1598.9314293529933,2180
1600.9703211391711,2202
1603.008689604711,2079
1605.0465350022005,2020
1607.0838575843068,1975
1609.1206576037753,1936
1611.1569353134305,1905
1613.1926909661765,1793
1615.2279248149953,1751
1617.2626371129481,1750
1619.2968281131757,1767
1621.3304980688963,1746
1623.3636472334088,1648
1625.39627586009,1634
1627.428384202396,1625
1629.459972513861,1699
1631.4910410480993,1606
1633.5215900588028,1576
1635.551619799744,1563
1637.5811305247717,1597
1639.6101224878166,1567
1641.6385959428862,1560
1643.6665511440683,1544
1645.693988345528,1537
1647.7209078015112,1494
1649.7473097663405,1523
1651.7731944944203,1442
1653.7985622402307,1481
1655.823413258333,1468
1657.847747803366,1499
1659.8715661300494,1532
1661.8948684931793,1492
1663.9176551476316,1486
1665.9399263483624,1487
1667.9616823504057,1468
1669.982923408873,1442
1672.0036497789574,1450
1674.0238617159293,1466
1676.043559475138,1467
1678.0627433120121,1508
1680.081413482059,1456
1682.0995702408654,1487
1684.117213844096,1397
1686.134344547495,1439
1688.1509626068864,1413
1690.1670682781705,1424
1692.182661817329,1480
1694.1977434804217,1396
1696.2123135235875,1471
1698.226372203043,1363
1700.2399197750851,1412
1702.2529564960905,1394
1704.2654826225112,1343
1706.277498410882,1427
1708.2890041178139,1496
1710.2999999999988,1451
1712.3104863142066,1381
1714.3204633172854,1415
1716.329931266163,1402
1718.3388904178469,1394
1720.3473410294214,1377
1722.3552833580516,1416
1724.3627176609807,1370
1726.3696441955308,1389
1728.3760632191033,1372
1730.3819749891782,1366
1732.3873797633146,1389
1734.3922777991502,1335
1736.3966693544012,1341
1738.4005546868639,1346
1740.4039340544127,1363
1742.406807715001,1356
1744.4091759266616,1311
1746.4110389475054,1324
1748.4123970357223,1337
1750.413250449582,1303
1752.4135994474318,1309
1754.4134442876993,1298
1756.4127852288902,1360
1758.4116225295893,1325
1760.4099564484595,1300
1762.407787244244,1233
1764.405115175764,1264
1766.4019405019203,1288
1768.3982634816916,1285
1770.3940843741357,1221
1772.3894034383907,1292
1774.3842209336717,1253
1776.378537119274,1241
1778.372352254571,1238
1780.3656665990156,1249
1782.3584804121397,1257
1784.3507939535534,1263
1786.3426074829463,1223
1788.3339212600863,1244
1790.3247355448211,1266
1792.3150505970766,1202
1794.3048666768573,1240
1796.2941840442477,1241
1798.2830029594106,1226
1800.2713236825884,1175
1802.2591464741004,1173
1804.2464715943465,1232
1806.2332993038058,1220
1808.2196298630352,1202
1810.2054635326708,1225
1812.190800573428,1222
1814.175641246101,1198
1816.1599858115628,1214
1818.1438345307652,1216
1820.127187664738,1188
1822.1100454745924,1197
1824.092408221516,1220
1826.0742761667766,1236
1828.055649571721,1226
1830.0365286977735,1271
1832.0169138064398,1287
1833.9968051593014,1187
1835.9762030180214,1232
1837.9551076443408,1188
1839.9335193000788,1185
1841.9114382471344,1230
1843.888864747485,1195
1845.8657990631878,1214
1847.842241456378,1166
1849.8181921892697,1178
1851.7936515241558,1240
1853.7686197234098,1185
1855.7430970494815,1192
1857.7170837649014,1234
1859.6905801322787,1239
1861.6635864143004,1174
1863.6361028737338,1205
1865.608129773424,1184
1867.5796673762961,1246
1869.5507159453537,1228
1871.521275743678,1191
1873.4913470344313,1219
1875.4609300808534,1194
1877.4300251462632,1291
1879.3986324940588,1237
1881.366752387717,1242
1883.3343850907936,1196
1885.3015308669228,1236
1887.268189979819,1283
1889.2343626932739,1231
1891.2000492711595,1243
1893.1652499774254,1247
1895.1299650761011,1279
1897.0941948312952,1270
1899.0579395071945,1298
1901.0211993680641,1294
1902.98397467825,1249
1904.9462657021745,1274
1906.9080727043415,1231
1908.869395949332,1295
1910.8302357018065,1231
1912.790592226504,1275
1914.7504657882428,1244
1916.7098566519212,1271
1918.6687650825133,1231
1920.6271913450764,1211
1922.5851357047422,1269
1924.5425984267245,1296
1926.499579776314,1280
1928.4560800188833,1236
1930.4120994198802,1259
1932.367638244833,1269
1934.32269675935,1233
1936.2772752291175,1208
1938.231373919899,1163
1940.1849930975404,1215
1942.1381330279637,1228
1944.0907939771696,1233
1946.0429762112412,1279
1947.9946799963363,1269
1949.9459055986945,1223
1951.896653284633,1231
1953.8469233205478,1209
1955.7967159729142,1223
1957.7460315082863,1250
1959.6948701932974,1204
1961.6432322946594,1242
1963.5911180791632,1254
1965.5385278136787,1171
1967.4854617651545,1221
1969.4319202006182,1197
1971.377903387176,1232
1973.3234115920136,1263
1975.268445082395,1164
1977.2130041256642,1216
1979.1570889892423,1219
1981.1006999406304,1206
1983.04383724741,1171
1984.986501177238,1176
1986.928691997853,1186
1988.8704099770712,1203
1990.811655382789,1131
1992.7524284829801,1175
1994.692729545698,1197
1996.6325588390755,1172
1998.5719166313224,1221
2000.5108031907307,1168
2002.4492187856677,1155
2004.387163684583,1167
2006.3246381560011,1125
2008.2616424685298,1149
2010.1981768908527,1173
2012.1342416917332,1135
2014.069837140014,1160
2016.0049635046162,1142
2017.9396210545406,1168
2019.8738100588666,1115
2021.8075307867502,1160
2023.740783507431,1139
2025.6735684902228,1154
2027.6058860045214,1153
2029.5377363198004,1160
2031.4691197056118,1160
2033.4000364315875,1166
2035.3304867674374,1165
2037.260470982952,1167
2039.189989347998,1117
2041.1190421325232,1122
2043.047629606554,1147
2044.9757520401945,1127
2046.9034097036288,1119
2048.8306028671195,1182
2050.7573318010086,1175
2052.683596775716,1165
2054.609398061742,1136
2056.5347359296647,1157
2058.4596106501403,1165
2060.384022493906,1105
2062.3079717317764,1140
2064.231458634646,1150
2066.1544834734873,1135
2068.077046519352,1138
2069.99914804337,1137
2071.9207883167524,1197
2073.8419676107865,1136
2075.7626861968406,1160
2077.6829443463607,1205
2079.6027423308715,1152
2081.522080421977,1129
2083.440958891362,1146
2085.359378010786,1151
2087.2773380520907,1137
2089.194839287196,1211
2091.111881988101,1156
2093.0284664268825,1114
2094.9445928756973,1153
2096.86026160678,1105
2098.775472892446,1146
2100.690227005088,1103
2102.604524217178,1147
2104.5183648012676,1140
2106.431749029985,1145
2108.34467717604,1156
2110.2571495122206,1163
2112.169166311393,1126
2114.080727846503,1156
2115.9918343905747,1147
2117.902486216711,1138
2119.8126835980956,1170
2121.722426807987,1169
2123.6317161197285,1166
2125.5405518067364,1149
2127.448934142509,1137
2129.356863400624,1139
2131.264339854737,1138
2133.1713637785815,1162
2135.077935445972,1120
2136.9840551308002,1134
2138.889723107037,1131
2140.7949396487334,1158
2142.699705030018,1137
2144.6040195250994,1177
2146.507883408264,1154
2148.4112969538774,1177
2150.3142604363848,1107
2152.2167741303097,1144
2154.1188383102535,1204
2156.0204532508997,1197
2157.9216192270064,1162
2159.822336513414,1124
2161.7226053850413,1158
2163.622426116884,1175
2165.5217989840185,1195
2167.4207242616,1191
2169.319202224862,1193
2171.2172331491165,1110
2173.1148173097563,1141
2175.0119549822507,1149
2176.90864644215,1182
2178.8048919650823,1185
2180.7006918267534,1179
2182.596046302952,1169
2184.4909556695407,1153
2186.3854202024645,1143
2188.279440177746,1150
2190.173015871487,1116
2192.066147559868,1159
2193.958835519149,1113
2195.851080025667,1142
2197.7428813558417,1165
2199.6342397861667,1175
2201.5251555932186,1116
2203.415629053651,1093
2205.3056604441986,1183
2207.19525004167,1137
2209.084398122958,1130
2210.9731049650327,1181
2212.861370844941,1154
2214.749196039812,1164
2216.636580826851,1167
2218.523525483344,1167
2220.410030286655,1183
2222.296095514226,1130
2224.1817214435805,1137
2226.066908352319,1175
2227.951656518121,1138
2229.835966218746,1134
2231.71983773203,1153
2233.6032713358913,1132
2235.486267308324,1113
2237.3688259274036,1147
2239.2509474712824,1157
2241.132632218193,1196
2243.013880446447,1120
2244.8946924344323,1179
2246.7750684606203,1158
2248.6550088035574,1196
2250.534513741871,1160
2252.413583554265,1098
2254.292218519526,1146
2256.170418916517,1107
2258.0481850241786,1145
2259.925517121534,1211
2261.8024154876825,1139
2263.678880401803,1178
2265.5549121431536,1119
2267.430510991071,1144
2269.305677224971,1125
2271.180411124348,1154
2273.0547129687766,1116
2274.9285830379076,1164
2276.8020216114737,1130
2278.6750289692845,1177
2280.5476053912294,1134
2282.4197511572766,1154
2284.2914665474727,1171
2286.162751841943,1106
2288.0336073208937,1147
2289.904033264608,1159
2291.774029953448,1141
2293.6435976678554,1149
2295.5127366883517,1171
2297.381447295534,1225
2299.2497297700825,1115
2301.1175843927526,1135
2302.9850114443825,1163
2304.852011205885,1178
2306.7185839582553,1164
2308.5847299825664,1160
2310.4504495599676,1205
2312.3157429716925,1195
2314.1806104990483,1158
2316.0450524234247,1187
2317.9090690262888,1157
2319.772660589186,1214
2321.635827393742,1180
2323.498569721661,1222
2325.3608878547248,1157
2327.2227820747967,1151
2329.0842526638157,1174
2330.945299903803,1139
2332.805924076857,1167
2334.6661254651535,1188
2336.525904350951,1183
2338.3852610165827,1225
2340.244195744464,1187
2342.102708817088,1133
2343.9608005170253,1224
2345.8184711269287,1164
2347.675720929526,1178
2349.532550207628,1246
2351.38895924412,1186
2353.24494832197,1170
2355.100517724223,1178
2356.955667734004,1230
2358.810398634514,1182
2360.664710709037,1214
2362.5186042409337,1286
2364.3720795136437,1211
2366.225136810686,1221
2368.0777764156583,1172
2369.929998612237,1180
2371.7818036841777,1153
2373.633191915315,1210
2375.484163589562,1237
2377.3347189909114,1213
2379.184858403434,1206
2381.03458211128,1243
2382.8838903986775,1271
2384.732783549936,1219
2386.5812618494406,1287
2388.4293255816588,1217
2390.2769750311327,1265
2392.1242104824883,1219
2393.971032220427,1227
2395.8174405297295,1217
2397.6634356952563,1204
2399.509018001947,1240
2401.3541877348193,1222
2403.1989451789705,1210
2405.043290619576,1225
2406.8872243418905,1214
2408.730746631247,1233
2410.5738577730594,1217
2412.4165580528183,1278
2414.258847756095,1198
2416.100727168537,1272
2417.9421965758734,1245
2419.783256263912,1213
2421.623906518538,1254
2423.4641476257157,1250
2425.303979871491,1259
2427.143403541984,1282
2428.9824189233977,1260
2430.821026302012,1230
2432.6592259641866,1204
2434.497018196361,1271
2436.33440328505,1238
2438.171381516851,1230
2440.00795317844,1207
2441.844118556569,1223
2443.6798779380724,1229
2445.5152316098606,1236
2447.3501798589255,1222
2449.1847229723357,1223
2451.0188612372403,1203
2452.8525949408663,1263
2454.6859243705203,1236
2456.518849813587,1258
2458.3513715575314,1289
2460.183489889895,1292
2462.015205098301,1264
2463.8465174704493,1221
2465.67742729412,1244
2467.5079348571717,1266
2469.338040447542,1293
2471.1677443532476,1265
2472.9970468623833,1246
2474.825948263123,1231
2476.6544488437207,1218
2478.482548892508,1239
2480.310248697896,1310
2482.137548548374,1316
2483.9644487325118,1282
2485.790949538956,1320
2487.617051256433,1327
2489.44275417375,1248
2491.26805857979,1258
2493.0929647635157,1252
2494.917473013971,1249
2496.741583620276,1329
2498.5652968716304,1272
2500.3886130573137,1265
2502.2115324666834,1344
2504.0340553891765,1259
2505.856182114308,1314
2507.6779129316733,1290
2509.499248130945,1297
2511.3201880018764,1291
2513.140732834298,1333
2514.9608829181198,1335
2516.780638543331,1305
2518.6,1329
2520.418967578273,1341
2522.237541568376,1330
2524.0557222606144,1385
2525.8735099453706,1310
2527.6909049131086,1372
2529.507907454368,1337
2531.32451785977,1358
2533.140736420014,1352
2534.9565634258774,1365
2536.771999168218,1373
2538.5870439379714,1414
2540.4016980261526,1328
2542.2159617238544,1453
2544.02983532225,1415
2545.8433191125914,1388
2547.656413386209,1441
2549.4691184345115,1463
2551.2814345489874,1453
2553.093362021204,1454
2554.904901142808,1518
2556.716052205523,1479
2558.526815501153,1506
2560.3371913215824,1475
2562.147179958771,1521
2563.956781704761,1532
2565.7659968516705,1564
2567.5748256916986,1538
2569.3832685171224,1573
2571.1913256202984,1555
2572.9989972936614,1591
2574.806283829725,1564
2576.613185521084,1581
2578.4197026604074,1632
2580.2258355404483,1577
2582.031584454035,1689
2583.836949694077,1619
2585.6419315535613,1589
2587.4465303255533,1645
2589.2507463032002,1633
2591.0545797797245,1671
2592.8580310484303,1684
2594.6611004026995,1600
2596.463788135992,1641
2598.266094541849,1654
2600.0680199138874,1667
2601.869564545807,1689
2603.670728731383,1555
2605.4715127644704,1597
2607.2719169390048,1581
2609.071941548998,1630
2610.8715868885433,1638
2612.670853251811,1583
2614.469740933052,1608
2616.268250226594,1599
2618.0663814268455,1553
2619.864134828292,1576
2621.6615107255006,1638
2623.458509413115,1527
2625.2551311858597,1489
2627.0513763385347,1602
2628.8472451660223,1515
2630.6427379632833,1595
2632.4378550253564,1633
2634.232596647359,1507
2636.026963124488,1510
2637.8209547520187,1535
2639.6145718253065,1423
2641.407814639785,1465
2643.200683490966,1458
2644.9931786744414,1491
2646.7853004858807,1482
2648.577049221034,1450
2650.3684251757277,1392
2652.1594286458712,1412
2653.9500599274484,1356
2655.740319316525,1409
2657.5302071092437,1443
2659.3197236018286,1419
2661.10886909058,1308
2662.8976438718782,1342
2664.686048242183,1360
2666.4740824980327,1322
2668.2617469360443,1270
2670.0490418529134,1295
2671.8359675454153,1318
2673.622524310403,1292
2675.408712444811,1292
2677.1945322456495,1314
2678.979984010009,1283
2680.76506803506,1329
2682.5497846180497,1296
2684.334134056306,1238
2686.1181166472343,1253
2687.9017326883213,1241
2689.6849824771293,1288
2691.4678663113013,1289
2693.2503844885596,1197
2695.032537306705,1227
2696.8143250636167,1212
2698.5957480572542,1196
2700.3768065856534,1200
2702.1575009469316,1235
2703.937831439283,1199
2705.717798360982,1243
2707.4974020103837,1226
2709.276642685917,1236
2711.055520686095,1214
2712.834036309506,1226
2714.612189854819,1203
2716.389981620782,1194
2718.1674119062204,1180
2719.944481010041,1187
2721.721189231226,1169
2723.4975368688415,1186
2725.273524222027,1183
2727.0491515900053,1166
2728.824419272075,1187
2730.5993275676146,1147
2732.3738767760838,1147
2734.148067197016,1151
2735.921899130031,1168
2737.6953728748194,1179
2739.468488731156,1146
2741.2412469988926,1173
2743.0136479779617,1134
2744.785691968372,1220
2746.5573792702116,1167
2748.3287101836504,1202
2750.099685008934,1175
2751.870304046388,1214
2753.640567596418,1177
2755.4104759595057,1148
2757.1800294362156,1213
2758.949228327187,1142
2760.7180729331412,1134
2762.486563554877,1143
2764.254700493272,1158
2766.022484049284,1153
2767.789914523947,1133
2769.5569922183786,1195
2771.3237174337705,1182
2773.090090471394,1139
2774.8561116326036,1156
2776.6217812188274,1092
2778.3870995315756,1172
2780.1520668724356,1128
2781.9166835430747,1132
2783.6809498452394,1146
2785.444866080754,1188
2787.2084325515225,1129
2788.971649559527,1097
2790.73451740683,1142
2792.4970363955713,1132
2794.2592068279705,1133
2796.0210290063264,1128
2797.7825032330147,1112
2799.543629810493,1149
2801.304409041296,1152
2803.0648412280366,1168
2804.8249266734088,1135
2806.5846656801846,1159
2808.344058551212,1176
2810.1031055894246,1163
2811.8618070978273,1153
2813.6201633795085,1143
2815.378174737636,1127
2817.1358414754536,1134
2818.893163896285,1191
2820.6501423035334,1130
2822.4067770006814,1115
2824.1630682912883,1138
2825.9190164789957,1133
2827.6746218675207,1171
2829.429884760661,1115
2831.184805462294,1133
2832.9393842763743,1122
2834.693621506936,1114
2836.4475174580916,1088
2838.201072434034,1110
2839.954286739034,1149
2841.707160677441,1126
2843.459694553685,1098
2845.2118886722724,1147
2846.96374333779,1111
2848.7152588549034,1110
2850.4664355283567,1100
2852.217273662973,1127
2853.9677735636546,1135
2855.7179355353833,1117
2857.4677598832186,1134
2859.217246912299,1109
2860.9663969278427,1139
2862.715210235146,1088
2864.4636871395846,1143
2866.211827946614,1151
2867.9596329617652,1151
2869.7071024906536,1090
2871.4542368389684,1129
2873.20103631248,1101
2874.947501217038,1134
2876.6936318585695,1138
2878.4394285430812,1091
2880.1848915766604,1110
2881.9300212654707,1128
2883.6748179157553,1104
2885.4192818338374,1075
2887.1634133261173,1132
2888.907212699077,1164
2890.6506802592744,1111
2892.393816313348,1152
2894.1366211680142,1142
2895.8790951300693,1101
2897.621238506388,1100
2899.363051603925,1140
2901.1045347297118,1078
2902.8456881908596,1125
2904.58651229456,1185
2906.327007348081,1122
2908.067173658772,1112
2909.8070115340597,1126
2911.5465212814497,1111
2913.285703208527,1090
2915.0245576229563,1132
2916.7630848324807,1106
2918.5012851449196,1166
2920.2391588681758,1124
2921.976706310227,1101
2923.7139277791334,1100
2925.4508235830313,1121
2927.187394030137,1109
2928.923639428745,1144
2930.6595600872306,1099
2932.395156314046,1138
2934.1304284177218,1192
2935.8653767068713,1093
2937.6000014901815,1127
2939.3343030764227,1149
2941.068281774442,1136
2942.8019378931644,1155
2944.5352717415976,1131
2946.2682836288236,1171
2948.0009738640065,1125
2949.7333427563885,1076
2951.465390615289,1105
2953.1971177501086,1108
2954.9285244703265,1097
2956.6596110855,1152
2958.3903779052657,1073
2960.1208252393385,1131
2961.8509533975125,1122
2963.5807626896617,1119
2965.3102534257378,1116
2967.0394259157715,1141
2968.768280469873,1074
2970.496817398232,1116
2972.2250370111146,1105
2973.952939618869,1073
2975.6805255319196,1129
2977.4077950607707,1145
2979.134748516006,1086
2980.861386208289,1157
2982.587708448359,1171
2984.313715547037,1177
2986.039407815222,1125
2987.764785563891,1138
2989.489849104102,1112
2991.2145987469908,1138
2992.9390348037705,1131
2994.6631575857346,1130
2996.3869674042576,1099
2998.1104645707887,1105
2999.83364939686,1074
3001.5565221940783,1162
3003.2790832741334,1135
3005.0013329487924,1095
3006.7232715298996,1106
3008.4448993293804,1146
3010.166216659239,1113
3011.887223831558,1082
3013.607921158498,1109
3015.3283089522993,1072
3017.0483875252826,1052
3018.7681571898443,1090
3020.4876182584626,1078
3022.2067710436927,1114
3023.9256158581707,1144
3025.644153014609,1102
3027.362382825801,1041
3029.0803056046193,1089
3030.797921664012,1121
3032.5152313170106,1111
3034.2322348767225,1083
3035.9489326563353,1091
3037.665324969115,1101
3039.3814121284063,1113
3041.097194447633,1060
3042.812672240299,1035
3044.5278458199855,1122
3046.2427155003525,1107
3047.9572815951406,1121
3049.671544418167,1105
3051.38550428333,1135
3053.0991615046073,1129
3054.812516396051,1065
3056.5255692717974,1138
3058.2383204460575,1105
3059.9507702331257,1106
3061.662918947372,1155
3063.3747669032446,1098
3065.0863144152736,1076
3066.7975617980674,1106
3068.508509366309,1158
3070.219157434767,1088
3071.9295063182844,1101
3073.639556331785,1160
3075.3493077902704,1161
3077.058761008821,1142
3078.7679163025964,1099
3080.476773986837,1151
3082.1853343768594,1074
3083.89359778806,1093
3085.6015645359153,1141
3087.3092349359786,1134
3089.016609303884,1136
3090.7236879553434,1134
3092.4304712061476,1115
3094.136959372166,1162
3095.843152769349,1137
3097.5490517137237,1136
3099.2546565213966,1111
3100.959967508554,1122
3102.66498499146,1136
3104.3697092864577,1124
3106.0741407099695,1155
3107.778279578498,1142
3109.482126208622,1161
3111.1856809170004,1092
3112.8889440203716,1151
3114.5919158355528,1129
3116.294596679439,1105
3117.996986869006,1109
3119.6990867213062,1142
3121.4008965534726,1108
3123.102416682717,1149
3124.803647426329,1110
3126.5045891016784,1130
3128.205242026213,1144
3129.90560651746,1127
3131.605682893025,1112
3133.3054714705922,1161
3135.0049725679282,1171
3136.7041865028714,1152
3138.4031135933465,1126
3140.101754157353,1111
3141.800108512971,1068
3143.498176978357,1136
3145.1959598717494,1070
3146.8934575114636,1106
3148.5906702158954,1093
3150.2875983035183,1125
3151.9842420928853,1125
3153.680601902627,1148
3155.376678051456,1128
3157.07247085816,1139
3158.767980641609,1105
3160.463207720748,1081
3162.158152414606,1114
3163.8528150422862,1102
3165.5471959229726,1074
3167.2412953759303,1072
3168.9351137204976,1049
3170.628651276098,1152
3172.3219083622307,1130
3174.014885298474,1149
3175.707582404485,1097
3177.4000000000005,1088
3179.092138404835,1075
3180.7839979388846,1143
3182.47557892212,1129
3184.166881674594,1096
3185.8579065164386,1113
3187.5486537678626,1137
3189.2391237491547,1079
3190.9293167806827,1152
3192.6192331828934,1095
3194.3088732763117,1131
3195.998237381542,1141
3197.687325819268,1089
3199.376138910251,1083
3201.064676975334,1070
3202.7529403354347,1063
3204.4409293115523,1101
3206.1286442247647,1048
3207.816085396229,1108
3209.5032531471825,1140
3211.190147798936,1106
3212.8767696728846,1070
3214.5631190905015,1113
3216.2491963733373,1079
3217.9350018430214,1099
3219.6205358212637,1089
3221.305798629851,1039
3222.990790590651,1049
3224.6755120256103,1113
3226.359963256751,1074
3228.0441446061795,1162
3229.7280563960758,1069
3231.411698948703,1092
3233.0950725863995,1046
3234.778177631587,1086
3236.461014406761,1085
3238.1435832345005,1078
3239.8258844374595,1072
3241.507918338374,1127
3243.1896852600576,1084
3244.8711855254023,1084
3246.552419457381,1106
3248.233387379042,1126
3249.914089613516,1105
3251.59452648401,1090
3253.274698313813,1079
3254.95460542629,1095
3256.6342481448855,1110
3258.313626793125,1082
3259.9927416946084,1110
3261.6715931730196,1119
3263.3501815521176,1075
3265.0285071557437,1058
3266.706570307815,1065
3268.3843713323286,1033
3270.0619105533615,1092
3271.739188295068,1062
3273.4162048816834,1121
3275.0929606375184,1133
3276.769455886966,1127
3278.445690954498,1113
3280.1216661646613,1063
3281.797381842087,1111
3283.4728383114807,1074
3285.1480358976296,1084
3286.8229749253996,1078
3288.4976557197333,1048
3290.172078605655,1081
3291.846243908266,1094
3293.5201519527463,1081
3295.193803064357,1053
3296.8671975684374,1075
3298.5403357904024,1091
3300.21321805575,1056
3301.8858446900567,1058
3303.558216018975,1074
3305.23033236824,1093
3306.9021940636603,1049
3308.57380143113,1084
3310.2451547966184,1071
3311.916254486174,1105
3313.5871008259246,1093
3315.2576941420766,1061
3316.9280347609147,1075
3318.5981230088046,1094
3320.2679592121895,1094
3321.9375436975924,1084
3323.606876791612,1038
3325.27595882093,1082
3326.944790112305,1040
3328.6133709925753,1028
3330.2817017886573,1088
3331.949782827547,1043
3333.617614436319,1079
3335.2851969421245,1065
3336.952530672199,1125
3338.619615953853,1157
3340.286453114475,1096
3341.9530424815357,1080
3343.619384382583,1098
3345.2854791452437,1058
3346.951327097224,1080
3348.6169285663073,1114
3350.2822838803577,1089
3351.947393367319,1096
3353.61225735521,1113
3355.2768761721345,1008
3356.9412501462693,1103
3358.605379605873,1116
3360.2692648792827,1090
3361.9329062949146,1093
3363.596304181263,1074
