CollectionTime,6/28/2024 1:35:18 PM
ExposureUsed,3
CalibratedSpectrum
-962.7078968117929,538
-959.9714848408522,560
-957.2358232597828,536
-954.5009119013725,518
-951.7667505983302,547
-949.0333391832855,549
-946.3006774887896,556
-943.5687653473143,518
-940.837602591253,573
-938.1071890529199,586
-935.3775245645503,557
-932.6486089583007,545
-929.9204420662485,557
-927.1930237203925,570
-924.4663537526524,549
-921.7404319948689,570
-919.0152582788041,540
-916.2908324361409,591
-913.5671542984834,597
-910.8442236973568,618
-908.1220404642074,549
-905.4006044304027,538
-902.679915427231,579
-899.959973285902,594
-897.2407778375464,570
-894.5223289132158,539
-891.8046263438832,521
-889.0876699604426,521
-886.3714595937089,509
-883.6559950744183,506
-880.9412762332282,492
-878.2273029007168,494
-875.5140749073835,540
-872.8015920836489,504
-870.0898542598545,504
-867.3788612662631,492
-864.6686129330585,512
-861.9591090903457,504
-859.2503495681506,497
-856.5423341964203,502
-853.8350628050229,512
-851.1285352237478,511
-848.4227512823054,509
-845.7177108103272,488
-843.0134136373656,484
-840.3098595928943,517
-837.6070485063082,551
-834.9049802069229,528
-832.2036545239757,498
-829.5030712866244,506
-826.8032303239481,503
-824.1041314649472,512
-821.4057745385428,500
-818.7081593735775,519
-816.0112857988148,525
-813.3151536429393,527
-810.6197627345566,541
-807.9251129021936,530
-805.2312039742981,530
-802.5380357792392,525
-799.8456081453069,511
-797.1539209007124,503
-794.462973873588,556
-791.772766891987,529
-789.083299783884,534
-786.3945723771743,537
-783.7065844996748,509
-781.0193359791231,509
-778.3328266431781,545
-775.6470563194197,490
-772.9620248353489,504
-770.2777320183878,522
-767.5941776958798,529
-764.9113616950891,511
-762.2292838432011,529
-759.5479439673222,518
-756.8673418944801,533
-754.1874774516235,519
-751.5083504656222,549
-748.8299607632671,532
-746.15230817127,514
-743.475392516264,522
-740.7992136248035,555
-738.1237713233636,532
-735.4490654383407,535
-732.7750957960521,539
-730.1018622227365,541
-727.4293645445534,533
-724.7576025875837,552
-722.0865761778291,542
-719.4162851412126,556
-716.7467293035781,535
-714.0779084906909,542
-711.409822528237,581
-708.7424712418238,550
-706.0758544569796,543
-703.4099719991541,541
-700.7448236937178,563
-698.0804093659622,553
-695.4167288411002,582
-692.7537819442656,562
-690.0915685005134,523
-687.4300883348199,519
-684.7693412720819,549
-682.1093271371178,565
-679.4500457546669,542
-676.7914969493897,554
-674.1336805458676,563
-671.4765963686034,573
-668.8202442420206,596
-666.1646239904642,597
-663.5097354382001,549
-660.8555784094151,594
-658.2021527282176,591
-655.5494582186366,591
-652.8974947046223,601
-650.2462620100463,589
-647.5957599587009,583
-644.9459883742998,583
-642.2969470804776,636
-639.6486359007902,678
-637.0010546587141,680
-634.3542031776476,655
-631.7080812809096,639
-629.0626887917401,603
-626.4180255333008,579
-623.7740913286734,599
-621.1308860008619,543
-618.4884093727904,583
-615.8466612673046,614
-613.2056415071715,621
-610.5653499150785,582
-607.9257863136347,573
-605.28695052537,585
-602.6488423727357,585
-600.0114616781036,608
-597.3748082637674,605
-594.7388819519412,622
-592.1036825647604,643
-589.4692099242818,619
-586.8354638524829,633
-584.2024441712624,597
-581.5701507024403,607
-578.9385832677575,623
-576.3077416888759,637
-573.6776257873787,630
-571.0482353847704,651
-568.4195703024757,681
-565.7916303618415,649
-563.164415384135,681
-560.5379251905453,664
-557.9121596021815,666
-555.2871184400748,627
-552.6628015251767,624
-550.0392086783606,662
-547.4163397204204,685
-544.794194472071,641
-542.1727727539491,667
-539.5520743866118,667
-536.9320991905377,695
-534.3128469861261,740
-531.6943175936979,731
-529.0765108334947,776
-526.4594265256793,921
-523.8430644903358,1061
-521.2274245474689,1194
-518.612506517005,1316
-515.9983102187913,1457
-513.3848354725959,1635
-510.77208209810846,1893
-508.16004991493924,2135
-505.5487387426199,2271
-502.9381484006032,2495
-500.3282787082628,2567
-497.71912948489364,2488
-495.1107005497117,2231
-492.5029917218539,1831
-489.8960028203786,1532
-487.28973366426493,1279
-484.68418407241325,1163
-482.07935386364494,1039
-479.47524285670266,950
-476.87185087025,962
-474.2691777228715,929
-471.66722323307334,915
-469.0659872192821,882
-466.4654694998459,909
-463.86566989303384,892
-461.26658821703614,840
-458.66822428996414,838
-456.07057792985,826
-453.4736489546475,839
-450.877437182231,899
-448.28194243039627,828
-445.68716451686,807
-443.09310325926003,765
-440.49975847515555,791
-437.9071299820263,812
-435.31521759727354,820
-432.72402113821954,849
-430.13354042210767,817
-427.5437752661022,859
-424.95472548728867,902
-422.36639090267386,904
-419.7787713291855,907
-417.1918665836721,887
-414.60567648290385,890
-412.0202008435715,877
-409.4354394822874,889
-406.8513922155845,931
-404.26805885991723,857
-401.685439231661,850
-399.103533147112,884
-396.522340422488,875
-393.9418608739278,880
-391.3620943174908,876
-388.7830405691583,906
-386.2046994448317,898
-383.6270707603344,851
-381.05015433141045,786
-378.473949973725,728
-375.8984575028645,668
-373.32367673433623,658
-370.74960748356875,686
-368.1762495659117,604
-365.60360279663576,558
-363.03166699093265,530
-360.4604419639154,523
-357.8899275306178,538
-355.32012350599507,541
-352.7510297049233,518
-350.1826459421999,513
-347.61497203254316,565
-345.04800779059235,511
-342.4817530309082,521
-339.91620756797226,492
-337.35137121618743,523
-334.7872437898774,497
-332.22382510328725,531
-329.66111497058273,532
-327.09911320585127,545
-324.53781962310075,567
-321.9772340362607,548
-319.4173562591816,540
-316.8581861056348,561
-314.2997233893127,569
-311.7419679238294,624
-309.1849195227194,585
-306.62857799943856,508
-304.0729431673641,528
-301.51801483979375,519
-298.963792829947,555
-296.41027695096386,563
-293.85746701590574,587
-291.3053628377552,625
-288.7539642294155,648
-286.2032710037115,619
-283.65328297338897,606
-281.1039999511146,643
-278.5554217494762,657
-276.007548180983,721
-273.4603790580651,628
-270.9139141930734,613
-268.3681533982807,687
-265.8230964858798,669
-263.27874326798565,663
-260.7350935566336,683
-258.1921471637804,727
-255.6499039013039,733
-253.10836358100266,675
-250.56752601459698,686
-248.02739101372765,855
-245.48795838995704,837
-242.94922795476816,789
-240.41119951956557,706
-237.8738728956746,796
-235.33724789434166,884
-232.80132432673452,928
-230.2661020039418,798
-227.73158073697357,690
-225.19776033676033,694
-222.66464061415422,688
-220.1322213799284,703
-217.60050244477725,734
-215.06948361931552,771
-212.53916471408013,771
-210.00954553952818,782
-207.48062590603843,851
-204.9524056239104,967
-202.4248845033651,795
-199.8980623545441,743
-197.37193898751036,758
-194.84651421224817,826
-192.32178783866232,820
-189.79775967657952,790
-187.27442953574644,815
-184.7517972258321,815
-182.2298625564256,927
-179.7086253370378,826
-177.18808537710026,824
-174.66824248596583,830
-172.14909647290835,883
-169.6306471471229,877
-167.11289431772548,867
-164.59583779375328,851
-162.07947738416453,961
-159.5638128978386,931
-157.04884414357605,982
-154.53457093009854,1024
-152.02099306604828,1063
-149.50811035998936,1009
-146.99592262040665,957
-144.48442965570587,1035
-141.97363127421409,1071
-139.46352728417958,990
-136.95411749377126,1031
-134.44540171107985,1210
-131.93737974411636,1234
-129.43005140081357,1283
-126.92341648902493,1363
-124.41747481652521,1222
-121.91222619101006,1249
-119.40767042009657,1231
-116.90380731132257,1225
-114.40063667214702,1073
-111.8981583099503,1278
-109.3963720320337,1409
-106.89527764561933,1581
-104.39487495785067,1649
-101.89516377579241,1626
-99.39614390642998,1627
-96.89781515667039,1633
-94.40017733334128,1876
-91.90323024319173,1679
-89.40697369289148,1847
-86.91140748903172,1757
-84.41653143812482,1607
-81.92234534660395,1755
-79.42884902082358,2216
-76.93604226705907,2323
-74.4439248915071,1943
-71.95249670028534,1986
-69.46175749943245,2371
-66.97170709490854,2822
-64.48234529259423,3121
-61.99367189829195,2504
-59.50568671772464,2481
-57.01838955653636,2731
-54.53178022029283,3289
-52.045858514480074,3201
-49.560624244506016,3077
-47.07607721569923,3242
-44.59221723330904,3626
-42.10904410250669,3780
-39.62655762838392,4037
-37.14475761595372,5157
-34.66364387015028,6636
-32.18321619582866,7551
-29.70347439776515,8023
-27.224418280657005,10241
-24.74604764912317,16366
-22.26836230770266,27136
-19.7913620608565,42404
-17.315046712966478,50979
-14.83941606833514,56641
-12.36446993118659,65031
-9.89020810566592,65031
-7.416630395839093,65031
-4.94373660569363,65031
-2.471526539137585,65031
-6.821210263296962E-13,65031
2.47084320796705,65031
4.941003281093458,65031
7.410480415786196,65031
9.879274808531363,65031
12.347386655893956,65031
14.814816154518212,65031
17.28156350112681,65031
19.74762889252179,65031
22.21301252558385,65031
24.67771459727237,40376
27.141735304626195,14474
29.605074844762612,9808
32.06773341487792,9531
34.52971121224755,9887
36.99100843422559,8329
39.45162527824516,8057
41.91156194181792,10506
44.370818622535126,15594
46.82939551806646,18838
49.287292826160524,19685
51.74451074464503,18742
54.201049471426245,13439
56.65690920448981,8334
59.112090141899785,6110
61.56659248179983,5698
64.02041642241159,4599
66.4735621620365,3276
68.92602989905402,2513
71.37781983192338,2730
73.82893215918205,2689
76.27936707944684,2736
78.72912479141326,2693
81.17820549385567,2520
83.62660938562783,2144
86.07433666566146,2618
88.5213875329681,2654
90.96776218663751,2277
93.41346082583925,1913
95.85848364982041,1938
98.30283085790859,1795
100.7465026495089,1718
103.18949922410604,1828
105.63182078126385,1818
108.07346752062438,1782
110.51443964190923,1559
112.95473734491827,1351
115.39436082953114,1246
117.83331029570547,1603
120.27158594347827,1800
122.7091879729652,1404
125.1461165843615,1438
127.58237197794062,1405
130.01795435405518,1444
132.4528639131364,1286
134.88710085569494,1432
137.32066538231982,1369
139.75355769367923,1353
142.1857779905207,1355
144.61732647366978,1384
147.04820334403132,1374
149.47840880258934,1331
151.90794305040674,1536
154.33680628862487,1481
156.76499871846443,1395
159.19252054122433,1435
161.61937195828352,1535
164.04555317109896,1630
166.47106438120693,1731
168.89590579022217,1961
171.320077599839,1972
173.7435800118302,1917
176.16641322804742,1890
178.58857745042144,2030
181.01007288096173,2136
183.43089972175687,2329
185.85105817497413,2099
188.27054844285988,2081
190.6893707277394,2044
193.10752523201643,2044
195.5250121581745,2120
197.9418317087751,2148
200.3579840864594,2245
202.7734694939469,2177
205.18828813403627,2138
207.6024402096051,2149
210.01592592360964,2131
212.42874547908548,2169
214.84089907914665,2113
217.2523869269868,2174
219.66320922587727,2270
222.0733661791695,2188
224.48285799029293,2222
226.8916848627572,2201
229.29984700014882,2309
231.7073446061355,2268
234.11417788446204,2377
236.520347038953,2458
238.92585227351185,2409
241.33069379212054,2447
243.73487179884035,2404
246.1383864978112,2346
248.541238093252,2320
250.9434267894609,2429
253.34495279081432,2382
255.74581630176783,2348
258.1460175268563,2489
260.54555667069314,2388
262.9444339379703,2416
265.3426495334594,2409
267.7402036620107,2491
270.1370965285529,2430
272.53332833809407,2499
274.9288992957214,2309
277.32380960660055,2322
279.718059475976,2405
282.1116491091717,2333
284.5045787115897,2463
286.89684848871195,2373
289.2884586460981,2355
291.67940938938807,2425
294.0697009242996,2453
296.4593334566299,2328
298.84830719225477,2447
301.23662233712923,2408
303.6242790972866,2372
306.01127767884,2382
308.39761828798066,2379
310.78330113097934,2436
313.16832641418534,2206
315.5526943440269,2241
317.9364051270112,2192
320.3194589697242,2171
322.70185607883093,2209
325.0835966610754,2137
327.4646809232805,2009
329.8451090723478,2078
332.2248813152577,2211
334.6039978590701,2100
336.9824589109231,2146
339.36026467803447,2081
341.7374153677,2096
344.113911187295,2003
346.48975234427337,2026
348.8649390461686,1933
351.2394715005918,1957
353.61334991523415,1979
355.9865744978655,1979
358.35914545633375,2072
360.73106299856715,2049
363.10232733257146,1985
365.47293866643247,1984
367.84289720831396,1952
370.2122031664593,1886
372.5808567491905,1929
374.9488581649083,2037
377.31620762209275,1889
379.6829053293021,1864
382.0489514951745,1852
384.4143463284262,1862
386.7790900378528,1899
389.14318283232853,1879
391.50662492080653,1875
393.86941651231916,1825
396.23155781597745,1868
398.5930490409713,1877
400.9538903965696,1865
403.3140820921202,1867
405.6736243370498,1839
408.03251734086336,1876
410.3907613131465,1903
412.74835646356166,1884
415.10530300185144,1854
417.4616011378372,1845
419.81725108141893,1918
422.1722530425758,1785
424.5266072313656,1814
426.880313857925,1845
429.2333731324701,1791
431.58578526529516,1852
433.9375504667738,1806
436.2886689473588,1737
438.63914091758113,1670
440.9889665880513,1724
443.33814616945835,1773
445.68667987257015,1757
448.03456790823395,1728
450.3818104873759,1698
452.72840782100013,1742
455.07436012019105,1763
457.41966759611057,1669
459.7643304600007,1764
462.10834892318155,1805
464.4517231970525,1763
466.79445349309174,1834
469.1365400228566,1837
471.4779829979826,1835
473.81878263018564,1839
476.15893913125876,1877
478.4984527130747,1848
480.8373235875855,1962
483.17555196682144,1951
485.5131380628919,2060
487.8500820879857,2139
490.1863842543697,2280
492.52204477439034,2513
494.8570638604725,2924
497.1914417251204,3241
499.52517858091653,3792
501.85827464052306,4082
504.19073011668036,4476
506.5225452222086,4697
508.85372017000566,4702
511.18425517304956,4550
513.514150444396,4433
515.8434061971808,4636
518.1720226446176,4587
520.4999999999999,4764
522.8273384766991,4855
525.1540382881666,4890
527.480099647932,4608
529.8055227696037,3626
532.1303078668694,2557
534.454455153496,1971
536.777964843328,1874
539.1008371502907,1829
541.4230722883866,1700
543.744670471698,1716
546.0656319143858,1659
548.3859568306899,1685
550.7056454349294,1702
553.0246979415016,1691
555.3431145648834,1613
557.6608955196306,1576
559.978041020377,1583
562.2945512818363,1578
564.6104265188006,1570
566.9256669461412,1492
569.2402727788082,1547
571.5542442318302,1580
573.8675815203156,1517
576.1802848594508,1547
578.4923544645015,1583
580.8037905508126,1550
583.114593333807,1540
585.4247630289875,1535
587.7342998519354,1546
590.0432040183106,1553
592.3514757438526,1499
594.6591152443794,1505
596.9661227357875,1593
599.2724984340531,1619
601.578242555231,1561
603.8833553154542,1596
606.1878369309362,1551
608.4916876179676,1580
610.7949075929192,1612
613.0974970722403,1599
615.3994562724587,1557
617.7007854101818,1544
620.0014847020951,1509
622.3015543649641,1511
624.6009946156324,1514
626.8998056710224,1571
629.1979877481361,1615
631.4955410640538,1571
633.7924658359349,1564
636.0887622810175,1500
638.3844306166192,1582
640.6794710601358,1574
642.9738838290426,1596
645.2676691408932,1562
647.5608272133207,1550
649.853358264037,1604
652.1452625108324,1573
654.4365401715764,1617
656.7271914642178,1559
659.0172166067838,1611
661.3066158173809,1605
663.5953893141935,1475
665.8835373154867,1590
668.1710600396028,1571
670.4579577049639,1580
672.7442305300709,1627
675.0298787335033,1542
677.3149025339197,1586
679.599302150058,1592
681.8830778007342,1575
684.1662297048437,1572
686.4487580813608,1612
688.7306631493387,1619
691.0119451279091,1539
693.2926042362834,1582
695.5726406937516,1608
697.8520547196814,1582
700.1308465335215,1597
702.4090163547982,1527
704.6865644031171,1588
706.9634908981619,1592
709.2397960596965,1556
711.5154801075631,1617
713.7905432616823,1556
716.0649857420548,1582
718.3388077687592,1547
720.612009561953,1569
722.8845913418733,1583
725.1565533288352,1590
727.427895743234,1625
729.6986188055427,1602
731.9687227363137,1555
734.238207756178,1612
736.5070740858458,1588
738.7753219461066,1641
741.0429515578281,1615
743.3099631419569,1563
745.5763569195191,1556
747.8421331116193,1620
750.1072919394409,1574
752.3718336242467,1625
754.6357583873777,1626
756.8990664502545,1585
759.1617580343765,1651
761.423833361321,1602
763.6852926527457,1587
765.9461361303862,1617
768.206364016058,1580
770.4659765316536,1641
772.7249738991469,1612
774.9833563405886,1645
777.2411240781092,1649
779.4982773339183,1670
781.7548163303044,1728
784.010741289634,1676
786.2660524343538,1712
788.5207499869881,1644
790.7748341701416,1659
793.0283052064964,1633
795.2811633188143,1643
797.5334087299362,1670
799.7850416627813,1697
802.0360623403484,1707
804.2864709857143,1636
806.5362678220353,1680
808.7854530725468,1694
811.0340269605625,1731
813.2819897094754,1621
815.5293415427581,1672
817.77608268396,1672
820.0222133567116,1644
822.2677337847211,1679
824.5126441917765,1635
826.7569448017433,1653
829.0006358385675,1640
831.2437175262731,1662
833.4861900889629,1626
835.7280537508192,1644
837.9693087361026,1630
840.2099552691533,1645
842.4499935743896,1645
844.689423876309,1616
846.9282463994886,1674
849.1664613685833,1640
851.4040690083276,1630
853.6410695435349,1594
855.877463199097,1696
858.1132501999847,1586
860.3484307712487,1635
862.5830051380175,1658
864.8169735254988,1637
867.0503361589791,1672
869.2830932638243,1661
871.5152450654786,1681
873.7467917894654,1633
875.9777336613873,1635
878.2080709069252,1679
880.4378037518389,1682
882.666932421968,1758
884.8954571432301,1651
887.1233781416219,1691
889.3506956432192,1706
891.5774098741766,1695
893.803521060728,1695
896.0290294291852,1702
898.2539352059397,1801
900.4782386174619,1770
902.7019398903011,1720
904.925039251085,1778
907.147536926521,1725
909.3694331433943,1774
911.59072812857,1695
913.8114221089921,1663
916.0315153116827,1708
918.2510079637437,1716
920.4699002923547,1695
922.6881925247761,1715
924.905884888345,1666
927.1229776104793,1679
929.3394709186747,1677
931.555365040506,1674
933.7706602036275,1744
935.9853566357709,1765
938.1994545647489,1701
940.4129542184515,1719
942.6258558248488,1703
944.8381596119883,1694
947.0498658079974,1663
949.2609746410825,1687
951.4714863395287,1631
953.6814011316998,1729
955.8907192460387,1740
958.0994409110671,1704
960.3075663553858,1659
962.5150958076741,1603
964.7220294966913,1624
966.928367651274,1609
969.1341105003388,1574
971.3392582728806,1614
973.5438111979742,1638
975.747769504772,1541
977.9511334225061,1524
980.153903180487,1528
982.3560790081052,1595
984.5576611348289,1520
986.7586497902058,1545
988.9590452038618,1544
991.158847605503,1491
993.3580572249133,1457
995.5566742919558,1410
997.7546990365728,1383
999.952131688785,1399
1002.1489724786926,1412
1004.3452216364743,1424
1006.5408793923874,1366
1008.7359459767691,1362
1010.9304216200343,1324
1013.1243065526781,1300
1015.3176010052733,1322
1017.510305208472,1279
1019.7024193930064,1309
1021.8939437896848,1291
1024.0848786293977,1213
1026.2752241431122,1264
1028.4649805618747,1306
1030.6541481168115,1274
1032.842727039127,1277
1035.0307175601051,1271
1037.2181199111074,1255
1039.4049343235752,1195
1041.591161029029,1272
1043.7768002590683,1258
1045.9618522453698,1270
1048.1463172196918,1246
1050.3301954138697,1263
1052.513487059818,1244
1054.69619238953,1187
1056.8783116350783,1222
1059.0598450286152,1266
1061.2407928023704,1235
1063.4211551886528,1243
1065.6009324198508,1230
1067.780124728432,1248
1069.9587323469414,1207
1072.1367555080046,1185
1074.314194444325,1242
1076.4910493886855,1188
1078.667320573947,1181
1080.843008233051,1253
1083.0181125990161,1185
1085.1926339049414,1186
1087.3665723840027,1144
1089.5399282694575,1140
1091.7127017946405,1212
1093.8848931929647,1149
1096.0565026979243,1182
1098.2275305430899,1185
1100.3979769621128,1146
1102.567842188722,1146
1104.737126456726,1178
1106.9058300000124,1130
1109.0739530525475,1160
1111.2414958483764,1201
1113.4084586216231,1186
1115.5748416064907,1149
1117.7406450372605,1077
1119.9058691482942,1147
1122.0705141740304,1136
1124.2345803489884,1147
1126.3980679077658,1075
1128.5609770850388,1136
1130.7233081155623,1154
1132.8850612341707,1096
1135.0462366757774,1064
1137.2068346753745,1078
1139.3668554680326,1121
1141.526299288901,1109
1143.68516637321,1097
1145.8434569562655,1108
1148.001171273455,1139
1150.158309560244,1103
1152.3148720521767,1091
1154.470858984876,1134
1156.626270594044,1125
1158.7811071154629,1137
1160.9353687849912,1139
1163.089055838569,1129
1165.242168512213,1135
1167.3947070420209,1119
1169.5466716641677,1131
1171.6980626149075,1131
1173.8488801305748,1082
1175.9991244475814,1085
1178.1487958024186,1068
1180.2978944316555,1121
1182.4464205719428,1125
1184.5943744600072,1091
1186.7417563326567,1065
1188.8885664267755,1083
1191.0348049793297,1035
1193.1804722273619,1096
1195.325568407995,1041
1197.4700937584303,1061
1199.614048515948,1034
1201.7574329179074,1159
1203.900247201746,1124
1206.042491604982,1131
1208.1841663652099,1051
1210.3252717201053,1120
1212.465807907422,1113
1214.6057751649923,1076
1216.7451737307279,1112
1218.8840038426192,1041
1221.0222657387353,1120
1223.1599596572241,1140
1225.2970858363137,1099
1227.4336445143094,1090
1229.5696359295966,1090
1231.705060320639,1164
1233.8399179259786,1148
1235.9742089842384,1088
1238.107933734118,1101
1240.2410924143974,1121
1242.373685263935,1108
1244.5057125216676,1115
1246.6371744266116,1092
1248.7680712178621,1143
1250.898403134593,1098
1253.028170416058,1091
1255.1573733015875,1069
1257.2860120305932,1084
1259.4140868425648,1084
1261.54159797707,1150
1263.6685456737569,1102
1265.7949301723515,1053
1267.9207517126597,1097
1270.046010534565,1131
1272.1707068780306,1091
1274.2948409830983,1138
1276.4184130898889,1096
1278.541423438603,1088
1280.6638722695184,1115
1282.785759822993,1133
1284.9070863394636,1134
1287.0278520594447,1094
1289.1480572235314,1137
1291.2677020723963,1074
1293.3867868467923,1097
1295.5053117875495,1130
1297.623277135579,1147
1299.740683131868,1090
1301.8575300174857,1151
1303.973818033578,1126
1306.0895474213703,1181
1308.2047184221678,1119
1310.3193312773528,1124
1312.4333862283888,1111
1314.5468835168163,1128
1316.659823384255,1156
1318.7722060724045,1155
1320.8840318230418,1112
1322.9953008780249,1067
1325.1060134792888,1128
1327.2161698688478,1138
1329.3257702887959,1111
1331.4348149813054,1143
1333.5433041886276,1162
1335.6512381530933,1128
1337.7586171171101,1132
1339.8654413231675,1107
1341.9717110138317,1137
1344.0774264317488,1101
1346.1825878196432,1095
1348.2871954203192,1130
1350.3912494766587,1100
1352.4947502316231,1168
1354.5976979282532,1118
1356.7000928096686,1138
1358.8019351190665,1146
1360.9032250997243,1135
1363.0039629949988,1160
1365.1041490483235,1191
1367.2037835032133,1139
1369.3028666032606,1157
1371.401398592137,1146
1373.4993797135926,1143
1375.5968102114575,1113
1377.6936903296396,1119
1379.7900203121262,1134
1381.8858004029835,1151
1383.9810308463561,1147
1386.075711886469,1130
1388.1698437676241,1129
1390.2634267342032,1144
1392.356461030667,1135
1394.4489469015557,1165
1396.5408845914872,1146
1398.6322743451592,1120
1400.7231164073469,1164
1402.813411022907,1199
1404.903158436773,1170
1406.9923588939578,1128
1409.0810126395531,1128
1411.1691199187303,1128
1413.2566809767386,1112
1415.343696058907,1163
1417.4301654106425,1152
1419.5160892774315,1147
1421.6014679048399,1140
1423.6863015385125,1164
1425.7705904241707,1145
1427.8543348076178,1122
1429.9375349347342,1156
1432.0201910514802,1164
1434.102303403894,1151
1436.1838722380944,1128
1438.2648978002767,1109
1440.3453803367174,1155
1442.4253200937692,1150
1444.5047173178677,1168
1446.5835722555234,1175
1448.6618851533285,1190
1450.739656257952,1122
1452.8168858161434,1117
1454.8935740747306,1172
1456.96972128062,1151
1459.045327680797,1187
1461.120393522327,1158
1463.1949190523528,1198
1465.2689045180973,1164
1467.3423501668608,1190
1469.415256246024,1155
1471.4876230030463,1135
1473.559450685465,1171
1475.6307395408976,1177
1477.7014898170391,1203
1479.771701761665,1206
1481.8413756226287,1163
1483.9105116478618,1160
1485.9791100853772,1162
1488.0471711832643,1145
1490.1146951896926,1159
1492.1816823529098,1207
1494.2481329212433,1235
1496.3140471430984,1173
1498.3794252669609,1165
1500.4442675413939,1220
1502.5085742150404,1251
1504.572345536622,1216
1506.6355817549388,1227
1508.6982831188702,1217
1510.7604498773744,1227
1512.8220822794883,1258
1514.8831805743293,1215
1516.9437450110909,1217
1519.003775839048,1208
1521.0632733075522,1178
1523.1222376660367,1203
1525.1806691640113,1273
1527.2385680510652,1197
1529.2959345768668,1228
1531.3527689911643,1172
1533.4090715437833,1223
1535.4648424846291,1213
1537.5200820636855,1220
1539.5747905310159,1267
1541.6289681367616,1218
1543.6826151311434,1199
1545.7357317644614,1232
1547.7883182870937,1234
1549.8403749494987,1273
1551.8919020022113,1260
1553.9428996958477,1247
1555.9933682811015,1244
1558.0433080087469,1285
1560.0927191296346,1243
1562.1416018946961,1259
1564.1899565549415,1310
1566.2377833614592,1315
1568.2850825654164,1283
1570.3318544180606,1322
1572.3780991707158,1322
1574.423817074788,1306
1576.4690083817595,1311
1578.5136733431923,1332
1580.5578122107272,1306
1582.601425236085,1248
1584.6445126710646,1253
1586.6870747675434,1227
1588.7291117774776,1214
1590.7706239529034,1202
1592.8116115459347,1226
1594.8520748087658,1204
1596.8920139936686,1201
1598.9314293529933,1220
1600.9703211391711,1159
1603.008689604711,1174
1605.0465350022005,1171
1607.0838575843068,1150
1609.1206576037753,1159
1611.1569353134305,1150
1613.1926909661765,1182
1615.2279248149953,1191
1617.2626371129481,1111
1619.2968281131757,1147
1621.3304980688963,1156
1623.3636472334088,1130
1625.39627586009,1128
1627.428384202396,1129
1629.459972513861,1154
1631.4910410480993,1147
1633.5215900588028,1153
1635.551619799744,1110
1637.5811305247717,1188
1639.6101224878166,1139
1641.6385959428862,1191
1643.6665511440683,1164
1645.693988345528,1128
1647.7209078015112,1170
1649.7473097663405,1198
1651.7731944944203,1162
1653.7985622402307,1108
1655.823413258333,1140
1657.847747803366,1110
1659.8715661300494,1192
1661.8948684931793,1110
1663.9176551476316,1154
1665.9399263483624,1118
1667.9616823504057,1133
1669.982923408873,1122
1672.0036497789574,1156
1674.0238617159293,1195
1676.043559475138,1126
1678.0627433120121,1125
1680.081413482059,1110
1682.0995702408654,1146
1684.117213844096,1188
1686.134344547495,1152
1688.1509626068864,1152
1690.1670682781705,1163
1692.182661817329,1151
1694.1977434804217,1123
1696.2123135235875,1138
1698.226372203043,1163
1700.2399197750851,1155
1702.2529564960905,1200
1704.2654826225112,1172
1706.277498410882,1160
1708.2890041178139,1174
1710.2999999999988,1190
1712.3104863142066,1129
1714.3204633172854,1158
1716.329931266163,1155
1718.3388904178469,1124
1720.3473410294214,1181
1722.3552833580516,1140
1724.3627176609807,1154
1726.3696441955308,1152
1728.3760632191033,1151
1730.3819749891782,1151
1732.3873797633146,1175
1734.3922777991502,1127
1736.3966693544012,1133
1738.4005546868639,1101
1740.4039340544127,1097
1742.406807715001,1133
1744.4091759266616,1159
1746.4110389475054,1151
1748.4123970357223,1168
1750.413250449582,1097
1752.4135994474318,1132
1754.4134442876993,1153
1756.4127852288902,1103
1758.4116225295893,1143
1760.4099564484595,1124
1762.407787244244,1161
1764.405115175764,1138
1766.4019405019203,1133
1768.3982634816916,1141
1770.3940843741357,1135
1772.3894034383907,1154
1774.3842209336717,1137
1776.378537119274,1133
1778.372352254571,1175
1780.3656665990156,1157
1782.3584804121397,1165
1784.3507939535534,1141
1786.3426074829463,1100
1788.3339212600863,1141
1790.3247355448211,1122
1792.3150505970766,1100
1794.3048666768573,1142
1796.2941840442477,1182
1798.2830029594106,1163
1800.2713236825884,1135
1802.2591464741004,1149
1804.2464715943465,1187
1806.2332993038058,1087
1808.2196298630352,1122
1810.2054635326708,1236
1812.190800573428,1119
1814.175641246101,1226
1816.1599858115628,1118
1818.1438345307652,1164
1820.127187664738,1159
1822.1100454745924,1183
1824.092408221516,1101
1826.0742761667766,1173
1828.055649571721,1181
1830.0365286977735,1147
1832.0169138064398,1166
1833.9968051593014,1127
1835.9762030180214,1135
1837.9551076443408,1172
1839.9335193000788,1143
1841.9114382471344,1155
1843.888864747485,1100
1845.8657990631878,1126
1847.842241456378,1118
1849.8181921892697,1167
1851.7936515241558,1186
1853.7686197234098,1123
1855.7430970494815,1103
1857.7170837649014,1168
1859.6905801322787,1158
1861.6635864143004,1140
1863.6361028737338,1137
1865.608129773424,1204
1867.5796673762961,1111
1869.5507159453537,1157
1871.521275743678,1147
1873.4913470344313,1134
1875.4609300808534,1133
1877.4300251462632,1157
1879.3986324940588,1137
1881.366752387717,1113
1883.3343850907936,1081
1885.3015308669228,1171
1887.268189979819,1183
1889.2343626932739,1128
1891.2000492711595,1135
1893.1652499774254,1121
1895.1299650761011,1152
1897.0941948312952,1148
1899.0579395071945,1127
1901.0211993680641,1190
1902.98397467825,1195
1904.9462657021745,1189
1906.9080727043415,1176
1908.869395949332,1131
1910.8302357018065,1138
1912.790592226504,1150
1914.7504657882428,1146
1916.7098566519212,1165
1918.6687650825133,1140
1920.6271913450764,1196
1922.5851357047422,1127
1924.5425984267245,1155
1926.499579776314,1157
1928.4560800188833,1106
1930.4120994198802,1144
1932.367638244833,1180
1934.32269675935,1114
1936.2772752291175,1117
1938.231373919899,1135
1940.1849930975404,1175
1942.1381330279637,1165
1944.0907939771696,1177
1946.0429762112412,1154
1947.9946799963363,1148
1949.9459055986945,1170
1951.896653284633,1180
1953.8469233205478,1199
1955.7967159729142,1172
1957.7460315082863,1161
1959.6948701932974,1125
1961.6432322946594,1144
1963.5911180791632,1161
1965.5385278136787,1125
1967.4854617651545,1101
1969.4319202006182,1178
1971.377903387176,1164
1973.3234115920136,1142
1975.268445082395,1167
1977.2130041256642,1160
1979.1570889892423,1119
1981.1006999406304,1138
1983.04383724741,1159
1984.986501177238,1161
1986.928691997853,1128
1988.8704099770712,1183
1990.811655382789,1177
1992.7524284829801,1135
1994.692729545698,1152
1996.6325588390755,1133
1998.5719166313224,1145
2000.5108031907307,1156
2002.4492187856677,1150
2004.387163684583,1154
2006.3246381560011,1150
2008.2616424685298,1114
2010.1981768908527,1135
2012.1342416917332,1164
2014.069837140014,1123
2016.0049635046162,1110
2017.9396210545406,1123
2019.8738100588666,1157
2021.8075307867502,1142
2023.740783507431,1117
2025.6735684902228,1154
2027.6058860045214,1178
2029.5377363198004,1125
2031.4691197056118,1146
2033.4000364315875,1124
2035.3304867674374,1125
2037.260470982952,1149
2039.189989347998,1181
2041.1190421325232,1143
2043.047629606554,1139
2044.9757520401945,1133
2046.9034097036288,1138
2048.8306028671195,1133
2050.7573318010086,1183
2052.683596775716,1133
2054.609398061742,1182
2056.5347359296647,1160
2058.4596106501403,1165
2060.384022493906,1144
2062.3079717317764,1116
2064.231458634646,1164
2066.1544834734873,1152
2068.077046519352,1108
2069.99914804337,1178
2071.9207883167524,1213
2073.8419676107865,1164
2075.7626861968406,1103
2077.6829443463607,1101
2079.6027423308715,1198
2081.522080421977,1108
2083.440958891362,1181
2085.359378010786,1139
2087.2773380520907,1163
2089.194839287196,1137
2091.111881988101,1152
2093.0284664268825,1130
2094.9445928756973,1177
2096.86026160678,1145
2098.775472892446,1115
2100.690227005088,1143
2102.604524217178,1125
2104.5183648012676,1159
2106.431749029985,1158
2108.34467717604,1097
2110.2571495122206,1116
2112.169166311393,1150
2114.080727846503,1170
2115.9918343905747,1118
2117.902486216711,1176
2119.8126835980956,1155
2121.722426807987,1154
2123.6317161197285,1184
2125.5405518067364,1166
2127.448934142509,1169
2129.356863400624,1149
2131.264339854737,1172
2133.1713637785815,1187
2135.077935445972,1122
2136.9840551308002,1124
2138.889723107037,1142
2140.7949396487334,1161
2142.699705030018,1115
2144.6040195250994,1129
2146.507883408264,1119
2148.4112969538774,1119
2150.3142604363848,1152
2152.2167741303097,1163
2154.1188383102535,1168
2156.0204532508997,1158
2157.9216192270064,1188
2159.822336513414,1138
2161.7226053850413,1160
2163.622426116884,1156
2165.5217989840185,1134
2167.4207242616,1149
2169.319202224862,1166
2171.2172331491165,1133
2173.1148173097563,1114
2175.0119549822507,1176
2176.90864644215,1178
2178.8048919650823,1145
2180.7006918267534,1139
2182.596046302952,1178
2184.4909556695407,1178
2186.3854202024645,1101
2188.279440177746,1132
2190.173015871487,1140
2192.066147559868,1133
2193.958835519149,1135
2195.851080025667,1158
2197.7428813558417,1200
2199.6342397861667,1132
2201.5251555932186,1157
2203.415629053651,1155
2205.3056604441986,1122
2207.19525004167,1103
2209.084398122958,1126
2210.9731049650327,1147
2212.861370844941,1135
2214.749196039812,1159
2216.636580826851,1165
2218.523525483344,1139
2220.410030286655,1158
2222.296095514226,1179
2224.1817214435805,1176
2226.066908352319,1145
2227.951656518121,1161
2229.835966218746,1126
2231.71983773203,1148
2233.6032713358913,1161
2235.486267308324,1158
2237.3688259274036,1149
2239.2509474712824,1144
2241.132632218193,1130
2243.013880446447,1154
2244.8946924344323,1161
2246.7750684606203,1123
2248.6550088035574,1144
2250.534513741871,1168
2252.413583554265,1163
2254.292218519526,1158
2256.170418916517,1177
2258.0481850241786,1187
2259.925517121534,1178
2261.8024154876825,1161
2263.678880401803,1146
2265.5549121431536,1144
2267.430510991071,1127
2269.305677224971,1220
2271.180411124348,1124
2273.0547129687766,1145
2274.9285830379076,1131
2276.8020216114737,1141
2278.6750289692845,1167
2280.5476053912294,1141
2282.4197511572766,1177
2284.2914665474727,1181
2286.162751841943,1152
2288.0336073208937,1138
2289.904033264608,1147
2291.774029953448,1151
2293.6435976678554,1186
2295.5127366883517,1136
2297.381447295534,1106
2299.2497297700825,1128
2301.1175843927526,1202
2302.9850114443825,1129
2304.852011205885,1154
2306.7185839582553,1165
2308.5847299825664,1153
2310.4504495599676,1215
2312.3157429716925,1184
2314.1806104990483,1144
2316.0450524234247,1144
2317.9090690262888,1151
2319.772660589186,1137
2321.635827393742,1144
2323.498569721661,1188
2325.3608878547248,1199
2327.2227820747967,1197
2329.0842526638157,1188
2330.945299903803,1151
2332.805924076857,1152
2334.6661254651535,1208
2336.525904350951,1144
2338.3852610165827,1141
2340.244195744464,1111
2342.102708817088,1151
2343.9608005170253,1174
2345.8184711269287,1200
2347.675720929526,1132
2349.532550207628,1148
2351.38895924412,1113
2353.24494832197,1116
2355.100517724223,1123
2356.955667734004,1138
2358.810398634514,1144
2360.664710709037,1170
2362.5186042409337,1126
2364.3720795136437,1126
2366.225136810686,1188
2368.0777764156583,1173
2369.929998612237,1112
2371.7818036841777,1157
2373.633191915315,1161
2375.484163589562,1165
2377.3347189909114,1133
2379.184858403434,1209
2381.03458211128,1146
2382.8838903986775,1176
2384.732783549936,1161
2386.5812618494406,1166
2388.4293255816588,1109
2390.2769750311327,1176
2392.1242104824883,1129
2393.971032220427,1142
2395.8174405297295,1119
2397.6634356952563,1168
2399.509018001947,1119
2401.3541877348193,1130
2403.1989451789705,1202
2405.043290619576,1163
2406.8872243418905,1197
2408.730746631247,1172
2410.5738577730594,1178
2412.4165580528183,1171
2414.258847756095,1177
2416.100727168537,1192
2417.9421965758734,1194
2419.783256263912,1170
2421.623906518538,1133
2423.4641476257157,1150
2425.303979871491,1161
2427.143403541984,1204
2428.9824189233977,1197
2430.821026302012,1147
2432.6592259641866,1203
2434.497018196361,1153
2436.33440328505,1198
2438.171381516851,1218
2440.00795317844,1200
2441.844118556569,1193
2443.6798779380724,1171
2445.5152316098606,1197
2447.3501798589255,1198
2449.1847229723357,1187
2451.0188612372403,1194
2452.8525949408663,1204
2454.6859243705203,1178
2456.518849813587,1172
2458.3513715575314,1193
2460.183489889895,1215
2462.015205098301,1151
2463.8465174704493,1171
2465.67742729412,1175
2467.5079348571717,1207
2469.338040447542,1206
2471.1677443532476,1199
2472.9970468623833,1178
2474.825948263123,1177
2476.6544488437207,1195
2478.482548892508,1181
2480.310248697896,1159
2482.137548548374,1155
2483.9644487325118,1180
2485.790949538956,1148
2487.617051256433,1204
2489.44275417375,1156
2491.26805857979,1169
2493.0929647635157,1123
2494.917473013971,1138
2496.741583620276,1211
2498.5652968716304,1220
2500.3886130573137,1197
2502.2115324666834,1177
2504.0340553891765,1165
2505.856182114308,1142
2507.6779129316733,1124
2509.499248130945,1176
2511.3201880018764,1156
2513.140732834298,1191
2514.9608829181198,1197
2516.780638543331,1122
2518.6,1117
2520.418967578273,1125
2522.237541568376,1202
2524.0557222606144,1170
2525.8735099453706,1164
2527.6909049131086,1102
2529.507907454368,1128
2531.32451785977,1161
2533.140736420014,1191
2534.9565634258774,1168
2536.771999168218,1160
2538.5870439379714,1210
2540.4016980261526,1181
2542.2159617238544,1202
2544.02983532225,1163
2545.8433191125914,1144
2547.656413386209,1141
2549.4691184345115,1158
2551.2814345489874,1163
2553.093362021204,1160
2554.904901142808,1163
2556.716052205523,1184
2558.526815501153,1151
2560.3371913215824,1170
2562.147179958771,1178
2563.956781704761,1172
2565.7659968516705,1179
2567.5748256916986,1154
2569.3832685171224,1162
2571.1913256202984,1200
2572.9989972936614,1240
2574.806283829725,1187
2576.613185521084,1203
2578.4197026604074,1175
2580.2258355404483,1151
2582.031584454035,1160
2583.836949694077,1183
2585.6419315535613,1167
2587.4465303255533,1174
2589.2507463032002,1199
2591.0545797797245,1178
2592.8580310484303,1203
2594.6611004026995,1190
2596.463788135992,1221
2598.266094541849,1158
2600.0680199138874,1176
2601.869564545807,1234
2603.670728731383,1203
2605.4715127644704,1199
2607.2719169390048,1180
2609.071941548998,1190
2610.8715868885433,1205
2612.670853251811,1209
2614.469740933052,1191
2616.268250226594,1217
2618.0663814268455,1180
2619.864134828292,1162
2621.6615107255006,1210
2623.458509413115,1196
2625.2551311858597,1183
2627.0513763385347,1148
2628.8472451660223,1161
2630.6427379632833,1204
2632.4378550253564,1179
2634.232596647359,1153
2636.026963124488,1165
2637.8209547520187,1188
2639.6145718253065,1132
2641.407814639785,1177
2643.200683490966,1151
2644.9931786744414,1151
2646.7853004858807,1111
2648.577049221034,1159
2650.3684251757277,1153
2652.1594286458712,1124
2653.9500599274484,1189
2655.740319316525,1156
2657.5302071092437,1166
2659.3197236018286,1152
2661.10886909058,1198
2662.8976438718782,1125
2664.686048242183,1121
2666.4740824980327,1192
2668.2617469360443,1183
2670.0490418529134,1109
2671.8359675454153,1159
2673.622524310403,1171
2675.408712444811,1134
2677.1945322456495,1180
2678.979984010009,1130
2680.76506803506,1168
2682.5497846180497,1176
2684.334134056306,1167
2686.1181166472343,1107
2687.9017326883213,1148
2689.6849824771293,1131
2691.4678663113013,1153
2693.2503844885596,1094
2695.032537306705,1163
2696.8143250636167,1167
2698.5957480572542,1146
2700.3768065856534,1151
2702.1575009469316,1180
2703.937831439283,1163
2705.717798360982,1169
2707.4974020103837,1138
2709.276642685917,1182
2711.055520686095,1116
2712.834036309506,1177
2714.612189854819,1153
2716.389981620782,1140
2718.1674119062204,1115
2719.944481010041,1092
2721.721189231226,1184
2723.4975368688415,1200
2725.273524222027,1160
2727.0491515900053,1152
2728.824419272075,1129
2730.5993275676146,1119
2732.3738767760838,1150
2734.148067197016,1102
2735.921899130031,1144
2737.6953728748194,1148
2739.468488731156,1132
2741.2412469988926,1150
2743.0136479779617,1156
2744.785691968372,1138
2746.5573792702116,1159
2748.3287101836504,1089
2750.099685008934,1181
2751.870304046388,1171
2753.640567596418,1159
2755.4104759595057,1119
2757.1800294362156,1154
2758.949228327187,1148
2760.7180729331412,1121
2762.486563554877,1144
2764.254700493272,1135
2766.022484049284,1118
2767.789914523947,1128
2769.5569922183786,1115
2771.3237174337705,1098
2773.090090471394,1079
2774.8561116326036,1115
2776.6217812188274,1163
2778.3870995315756,1107
2780.1520668724356,1181
2781.9166835430747,1100
2783.6809498452394,1173
2785.444866080754,1156
2787.2084325515225,1124
2788.971649559527,1183
2790.73451740683,1146
2792.4970363955713,1137
2794.2592068279705,1193
2796.0210290063264,1115
2797.7825032330147,1129
2799.543629810493,1145
2801.304409041296,1145
2803.0648412280366,1169
2804.8249266734088,1154
2806.5846656801846,1089
2808.344058551212,1140
2810.1031055894246,1146
2811.8618070978273,1153
2813.6201633795085,1146
2815.378174737636,1155
2817.1358414754536,1151
2818.893163896285,1184
2820.6501423035334,1160
2822.4067770006814,1078
2824.1630682912883,1113
2825.9190164789957,1161
2827.6746218675207,1120
2829.429884760661,1158
2831.184805462294,1136
2832.9393842763743,1158
2834.693621506936,1131
2836.4475174580916,1110
2838.201072434034,1116
2839.954286739034,1099
2841.707160677441,1153
2843.459694553685,1148
2845.2118886722724,1121
2846.96374333779,1159
2848.7152588549034,1093
2850.4664355283567,1147
2852.217273662973,1121
2853.9677735636546,1193
2855.7179355353833,1165
2857.4677598832186,1193
2859.217246912299,1161
2860.9663969278427,1127
2862.715210235146,1152
2864.4636871395846,1145
2866.211827946614,1180
2867.9596329617652,1160
2869.7071024906536,1138
2871.4542368389684,1157
2873.20103631248,1150
2874.947501217038,1163
2876.6936318585695,1138
2878.4394285430812,1155
2880.1848915766604,1167
2881.9300212654707,1155
2883.6748179157553,1188
2885.4192818338374,1145
2887.1634133261173,1142
2888.907212699077,1145
2890.6506802592744,1183
2892.393816313348,1177
2894.1366211680142,1161
2895.8790951300693,1154
2897.621238506388,1146
2899.363051603925,1108
2901.1045347297118,1116
2902.8456881908596,1145
2904.58651229456,1142
2906.327007348081,1108
2908.067173658772,1179
2909.8070115340597,1186
2911.5465212814497,1124
2913.285703208527,1163
2915.0245576229563,1159
2916.7630848324807,1124
2918.5012851449196,1114
2920.2391588681758,1122
2921.976706310227,1103
2923.7139277791334,1149
2925.4508235830313,1115
2927.187394030137,1130
2928.923639428745,1084
2930.6595600872306,1113
2932.395156314046,1135
2934.1304284177218,1084
2935.8653767068713,1179
2937.6000014901815,1148
2939.3343030764227,1113
2941.068281774442,1158
2942.8019378931644,1195
2944.5352717415976,1201
2946.2682836288236,1139
2948.0009738640065,1141
2949.7333427563885,1128
2951.465390615289,1132
2953.1971177501086,1183
2954.9285244703265,1172
2956.6596110855,1151
2958.3903779052657,1175
2960.1208252393385,1138
2961.8509533975125,1114
2963.5807626896617,1137
2965.3102534257378,1120
2967.0394259157715,1130
2968.768280469873,1156
2970.496817398232,1175
2972.2250370111146,1165
2973.952939618869,1079
2975.6805255319196,1165
2977.4077950607707,1162
2979.134748516006,1138
2980.861386208289,1132
2982.587708448359,1116
2984.313715547037,1158
2986.039407815222,1127
2987.764785563891,1158
2989.489849104102,1135
2991.2145987469908,1144
2992.9390348037705,1114
2994.6631575857346,1166
2996.3869674042576,1127
2998.1104645707887,1127
2999.83364939686,1204
3001.5565221940783,1203
3003.2790832741334,1155
3005.0013329487924,1170
3006.7232715298996,1122
3008.4448993293804,1142
3010.166216659239,1113
3011.887223831558,1146
3013.607921158498,1176
3015.3283089522993,1116
3017.0483875252826,1151
3018.7681571898443,1158
3020.4876182584626,1134
3022.2067710436927,1158
3023.9256158581707,1131
3025.644153014609,1166
3027.362382825801,1178
3029.0803056046193,1131
3030.797921664012,1154
3032.5152313170106,1148
3034.2322348767225,1137
3035.9489326563353,1143
3037.665324969115,1121
3039.3814121284063,1117
3041.097194447633,1158
3042.812672240299,1122
3044.5278458199855,1153
3046.2427155003525,1106
3047.9572815951406,1134
3049.671544418167,1191
3051.38550428333,1158
3053.0991615046073,1139
3054.812516396051,1128
3056.5255692717974,1148
3058.2383204460575,1132
3059.9507702331257,1104
3061.662918947372,1131
3063.3747669032446,1157
3065.0863144152736,1155
3066.7975617980674,1156
3068.508509366309,1134
3070.219157434767,1114
3071.9295063182844,1099
3073.639556331785,1179
3075.3493077902704,1123
3077.058761008821,1137
3078.7679163025964,1149
3080.476773986837,1052
3082.1853343768594,1087
3083.89359778806,1142
3085.6015645359153,1176
3087.3092349359786,1136
3089.016609303884,1093
3090.7236879553434,1132
3092.4304712061476,1090
3094.136959372166,1153
3095.843152769349,1135
3097.5490517137237,1123
3099.2546565213966,1083
3100.959967508554,1156
3102.66498499146,1134
3104.3697092864577,1143
3106.0741407099695,1129
3107.778279578498,1082
3109.482126208622,1090
3111.1856809170004,1161
3112.8889440203716,1168
3114.5919158355528,1171
3116.294596679439,1132
3117.996986869006,1139
3119.6990867213062,1126
3121.4008965534726,1197
3123.102416682717,1125
3124.803647426329,1147
3126.5045891016784,1164
3128.205242026213,1159
3129.90560651746,1188
3131.605682893025,1112
3133.3054714705922,1156
3135.0049725679282,1154
3136.7041865028714,1140
3138.4031135933465,1207
3140.101754157353,1159
3141.800108512971,1164
3143.498176978357,1134
3145.1959598717494,1138
3146.8934575114636,1163
3148.5906702158954,1109
3150.2875983035183,1110
3151.9842420928853,1154
3153.680601902627,1163
3155.376678051456,1134
3157.07247085816,1134
3158.767980641609,1127
3160.463207720748,1122
3162.158152414606,1105
3163.8528150422862,1153
3165.5471959229726,1149
3167.2412953759303,1143
3168.9351137204976,1139
3170.628651276098,1125
3172.3219083622307,1126
3174.014885298474,1090
3175.707582404485,1193
3177.4000000000005,1135
3179.092138404835,1163
3180.7839979388846,1117
3182.47557892212,1162
3184.166881674594,1138
3185.8579065164386,1118
3187.5486537678626,1123
3189.2391237491547,1146
3190.9293167806827,1117
3192.6192331828934,1127
3194.3088732763117,1145
3195.998237381542,1096
3197.687325819268,1131
3199.376138910251,1161
3201.064676975334,1131
3202.7529403354347,1123
3204.4409293115523,1118
3206.1286442247647,1148
3207.816085396229,1160
3209.5032531471825,1124
3211.190147798936,1138
3212.8767696728846,1130
3214.5631190905015,1075
3216.2491963733373,1105
3217.9350018430214,1099
3219.6205358212637,1145
3221.305798629851,1076
3222.990790590651,1088
3224.6755120256103,1161
3226.359963256751,1129
3228.0441446061795,1116
3229.7280563960758,1107
3231.411698948703,1137
3233.0950725863995,1128
3234.778177631587,1118
3236.461014406761,1112
3238.1435832345005,1125
3239.8258844374595,1165
3241.507918338374,1150
3243.1896852600576,1099
3244.8711855254023,1157
3246.552419457381,1145
3248.233387379042,1100
3249.914089613516,1121
3251.59452648401,1148
3253.274698313813,1164
3254.95460542629,1137
3256.6342481448855,1165
3258.313626793125,1119
3259.9927416946084,1113
3261.6715931730196,1128
3263.3501815521176,1117
3265.0285071557437,1095
3266.706570307815,1095
3268.3843713323286,1075
3270.0619105533615,1151
3271.739188295068,1099
3273.4162048816834,1139
3275.0929606375184,1130
3276.769455886966,1133
3278.445690954498,1151
3280.1216661646613,1103
3281.797381842087,1145
3283.4728383114807,1110
3285.1480358976296,1142
3286.8229749253996,1133
3288.4976557197333,1117
3290.172078605655,1137
3291.846243908266,1116
3293.5201519527463,1126
3295.193803064357,1127
3296.8671975684374,1078
3298.5403357904024,1140
3300.21321805575,1139
3301.8858446900567,1172
3303.558216018975,1114
3305.23033236824,1125
3306.9021940636603,1139
3308.57380143113,1187
3310.2451547966184,1140
3311.916254486174,1108
3313.5871008259246,1108
3315.2576941420766,1098
3316.9280347609147,1091
3318.5981230088046,1089
3320.2679592121895,1096
3321.9375436975924,1097
3323.606876791612,1115
3325.27595882093,1040
3326.944790112305,1154
3328.6133709925753,1137
3330.2817017886573,1145
3331.949782827547,1096
3333.617614436319,1119
3335.2851969421245,1159
3336.952530672199,1164
3338.619615953853,1180
3340.286453114475,1145
3341.9530424815357,1142
3343.619384382583,1135
3345.2854791452437,1194
3346.951327097224,1130
3348.6169285663073,1116
3350.2822838803577,1155
3351.947393367319,1090
3353.61225735521,1115
3355.2768761721345,1146
3356.9412501462693,1148
3358.605379605873,1156
3360.2692648792827,1086
3361.9329062949146,1119
3363.596304181263,1097
