CollectionTime,6/28/2024 1:37:04 PM
ExposureUsed,3
CalibratedSpectrum
-962.7078968117929,743
-959.9714848408522,777
-957.2358232597828,839
-954.5009119013725,761
-951.7667505983302,805
-949.0333391832855,781
-946.3006774887896,751
-943.5687653473143,765
-940.837602591253,793
-938.1071890529199,791
-935.3775245645503,812
-932.6486089583007,799
-929.9204420662485,786
-927.1930237203925,820
-924.4663537526524,814
-921.7404319948689,798
-919.0152582788041,815
-916.2908324361409,802
-913.5671542984834,820
-910.8442236973568,795
-908.1220404642074,802
-905.4006044304027,779
-902.679915427231,777
-899.959973285902,813
-897.2407778375464,809
-894.5223289132158,764
-891.8046263438832,777
-889.0876699604426,735
-886.3714595937089,719
-883.6559950744183,701
-880.9412762332282,771
-878.2273029007168,740
-875.5140749073835,750
-872.8015920836489,784
-870.0898542598545,712
-867.3788612662631,738
-864.6686129330585,752
-861.9591090903457,729
-859.2503495681506,721
-856.5423341964203,765
-853.8350628050229,748
-851.1285352237478,748
-848.4227512823054,772
-845.7177108103272,724
-843.0134136373656,738
-840.3098595928943,746
-837.6070485063082,776
-834.9049802069229,753
-832.2036545239757,779
-829.5030712866244,731
-826.8032303239481,771
-824.1041314649472,753
-821.4057745385428,767
-818.7081593735775,756
-816.0112857988148,710
-813.3151536429393,758
-810.6197627345566,749
-807.9251129021936,738
-805.2312039742981,754
-802.5380357792392,746
-799.8456081453069,763
-797.1539209007124,734
-794.462973873588,752
-791.772766891987,748
-789.083299783884,767
-786.3945723771743,700
-783.7065844996748,736
-781.0193359791231,761
-778.3328266431781,751
-775.6470563194197,793
-772.9620248353489,739
-770.2777320183878,707
-767.5941776958798,754
-764.9113616950891,745
-762.2292838432011,754
-759.5479439673222,697
-756.8673418944801,756
-754.1874774516235,750
-751.5083504656222,776
-748.8299607632671,798
-746.15230817127,808
-743.475392516264,730
-740.7992136248035,758
-738.1237713233636,793
-735.4490654383407,774
-732.7750957960521,790
-730.1018622227365,775
-727.4293645445534,783
-724.7576025875837,794
-722.0865761778291,786
-719.4162851412126,807
-716.7467293035781,792
-714.0779084906909,836
-711.409822528237,852
-708.7424712418238,808
-706.0758544569796,815
-703.4099719991541,814
-700.7448236937178,811
-698.0804093659622,814
-695.4167288411002,850
-692.7537819442656,846
-690.0915685005134,853
-687.4300883348199,791
-684.7693412720819,827
-682.1093271371178,889
-679.4500457546669,819
-676.7914969493897,849
-674.1336805458676,875
-671.4765963686034,862
-668.8202442420206,856
-666.1646239904642,911
-663.5097354382001,909
-660.8555784094151,876
-658.2021527282176,902
-655.5494582186366,914
-652.8974947046223,917
-650.2462620100463,930
-647.5957599587009,871
-644.9459883742998,921
-642.2969470804776,937
-639.6486359007902,981
-637.0010546587141,975
-634.3542031776476,897
-631.7080812809096,881
-629.0626887917401,883
-626.4180255333008,870
-623.7740913286734,854
-621.1308860008619,863
-618.4884093727904,885
-615.8466612673046,864
-613.2056415071715,888
-610.5653499150785,868
-607.9257863136347,866
-605.28695052537,880
-602.6488423727357,886
-600.0114616781036,870
-597.3748082637674,882
-594.7388819519412,895
-592.1036825647604,867
-589.4692099242818,903
-586.8354638524829,876
-584.2024441712624,875
-581.5701507024403,862
-578.9385832677575,908
-576.3077416888759,879
-573.6776257873787,887
-571.0482353847704,868
-568.4195703024757,868
-565.7916303618415,897
-563.164415384135,933
-560.5379251905453,890
-557.9121596021815,878
-555.2871184400748,871
-552.6628015251767,867
-550.0392086783606,900
-547.4163397204204,869
-544.794194472071,893
-542.1727727539491,887
-539.5520743866118,881
-536.9320991905377,932
-534.3128469861261,967
-531.6943175936979,921
-529.0765108334947,990
-526.4594265256793,1060
-523.8430644903358,1194
-521.2274245474689,1256
-518.612506517005,1353
-515.9983102187913,1421
-513.3848354725959,1534
-510.77208209810846,1593
-508.16004991493924,1673
-505.5487387426199,1820
-502.9381484006032,1800
-500.3282787082628,1925
-497.71912948489364,1863
-495.1107005497117,1743
-492.5029917218539,1643
-489.8960028203786,1394
-487.28973366426493,1245
-484.68418407241325,1214
-482.07935386364494,1053
-479.47524285670266,1077
-476.87185087025,1074
-474.2691777228715,1106
-471.66722323307334,1112
-469.0659872192821,1059
-466.4654694998459,1016
-463.86566989303384,1101
-461.26658821703614,1073
-458.66822428996414,1006
-456.07057792985,1075
-453.4736489546475,1039
-450.877437182231,1077
-448.28194243039627,1078
-445.68716451686,1017
-443.09310325926003,1063
-440.49975847515555,1037
-437.9071299820263,1024
-435.31521759727354,1108
-432.72402113821954,1057
-430.13354042210767,1079
-427.5437752661022,1059
-424.95472548728867,1107
-422.36639090267386,1085
-419.7787713291855,1055
-417.1918665836721,1069
-414.60567648290385,1099
-412.0202008435715,1105
-409.4354394822874,1125
-406.8513922155845,1091
-404.26805885991723,1069
-401.685439231661,1163
-399.103533147112,1089
-396.522340422488,1103
-393.9418608739278,1053
-391.3620943174908,1011
-388.7830405691583,1039
-386.2046994448317,975
-383.6270707603344,912
-381.05015433141045,828
-378.473949973725,803
-375.8984575028645,734
-373.32367673433623,697
-370.74960748356875,674
-368.1762495659117,630
-365.60360279663576,594
-363.03166699093265,510
-360.4604419639154,489
-357.8899275306178,483
-355.32012350599507,490
-352.7510297049233,479
-350.1826459421999,470
-347.61497203254316,460
-345.04800779059235,445
-342.4817530309082,453
-339.91620756797226,446
-337.35137121618743,444
-334.7872437898774,452
-332.22382510328725,469
-329.66111497058273,457
-327.09911320585127,469
-324.53781962310075,497
-321.9772340362607,476
-319.4173562591816,460
-316.8581861056348,476
-314.2997233893127,497
-311.7419679238294,554
-309.1849195227194,493
-306.62857799943856,443
-304.0729431673641,488
-301.51801483979375,467
-298.963792829947,474
-296.41027695096386,497
-293.85746701590574,471
-291.3053628377552,542
-288.7539642294155,534
-286.2032710037115,533
-283.65328297338897,489
-281.1039999511146,493
-278.5554217494762,504
-276.007548180983,564
-273.4603790580651,542
-270.9139141930734,539
-268.3681533982807,575
-265.8230964858798,593
-263.27874326798565,589
-260.7350935566336,625
-258.1921471637804,626
-255.6499039013039,614
-253.10836358100266,590
-250.56752601459698,634
-248.02739101372765,678
-245.48795838995704,740
-242.94922795476816,695
-240.41119951956557,658
-237.8738728956746,643
-235.33724789434166,694
-232.80132432673452,743
-230.2661020039418,751
-227.73158073697357,640
-225.19776033676033,614
-222.66464061415422,664
-220.1322213799284,695
-217.60050244477725,622
-215.06948361931552,621
-212.53916471408013,644
-210.00954553952818,636
-207.48062590603843,709
-204.9524056239104,790
-202.4248845033651,726
-199.8980623545441,653
-197.37193898751036,577
-194.84651421224817,639
-192.32178783866232,662
-189.79775967657952,680
-187.27442953574644,691
-184.7517972258321,704
-182.2298625564256,740
-179.7086253370378,676
-177.18808537710026,638
-174.66824248596583,718
-172.14909647290835,744
-169.6306471471229,730
-167.11289431772548,697
-164.59583779375328,646
-162.07947738416453,705
-159.5638128978386,760
-157.04884414357605,791
-154.53457093009854,861
-152.02099306604828,813
-149.50811035998936,734
-146.99592262040665,725
-144.48442965570587,781
-141.97363127421409,782
-139.46352728417958,776
-136.95411749377126,793
-134.44540171107985,902
-131.93737974411636,874
-129.43005140081357,846
-126.92341648902493,920
-124.41747481652521,912
-121.91222619101006,886
-119.40767042009657,855
-116.90380731132257,983
-114.40063667214702,865
-111.8981583099503,872
-109.3963720320337,1039
-106.89527764561933,1119
-104.39487495785067,1193
-101.89516377579241,1108
-99.39614390642998,1144
-96.89781515667039,1143
-94.40017733334128,1315
-91.90323024319173,1337
-89.40697369289148,1220
-86.91140748903172,1222
-84.41653143812482,1285
-81.92234534660395,1381
-79.42884902082358,1590
-76.93604226705907,1729
-74.4439248915071,1430
-71.95249670028534,1360
-69.46175749943245,1451
-66.97170709490854,1933
-64.48234529259423,2061
-61.99367189829195,1611
-59.50568671772464,1574
-57.01838955653636,1787
-54.53178022029283,2150
-52.045858514480074,2269
-49.560624244506016,2325
-47.07607721569923,2338
-44.59221723330904,2407
-42.10904410250669,2352
-39.62655762838392,2826
-37.14475761595372,3612
-34.66364387015028,4114
-32.18321619582866,4459
-29.70347439776515,5130
-27.224418280657005,6547
-24.74604764912317,10277
-22.26836230770266,18077
-19.7913620608565,29414
-17.315046712966478,37238
-14.83941606833514,38854
-12.36446993118659,65029
-9.89020810566592,65029
-7.416630395839093,65029
-4.94373660569363,65029
-2.471526539137585,65029
-6.821210263296962E-13,65029
2.47084320796705,65029
4.941003281093458,65029
7.410480415786196,65029
9.879274808531363,65029
12.347386655893956,65029
14.814816154518212,65029
17.28156350112681,65029
19.74762889252179,65029
22.21301252558385,34344
24.67771459727237,12108
27.141735304626195,7535
29.605074844762612,5901
32.06773341487792,5727
34.52971121224755,5890
36.99100843422559,4756
39.45162527824516,4927
41.91156194181792,6218
44.370818622535126,9101
46.82939551806646,11356
49.287292826160524,12298
51.74451074464503,12525
54.201049471426245,9526
56.65690920448981,5974
59.112090141899785,4180
61.56659248179983,3784
64.02041642241159,2958
66.4735621620365,2239
68.92602989905402,1799
71.37781983192338,1698
73.82893215918205,1492
76.27936707944684,1625
78.72912479141326,1720
81.17820549385567,1856
83.62660938562783,1518
86.07433666566146,1493
88.5213875329681,1539
90.96776218663751,1388
93.41346082583925,1267
95.85848364982041,1297
98.30283085790859,1330
100.7465026495089,1168
103.18949922410604,1291
105.63182078126385,1357
108.07346752062438,1369
110.51443964190923,1152
112.95473734491827,1029
115.39436082953114,987
117.83331029570547,1150
120.27158594347827,1271
122.7091879729652,1017
125.1461165843615,989
127.58237197794062,987
130.01795435405518,1026
132.4528639131364,1086
134.88710085569494,993
137.32066538231982,967
139.75355769367923,926
142.1857779905207,1028
144.61732647366978,1101
147.04820334403132,1163
149.47840880258934,1210
151.90794305040674,1374
154.33680628862487,1386
156.76499871846443,1477
159.19252054122433,1534
161.61937195828352,1593
164.04555317109896,1761
166.47106438120693,1900
168.89590579022217,2101
171.320077599839,2304
173.7435800118302,2372
176.16641322804742,2338
178.58857745042144,2522
181.01007288096173,2607
183.43089972175687,2722
185.85105817497413,2698
188.27054844285988,2593
190.6893707277394,2618
193.10752523201643,2669
195.5250121581745,2767
197.9418317087751,2741
200.3579840864594,2776
202.7734694939469,2769
205.18828813403627,2714
207.6024402096051,2867
210.01592592360964,2755
212.42874547908548,2862
214.84089907914665,2799
217.2523869269868,2817
219.66320922587727,2889
222.0733661791695,2831
224.48285799029293,2990
226.8916848627572,3039
229.29984700014882,3050
231.7073446061355,3079
234.11417788446204,3241
236.520347038953,3350
238.92585227351185,3502
241.33069379212054,3745
243.73487179884035,3800
246.1383864978112,3765
248.541238093252,3948
250.9434267894609,3921
253.34495279081432,3886
255.74581630176783,4079
258.1460175268563,4300
260.54555667069314,4301
262.9444339379703,4256
265.3426495334594,4117
267.7402036620107,3946
270.1370965285529,3560
272.53332833809407,3269
274.9288992957214,3233
277.32380960660055,3150
279.718059475976,3021
282.1116491091717,2924
284.5045787115897,2847
286.89684848871195,2902
289.2884586460981,2884
291.67940938938807,2793
294.0697009242996,2713
296.4593334566299,2746
298.84830719225477,2797
301.23662233712923,2693
303.6242790972866,2737
306.01127767884,2575
308.39761828798066,2689
310.78330113097934,2528
313.16832641418534,2583
315.5526943440269,2416
317.9364051270112,2418
320.3194589697242,2316
322.70185607883093,2422
325.0835966610754,2267
327.4646809232805,2307
329.8451090723478,2289
332.2248813152577,2239
334.6039978590701,2322
336.9824589109231,2233
339.36026467803447,2280
341.7374153677,2202
344.113911187295,2175
346.48975234427337,2211
348.8649390461686,2102
351.2394715005918,2179
353.61334991523415,2085
355.9865744978655,2141
358.35914545633375,2200
360.73106299856715,2114
363.10232733257146,2114
365.47293866643247,2207
367.84289720831396,2112
370.2122031664593,2070
372.5808567491905,2081
374.9488581649083,2097
377.31620762209275,2112
379.6829053293021,2045
382.0489514951745,2019
384.4143463284262,1982
386.7790900378528,2038
389.14318283232853,1961
391.50662492080653,2010
393.86941651231916,1988
396.23155781597745,2027
398.5930490409713,1998
400.9538903965696,1954
403.3140820921202,1915
405.6736243370498,1924
408.03251734086336,1930
410.3907613131465,1979
412.74835646356166,2013
415.10530300185144,1958
417.4616011378372,1975
419.81725108141893,1994
422.1722530425758,1980
424.5266072313656,1984
426.880313857925,1966
429.2333731324701,1978
431.58578526529516,1974
433.9375504667738,1934
436.2886689473588,1902
438.63914091758113,1923
440.9889665880513,1992
443.33814616945835,1941
445.68667987257015,1896
448.03456790823395,1877
450.3818104873759,1898
452.72840782100013,1910
455.07436012019105,1861
457.41966759611057,1869
459.7643304600007,1946
462.10834892318155,1894
464.4517231970525,1969
466.79445349309174,1989
469.1365400228566,1939
471.4779829979826,1941
473.81878263018564,1992
476.15893913125876,1999
478.4984527130747,2050
480.8373235875855,1956
483.17555196682144,2041
485.5131380628919,2028
487.8500820879857,2079
490.1863842543697,2147
492.52204477439034,2196
494.8570638604725,2452
497.1914417251204,2760
499.52517858091653,2951
501.85827464052306,3089
504.19073011668036,3260
506.5225452222086,3331
508.85372017000566,3437
511.18425517304956,3394
513.514150444396,3388
515.8434061971808,3748
518.1720226446176,4062
520.4999999999999,4287
522.8273384766991,4491
525.1540382881666,4436
527.480099647932,4322
529.8055227696037,3389
532.1303078668694,2498
534.454455153496,2120
536.777964843328,1961
539.1008371502907,1992
541.4230722883866,1842
543.744670471698,1839
546.0656319143858,1801
548.3859568306899,1857
550.7056454349294,1773
553.0246979415016,1763
555.3431145648834,1773
557.6608955196306,1797
559.978041020377,1706
562.2945512818363,1769
564.6104265188006,1746
566.9256669461412,1680
569.2402727788082,1786
571.5542442318302,1737
573.8675815203156,1733
576.1802848594508,1723
578.4923544645015,1711
580.8037905508126,1730
583.114593333807,1693
585.4247630289875,1709
587.7342998519354,1733
590.0432040183106,1718
592.3514757438526,1820
594.6591152443794,1736
596.9661227357875,1723
599.2724984340531,1732
601.578242555231,1747
603.8833553154542,1756
606.1878369309362,1786
608.4916876179676,1769
610.7949075929192,1776
613.0974970722403,1774
615.3994562724587,1820
617.7007854101818,1762
620.0014847020951,1746
622.3015543649641,1789
624.6009946156324,1851
626.8998056710224,1774
629.1979877481361,1787
631.4955410640538,1846
633.7924658359349,1836
636.0887622810175,1862
638.3844306166192,1930
640.6794710601358,1813
642.9738838290426,1809
645.2676691408932,1827
647.5608272133207,1878
649.853358264037,1862
652.1452625108324,1849
654.4365401715764,1898
656.7271914642178,1910
659.0172166067838,1961
661.3066158173809,1949
663.5953893141935,1856
665.8835373154867,1934
668.1710600396028,1877
670.4579577049639,1885
672.7442305300709,1890
675.0298787335033,1908
677.3149025339197,1943
679.599302150058,2004
681.8830778007342,1913
684.1662297048437,1883
686.4487580813608,1833
688.7306631493387,1898
691.0119451279091,1882
693.2926042362834,1977
695.5726406937516,1921
697.8520547196814,1896
700.1308465335215,1925
702.4090163547982,1912
704.6865644031171,1870
706.9634908981619,1878
709.2397960596965,1883
711.5154801075631,1934
713.7905432616823,1806
716.0649857420548,1847
718.3388077687592,1828
720.612009561953,1857
722.8845913418733,1848
725.1565533288352,1872
727.427895743234,1771
729.6986188055427,1866
731.9687227363137,1803
734.238207756178,1802
736.5070740858458,1820
738.7753219461066,1854
741.0429515578281,1788
743.3099631419569,1800
745.5763569195191,1819
747.8421331116193,1796
750.1072919394409,1801
752.3718336242467,1825
754.6357583873777,1852
756.8990664502545,1800
759.1617580343765,1725
761.423833361321,1845
763.6852926527457,1782
765.9461361303862,1804
768.206364016058,1832
770.4659765316536,1816
772.7249738991469,1808
774.9833563405886,1811
777.2411240781092,1865
779.4982773339183,1831
781.7548163303044,1816
784.010741289634,1827
786.2660524343538,1925
788.5207499869881,1861
790.7748341701416,1854
793.0283052064964,1848
795.2811633188143,1832
797.5334087299362,1865
799.7850416627813,1812
802.0360623403484,1849
804.2864709857143,1873
806.5362678220353,1867
808.7854530725468,1864
811.0340269605625,1868
813.2819897094754,1873
815.5293415427581,1834
817.77608268396,1861
820.0222133567116,1964
822.2677337847211,1798
824.5126441917765,1816
826.7569448017433,1819
829.0006358385675,1806
831.2437175262731,1870
833.4861900889629,1817
835.7280537508192,1884
837.9693087361026,1798
840.2099552691533,1811
842.4499935743896,1880
844.689423876309,1856
846.9282463994886,1854
849.1664613685833,1885
851.4040690083276,1961
853.6410695435349,1812
855.877463199097,1910
858.1132501999847,1844
860.3484307712487,1870
862.5830051380175,1834
864.8169735254988,1935
867.0503361589791,1911
869.2830932638243,1800
871.5152450654786,1921
873.7467917894654,1916
875.9777336613873,1965
878.2080709069252,1815
880.4378037518389,1945
882.666932421968,1959
884.8954571432301,1897
887.1233781416219,1867
889.3506956432192,1812
891.5774098741766,1862
893.803521060728,1903
896.0290294291852,1923
898.2539352059397,1932
900.4782386174619,1916
902.7019398903011,1942
904.925039251085,1880
907.147536926521,1874
909.3694331433943,1930
911.59072812857,1904
913.8114221089921,1973
916.0315153116827,1926
918.2510079637437,1902
920.4699002923547,1878
922.6881925247761,1878
924.905884888345,1935
927.1229776104793,1913
929.3394709186747,1947
931.555365040506,1897
933.7706602036275,1902
935.9853566357709,1912
938.1994545647489,1879
940.4129542184515,1952
942.6258558248488,1891
944.8381596119883,1942
947.0498658079974,1986
949.2609746410825,1924
951.4714863395287,1876
953.6814011316998,1982
955.8907192460387,1854
958.0994409110671,1905
960.3075663553858,1961
962.5150958076741,1840
964.7220294966913,1952
966.928367651274,1806
969.1341105003388,1837
971.3392582728806,1879
973.5438111979742,1837
975.747769504772,1857
977.9511334225061,1833
980.153903180487,1834
982.3560790081052,1787
984.5576611348289,1800
986.7586497902058,1811
988.9590452038618,1797
991.158847605503,1805
993.3580572249133,1680
995.5566742919558,1646
997.7546990365728,1673
999.952131688785,1634
1002.1489724786926,1609
1004.3452216364743,1640
1006.5408793923874,1668
1008.7359459767691,1628
1010.9304216200343,1629
1013.1243065526781,1649
1015.3176010052733,1592
1017.510305208472,1606
1019.7024193930064,1622
1021.8939437896848,1628
1024.0848786293977,1603
1026.2752241431122,1593
1028.4649805618747,1609
1030.6541481168115,1585
1032.842727039127,1573
1035.0307175601051,1517
1037.2181199111074,1528
1039.4049343235752,1555
1041.591161029029,1503
1043.7768002590683,1612
1045.9618522453698,1546
1048.1463172196918,1550
1050.3301954138697,1534
1052.513487059818,1563
1054.69619238953,1574
1056.8783116350783,1489
1059.0598450286152,1528
1061.2407928023704,1499
1063.4211551886528,1489
1065.6009324198508,1498
1067.780124728432,1503
1069.9587323469414,1530
1072.1367555080046,1502
1074.314194444325,1459
1076.4910493886855,1470
1078.667320573947,1485
1080.843008233051,1473
1083.0181125990161,1473
1085.1926339049414,1450
1087.3665723840027,1477
1089.5399282694575,1445
1091.7127017946405,1457
1093.8848931929647,1422
1096.0565026979243,1396
1098.2275305430899,1438
1100.3979769621128,1471
1102.567842188722,1445
1104.737126456726,1461
1106.9058300000124,1430
1109.0739530525475,1427
1111.2414958483764,1439
1113.4084586216231,1495
1115.5748416064907,1407
1117.7406450372605,1443
1119.9058691482942,1397
1122.0705141740304,1422
1124.2345803489884,1431
1126.3980679077658,1371
1128.5609770850388,1432
1130.7233081155623,1359
1132.8850612341707,1336
1135.0462366757774,1368
1137.2068346753745,1337
1139.3668554680326,1419
1141.526299288901,1402
1143.68516637321,1425
1145.8434569562655,1458
1148.001171273455,1441
1150.158309560244,1384
1152.3148720521767,1371
1154.470858984876,1415
1156.626270594044,1384
1158.7811071154629,1379
1160.9353687849912,1388
1163.089055838569,1395
1165.242168512213,1383
1167.3947070420209,1427
1169.5466716641677,1399
1171.6980626149075,1403
1173.8488801305748,1390
1175.9991244475814,1344
1178.1487958024186,1318
1180.2978944316555,1368
1182.4464205719428,1330
1184.5943744600072,1411
1186.7417563326567,1396
1188.8885664267755,1329
1191.0348049793297,1365
1193.1804722273619,1426
1195.325568407995,1404
1197.4700937584303,1349
1199.614048515948,1380
1201.7574329179074,1357
1203.900247201746,1420
1206.042491604982,1429
1208.1841663652099,1342
1210.3252717201053,1432
1212.465807907422,1485
1214.6057751649923,1412
1216.7451737307279,1367
1218.8840038426192,1425
1221.0222657387353,1399
1223.1599596572241,1431
1225.2970858363137,1435
1227.4336445143094,1383
1229.5696359295966,1429
1231.705060320639,1409
1233.8399179259786,1448
1235.9742089842384,1448
1238.107933734118,1389
1240.2410924143974,1436
1242.373685263935,1444
1244.5057125216676,1411
1246.6371744266116,1435
1248.7680712178621,1467
1250.898403134593,1459
1253.028170416058,1461
1255.1573733015875,1490
1257.2860120305932,1488
1259.4140868425648,1444
1261.54159797707,1501
1263.6685456737569,1469
1265.7949301723515,1468
1267.9207517126597,1541
1270.046010534565,1482
1272.1707068780306,1504
1274.2948409830983,1529
1276.4184130898889,1505
1278.541423438603,1512
1280.6638722695184,1494
1282.785759822993,1520
1284.9070863394636,1540
1287.0278520594447,1545
1289.1480572235314,1511
1291.2677020723963,1565
1293.3867868467923,1512
1295.5053117875495,1506
1297.623277135579,1551
1299.740683131868,1657
1301.8575300174857,1616
1303.973818033578,1550
1306.0895474213703,1596
1308.2047184221678,1594
1310.3193312773528,1622
1312.4333862283888,1607
1314.5468835168163,1611
1316.659823384255,1593
1318.7722060724045,1574
1320.8840318230418,1619
1322.9953008780249,1625
1325.1060134792888,1625
1327.2161698688478,1622
1329.3257702887959,1684
1331.4348149813054,1595
1333.5433041886276,1588
1335.6512381530933,1641
1337.7586171171101,1569
1339.8654413231675,1585
1341.9717110138317,1560
1344.0774264317488,1576
1346.1825878196432,1582
1348.2871954203192,1586
1350.3912494766587,1608
1352.4947502316231,1578
1354.5976979282532,1565
1356.7000928096686,1591
1358.8019351190665,1631
1360.9032250997243,1561
1363.0039629949988,1559
1365.1041490483235,1500
1367.2037835032133,1596
1369.3028666032606,1611
1371.401398592137,1632
1373.4993797135926,1574
1375.5968102114575,1595
1377.6936903296396,1607
1379.7900203121262,1588
1381.8858004029835,1628
1383.9810308463561,1630
1386.075711886469,1613
1388.1698437676241,1708
1390.2634267342032,1604
1392.356461030667,1632
1394.4489469015557,1712
1396.5408845914872,1638
1398.6322743451592,1674
1400.7231164073469,1654
1402.813411022907,1708
1404.903158436773,1624
1406.9923588939578,1661
1409.0810126395531,1739
1411.1691199187303,1742
1413.2566809767386,1795
1415.343696058907,1754
1417.4301654106425,1764
1419.5160892774315,1773
1421.6014679048399,1748
1423.6863015385125,1840
1425.7705904241707,1790
1427.8543348076178,1822
1429.9375349347342,1897
1432.0201910514802,1872
1434.102303403894,1878
1436.1838722380944,1947
1438.2648978002767,1988
1440.3453803367174,1987
1442.4253200937692,2078
1444.5047173178677,2139
1446.5835722555234,2154
1448.6618851533285,2110
1450.739656257952,2181
1452.8168858161434,2168
1454.8935740747306,2181
1456.96972128062,2219
1459.045327680797,2343
1461.120393522327,2366
1463.1949190523528,2374
1465.2689045180973,2428
1467.3423501668608,2537
1469.415256246024,2611
1471.4876230030463,2653
1473.559450685465,2686
1475.6307395408976,2657
1477.7014898170391,2680
1479.771701761665,2722
1481.8413756226287,2785
1483.9105116478618,2772
1485.9791100853772,2943
1488.0471711832643,2927
1490.1146951896926,3012
1492.1816823529098,3008
1494.2481329212433,3004
1496.3140471430984,3056
1498.3794252669609,3109
1500.4442675413939,3174
1502.5085742150404,3245
1504.572345536622,3197
1506.6355817549388,3119
1508.6982831188702,3265
1510.7604498773744,3200
1512.8220822794883,3324
1514.8831805743293,3186
1516.9437450110909,3172
1519.003775839048,3234
1521.0632733075522,3325
1523.1222376660367,3367
1525.1806691640113,3283
1527.2385680510652,3341
1529.2959345768668,3388
1531.3527689911643,3400
1533.4090715437833,3318
1535.4648424846291,3320
1537.5200820636855,3466
1539.5747905310159,3411
1541.6289681367616,3479
1543.6826151311434,3464
1545.7357317644614,3532
1547.7883182870937,3601
1549.8403749494987,3614
1551.8919020022113,3702
1553.9428996958477,3812
1555.9933682811015,3922
1558.0433080087469,3920
1560.0927191296346,3939
1562.1416018946961,3951
1564.1899565549415,3994
1566.2377833614592,4233
1568.2850825654164,4014
1570.3318544180606,3982
1572.3780991707158,3949
1574.423817074788,3757
1576.4690083817595,3622
1578.5136733431923,3544
1580.5578122107272,3295
1582.601425236085,3237
1584.6445126710646,3167
1586.6870747675434,2977
1588.7291117774776,2698
1590.7706239529034,2715
1592.8116115459347,2596
1594.8520748087658,2424
1596.8920139936686,2313
1598.9314293529933,2252
1600.9703211391711,2261
1603.008689604711,2051
1605.0465350022005,2103
1607.0838575843068,2037
1609.1206576037753,1988
1611.1569353134305,1945
1613.1926909661765,1913
1615.2279248149953,1818
1617.2626371129481,1805
1619.2968281131757,1793
1621.3304980688963,1812
1623.3636472334088,1707
1625.39627586009,1708
1627.428384202396,1680
1629.459972513861,1649
1631.4910410480993,1595
1633.5215900588028,1670
1635.551619799744,1592
1637.5811305247717,1584
1639.6101224878166,1590
1641.6385959428862,1562
1643.6665511440683,1579
1645.693988345528,1496
1647.7209078015112,1511
1649.7473097663405,1498
1651.7731944944203,1491
1653.7985622402307,1491
1655.823413258333,1541
1657.847747803366,1479
1659.8715661300494,1494
1661.8948684931793,1535
1663.9176551476316,1515
1665.9399263483624,1481
1667.9616823504057,1467
1669.982923408873,1489
1672.0036497789574,1480
1674.0238617159293,1516
1676.043559475138,1492
1678.0627433120121,1417
1680.081413482059,1472
1682.0995702408654,1428
1684.117213844096,1479
1686.134344547495,1414
1688.1509626068864,1397
1690.1670682781705,1527
1692.182661817329,1472
1694.1977434804217,1412
1696.2123135235875,1432
1698.226372203043,1430
1700.2399197750851,1459
1702.2529564960905,1452
1704.2654826225112,1472
1706.277498410882,1525
1708.2890041178139,1467
1710.2999999999988,1440
1712.3104863142066,1434
1714.3204633172854,1416
1716.329931266163,1413
1718.3388904178469,1469
1720.3473410294214,1419
1722.3552833580516,1326
1724.3627176609807,1405
1726.3696441955308,1365
1728.3760632191033,1393
1730.3819749891782,1389
1732.3873797633146,1453
1734.3922777991502,1325
1736.3966693544012,1366
1738.4005546868639,1372
1740.4039340544127,1357
1742.406807715001,1385
1744.4091759266616,1355
1746.4110389475054,1396
1748.4123970357223,1371
1750.413250449582,1308
1752.4135994474318,1345
1754.4134442876993,1335
1756.4127852288902,1317
1758.4116225295893,1294
1760.4099564484595,1263
1762.407787244244,1246
1764.405115175764,1251
1766.4019405019203,1303
1768.3982634816916,1258
1770.3940843741357,1285
1772.3894034383907,1281
1774.3842209336717,1293
1776.378537119274,1284
1778.372352254571,1314
1780.3656665990156,1291
1782.3584804121397,1276
1784.3507939535534,1250
1786.3426074829463,1225
1788.3339212600863,1324
1790.3247355448211,1267
1792.3150505970766,1298
1794.3048666768573,1275
1796.2941840442477,1265
1798.2830029594106,1176
1800.2713236825884,1255
1802.2591464741004,1266
1804.2464715943465,1235
1806.2332993038058,1206
1808.2196298630352,1220
1810.2054635326708,1303
1812.190800573428,1209
1814.175641246101,1193
1816.1599858115628,1209
1818.1438345307652,1206
1820.127187664738,1185
1822.1100454745924,1244
1824.092408221516,1231
1826.0742761667766,1226
1828.055649571721,1216
1830.0365286977735,1218
1832.0169138064398,1169
1833.9968051593014,1210
1835.9762030180214,1175
1837.9551076443408,1211
1839.9335193000788,1193
1841.9114382471344,1206
1843.888864747485,1189
1845.8657990631878,1201
1847.842241456378,1197
1849.8181921892697,1204
1851.7936515241558,1164
1853.7686197234098,1266
1855.7430970494815,1214
1857.7170837649014,1201
1859.6905801322787,1187
1861.6635864143004,1236
1863.6361028737338,1219
1865.608129773424,1210
1867.5796673762961,1173
1869.5507159453537,1275
1871.521275743678,1215
1873.4913470344313,1241
1875.4609300808534,1201
1877.4300251462632,1256
1879.3986324940588,1256
1881.366752387717,1218
1883.3343850907936,1281
1885.3015308669228,1247
1887.268189979819,1287
1889.2343626932739,1305
1891.2000492711595,1257
1893.1652499774254,1231
1895.1299650761011,1338
1897.0941948312952,1278
1899.0579395071945,1220
1901.0211993680641,1245
1902.98397467825,1266
1904.9462657021745,1276
1906.9080727043415,1266
1908.869395949332,1293
1910.8302357018065,1248
1912.790592226504,1290
1914.7504657882428,1189
1916.7098566519212,1283
1918.6687650825133,1309
1920.6271913450764,1292
1922.5851357047422,1294
1924.5425984267245,1247
1926.499579776314,1247
1928.4560800188833,1253
1930.4120994198802,1248
1932.367638244833,1239
1934.32269675935,1167
1936.2772752291175,1249
1938.231373919899,1287
1940.1849930975404,1281
1942.1381330279637,1280
1944.0907939771696,1260
1946.0429762112412,1243
1947.9946799963363,1240
1949.9459055986945,1186
1951.896653284633,1210
1953.8469233205478,1253
1955.7967159729142,1220
1957.7460315082863,1236
1959.6948701932974,1202
1961.6432322946594,1232
1963.5911180791632,1189
1965.5385278136787,1216
1967.4854617651545,1223
1969.4319202006182,1228
1971.377903387176,1214
1973.3234115920136,1261
1975.268445082395,1203
1977.2130041256642,1226
1979.1570889892423,1225
1981.1006999406304,1219
1983.04383724741,1141
1984.986501177238,1201
1986.928691997853,1179
1988.8704099770712,1190
1990.811655382789,1175
1992.7524284829801,1207
1994.692729545698,1178
1996.6325588390755,1173
1998.5719166313224,1174
2000.5108031907307,1216
2002.4492187856677,1136
2004.387163684583,1169
2006.3246381560011,1156
2008.2616424685298,1101
2010.1981768908527,1166
2012.1342416917332,1167
2014.069837140014,1220
2016.0049635046162,1124
2017.9396210545406,1195
2019.8738100588666,1142
2021.8075307867502,1189
2023.740783507431,1171
2025.6735684902228,1184
2027.6058860045214,1165
2029.5377363198004,1179
2031.4691197056118,1208
2033.4000364315875,1148
2035.3304867674374,1142
2037.260470982952,1140
2039.189989347998,1129
2041.1190421325232,1088
2043.047629606554,1118
2044.9757520401945,1158
2046.9034097036288,1126
2048.8306028671195,1212
2050.7573318010086,1167
2052.683596775716,1151
2054.609398061742,1159
2056.5347359296647,1125
2058.4596106501403,1129
2060.384022493906,1174
2062.3079717317764,1166
2064.231458634646,1139
2066.1544834734873,1098
2068.077046519352,1177
2069.99914804337,1152
2071.9207883167524,1121
2073.8419676107865,1162
2075.7626861968406,1122
2077.6829443463607,1140
2079.6027423308715,1164
2081.522080421977,1141
2083.440958891362,1129
2085.359378010786,1127
2087.2773380520907,1140
2089.194839287196,1133
2091.111881988101,1130
2093.0284664268825,1133
2094.9445928756973,1151
2096.86026160678,1091
2098.775472892446,1153
2100.690227005088,1142
2102.604524217178,1117
2104.5183648012676,1150
2106.431749029985,1149
2108.34467717604,1145
2110.2571495122206,1127
2112.169166311393,1139
2114.080727846503,1170
2115.9918343905747,1171
2117.902486216711,1125
2119.8126835980956,1157
2121.722426807987,1171
2123.6317161197285,1133
2125.5405518067364,1106
2127.448934142509,1100
2129.356863400624,1157
2131.264339854737,1123
2133.1713637785815,1138
2135.077935445972,1160
2136.9840551308002,1129
2138.889723107037,1122
2140.7949396487334,1083
2142.699705030018,1138
2144.6040195250994,1153
2146.507883408264,1158
2148.4112969538774,1170
2150.3142604363848,1132
2152.2167741303097,1114
2154.1188383102535,1143
2156.0204532508997,1176
2157.9216192270064,1171
2159.822336513414,1163
2161.7226053850413,1184
2163.622426116884,1175
2165.5217989840185,1171
2167.4207242616,1133
2169.319202224862,1137
2171.2172331491165,1178
2173.1148173097563,1165
2175.0119549822507,1138
2176.90864644215,1183
2178.8048919650823,1167
2180.7006918267534,1087
2182.596046302952,1137
2184.4909556695407,1141
2186.3854202024645,1159
2188.279440177746,1160
2190.173015871487,1162
2192.066147559868,1141
2193.958835519149,1102
2195.851080025667,1135
2197.7428813558417,1181
2199.6342397861667,1170
2201.5251555932186,1138
2203.415629053651,1105
2205.3056604441986,1140
2207.19525004167,1201
2209.084398122958,1157
2210.9731049650327,1141
2212.861370844941,1194
2214.749196039812,1190
2216.636580826851,1184
2218.523525483344,1134
2220.410030286655,1180
2222.296095514226,1144
2224.1817214435805,1178
2226.066908352319,1167
2227.951656518121,1146
2229.835966218746,1134
2231.71983773203,1198
2233.6032713358913,1178
2235.486267308324,1174
2237.3688259274036,1146
2239.2509474712824,1151
2241.132632218193,1189
2243.013880446447,1137
2244.8946924344323,1137
2246.7750684606203,1160
2248.6550088035574,1116
2250.534513741871,1117
2252.413583554265,1157
2254.292218519526,1187
2256.170418916517,1178
2258.0481850241786,1159
2259.925517121534,1113
2261.8024154876825,1131
2263.678880401803,1146
2265.5549121431536,1117
2267.430510991071,1160
2269.305677224971,1142
2271.180411124348,1109
2273.0547129687766,1162
2274.9285830379076,1177
2276.8020216114737,1135
2278.6750289692845,1116
2280.5476053912294,1140
2282.4197511572766,1147
2284.2914665474727,1197
2286.162751841943,1140
2288.0336073208937,1218
2289.904033264608,1154
2291.774029953448,1154
2293.6435976678554,1149
2295.5127366883517,1162
2297.381447295534,1160
2299.2497297700825,1187
2301.1175843927526,1126
2302.9850114443825,1152
2304.852011205885,1134
2306.7185839582553,1152
2308.5847299825664,1149
2310.4504495599676,1197
2312.3157429716925,1147
2314.1806104990483,1222
2316.0450524234247,1162
2317.9090690262888,1139
2319.772660589186,1127
2321.635827393742,1145
2323.498569721661,1207
2325.3608878547248,1212
2327.2227820747967,1166
2329.0842526638157,1198
2330.945299903803,1198
2332.805924076857,1164
2334.6661254651535,1177
2336.525904350951,1205
2338.3852610165827,1161
2340.244195744464,1183
2342.102708817088,1194
2343.9608005170253,1188
2345.8184711269287,1170
2347.675720929526,1124
2349.532550207628,1212
2351.38895924412,1173
2353.24494832197,1201
2355.100517724223,1201
2356.955667734004,1192
2358.810398634514,1216
2360.664710709037,1187
2362.5186042409337,1165
2364.3720795136437,1217
2366.225136810686,1196
2368.0777764156583,1222
2369.929998612237,1176
2371.7818036841777,1217
2373.633191915315,1196
2375.484163589562,1166
2377.3347189909114,1177
2379.184858403434,1255
2381.03458211128,1237
2382.8838903986775,1267
2384.732783549936,1190
2386.5812618494406,1210
2388.4293255816588,1205
2390.2769750311327,1211
2392.1242104824883,1272
2393.971032220427,1262
2395.8174405297295,1209
2397.6634356952563,1205
2399.509018001947,1194
2401.3541877348193,1275
2403.1989451789705,1251
2405.043290619576,1254
2406.8872243418905,1231
2408.730746631247,1258
2410.5738577730594,1273
2412.4165580528183,1206
2414.258847756095,1280
2416.100727168537,1226
2417.9421965758734,1237
2419.783256263912,1272
2421.623906518538,1219
2423.4641476257157,1222
2425.303979871491,1304
2427.143403541984,1268
2428.9824189233977,1257
2430.821026302012,1259
2432.6592259641866,1265
2434.497018196361,1225
2436.33440328505,1195
2438.171381516851,1292
2440.00795317844,1196
2441.844118556569,1286
2443.6798779380724,1256
2445.5152316098606,1269
2447.3501798589255,1207
2449.1847229723357,1272
2451.0188612372403,1234
2452.8525949408663,1238
2454.6859243705203,1221
2456.518849813587,1246
2458.3513715575314,1245
2460.183489889895,1261
2462.015205098301,1206
2463.8465174704493,1277
2465.67742729412,1216
2467.5079348571717,1293
2469.338040447542,1260
2471.1677443532476,1229
2472.9970468623833,1228
2474.825948263123,1262
2476.6544488437207,1237
2478.482548892508,1286
2480.310248697896,1263
2482.137548548374,1262
2483.9644487325118,1278
2485.790949538956,1242
2487.617051256433,1256
2489.44275417375,1326
2491.26805857979,1271
2493.0929647635157,1293
2494.917473013971,1291
2496.741583620276,1376
2498.5652968716304,1321
2500.3886130573137,1356
2502.2115324666834,1284
2504.0340553891765,1277
2505.856182114308,1312
2507.6779129316733,1345
2509.499248130945,1347
2511.3201880018764,1345
2513.140732834298,1317
2514.9608829181198,1303
2516.780638543331,1396
2518.6,1296
2520.418967578273,1302
2522.237541568376,1341
2524.0557222606144,1340
2525.8735099453706,1325
2527.6909049131086,1401
2529.507907454368,1360
2531.32451785977,1426
2533.140736420014,1417
2534.9565634258774,1381
2536.771999168218,1375
2538.5870439379714,1487
2540.4016980261526,1442
2542.2159617238544,1401
2544.02983532225,1437
2545.8433191125914,1457
2547.656413386209,1424
2549.4691184345115,1413
2551.2814345489874,1493
2553.093362021204,1444
2554.904901142808,1499
2556.716052205523,1542
2558.526815501153,1534
2560.3371913215824,1557
2562.147179958771,1562
2563.956781704761,1587
2565.7659968516705,1609
2567.5748256916986,1551
2569.3832685171224,1605
2571.1913256202984,1634
2572.9989972936614,1610
2574.806283829725,1608
2576.613185521084,1551
2578.4197026604074,1613
2580.2258355404483,1654
2582.031584454035,1620
2583.836949694077,1681
2585.6419315535613,1644
2587.4465303255533,1698
2589.2507463032002,1664
2591.0545797797245,1626
2592.8580310484303,1655
2594.6611004026995,1668
2596.463788135992,1674
2598.266094541849,1641
2600.0680199138874,1652
2601.869564545807,1633
2603.670728731383,1637
2605.4715127644704,1682
2607.2719169390048,1635
2609.071941548998,1674
2610.8715868885433,1662
2612.670853251811,1661
2614.469740933052,1656
2616.268250226594,1578
2618.0663814268455,1575
2619.864134828292,1653
2621.6615107255006,1560
2623.458509413115,1569
2625.2551311858597,1591
2627.0513763385347,1607
2628.8472451660223,1521
2630.6427379632833,1530
2632.4378550253564,1546
2634.232596647359,1527
2636.026963124488,1527
2637.8209547520187,1528
2639.6145718253065,1459
2641.407814639785,1513
2643.200683490966,1420
2644.9931786744414,1451
2646.7853004858807,1493
2648.577049221034,1486
2650.3684251757277,1413
2652.1594286458712,1417
2653.9500599274484,1422
2655.740319316525,1437
2657.5302071092437,1382
2659.3197236018286,1379
2661.10886909058,1330
2662.8976438718782,1351
2664.686048242183,1368
2666.4740824980327,1374
2668.2617469360443,1368
2670.0490418529134,1365
2671.8359675454153,1357
2673.622524310403,1353
2675.408712444811,1279
2677.1945322456495,1327
2678.979984010009,1309
2680.76506803506,1306
2682.5497846180497,1287
2684.334134056306,1291
2686.1181166472343,1263
2687.9017326883213,1265
2689.6849824771293,1242
2691.4678663113013,1268
2693.2503844885596,1264
2695.032537306705,1212
2696.8143250636167,1256
2698.5957480572542,1222
2700.3768065856534,1230
2702.1575009469316,1238
2703.937831439283,1262
2705.717798360982,1249
2707.4974020103837,1241
2709.276642685917,1237
2711.055520686095,1239
2712.834036309506,1235
2714.612189854819,1195
2716.389981620782,1180
2718.1674119062204,1233
2719.944481010041,1172
2721.721189231226,1158
2723.4975368688415,1203
2725.273524222027,1193
2727.0491515900053,1167
2728.824419272075,1143
2730.5993275676146,1199
2732.3738767760838,1151
2734.148067197016,1161
2735.921899130031,1157
2737.6953728748194,1148
2739.468488731156,1180
2741.2412469988926,1140
2743.0136479779617,1177
2744.785691968372,1145
2746.5573792702116,1165
2748.3287101836504,1148
2750.099685008934,1124
2751.870304046388,1123
2753.640567596418,1166
2755.4104759595057,1167
2757.1800294362156,1181
2758.949228327187,1091
2760.7180729331412,1195
2762.486563554877,1130
2764.254700493272,1105
2766.022484049284,1114
2767.789914523947,1172
2769.5569922183786,1151
2771.3237174337705,1160
2773.090090471394,1160
2774.8561116326036,1132
2776.6217812188274,1104
2778.3870995315756,1113
2780.1520668724356,1126
2781.9166835430747,1141
2783.6809498452394,1125
2785.444866080754,1212
2787.2084325515225,1162
2788.971649559527,1168
2790.73451740683,1064
2792.4970363955713,1145
2794.2592068279705,1163
2796.0210290063264,1138
2797.7825032330147,1163
2799.543629810493,1139
2801.304409041296,1155
2803.0648412280366,1112
2804.8249266734088,1157
2806.5846656801846,1156
2808.344058551212,1129
2810.1031055894246,1141
2811.8618070978273,1106
2813.6201633795085,1147
2815.378174737636,1131
2817.1358414754536,1128
2818.893163896285,1127
2820.6501423035334,1171
2822.4067770006814,1142
2824.1630682912883,1125
2825.9190164789957,1150
2827.6746218675207,1121
2829.429884760661,1131
2831.184805462294,1102
2832.9393842763743,1119
2834.693621506936,1163
2836.4475174580916,1155
2838.201072434034,1130
2839.954286739034,1186
2841.707160677441,1130
2843.459694553685,1141
2845.2118886722724,1130
2846.96374333779,1148
2848.7152588549034,1102
2850.4664355283567,1109
2852.217273662973,1107
2853.9677735636546,1140
2855.7179355353833,1165
2857.4677598832186,1154
2859.217246912299,1098
2860.9663969278427,1104
2862.715210235146,1110
2864.4636871395846,1129
2866.211827946614,1113
2867.9596329617652,1155
2869.7071024906536,1131
2871.4542368389684,1114
2873.20103631248,1116
2874.947501217038,1149
2876.6936318585695,1120
2878.4394285430812,1139
2880.1848915766604,1164
2881.9300212654707,1099
2883.6748179157553,1093
2885.4192818338374,1133
2887.1634133261173,1121
2888.907212699077,1078
2890.6506802592744,1083
2892.393816313348,1160
2894.1366211680142,1128
2895.8790951300693,1055
2897.621238506388,1100
2899.363051603925,1129
2901.1045347297118,1128
2902.8456881908596,1112
2904.58651229456,1120
2906.327007348081,1112
2908.067173658772,1131
2909.8070115340597,1155
2911.5465212814497,1158
2913.285703208527,1142
2915.0245576229563,1099
2916.7630848324807,1091
2918.5012851449196,1070
2920.2391588681758,1111
2921.976706310227,1099
2923.7139277791334,1112
2925.4508235830313,1105
2927.187394030137,1105
2928.923639428745,1145
2930.6595600872306,1116
2932.395156314046,1105
2934.1304284177218,1101
2935.8653767068713,1120
2937.6000014901815,1118
2939.3343030764227,1095
2941.068281774442,1143
2942.8019378931644,1102
2944.5352717415976,1152
2946.2682836288236,1161
2948.0009738640065,1121
2949.7333427563885,1121
2951.465390615289,1173
2953.1971177501086,1129
2954.9285244703265,1068
2956.6596110855,1086
2958.3903779052657,1077
2960.1208252393385,1115
2961.8509533975125,1083
2963.5807626896617,1116
2965.3102534257378,1074
2967.0394259157715,1106
2968.768280469873,1110
2970.496817398232,1099
2972.2250370111146,1126
2973.952939618869,1107
2975.6805255319196,1061
2977.4077950607707,1090
2979.134748516006,1091
2980.861386208289,1137
2982.587708448359,1123
2984.313715547037,1146
2986.039407815222,1083
2987.764785563891,1135
2989.489849104102,1136
2991.2145987469908,1097
2992.9390348037705,1116
2994.6631575857346,1115
2996.3869674042576,1136
2998.1104645707887,1087
2999.83364939686,1096
3001.5565221940783,1132
3003.2790832741334,1073
3005.0013329487924,1145
3006.7232715298996,1161
3008.4448993293804,1066
3010.166216659239,1091
3011.887223831558,1152
3013.607921158498,1151
3015.3283089522993,1075
3017.0483875252826,1099
3018.7681571898443,1130
3020.4876182584626,1093
3022.2067710436927,1105
3023.9256158581707,1141
3025.644153014609,1102
3027.362382825801,1097
3029.0803056046193,1140
3030.797921664012,1073
3032.5152313170106,1080
3034.2322348767225,1086
3035.9489326563353,1111
3037.665324969115,1097
3039.3814121284063,1126
3041.097194447633,1100
3042.812672240299,1119
3044.5278458199855,1134
3046.2427155003525,1113
3047.9572815951406,1066
3049.671544418167,1108
3051.38550428333,1132
3053.0991615046073,1159
3054.812516396051,1088
3056.5255692717974,1110
3058.2383204460575,1093
3059.9507702331257,1104
3061.662918947372,1146
3063.3747669032446,1152
3065.0863144152736,1089
3066.7975617980674,1064
3068.508509366309,1091
3070.219157434767,1095
3071.9295063182844,1125
3073.639556331785,1117
3075.3493077902704,1065
3077.058761008821,1101
3078.7679163025964,1097
3080.476773986837,1111
3082.1853343768594,1110
3083.89359778806,1106
3085.6015645359153,1058
3087.3092349359786,1093
3089.016609303884,1098
3090.7236879553434,1134
3092.4304712061476,1108
3094.136959372166,1107
3095.843152769349,1125
3097.5490517137237,1117
3099.2546565213966,1124
3100.959967508554,1125
3102.66498499146,1129
3104.3697092864577,1101
3106.0741407099695,1160
3107.778279578498,1199
3109.482126208622,1097
3111.1856809170004,1062
3112.8889440203716,1095
3114.5919158355528,1138
3116.294596679439,1154
3117.996986869006,1123
3119.6990867213062,1122
3121.4008965534726,1128
3123.102416682717,1128
3124.803647426329,1145
3126.5045891016784,1171
3128.205242026213,1091
3129.90560651746,1116
3131.605682893025,1118
3133.3054714705922,1043
3135.0049725679282,1152
3136.7041865028714,1129
3138.4031135933465,1101
3140.101754157353,1106
3141.800108512971,1095
3143.498176978357,1158
3145.1959598717494,1140
3146.8934575114636,1086
3148.5906702158954,1151
3150.2875983035183,1130
3151.9842420928853,1133
3153.680601902627,1143
3155.376678051456,1099
3157.07247085816,1128
3158.767980641609,1101
3160.463207720748,1148
3162.158152414606,1127
3163.8528150422862,1112
3165.5471959229726,1107
3167.2412953759303,1097
3168.9351137204976,1110
3170.628651276098,1101
3172.3219083622307,1138
3174.014885298474,1110
3175.707582404485,1131
3177.4000000000005,1093
3179.092138404835,1084
3180.7839979388846,1111
3182.47557892212,1136
3184.166881674594,1109
3185.8579065164386,1110
3187.5486537678626,1129
3189.2391237491547,1093
3190.9293167806827,1068
3192.6192331828934,1110
3194.3088732763117,1123
3195.998237381542,1040
3197.687325819268,1097
3199.376138910251,1105
3201.064676975334,1138
3202.7529403354347,1099
3204.4409293115523,1141
3206.1286442247647,1045
3207.816085396229,1144
3209.5032531471825,1069
3211.190147798936,1000
3212.8767696728846,1068
3214.5631190905015,1070
3216.2491963733373,1062
3217.9350018430214,1066
3219.6205358212637,1078
3221.305798629851,1075
3222.990790590651,1095
3224.6755120256103,1100
3226.359963256751,1073
3228.0441446061795,1099
3229.7280563960758,1071
3231.411698948703,1105
3233.0950725863995,1124
3234.778177631587,1049
3236.461014406761,1074
3238.1435832345005,1076
3239.8258844374595,1064
3241.507918338374,1050
3243.1896852600576,1083
3244.8711855254023,1069
3246.552419457381,1096
3248.233387379042,1059
3249.914089613516,1065
3251.59452648401,1030
3253.274698313813,1079
3254.95460542629,1116
3256.6342481448855,1045
3258.313626793125,1047
3259.9927416946084,1068
3261.6715931730196,1053
3263.3501815521176,1080
3265.0285071557437,1072
3266.706570307815,1049
3268.3843713323286,1093
3270.0619105533615,1063
3271.739188295068,1048
3273.4162048816834,1054
3275.0929606375184,1069
3276.769455886966,1074
3278.445690954498,1107
3280.1216661646613,1113
3281.797381842087,1059
3283.4728383114807,1076
3285.1480358976296,1128
3286.8229749253996,1113
3288.4976557197333,1061
3290.172078605655,1072
3291.846243908266,1062
3293.5201519527463,1130
3295.193803064357,1104
3296.8671975684374,1034
3298.5403357904024,1072
3300.21321805575,1052
3301.8858446900567,1130
3303.558216018975,1100
3305.23033236824,1013
3306.9021940636603,1081
3308.57380143113,1088
3310.2451547966184,1043
3311.916254486174,1054
3313.5871008259246,1095
3315.2576941420766,1103
3316.9280347609147,1076
3318.5981230088046,1032
3320.2679592121895,1114
3321.9375436975924,1072
3323.606876791612,1094
3325.27595882093,1113
3326.944790112305,1063
3328.6133709925753,1083
3330.2817017886573,1092
3331.949782827547,1101
3333.617614436319,1095
3335.2851969421245,1079
3336.952530672199,1074
3338.619615953853,1109
3340.286453114475,1100
3341.9530424815357,1125
3343.619384382583,1141
3345.2854791452437,1054
3346.951327097224,1116
3348.6169285663073,1066
3350.2822838803577,1109
3351.947393367319,1055
3353.61225735521,1061
3355.2768761721345,1067
3356.9412501462693,1084
3358.605379605873,1102
3360.2692648792827,1069
3361.9329062949146,1095
3363.596304181263,1036
