CollectionTime,7/10/2024 3:12:43 PM
ExposureUsed,3
CalibratedSpectrum
-962.7078968117929,1150
-959.9714848408522,1245
-957.2358232597828,1269
-954.5009119013725,1232
-951.7667505983302,1253
-949.0333391832855,1281
-946.3006774887896,1277
-943.5687653473143,1269
-940.837602591253,1262
-938.1071890529199,1289
-935.3775245645503,1318
-932.6486089583007,1249
-929.9204420662485,1324
-927.1930237203925,1277
-924.4663537526524,1263
-921.7404319948689,1318
-919.0152582788041,1287
-916.2908324361409,1349
-913.5671542984834,1249
-910.8442236973568,1232
-908.1220404642074,1259
-905.4006044304027,1351
-902.679915427231,1256
-899.959973285902,1297
-897.2407778375464,1326
-894.5223289132158,1291
-891.8046263438832,1280
-889.0876699604426,1250
-886.3714595937089,1213
-883.6559950744183,1285
-880.9412762332282,1265
-878.2273029007168,1279
-875.5140749073835,1223
-872.8015920836489,1237
-870.0898542598545,1248
-867.3788612662631,1277
-864.6686129330585,1252
-861.9591090903457,1339
-859.2503495681506,1372
-856.5423341964203,1345
-853.8350628050229,1326
-851.1285352237478,1328
-848.4227512823054,1308
-845.7177108103272,1330
-843.0134136373656,1338
-840.3098595928943,1319
-837.6070485063082,1359
-834.9049802069229,1402
-832.2036545239757,1356
-829.5030712866244,1338
-826.8032303239481,1297
-824.1041314649472,1359
-821.4057745385428,1292
-818.7081593735775,1357
-816.0112857988148,1355
-813.3151536429393,1349
-810.6197627345566,1363
-807.9251129021936,1349
-805.2312039742981,1376
-802.5380357792392,1383
-799.8456081453069,1405
-797.1539209007124,1403
-794.462973873588,1437
-791.772766891987,1492
-789.083299783884,1328
-786.3945723771743,1367
-783.7065844996748,1377
-781.0193359791231,1347
-778.3328266431781,1369
-775.6470563194197,1322
-772.9620248353489,1418
-770.2777320183878,1325
-767.5941776958798,1350
-764.9113616950891,1336
-762.2292838432011,1385
-759.5479439673222,1327
-756.8673418944801,1344
-754.1874774516235,1407
-751.5083504656222,1383
-748.8299607632671,1427
-746.15230817127,1354
-743.475392516264,1459
-740.7992136248035,1449
-738.1237713233636,1405
-735.4490654383407,1417
-732.7750957960521,1418
-730.1018622227365,1382
-727.4293645445534,1464
-724.7576025875837,1458
-722.0865761778291,1450
-719.4162851412126,1419
-716.7467293035781,1478
-714.0779084906909,1448
-711.409822528237,1463
-708.7424712418238,1504
-706.0758544569796,1552
-703.4099719991541,1492
-700.7448236937178,1489
-698.0804093659622,1539
-695.4167288411002,1541
-692.7537819442656,1554
-690.0915685005134,1516
-687.4300883348199,1461
-684.7693412720819,1495
-682.1093271371178,1490
-679.4500457546669,1490
-676.7914969493897,1479
-674.1336805458676,1473
-671.4765963686034,1449
-668.8202442420206,1500
-666.1646239904642,1484
-663.5097354382001,1529
-660.8555784094151,1480
-658.2021527282176,1458
-655.5494582186366,1489
-652.8974947046223,1550
-650.2462620100463,1566
-647.5957599587009,1609
-644.9459883742998,1570
-642.2969470804776,1568
-639.6486359007902,1604
-637.0010546587141,1566
-634.3542031776476,1600
-631.7080812809096,1489
-629.0626887917401,1564
-626.4180255333008,1528
-623.7740913286734,1540
-621.1308860008619,1636
-618.4884093727904,1613
-615.8466612673046,1563
-613.2056415071715,1570
-610.5653499150785,1560
-607.9257863136347,1588
-605.28695052537,1574
-602.6488423727357,1621
-600.0114616781036,1581
-597.3748082637674,1623
-594.7388819519412,1711
-592.1036825647604,1638
-589.4692099242818,1666
-586.8354638524829,1680
-584.2024441712624,1625
-581.5701507024403,1717
-578.9385832677575,1679
-576.3077416888759,1750
-573.6776257873787,1761
-571.0482353847704,1682
-568.4195703024757,1714
-565.7916303618415,1687
-563.164415384135,1684
-560.5379251905453,1648
-557.9121596021815,1671
-555.2871184400748,1718
-552.6628015251767,1642
-550.0392086783606,1665
-547.4163397204204,1721
-544.794194472071,1691
-542.1727727539491,1713
-539.5520743866118,1698
-536.9320991905377,1761
-534.3128469861261,1799
-531.6943175936979,1843
-529.0765108334947,1725
-526.4594265256793,1812
-523.8430644903358,1985
-521.2274245474689,1930
-518.612506517005,2037
-515.9983102187913,2122
-513.3848354725959,2051
-510.77208209810846,2171
-508.16004991493924,2256
-505.5487387426199,2361
-502.9381484006032,2499
-500.3282787082628,2506
-497.71912948489364,2448
-495.1107005497117,2168
-492.5029917218539,2032
-489.8960028203786,2032
-487.28973366426493,1909
-484.68418407241325,1844
-482.07935386364494,1845
-479.47524285670266,1863
-476.87185087025,1939
-474.2691777228715,1936
-471.66722323307334,1869
-469.0659872192821,1935
-466.4654694998459,1893
-463.86566989303384,1844
-461.26658821703614,1853
-458.66822428996414,1938
-456.07057792985,1938
-453.4736489546475,1889
-450.877437182231,1839
-448.28194243039627,1933
-445.68716451686,1839
-443.09310325926003,1825
-440.49975847515555,1856
-437.9071299820263,1846
-435.31521759727354,1897
-432.72402113821954,1953
-430.13354042210767,1962
-427.5437752661022,1901
-424.95472548728867,1866
-422.36639090267386,1861
-419.7787713291855,1953
-417.1918665836721,2033
-414.60567648290385,1989
-412.0202008435715,2014
-409.4354394822874,1993
-406.8513922155845,2042
-404.26805885991723,1977
-401.685439231661,2003
-399.103533147112,2086
-396.522340422488,1960
-393.9418608739278,1959
-391.3620943174908,1985
-388.7830405691583,1898
-386.2046994448317,1871
-383.6270707603344,1766
-381.05015433141045,1690
-378.473949973725,1517
-375.8984575028645,1375
-373.32367673433623,1269
-370.74960748356875,1209
-368.1762495659117,1151
-365.60360279663576,985
-363.03166699093265,836
-360.4604419639154,746
-357.8899275306178,660
-355.32012350599507,613
-352.7510297049233,577
-350.1826459421999,526
-347.61497203254316,491
-345.04800779059235,521
-342.4817530309082,596
-339.91620756797226,582
-337.35137121618743,595
-334.7872437898774,593
-332.22382510328725,675
-329.66111497058273,622
-327.09911320585127,521
-324.53781962310075,500
-321.9772340362607,532
-319.4173562591816,522
-316.8581861056348,506
-314.2997233893127,543
-311.7419679238294,517
-309.1849195227194,533
-306.62857799943856,628
-304.0729431673641,608
-301.51801483979375,622
-298.963792829947,644
-296.41027695096386,681
-293.85746701590574,639
-291.3053628377552,637
-288.7539642294155,637
-286.2032710037115,648
-283.65328297338897,576
-281.1039999511146,677
-278.5554217494762,845
-276.007548180983,801
-273.4603790580651,672
-270.9139141930734,654
-268.3681533982807,693
-265.8230964858798,629
-263.27874326798565,680
-260.7350935566336,755
-258.1921471637804,796
-255.6499039013039,733
-253.10836358100266,772
-250.56752601459698,695
-248.02739101372765,692
-245.48795838995704,819
-242.94922795476816,723
-240.41119951956557,711
-237.8738728956746,787
-235.33724789434166,772
-232.80132432673452,732
-230.2661020039418,729
-227.73158073697357,698
-225.19776033676033,752
-222.66464061415422,777
-220.1322213799284,727
-217.60050244477725,710
-215.06948361931552,650
-212.53916471408013,815
-210.00954553952818,940
-207.48062590603843,818
-204.9524056239104,820
-202.4248845033651,838
-199.8980623545441,810
-197.37193898751036,754
-194.84651421224817,750
-192.32178783866232,850
-189.79775967657952,854
-187.27442953574644,929
-184.7517972258321,938
-182.2298625564256,925
-179.7086253370378,871
-177.18808537710026,925
-174.66824248596583,937
-172.14909647290835,872
-169.6306471471229,892
-167.11289431772548,1019
-164.59583779375328,1004
-162.07947738416453,994
-159.5638128978386,1024
-157.04884414357605,1158
-154.53457093009854,1195
-152.02099306604828,1165
-149.50811035998936,1139
-146.99592262040665,1129
-144.48442965570587,1167
-141.97363127421409,1436
-139.46352728417958,1287
-136.95411749377126,1279
-134.44540171107985,1398
-131.93737974411636,1145
-129.43005140081357,990
-126.92341648902493,1440
-124.41747481652521,2111
-121.91222619101006,2637
-119.40767042009657,3216
-116.90380731132257,3372
-114.40063667214702,3513
-111.8981583099503,3927
-109.3963720320337,3569
-106.89527764561933,3582
-104.39487495785067,3502
-101.89516377579241,3640
-99.39614390642998,3982
-96.89781515667039,4185
-94.40017733334128,5744
-91.90323024319173,9931
-89.40697369289148,14822
-86.91140748903172,16128
-84.41653143812482,13729
-81.92234534660395,8714
-79.42884902082358,4857
-76.93604226705907,6970
-74.4439248915071,13453
-71.95249670028534,20391
-69.46175749943245,22967
-66.97170709490854,21951
-64.48234529259423,17598
-61.99367189829195,12444
-59.50568671772464,9515
-57.01838955653636,9449
-54.53178022029283,11206
-52.045858514480074,11191
-49.560624244506016,12600
-47.07607721569923,13656
-44.59221723330904,14253
-42.10904410250669,12907
-39.62655762838392,11231
-37.14475761595372,11679
-34.66364387015028,11026
-32.18321619582866,9835
-29.70347439776515,9327
-27.224418280657005,8901
-24.74604764912317,9095
-22.26836230770266,11832
-19.7913620608565,21373
-17.315046712966478,37787
-14.83941606833514,52016
-12.36446993118659,65041
-9.89020810566592,65041
-7.416630395839093,65041
-4.94373660569363,65041
-2.471526539137585,65041
-6.821210263296962E-13,65041
2.47084320796705,65041
4.941003281093458,65041
7.410480415786196,65041
9.879274808531363,65041
12.347386655893956,65041
14.814816154518212,65041
17.28156350112681,65041
19.74762889252179,65041
22.21301252558385,65041
24.67771459727237,21433
27.141735304626195,5293
29.605074844762612,4262
32.06773341487792,3290
34.52971121224755,3142
36.99100843422559,3959
39.45162527824516,3544
41.91156194181792,2485
44.370818622535126,2150
46.82939551806646,2229
49.287292826160524,2352
51.74451074464503,2908
54.201049471426245,3448
56.65690920448981,2822
59.112090141899785,2035
61.56659248179983,1746
64.02041642241159,1459
66.4735621620365,1464
68.92602989905402,1815
71.37781983192338,1749
73.82893215918205,1924
76.27936707944684,2096
78.72912479141326,1719
81.17820549385567,1597
83.62660938562783,1552
86.07433666566146,1515
88.5213875329681,1205
90.96776218663751,1233
93.41346082583925,1197
95.85848364982041,1622
98.30283085790859,1809
100.7465026495089,1857
103.18949922410604,1584
105.63182078126385,1636
108.07346752062438,1605
110.51443964190923,1317
112.95473734491827,1165
115.39436082953114,1449
117.83331029570547,1753
120.27158594347827,1653
122.7091879729652,1739
125.1461165843615,1727
127.58237197794062,1446
130.01795435405518,1170
132.4528639131364,1365
134.88710085569494,1494
137.32066538231982,1066
139.75355769367923,957
142.1857779905207,1117
144.61732647366978,1146
147.04820334403132,1055
149.47840880258934,1175
151.90794305040674,1377
154.33680628862487,1524
156.76499871846443,1600
159.19252054122433,1625
161.61937195828352,1818
164.04555317109896,2173
166.47106438120693,2397
168.89590579022217,2752
171.320077599839,2833
173.7435800118302,2881
176.16641322804742,3050
178.58857745042144,3128
181.01007288096173,3266
183.43089972175687,3301
185.85105817497413,3442
188.27054844285988,3514
190.6893707277394,3583
193.10752523201643,3790
195.5250121581745,3749
197.9418317087751,3776
200.3579840864594,3858
202.7734694939469,3888
205.18828813403627,4130
207.6024402096051,4218
210.01592592360964,4131
212.42874547908548,3985
214.84089907914665,3991
217.2523869269868,4001
219.66320922587727,4062
222.0733661791695,4158
224.48285799029293,4141
226.8916848627572,3962
229.29984700014882,4150
231.7073446061355,4122
234.11417788446204,4114
236.520347038953,4027
238.92585227351185,4210
241.33069379212054,4249
243.73487179884035,4250
246.1383864978112,4288
248.541238093252,4440
250.9434267894609,4355
253.34495279081432,4368
255.74581630176783,4409
258.1460175268563,4361
260.54555667069314,4405
262.9444339379703,4458
265.3426495334594,4328
267.7402036620107,4408
270.1370965285529,4416
272.53332833809407,4281
274.9288992957214,4080
277.32380960660055,4083
279.718059475976,3938
282.1116491091717,4022
284.5045787115897,4082
286.89684848871195,3867
289.2884586460981,3941
291.67940938938807,4028
294.0697009242996,4117
296.4593334566299,3987
298.84830719225477,3964
301.23662233712923,3901
303.6242790972866,3903
306.01127767884,3896
308.39761828798066,3863
310.78330113097934,3851
313.16832641418534,3774
315.5526943440269,3892
317.9364051270112,3731
320.3194589697242,3758
322.70185607883093,3807
325.0835966610754,3816
327.4646809232805,3719
329.8451090723478,3601
332.2248813152577,3770
334.6039978590701,3697
336.9824589109231,3628
339.36026467803447,3698
341.7374153677,3654
344.113911187295,3578
346.48975234427337,3680
348.8649390461686,3684
351.2394715005918,3553
353.61334991523415,3605
355.9865744978655,3595
358.35914545633375,3596
360.73106299856715,3678
363.10232733257146,3562
365.47293866643247,3653
367.84289720831396,3696
370.2122031664593,3627
372.5808567491905,3716
374.9488581649083,3541
377.31620762209275,3661
379.6829053293021,3604
382.0489514951745,3658
384.4143463284262,3440
386.7790900378528,3550
389.14318283232853,3606
391.50662492080653,3605
393.86941651231916,3634
396.23155781597745,3593
398.5930490409713,3552
400.9538903965696,3605
403.3140820921202,3591
405.6736243370498,3609
408.03251734086336,3450
410.3907613131465,3471
412.74835646356166,3540
415.10530300185144,3654
417.4616011378372,3599
419.81725108141893,3535
422.1722530425758,3531
424.5266072313656,3629
426.880313857925,3571
429.2333731324701,3546
431.58578526529516,3508
433.9375504667738,3502
436.2886689473588,3465
438.63914091758113,3558
440.9889665880513,3609
443.33814616945835,3425
445.68667987257015,3514
448.03456790823395,3479
450.3818104873759,3581
452.72840782100013,3606
455.07436012019105,3485
457.41966759611057,3508
459.7643304600007,3627
462.10834892318155,3616
464.4517231970525,3437
466.79445349309174,3437
469.1365400228566,3602
471.4779829979826,3572
473.81878263018564,3548
476.15893913125876,3626
478.4984527130747,3588
480.8373235875855,3695
483.17555196682144,3643
485.5131380628919,3799
487.8500820879857,3656
490.1863842543697,3813
492.52204477439034,3821
494.8570638604725,3953
497.1914417251204,4184
499.52517858091653,4522
501.85827464052306,4692
504.19073011668036,4865
506.5225452222086,5005
508.85372017000566,4997
511.18425517304956,5037
513.514150444396,5084
515.8434061971808,5400
518.1720226446176,6014
520.4999999999999,6152
522.8273384766991,6105
525.1540382881666,5574
527.480099647932,5299
529.8055227696037,4702
532.1303078668694,4257
534.454455153496,4043
536.777964843328,3916
539.1008371502907,3810
541.4230722883866,3663
543.744670471698,3681
546.0656319143858,3648
548.3859568306899,3800
550.7056454349294,3681
553.0246979415016,3700
555.3431145648834,3697
557.6608955196306,3730
559.978041020377,3574
562.2945512818363,3589
564.6104265188006,3633
566.9256669461412,3696
569.2402727788082,3605
571.5542442318302,3660
573.8675815203156,3746
576.1802848594508,3674
578.4923544645015,3719
580.8037905508126,3766
583.114593333807,3669
585.4247630289875,3801
587.7342998519354,3748
590.0432040183106,3687
592.3514757438526,3660
594.6591152443794,3710
596.9661227357875,3648
599.2724984340531,3704
601.578242555231,3653
603.8833553154542,3757
606.1878369309362,3663
608.4916876179676,3652
610.7949075929192,3681
613.0974970722403,3619
615.3994562724587,3652
617.7007854101818,3783
620.0014847020951,3711
622.3015543649641,3720
624.6009946156324,3658
626.8998056710224,3723
629.1979877481361,3621
631.4955410640538,3645
633.7924658359349,3711
636.0887622810175,3706
638.3844306166192,3695
640.6794710601358,3707
642.9738838290426,3635
645.2676691408932,3861
647.5608272133207,3810
649.853358264037,3776
652.1452625108324,3826
654.4365401715764,3792
656.7271914642178,3774
659.0172166067838,3725
661.3066158173809,3700
663.5953893141935,3736
665.8835373154867,3699
668.1710600396028,3803
670.4579577049639,3805
672.7442305300709,3858
675.0298787335033,3826
677.3149025339197,3799
679.599302150058,3886
681.8830778007342,3774
684.1662297048437,3782
686.4487580813608,3858
688.7306631493387,3867
691.0119451279091,3735
693.2926042362834,3741
695.5726406937516,3703
697.8520547196814,3759
700.1308465335215,3801
702.4090163547982,3751
704.6865644031171,3710
706.9634908981619,3820
709.2397960596965,3758
711.5154801075631,3866
713.7905432616823,3891
716.0649857420548,3875
718.3388077687592,3816
720.612009561953,3793
722.8845913418733,3908
725.1565533288352,3764
727.427895743234,3759
729.6986188055427,3841
731.9687227363137,3944
734.238207756178,3796
736.5070740858458,3907
738.7753219461066,3811
741.0429515578281,3757
743.3099631419569,3983
745.5763569195191,3907
747.8421331116193,3888
750.1072919394409,3775
752.3718336242467,3845
754.6357583873777,3817
756.8990664502545,3810
759.1617580343765,3869
761.423833361321,3808
763.6852926527457,3901
765.9461361303862,3947
768.206364016058,3830
770.4659765316536,3815
772.7249738991469,3928
774.9833563405886,3876
777.2411240781092,3917
779.4982773339183,3890
781.7548163303044,3942
784.010741289634,3913
786.2660524343538,3868
788.5207499869881,3897
790.7748341701416,4009
793.0283052064964,3972
795.2811633188143,3934
797.5334087299362,3932
799.7850416627813,3894
802.0360623403484,3880
804.2864709857143,3983
806.5362678220353,3861
808.7854530725468,4061
811.0340269605625,3989
813.2819897094754,3937
815.5293415427581,3975
817.77608268396,3923
820.0222133567116,3952
822.2677337847211,3905
824.5126441917765,3938
826.7569448017433,3926
829.0006358385675,3846
831.2437175262731,3952
833.4861900889629,4019
835.7280537508192,3911
837.9693087361026,3917
840.2099552691533,3969
842.4499935743896,3927
844.689423876309,3951
846.9282463994886,3942
849.1664613685833,3862
851.4040690083276,3901
853.6410695435349,3967
855.877463199097,4080
858.1132501999847,3969
860.3484307712487,4017
862.5830051380175,3960
864.8169735254988,3945
867.0503361589791,4072
869.2830932638243,4052
871.5152450654786,4073
873.7467917894654,4023
875.9777336613873,3974
878.2080709069252,4090
880.4378037518389,4038
882.666932421968,4072
884.8954571432301,4048
887.1233781416219,4036
889.3506956432192,4121
891.5774098741766,4146
893.803521060728,3980
896.0290294291852,3949
898.2539352059397,3949
900.4782386174619,3969
902.7019398903011,4111
904.925039251085,4097
907.147536926521,4125
909.3694331433943,4083
911.59072812857,4083
913.8114221089921,4097
916.0315153116827,4108
918.2510079637437,3958
920.4699002923547,4005
922.6881925247761,4045
924.905884888345,4062
927.1229776104793,4015
929.3394709186747,4069
931.555365040506,3997
933.7706602036275,3925
935.9853566357709,4015
938.1994545647489,4071
940.4129542184515,4102
942.6258558248488,4012
944.8381596119883,4015
947.0498658079974,4026
949.2609746410825,4044
951.4714863395287,4054
953.6814011316998,3947
955.8907192460387,4080
958.0994409110671,3988
960.3075663553858,4013
962.5150958076741,3956
964.7220294966913,4012
966.928367651274,4011
969.1341105003388,4033
971.3392582728806,4043
973.5438111979742,4084
975.747769504772,4099
977.9511334225061,4070
980.153903180487,3993
982.3560790081052,4006
984.5576611348289,3924
986.7586497902058,3944
988.9590452038618,4018
991.158847605503,3916
993.3580572249133,3898
995.5566742919558,4032
997.7546990365728,3920
999.952131688785,3887
1002.1489724786926,3813
1004.3452216364743,3870
1006.5408793923874,3799
1008.7359459767691,3885
1010.9304216200343,3849
1013.1243065526781,3848
1015.3176010052733,3867
1017.510305208472,3763
1019.7024193930064,3810
1021.8939437896848,3913
1024.0848786293977,3753
1026.2752241431122,3814
1028.4649805618747,3775
1030.6541481168115,3821
1032.842727039127,3755
1035.0307175601051,3812
1037.2181199111074,3802
1039.4049343235752,3734
1041.591161029029,3852
1043.7768002590683,3776
1045.9618522453698,3767
1048.1463172196918,3719
1050.3301954138697,3783
1052.513487059818,3811
1054.69619238953,3805
1056.8783116350783,3823
1059.0598450286152,3822
1061.2407928023704,3806
1063.4211551886528,3871
1065.6009324198508,3897
1067.780124728432,3912
1069.9587323469414,3773
1072.1367555080046,3778
1074.314194444325,3785
1076.4910493886855,3718
1078.667320573947,3690
1080.843008233051,3773
1083.0181125990161,3704
1085.1926339049414,3770
1087.3665723840027,3636
1089.5399282694575,3696
1091.7127017946405,3700
1093.8848931929647,3774
1096.0565026979243,3648
1098.2275305430899,3823
1100.3979769621128,3708
1102.567842188722,3818
1104.737126456726,3745
1106.9058300000124,3739
1109.0739530525475,3716
1111.2414958483764,3744
1113.4084586216231,3732
1115.5748416064907,3791
1117.7406450372605,3784
1119.9058691482942,3682
1122.0705141740304,3660
1124.2345803489884,3723
1126.3980679077658,3761
1128.5609770850388,3652
1130.7233081155623,3750
1132.8850612341707,3798
1135.0462366757774,3771
1137.2068346753745,3803
1139.3668554680326,3783
1141.526299288901,3687
1143.68516637321,3709
1145.8434569562655,3830
1148.001171273455,3765
1150.158309560244,3712
1152.3148720521767,3635
1154.470858984876,3683
1156.626270594044,3739
1158.7811071154629,3782
1160.9353687849912,3690
1163.089055838569,3712
1165.242168512213,3807
1167.3947070420209,3711
1169.5466716641677,3712
1171.6980626149075,3700
1173.8488801305748,3625
1175.9991244475814,3762
1178.1487958024186,3766
1180.2978944316555,3671
1182.4464205719428,3650
1184.5943744600072,3684
1186.7417563326567,3681
1188.8885664267755,3723
1191.0348049793297,3748
1193.1804722273619,3623
1195.325568407995,3711
1197.4700937584303,3713
1199.614048515948,3583
1201.7574329179074,3743
1203.900247201746,3721
1206.042491604982,3844
1208.1841663652099,3691
1210.3252717201053,3754
1212.465807907422,3808
1214.6057751649923,3782
1216.7451737307279,3808
1218.8840038426192,3727
1221.0222657387353,3741
1223.1599596572241,3793
1225.2970858363137,3776
1227.4336445143094,3751
1229.5696359295966,3797
1231.705060320639,3806
1233.8399179259786,3924
1235.9742089842384,3820
1238.107933734118,3719
1240.2410924143974,3817
1242.373685263935,3883
1244.5057125216676,3779
1246.6371744266116,3677
1248.7680712178621,3816
1250.898403134593,3651
1253.028170416058,3703
1255.1573733015875,3731
1257.2860120305932,3872
1259.4140868425648,3808
1261.54159797707,3796
1263.6685456737569,3842
1265.7949301723515,3842
1267.9207517126597,3823
1270.046010534565,3808
1272.1707068780306,3842
1274.2948409830983,3942
1276.4184130898889,3803
1278.541423438603,3957
1280.6638722695184,3912
1282.785759822993,3809
1284.9070863394636,3804
1287.0278520594447,3830
1289.1480572235314,3865
1291.2677020723963,3972
1293.3867868467923,3995
1295.5053117875495,3945
1297.623277135579,3895
1299.740683131868,3952
1301.8575300174857,3929
1303.973818033578,3950
1306.0895474213703,4037
1308.2047184221678,3976
1310.3193312773528,4141
1312.4333862283888,3970
1314.5468835168163,4038
1316.659823384255,4051
1318.7722060724045,4028
1320.8840318230418,4045
1322.9953008780249,3993
1325.1060134792888,4034
1327.2161698688478,4042
1329.3257702887959,3944
1331.4348149813054,4057
1333.5433041886276,4013
1335.6512381530933,4100
1337.7586171171101,3946
1339.8654413231675,3970
1341.9717110138317,4087
1344.0774264317488,4016
1346.1825878196432,4025
1348.2871954203192,3939
1350.3912494766587,3968
1352.4947502316231,4121
1354.5976979282532,4007
1356.7000928096686,4007
1358.8019351190665,4007
1360.9032250997243,4118
1363.0039629949988,4021
1365.1041490483235,4114
1367.2037835032133,3974
1369.3028666032606,4102
1371.401398592137,4075
1373.4993797135926,4161
1375.5968102114575,4092
1377.6936903296396,4035
1379.7900203121262,3957
1381.8858004029835,3986
1383.9810308463561,4075
1386.075711886469,3941
1388.1698437676241,4084
1390.2634267342032,3992
1392.356461030667,4052
1394.4489469015557,4143
1396.5408845914872,4069
1398.6322743451592,4071
1400.7231164073469,4153
1402.813411022907,4137
1404.903158436773,4208
1406.9923588939578,4149
1409.0810126395531,4125
1411.1691199187303,3995
1413.2566809767386,4096
1415.343696058907,4219
1417.4301654106425,4099
1419.5160892774315,4133
1421.6014679048399,4117
1423.6863015385125,4149
1425.7705904241707,4087
1427.8543348076178,4153
1429.9375349347342,4059
1432.0201910514802,4182
1434.102303403894,4258
1436.1838722380944,4194
1438.2648978002767,4168
1440.3453803367174,4342
1442.4253200937692,4273
1444.5047173178677,4148
1446.5835722555234,4343
1448.6618851533285,4412
1450.739656257952,4324
1452.8168858161434,4503
1454.8935740747306,4355
1456.96972128062,4450
1459.045327680797,4325
1461.120393522327,4468
1463.1949190523528,4480
1465.2689045180973,4514
1467.3423501668608,4513
1469.415256246024,4597
1471.4876230030463,4546
1473.559450685465,4516
1475.6307395408976,4669
1477.7014898170391,4603
1479.771701761665,4602
1481.8413756226287,4737
1483.9105116478618,4701
1485.9791100853772,4777
1488.0471711832643,4761
1490.1146951896926,4838
1492.1816823529098,4762
1494.2481329212433,4855
1496.3140471430984,4757
1498.3794252669609,4758
1500.4442675413939,4904
1502.5085742150404,4858
1504.572345536622,4925
1506.6355817549388,4834
1508.6982831188702,4965
1510.7604498773744,4986
1512.8220822794883,4874
1514.8831805743293,4927
1516.9437450110909,4958
1519.003775839048,5038
1521.0632733075522,4969
1523.1222376660367,4928
1525.1806691640113,5135
1527.2385680510652,5092
1529.2959345768668,5165
1531.3527689911643,5122
1533.4090715437833,5183
1535.4648424846291,5281
1537.5200820636855,5255
1539.5747905310159,5382
1541.6289681367616,5256
1543.6826151311434,5243
1545.7357317644614,5211
1547.7883182870937,5383
1549.8403749494987,5370
1551.8919020022113,5354
1553.9428996958477,5500
1555.9933682811015,5432
1558.0433080087469,5486
1560.0927191296346,5528
1562.1416018946961,5570
1564.1899565549415,5717
1566.2377833614592,5579
1568.2850825654164,5467
1570.3318544180606,5496
1572.3780991707158,5384
1574.423817074788,5271
1576.4690083817595,5297
1578.5136733431923,5102
1580.5578122107272,5084
1582.601425236085,4941
1584.6445126710646,4790
1586.6870747675434,5007
1588.7291117774776,4834
1590.7706239529034,4806
1592.8116115459347,4773
1594.8520748087658,4661
1596.8920139936686,4496
1598.9314293529933,4449
1600.9703211391711,4392
1603.008689604711,4538
1605.0465350022005,4449
1607.0838575843068,4476
1609.1206576037753,4270
1611.1569353134305,4187
1613.1926909661765,4359
1615.2279248149953,4278
1617.2626371129481,4227
1619.2968281131757,4174
1621.3304980688963,4261
1623.3636472334088,4195
1625.39627586009,4193
1627.428384202396,4097
1629.459972513861,4099
1631.4910410480993,4133
1633.5215900588028,4222
1635.551619799744,4172
1637.5811305247717,4109
1639.6101224878166,4055
1641.6385959428862,4163
1643.6665511440683,4081
1645.693988345528,4116
1647.7209078015112,4193
1649.7473097663405,4040
1651.7731944944203,4126
1653.7985622402307,4077
1655.823413258333,4127
1657.847747803366,4008
1659.8715661300494,4042
1661.8948684931793,4022
1663.9176551476316,4077
1665.9399263483624,4009
1667.9616823504057,3983
1669.982923408873,3997
1672.0036497789574,4025
1674.0238617159293,4074
1676.043559475138,3981
1678.0627433120121,4009
1680.081413482059,4100
1682.0995702408654,4033
1684.117213844096,4062
1686.134344547495,4041
1688.1509626068864,4023
1690.1670682781705,4061
1692.182661817329,4071
1694.1977434804217,3921
1696.2123135235875,4050
1698.226372203043,4073
1700.2399197750851,4011
1702.2529564960905,3954
1704.2654826225112,4069
1706.277498410882,4076
1708.2890041178139,3982
1710.2999999999988,4077
1712.3104863142066,4075
1714.3204633172854,4020
1716.329931266163,4075
1718.3388904178469,3981
1720.3473410294214,3981
1722.3552833580516,4110
1724.3627176609807,4072
1726.3696441955308,4018
1728.3760632191033,4053
1730.3819749891782,4016
1732.3873797633146,4007
1734.3922777991502,4005
1736.3966693544012,4007
1738.4005546868639,4045
1740.4039340544127,4053
1742.406807715001,3950
1744.4091759266616,4013
1746.4110389475054,4015
1748.4123970357223,3966
1750.413250449582,3965
1752.4135994474318,4053
1754.4134442876993,4128
1756.4127852288902,4032
1758.4116225295893,4019
1760.4099564484595,3915
1762.407787244244,3997
1764.405115175764,3990
1766.4019405019203,4033
1768.3982634816916,3973
1770.3940843741357,4001
1772.3894034383907,3990
1774.3842209336717,4004
1776.378537119274,3942
1778.372352254571,3912
1780.3656665990156,4004
1782.3584804121397,3949
1784.3507939535534,3937
1786.3426074829463,4011
1788.3339212600863,4106
1790.3247355448211,3978
1792.3150505970766,3891
1794.3048666768573,3943
1796.2941840442477,3957
1798.2830029594106,3924
1800.2713236825884,4078
1802.2591464741004,3912
1804.2464715943465,3927
1806.2332993038058,4023
1808.2196298630352,4013
1810.2054635326708,3937
1812.190800573428,3925
1814.175641246101,3941
1816.1599858115628,3956
1818.1438345307652,4045
1820.127187664738,3914
1822.1100454745924,4026
1824.092408221516,4008
1826.0742761667766,4026
1828.055649571721,3965
1830.0365286977735,3957
1832.0169138064398,3973
1833.9968051593014,4025
1835.9762030180214,4003
1837.9551076443408,4046
1839.9335193000788,3912
1841.9114382471344,3939
1843.888864747485,3918
1845.8657990631878,3959
1847.842241456378,3998
1849.8181921892697,4012
1851.7936515241558,3971
1853.7686197234098,3909
1855.7430970494815,4018
1857.7170837649014,4014
1859.6905801322787,4005
1861.6635864143004,4015
1863.6361028737338,4098
1865.608129773424,3984
1867.5796673762961,3998
1869.5507159453537,4155
1871.521275743678,3952
1873.4913470344313,4056
1875.4609300808534,4122
1877.4300251462632,3891
1879.3986324940588,4111
1881.366752387717,3997
1883.3343850907936,4042
1885.3015308669228,4097
1887.268189979819,3928
1889.2343626932739,4058
1891.2000492711595,4064
1893.1652499774254,4031
1895.1299650761011,4100
1897.0941948312952,4087
1899.0579395071945,4033
1901.0211993680641,4031
1902.98397467825,3939
1904.9462657021745,4086
1906.9080727043415,4109
1908.869395949332,4127
1910.8302357018065,3989
1912.790592226504,4011
1914.7504657882428,4109
1916.7098566519212,4040
1918.6687650825133,3937
1920.6271913450764,4093
1922.5851357047422,4066
1924.5425984267245,4035
1926.499579776314,4058
1928.4560800188833,4057
1930.4120994198802,4071
1932.367638244833,4056
1934.32269675935,4003
1936.2772752291175,3994
1938.231373919899,4050
1940.1849930975404,3979
1942.1381330279637,4157
1944.0907939771696,4082
1946.0429762112412,3863
1947.9946799963363,3945
1949.9459055986945,3992
1951.896653284633,3978
1953.8469233205478,3991
1955.7967159729142,4026
1957.7460315082863,3970
1959.6948701932974,4048
1961.6432322946594,4037
1963.5911180791632,4056
1965.5385278136787,4156
1967.4854617651545,4029
1969.4319202006182,4003
1971.377903387176,3984
1973.3234115920136,4030
1975.268445082395,4083
1977.2130041256642,4141
1979.1570889892423,4042
1981.1006999406304,3996
1983.04383724741,3942
1984.986501177238,4046
1986.928691997853,3989
1988.8704099770712,4010
1990.811655382789,4048
1992.7524284829801,4066
1994.692729545698,3980
1996.6325588390755,3972
1998.5719166313224,3943
2000.5108031907307,3991
2002.4492187856677,4044
2004.387163684583,4033
2006.3246381560011,4141
2008.2616424685298,4039
2010.1981768908527,4014
2012.1342416917332,4012
2014.069837140014,3946
2016.0049635046162,3897
2017.9396210545406,3997
2019.8738100588666,4032
2021.8075307867502,4011
2023.740783507431,4013
2025.6735684902228,3888
2027.6058860045214,3948
2029.5377363198004,3970
2031.4691197056118,3927
2033.4000364315875,3864
2035.3304867674374,3981
2037.260470982952,3896
2039.189989347998,4067
2041.1190421325232,4001
2043.047629606554,3972
2044.9757520401945,3998
2046.9034097036288,3965
2048.8306028671195,3910
2050.7573318010086,3871
2052.683596775716,3900
2054.609398061742,3912
2056.5347359296647,3904
2058.4596106501403,3933
2060.384022493906,3981
2062.3079717317764,4030
2064.231458634646,4029
2066.1544834734873,3986
2068.077046519352,3978
2069.99914804337,3963
2071.9207883167524,3828
2073.8419676107865,3949
2075.7626861968406,3967
2077.6829443463607,3968
2079.6027423308715,4077
2081.522080421977,4001
2083.440958891362,3947
2085.359378010786,3982
2087.2773380520907,4003
2089.194839287196,3875
2091.111881988101,3997
2093.0284664268825,3972
2094.9445928756973,4002
2096.86026160678,4032
2098.775472892446,3861
2100.690227005088,4010
2102.604524217178,4068
2104.5183648012676,3990
2106.431749029985,4077
2108.34467717604,3934
2110.2571495122206,4055
2112.169166311393,4066
2114.080727846503,3927
2115.9918343905747,3947
2117.902486216711,3973
2119.8126835980956,4064
2121.722426807987,3959
2123.6317161197285,3889
2125.5405518067364,3924
2127.448934142509,3926
2129.356863400624,3967
2131.264339854737,4170
2133.1713637785815,3989
2135.077935445972,4026
2136.9840551308002,4083
2138.889723107037,3983
2140.7949396487334,3963
2142.699705030018,4104
2144.6040195250994,3979
2146.507883408264,4061
2148.4112969538774,4070
2150.3142604363848,3901
2152.2167741303097,4005
2154.1188383102535,4027
2156.0204532508997,4015
2157.9216192270064,4031
2159.822336513414,3987
2161.7226053850413,4008
2163.622426116884,4088
2165.5217989840185,3982
2167.4207242616,4011
2169.319202224862,4039
2171.2172331491165,4126
2173.1148173097563,4041
2175.0119549822507,3981
2176.90864644215,4052
2178.8048919650823,3979
2180.7006918267534,4028
2182.596046302952,4065
2184.4909556695407,4137
2186.3854202024645,4003
2188.279440177746,4017
2190.173015871487,4269
2192.066147559868,4014
2193.958835519149,4067
2195.851080025667,4054
2197.7428813558417,4099
2199.6342397861667,3976
2201.5251555932186,4012
2203.415629053651,4083
2205.3056604441986,4036
2207.19525004167,4020
2209.084398122958,4039
2210.9731049650327,3928
2212.861370844941,4012
2214.749196039812,4013
2216.636580826851,4146
2218.523525483344,4141
2220.410030286655,4026
2222.296095514226,4047
2224.1817214435805,4147
2226.066908352319,4016
2227.951656518121,4118
2229.835966218746,3990
2231.71983773203,4130
2233.6032713358913,4028
2235.486267308324,4066
2237.3688259274036,3949
2239.2509474712824,4055
2241.132632218193,4122
2243.013880446447,4136
2244.8946924344323,4043
2246.7750684606203,4043
2248.6550088035574,4091
2250.534513741871,4093
2252.413583554265,4113
2254.292218519526,4067
2256.170418916517,4102
2258.0481850241786,4089
2259.925517121534,4078
2261.8024154876825,4085
2263.678880401803,4065
2265.5549121431536,4061
2267.430510991071,4126
2269.305677224971,4089
2271.180411124348,4085
2273.0547129687766,4085
2274.9285830379076,3989
2276.8020216114737,4080
2278.6750289692845,4127
2280.5476053912294,4081
2282.4197511572766,3982
2284.2914665474727,4048
2286.162751841943,4100
2288.0336073208937,4054
2289.904033264608,4028
2291.774029953448,4098
2293.6435976678554,4156
2295.5127366883517,4066
2297.381447295534,3954
2299.2497297700825,4048
2301.1175843927526,4027
2302.9850114443825,3962
2304.852011205885,3932
2306.7185839582553,3979
2308.5847299825664,3998
2310.4504495599676,4002
2312.3157429716925,3981
2314.1806104990483,4050
2316.0450524234247,4048
2317.9090690262888,3920
2319.772660589186,4002
2321.635827393742,3993
2323.498569721661,3981
2325.3608878547248,3957
2327.2227820747967,4076
2329.0842526638157,3974
2330.945299903803,4050
2332.805924076857,3954
2334.6661254651535,4056
2336.525904350951,4022
2338.3852610165827,4002
2340.244195744464,4001
2342.102708817088,4000
2343.9608005170253,3925
2345.8184711269287,3967
2347.675720929526,3935
2349.532550207628,4025
2351.38895924412,3975
2353.24494832197,4033
2355.100517724223,4038
2356.955667734004,3992
2358.810398634514,4057
2360.664710709037,3951
2362.5186042409337,3962
2364.3720795136437,3936
2366.225136810686,3983
2368.0777764156583,3977
2369.929998612237,3896
2371.7818036841777,4012
2373.633191915315,3933
2375.484163589562,3989
2377.3347189909114,4060
2379.184858403434,3923
2381.03458211128,3995
2382.8838903986775,4018
2384.732783549936,4044
2386.5812618494406,4068
2388.4293255816588,3911
2390.2769750311327,3853
2392.1242104824883,3993
2393.971032220427,4018
2395.8174405297295,4004
2397.6634356952563,4013
2399.509018001947,3860
2401.3541877348193,4020
2403.1989451789705,3981
2405.043290619576,3986
2406.8872243418905,4151
2408.730746631247,3974
2410.5738577730594,3888
2412.4165580528183,3994
2414.258847756095,3968
2416.100727168537,3979
2417.9421965758734,3987
2419.783256263912,3988
2421.623906518538,3952
2423.4641476257157,3979
2425.303979871491,3936
2427.143403541984,4080
2428.9824189233977,4071
2430.821026302012,4009
2432.6592259641866,3877
2434.497018196361,3933
2436.33440328505,3944
2438.171381516851,3917
2440.00795317844,3832
2441.844118556569,3955
2443.6798779380724,3877
2445.5152316098606,3905
2447.3501798589255,3870
2449.1847229723357,3914
2451.0188612372403,4032
2452.8525949408663,3987
2454.6859243705203,4013
2456.518849813587,3998
2458.3513715575314,3937
2460.183489889895,4083
2462.015205098301,3916
2463.8465174704493,3925
2465.67742729412,3994
2467.5079348571717,4046
2469.338040447542,4013
2471.1677443532476,3946
2472.9970468623833,3939
2474.825948263123,4025
2476.6544488437207,4054
2478.482548892508,3857
2480.310248697896,3958
2482.137548548374,3873
2483.9644487325118,3981
2485.790949538956,4023
2487.617051256433,3970
2489.44275417375,3951
2491.26805857979,4091
2493.0929647635157,3908
2494.917473013971,3966
2496.741583620276,4031
2498.5652968716304,4026
2500.3886130573137,4108
2502.2115324666834,4102
2504.0340553891765,3977
2505.856182114308,4046
2507.6779129316733,4021
2509.499248130945,4018
2511.3201880018764,3973
2513.140732834298,4010
2514.9608829181198,3977
2516.780638543331,3991
2518.6,4113
2520.418967578273,4020
2522.237541568376,4066
2524.0557222606144,3971
2525.8735099453706,4052
2527.6909049131086,3963
2529.507907454368,3977
2531.32451785977,4185
2533.140736420014,4029
2534.9565634258774,3963
2536.771999168218,4067
2538.5870439379714,3995
2540.4016980261526,4152
2542.2159617238544,4092
2544.02983532225,4132
2545.8433191125914,4003
2547.656413386209,4049
2549.4691184345115,4182
2551.2814345489874,4140
2553.093362021204,4049
2554.904901142808,4231
2556.716052205523,4048
2558.526815501153,4081
2560.3371913215824,4115
2562.147179958771,4236
2563.956781704761,4122
2565.7659968516705,4124
2567.5748256916986,4166
2569.3832685171224,4223
2571.1913256202984,4160
2572.9989972936614,4164
2574.806283829725,4068
2576.613185521084,4181
2578.4197026604074,4092
2580.2258355404483,4126
2582.031584454035,4231
2583.836949694077,4165
2585.6419315535613,4162
2587.4465303255533,4126
2589.2507463032002,4249
2591.0545797797245,4265
2592.8580310484303,4187
2594.6611004026995,4113
2596.463788135992,4201
2598.266094541849,4283
2600.0680199138874,4119
2601.869564545807,4407
2603.670728731383,4281
2605.4715127644704,4179
2607.2719169390048,4193
2609.071941548998,4215
2610.8715868885433,4300
2612.670853251811,4130
2614.469740933052,4218
2616.268250226594,4169
2618.0663814268455,4173
2619.864134828292,4250
2621.6615107255006,4293
2623.458509413115,4237
2625.2551311858597,4231
2627.0513763385347,4136
2628.8472451660223,4176
2630.6427379632833,4029
2632.4378550253564,4118
2634.232596647359,4054
2636.026963124488,4083
2637.8209547520187,4092
2639.6145718253065,4038
2641.407814639785,4231
2643.200683490966,4087
2644.9931786744414,4061
2646.7853004858807,4114
2648.577049221034,4176
2650.3684251757277,4153
2652.1594286458712,4015
2653.9500599274484,4042
2655.740319316525,3974
2657.5302071092437,4051
2659.3197236018286,4113
2661.10886909058,4137
2662.8976438718782,4074
2664.686048242183,4023
2666.4740824980327,4020
2668.2617469360443,4067
2670.0490418529134,4101
2671.8359675454153,4054
2673.622524310403,4130
2675.408712444811,4078
2677.1945322456495,3967
2678.979984010009,3944
2680.76506803506,4045
2682.5497846180497,4001
2684.334134056306,4098
2686.1181166472343,3988
2687.9017326883213,3931
2689.6849824771293,3951
2691.4678663113013,4014
2693.2503844885596,3919
2695.032537306705,3914
2696.8143250636167,3982
2698.5957480572542,3922
2700.3768065856534,4037
2702.1575009469316,4019
2703.937831439283,3980
2705.717798360982,4029
2707.4974020103837,4016
2709.276642685917,3960
2711.055520686095,3971
2712.834036309506,3925
2714.612189854819,3938
2716.389981620782,3870
2718.1674119062204,3833
2719.944481010041,3865
2721.721189231226,3989
2723.4975368688415,3877
2725.273524222027,3846
2727.0491515900053,3904
2728.824419272075,3929
2730.5993275676146,3968
2732.3738767760838,3879
2734.148067197016,3920
2735.921899130031,3860
2737.6953728748194,3901
2739.468488731156,4034
2741.2412469988926,3895
2743.0136479779617,3905
2744.785691968372,3946
2746.5573792702116,3878
2748.3287101836504,3849
2750.099685008934,3924
2751.870304046388,3961
2753.640567596418,3897
2755.4104759595057,3966
2757.1800294362156,3944
2758.949228327187,3845
2760.7180729331412,3855
2762.486563554877,4013
2764.254700493272,3901
2766.022484049284,3897
2767.789914523947,3963
2769.5569922183786,3900
2771.3237174337705,3887
2773.090090471394,3961
2774.8561116326036,3972
2776.6217812188274,3912
2778.3870995315756,3905
2780.1520668724356,4023
2781.9166835430747,3893
2783.6809498452394,3906
2785.444866080754,3901
2787.2084325515225,3937
2788.971649559527,4001
2790.73451740683,3911
2792.4970363955713,3958
2794.2592068279705,4063
2796.0210290063264,3956
2797.7825032330147,3977
2799.543629810493,3926
2801.304409041296,4043
2803.0648412280366,3926
2804.8249266734088,4031
2806.5846656801846,3911
2808.344058551212,3892
2810.1031055894246,3955
2811.8618070978273,3875
2813.6201633795085,4026
2815.378174737636,3957
2817.1358414754536,3906
2818.893163896285,3944
2820.6501423035334,3928
2822.4067770006814,4057
2824.1630682912883,4053
2825.9190164789957,3923
2827.6746218675207,3944
2829.429884760661,3933
2831.184805462294,4029
2832.9393842763743,3890
2834.693621506936,4006
2836.4475174580916,4030
2838.201072434034,3894
2839.954286739034,3973
2841.707160677441,3968
2843.459694553685,4002
2845.2118886722724,3994
2846.96374333779,3885
2848.7152588549034,4023
2850.4664355283567,4050
2852.217273662973,4041
2853.9677735636546,3924
2855.7179355353833,3942
2857.4677598832186,3969
2859.217246912299,3882
2860.9663969278427,4050
2862.715210235146,3986
2864.4636871395846,3892
2866.211827946614,3883
2867.9596329617652,3891
2869.7071024906536,3868
2871.4542368389684,4034
2873.20103631248,3819
2874.947501217038,3947
2876.6936318585695,3877
2878.4394285430812,4023
2880.1848915766604,3919
2881.9300212654707,3918
2883.6748179157553,3973
2885.4192818338374,3883
2887.1634133261173,3897
2888.907212699077,3877
2890.6506802592744,3867
2892.393816313348,3966
2894.1366211680142,3941
2895.8790951300693,3905
2897.621238506388,3852
2899.363051603925,4008
2901.1045347297118,3990
2902.8456881908596,3934
2904.58651229456,4020
2906.327007348081,3988
2908.067173658772,3875
2909.8070115340597,3960
2911.5465212814497,3932
2913.285703208527,3832
2915.0245576229563,3848
2916.7630848324807,3820
2918.5012851449196,3964
2920.2391588681758,3853
2921.976706310227,3761
2923.7139277791334,3858
2925.4508235830313,3805
2927.187394030137,3900
2928.923639428745,3882
2930.6595600872306,3827
2932.395156314046,3933
2934.1304284177218,3942
2935.8653767068713,3888
2937.6000014901815,3913
2939.3343030764227,3938
2941.068281774442,3886
2942.8019378931644,4049
2944.5352717415976,4018
2946.2682836288236,4001
2948.0009738640065,3923
2949.7333427563885,3967
2951.465390615289,3929
2953.1971177501086,3959
2954.9285244703265,3880
2956.6596110855,3967
2958.3903779052657,3869
2960.1208252393385,3836
2961.8509533975125,4025
2963.5807626896617,3955
2965.3102534257378,3880
2967.0394259157715,3960
2968.768280469873,3910
2970.496817398232,3983
2972.2250370111146,3901
2973.952939618869,3908
2975.6805255319196,3974
2977.4077950607707,3879
2979.134748516006,3974
2980.861386208289,4085
2982.587708448359,3997
2984.313715547037,4052
2986.039407815222,3968
2987.764785563891,4001
2989.489849104102,3973
2991.2145987469908,3873
2992.9390348037705,4042
2994.6631575857346,3928
2996.3869674042576,3975
2998.1104645707887,3979
2999.83364939686,4010
3001.5565221940783,3848
3003.2790832741334,3932
3005.0013329487924,3939
3006.7232715298996,3966
3008.4448993293804,3893
3010.166216659239,3831
3011.887223831558,3866
3013.607921158498,3924
3015.3283089522993,3868
3017.0483875252826,3901
3018.7681571898443,3981
3020.4876182584626,3929
3022.2067710436927,3943
3023.9256158581707,3987
3025.644153014609,3988
3027.362382825801,3906
3029.0803056046193,3871
3030.797921664012,3967
3032.5152313170106,3853
3034.2322348767225,3923
3035.9489326563353,3913
3037.665324969115,3976
3039.3814121284063,3905
3041.097194447633,3844
3042.812672240299,3925
3044.5278458199855,3932
3046.2427155003525,3911
3047.9572815951406,3947
3049.671544418167,3976
3051.38550428333,3965
3053.0991615046073,3936
3054.812516396051,3945
3056.5255692717974,3930
3058.2383204460575,3918
3059.9507702331257,3932
3061.662918947372,3916
3063.3747669032446,3851
3065.0863144152736,3914
3066.7975617980674,3967
3068.508509366309,4024
3070.219157434767,3901
3071.9295063182844,3962
3073.639556331785,3900
3075.3493077902704,3921
3077.058761008821,4069
3078.7679163025964,3991
3080.476773986837,3945
3082.1853343768594,3929
3083.89359778806,4000
3085.6015645359153,3861
3087.3092349359786,3905
3089.016609303884,3955
3090.7236879553434,4026
3092.4304712061476,3914
3094.136959372166,3942
3095.843152769349,3930
3097.5490517137237,3930
3099.2546565213966,3948
3100.959967508554,3909
3102.66498499146,4070
3104.3697092864577,3971
3106.0741407099695,3963
3107.778279578498,4004
3109.482126208622,3950
3111.1856809170004,3958
3112.8889440203716,3931
3114.5919158355528,4003
3116.294596679439,4005
3117.996986869006,3929
3119.6990867213062,3936
3121.4008965534726,4064
3123.102416682717,3988
3124.803647426329,3987
3126.5045891016784,4028
3128.205242026213,4003
3129.90560651746,4058
3131.605682893025,4003
3133.3054714705922,3896
3135.0049725679282,3954
3136.7041865028714,3988
3138.4031135933465,4001
3140.101754157353,3946
3141.800108512971,3907
3143.498176978357,3906
3145.1959598717494,3920
3146.8934575114636,3950
3148.5906702158954,3884
3150.2875983035183,3982
3151.9842420928853,3890
3153.680601902627,3849
3155.376678051456,3905
3157.07247085816,3961
3158.767980641609,3941
3160.463207720748,3981
3162.158152414606,3946
3163.8528150422862,3884
3165.5471959229726,3893
3167.2412953759303,3882
3168.9351137204976,3959
3170.628651276098,3903
3172.3219083622307,3962
3174.014885298474,4044
3175.707582404485,4025
3177.4000000000005,3989
3179.092138404835,4034
3180.7839979388846,4028
3182.47557892212,4008
3184.166881674594,3964
3185.8579065164386,4064
3187.5486537678626,4064
3189.2391237491547,4024
3190.9293167806827,3929
3192.6192331828934,3937
3194.3088732763117,4013
3195.998237381542,4045
3197.687325819268,3926
3199.376138910251,4027
3201.064676975334,3965
3202.7529403354347,4042
3204.4409293115523,3948
3206.1286442247647,3894
3207.816085396229,3898
3209.5032531471825,3922
3211.190147798936,3836
3212.8767696728846,3919
3214.5631190905015,3892
3216.2491963733373,3842
3217.9350018430214,3845
3219.6205358212637,3900
3221.305798629851,3891
3222.990790590651,3897
3224.6755120256103,3920
3226.359963256751,3931
3228.0441446061795,3876
3229.7280563960758,3950
3231.411698948703,3932
3233.0950725863995,3996
3234.778177631587,3909
3236.461014406761,3902
3238.1435832345005,3933
3239.8258844374595,3989
3241.507918338374,4067
3243.1896852600576,3911
3244.8711855254023,3954
3246.552419457381,3960
3248.233387379042,4006
3249.914089613516,3929
3251.59452648401,3929
3253.274698313813,4106
3254.95460542629,3933
3256.6342481448855,3914
3258.313626793125,3935
3259.9927416946084,4050
3261.6715931730196,3970
3263.3501815521176,4011
3265.0285071557437,3954
3266.706570307815,3855
3268.3843713323286,3897
3270.0619105533615,3958
3271.739188295068,3835
3273.4162048816834,3930
3275.0929606375184,3992
3276.769455886966,4074
3278.445690954498,3994
3280.1216661646613,3960
3281.797381842087,3969
3283.4728383114807,3962
3285.1480358976296,3945
3286.8229749253996,3928
3288.4976557197333,4026
3290.172078605655,3972
3291.846243908266,3930
3293.5201519527463,3907
3295.193803064357,3829
3296.8671975684374,3923
3298.5403357904024,3923
3300.21321805575,3909
3301.8858446900567,3920
3303.558216018975,3959
3305.23033236824,3935
3306.9021940636603,4106
3308.57380143113,3876
3310.2451547966184,3960
3311.916254486174,3998
3313.5871008259246,4048
3315.2576941420766,3858
3316.9280347609147,3960
3318.5981230088046,3992
3320.2679592121895,4023
3321.9375436975924,3833
3323.606876791612,3831
3325.27595882093,3972
3326.944790112305,3906
3328.6133709925753,3786
3330.2817017886573,3832
3331.949782827547,3840
3333.617614436319,3860
3335.2851969421245,3956
3336.952530672199,3999
3338.619615953853,3913
3340.286453114475,3995
3341.9530424815357,4037
3343.619384382583,3958
3345.2854791452437,4147
3346.951327097224,3987
3348.6169285663073,3938
3350.2822838803577,4129
3351.947393367319,4060
3353.61225735521,3936
3355.2768761721345,3863
3356.9412501462693,3991
3358.605379605873,3884
3360.2692648792827,4042
3361.9329062949146,4016
3363.596304181263,3970
