CollectionTime,7/10/2024 3:10:08 PM
ExposureUsed,3
CalibratedSpectrum
-962.7078968117929,605
-959.9714848408522,668
-957.2358232597828,676
-954.5009119013725,663
-951.7667505983302,684
-949.0333391832855,680
-946.3006774887896,648
-943.5687653473143,638
-940.837602591253,655
-938.1071890529199,633
-935.3775245645503,657
-932.6486089583007,717
-929.9204420662485,698
-927.1930237203925,671
-924.4663537526524,640
-921.7404319948689,682
-919.0152582788041,691
-916.2908324361409,766
-913.5671542984834,676
-910.8442236973568,630
-908.1220404642074,663
-905.4006044304027,760
-902.679915427231,715
-899.959973285902,677
-897.2407778375464,668
-894.5223289132158,633
-891.8046263438832,660
-889.0876699604426,648
-886.3714595937089,647
-883.6559950744183,649
-880.9412762332282,649
-878.2273029007168,640
-875.5140749073835,634
-872.8015920836489,627
-870.0898542598545,668
-867.3788612662631,658
-864.6686129330585,668
-861.9591090903457,686
-859.2503495681506,674
-856.5423341964203,637
-853.8350628050229,670
-851.1285352237478,708
-848.4227512823054,682
-845.7177108103272,662
-843.0134136373656,684
-840.3098595928943,691
-837.6070485063082,770
-834.9049802069229,713
-832.2036545239757,695
-829.5030712866244,684
-826.8032303239481,690
-824.1041314649472,745
-821.4057745385428,686
-818.7081593735775,682
-816.0112857988148,687
-813.3151536429393,676
-810.6197627345566,705
-807.9251129021936,703
-805.2312039742981,702
-802.5380357792392,680
-799.8456081453069,709
-797.1539209007124,687
-794.462973873588,718
-791.772766891987,792
-789.083299783884,704
-786.3945723771743,736
-783.7065844996748,658
-781.0193359791231,670
-778.3328266431781,705
-775.6470563194197,711
-772.9620248353489,718
-770.2777320183878,697
-767.5941776958798,703
-764.9113616950891,745
-762.2292838432011,696
-759.5479439673222,736
-756.8673418944801,698
-754.1874774516235,729
-751.5083504656222,742
-748.8299607632671,757
-746.15230817127,731
-743.475392516264,727
-740.7992136248035,767
-738.1237713233636,688
-735.4490654383407,745
-732.7750957960521,777
-730.1018622227365,745
-727.4293645445534,766
-724.7576025875837,730
-722.0865761778291,724
-719.4162851412126,726
-716.7467293035781,753
-714.0779084906909,780
-711.409822528237,754
-708.7424712418238,745
-706.0758544569796,759
-703.4099719991541,771
-700.7448236937178,776
-698.0804093659622,813
-695.4167288411002,784
-692.7537819442656,817
-690.0915685005134,810
-687.4300883348199,802
-684.7693412720819,782
-682.1093271371178,768
-679.4500457546669,791
-676.7914969493897,769
-674.1336805458676,790
-671.4765963686034,800
-668.8202442420206,764
-666.1646239904642,761
-663.5097354382001,780
-660.8555784094151,817
-658.2021527282176,767
-655.5494582186366,815
-652.8974947046223,818
-650.2462620100463,806
-647.5957599587009,780
-644.9459883742998,853
-642.2969470804776,880
-639.6486359007902,881
-637.0010546587141,852
-634.3542031776476,812
-631.7080812809096,838
-629.0626887917401,817
-626.4180255333008,838
-623.7740913286734,879
-621.1308860008619,881
-618.4884093727904,836
-615.8466612673046,830
-613.2056415071715,834
-610.5653499150785,827
-607.9257863136347,856
-605.28695052537,869
-602.6488423727357,846
-600.0114616781036,850
-597.3748082637674,907
-594.7388819519412,864
-592.1036825647604,904
-589.4692099242818,909
-586.8354638524829,910
-584.2024441712624,875
-581.5701507024403,926
-578.9385832677575,965
-576.3077416888759,953
-573.6776257873787,936
-571.0482353847704,936
-568.4195703024757,915
-565.7916303618415,882
-563.164415384135,878
-560.5379251905453,865
-557.9121596021815,914
-555.2871184400748,924
-552.6628015251767,985
-550.0392086783606,941
-547.4163397204204,920
-544.794194472071,952
-542.1727727539491,993
-539.5520743866118,987
-536.9320991905377,992
-534.3128469861261,1038
-531.6943175936979,1016
-529.0765108334947,973
-526.4594265256793,1069
-523.8430644903358,1183
-521.2274245474689,1268
-518.612506517005,1416
-515.9983102187913,1366
-513.3848354725959,1386
-510.77208209810846,1474
-508.16004991493924,1640
-505.5487387426199,1893
-502.9381484006032,1952
-500.3282787082628,1967
-497.71912948489364,1839
-495.1107005497117,1732
-492.5029917218539,1581
-489.8960028203786,1364
-487.28973366426493,1318
-484.68418407241325,1205
-482.07935386364494,1136
-479.47524285670266,1130
-476.87185087025,1141
-474.2691777228715,1140
-471.66722323307334,1136
-469.0659872192821,1110
-466.4654694998459,1099
-463.86566989303384,1079
-461.26658821703614,1145
-458.66822428996414,1108
-456.07057792985,1173
-453.4736489546475,1174
-450.877437182231,1102
-448.28194243039627,1057
-445.68716451686,1081
-443.09310325926003,1142
-440.49975847515555,1117
-437.9071299820263,1054
-435.31521759727354,1142
-432.72402113821954,1198
-430.13354042210767,1221
-427.5437752661022,1180
-424.95472548728867,1169
-422.36639090267386,1166
-419.7787713291855,1198
-417.1918665836721,1316
-414.60567648290385,1244
-412.0202008435715,1184
-409.4354394822874,1204
-406.8513922155845,1281
-404.26805885991723,1165
-401.685439231661,1193
-399.103533147112,1288
-396.522340422488,1229
-393.9418608739278,1158
-391.3620943174908,1169
-388.7830405691583,1203
-386.2046994448317,1125
-383.6270707603344,1121
-381.05015433141045,1105
-378.473949973725,950
-375.8984575028645,861
-373.32367673433623,801
-370.74960748356875,857
-368.1762495659117,869
-365.60360279663576,734
-363.03166699093265,618
-360.4604419639154,608
-357.8899275306178,575
-355.32012350599507,563
-352.7510297049233,564
-350.1826459421999,510
-347.61497203254316,482
-345.04800779059235,480
-342.4817530309082,534
-339.91620756797226,564
-337.35137121618743,595
-334.7872437898774,597
-332.22382510328725,723
-329.66111497058273,627
-327.09911320585127,599
-324.53781962310075,585
-321.9772340362607,563
-319.4173562591816,562
-316.8581861056348,538
-314.2997233893127,508
-311.7419679238294,535
-309.1849195227194,587
-306.62857799943856,615
-304.0729431673641,615
-301.51801483979375,615
-298.963792829947,611
-296.41027695096386,677
-293.85746701590574,677
-291.3053628377552,664
-288.7539642294155,614
-286.2032710037115,623
-283.65328297338897,607
-281.1039999511146,707
-278.5554217494762,857
-276.007548180983,740
-273.4603790580651,659
-270.9139141930734,654
-268.3681533982807,643
-265.8230964858798,597
-263.27874326798565,664
-260.7350935566336,764
-258.1921471637804,799
-255.6499039013039,788
-253.10836358100266,716
-250.56752601459698,663
-248.02739101372765,704
-245.48795838995704,790
-242.94922795476816,697
-240.41119951956557,714
-237.8738728956746,821
-235.33724789434166,862
-232.80132432673452,704
-230.2661020039418,656
-227.73158073697357,741
-225.19776033676033,808
-222.66464061415422,804
-220.1322213799284,838
-217.60050244477725,732
-215.06948361931552,664
-212.53916471408013,865
-210.00954553952818,1013
-207.48062590603843,876
-204.9524056239104,761
-202.4248845033651,769
-199.8980623545441,834
-197.37193898751036,876
-194.84651421224817,829
-192.32178783866232,846
-189.79775967657952,811
-187.27442953574644,1010
-184.7517972258321,1067
-182.2298625564256,1067
-179.7086253370378,923
-177.18808537710026,928
-174.66824248596583,947
-172.14909647290835,985
-169.6306471471229,985
-167.11289431772548,1033
-164.59583779375328,1080
-162.07947738416453,948
-159.5638128978386,1036
-157.04884414357605,1227
-154.53457093009854,1130
-152.02099306604828,1061
-149.50811035998936,986
-146.99592262040665,986
-144.48442965570587,1150
-141.97363127421409,1103
-139.46352728417958,1065
-136.95411749377126,1156
-134.44540171107985,1209
-131.93737974411636,988
-129.43005140081357,1015
-126.92341648902493,1555
-124.41747481652521,2050
-121.91222619101006,2153
-119.40767042009657,2460
-116.90380731132257,2816
-114.40063667214702,3286
-111.8981583099503,3855
-109.3963720320337,3465
-106.89527764561933,3046
-104.39487495785067,3317
-101.89516377579241,4878
-99.39614390642998,7668
-96.89781515667039,8504
-94.40017733334128,7340
-91.90323024319173,5126
-89.40697369289148,4482
-86.91140748903172,5640
-84.41653143812482,7403
-81.92234534660395,9618
-79.42884902082358,11036
-76.93604226705907,14635
-74.4439248915071,21748
-71.95249670028534,29421
-69.46175749943245,32649
-66.97170709490854,32610
-64.48234529259423,27796
-61.99367189829195,19485
-59.50568671772464,11920
-57.01838955653636,9325
-54.53178022029283,10541
-52.045858514480074,10667
-49.560624244506016,10777
-47.07607721569923,12065
-44.59221723330904,14369
-42.10904410250669,13487
-39.62655762838392,12815
-37.14475761595372,13856
-34.66364387015028,13981
-32.18321619582866,13564
-29.70347439776515,13906
-27.224418280657005,14356
-24.74604764912317,14996
-22.26836230770266,19209
-19.7913620608565,33086
-17.315046712966478,60777
-14.83941606833514,65040
-12.36446993118659,65040
-9.89020810566592,65040
-7.416630395839093,65040
-4.94373660569363,65040
-2.471526539137585,65040
-6.821210263296962E-13,65040
2.47084320796705,65040
4.941003281093458,65040
7.410480415786196,65040
9.879274808531363,65040
12.347386655893956,65040
14.814816154518212,65040
17.28156350112681,65040
19.74762889252179,65040
22.21301252558385,23322
24.67771459727237,5722
27.141735304626195,3943
29.605074844762612,3564
32.06773341487792,2637
34.52971121224755,2423
36.99100843422559,3648
39.45162527824516,3606
41.91156194181792,2539
44.370818622535126,2334
46.82939551806646,1984
49.287292826160524,2563
51.74451074464503,3456
54.201049471426245,3475
56.65690920448981,2609
59.112090141899785,2007
61.56659248179983,1842
64.02041642241159,1473
66.4735621620365,1579
68.92602989905402,1703
71.37781983192338,1558
73.82893215918205,1762
76.27936707944684,1948
78.72912479141326,2053
81.17820549385567,1931
83.62660938562783,1881
86.07433666566146,1845
88.5213875329681,1444
90.96776218663751,1396
93.41346082583925,1258
95.85848364982041,1391
98.30283085790859,1658
100.7465026495089,1717
103.18949922410604,1675
105.63182078126385,1594
108.07346752062438,1860
110.51443964190923,1472
112.95473734491827,1163
115.39436082953114,1265
117.83331029570547,1440
120.27158594347827,1391
122.7091879729652,1695
125.1461165843615,1788
127.58237197794062,1460
130.01795435405518,999
132.4528639131364,1054
134.88710085569494,1244
137.32066538231982,1103
139.75355769367923,1177
142.1857779905207,1124
144.61732647366978,1126
147.04820334403132,956
149.47840880258934,1014
151.90794305040674,1161
154.33680628862487,1279
156.76499871846443,1385
159.19252054122433,1482
161.61937195828352,1630
164.04555317109896,1879
166.47106438120693,2302
168.89590579022217,2366
171.320077599839,2437
173.7435800118302,2608
176.16641322804742,2630
178.58857745042144,2758
181.01007288096173,2877
183.43089972175687,2947
185.85105817497413,2762
188.27054844285988,2953
190.6893707277394,2939
193.10752523201643,2969
195.5250121581745,2777
197.9418317087751,2948
200.3579840864594,3033
202.7734694939469,3079
205.18828813403627,3263
207.6024402096051,3334
210.01592592360964,3276
212.42874547908548,3265
214.84089907914665,3181
217.2523869269868,3160
219.66320922587727,3180
222.0733661791695,3061
224.48285799029293,3193
226.8916848627572,3108
229.29984700014882,3172
231.7073446061355,3118
234.11417788446204,3140
236.520347038953,3160
238.92585227351185,3263
241.33069379212054,3294
243.73487179884035,3396
246.1383864978112,3365
248.541238093252,3238
250.9434267894609,3296
253.34495279081432,3354
255.74581630176783,3327
258.1460175268563,3314
260.54555667069314,3354
262.9444339379703,3311
265.3426495334594,3270
267.7402036620107,3323
270.1370965285529,3239
272.53332833809407,3260
274.9288992957214,3082
277.32380960660055,3179
279.718059475976,3054
282.1116491091717,3065
284.5045787115897,3108
286.89684848871195,3158
289.2884586460981,3229
291.67940938938807,3252
294.0697009242996,3172
296.4593334566299,3113
298.84830719225477,3151
301.23662233712923,2966
303.6242790972866,3138
306.01127767884,3062
308.39761828798066,3072
310.78330113097934,3067
313.16832641418534,2980
315.5526943440269,2853
317.9364051270112,3009
320.3194589697242,2935
322.70185607883093,2914
325.0835966610754,2869
327.4646809232805,2867
329.8451090723478,2832
332.2248813152577,2820
334.6039978590701,2813
336.9824589109231,2745
339.36026467803447,2764
341.7374153677,2728
344.113911187295,2762
346.48975234427337,2775
348.8649390461686,2761
351.2394715005918,2760
353.61334991523415,2746
355.9865744978655,2744
358.35914545633375,2740
360.73106299856715,2917
363.10232733257146,2808
365.47293866643247,2716
367.84289720831396,2760
370.2122031664593,2726
372.5808567491905,2752
374.9488581649083,2669
377.31620762209275,2673
379.6829053293021,2639
382.0489514951745,2669
384.4143463284262,2603
386.7790900378528,2561
389.14318283232853,2628
391.50662492080653,2675
393.86941651231916,2788
396.23155781597745,2827
398.5930490409713,2738
400.9538903965696,2711
403.3140820921202,2636
405.6736243370498,2593
408.03251734086336,2667
410.3907613131465,2507
412.74835646356166,2513
415.10530300185144,2623
417.4616011378372,2614
419.81725108141893,2588
422.1722530425758,2521
424.5266072313656,2623
426.880313857925,2671
429.2333731324701,2628
431.58578526529516,2592
433.9375504667738,2652
436.2886689473588,2514
438.63914091758113,2539
440.9889665880513,2512
443.33814616945835,2580
445.68667987257015,2606
448.03456790823395,2586
450.3818104873759,2528
452.72840782100013,2554
455.07436012019105,2631
457.41966759611057,2638
459.7643304600007,2601
462.10834892318155,2567
464.4517231970525,2634
466.79445349309174,2480
469.1365400228566,2583
471.4779829979826,2570
473.81878263018564,2532
476.15893913125876,2615
478.4984527130747,2668
480.8373235875855,2656
483.17555196682144,2826
485.5131380628919,2713
487.8500820879857,2777
490.1863842543697,2854
492.52204477439034,3090
494.8570638604725,3213
497.1914417251204,3523
499.52517858091653,3894
501.85827464052306,4268
504.19073011668036,4473
506.5225452222086,4538
508.85372017000566,4536
511.18425517304956,4550
513.514150444396,4511
515.8434061971808,4923
518.1720226446176,5502
520.4999999999999,5652
522.8273384766991,5411
525.1540382881666,5021
527.480099647932,4534
529.8055227696037,4059
532.1303078668694,3414
534.454455153496,3029
536.777964843328,2808
539.1008371502907,2834
541.4230722883866,2730
543.744670471698,2677
546.0656319143858,2738
548.3859568306899,2699
550.7056454349294,2700
553.0246979415016,2699
555.3431145648834,2695
557.6608955196306,2675
559.978041020377,2679
562.2945512818363,2703
564.6104265188006,2744
566.9256669461412,2688
569.2402727788082,2676
571.5542442318302,2814
573.8675815203156,2734
576.1802848594508,2719
578.4923544645015,2787
580.8037905508126,2753
583.114593333807,2685
585.4247630289875,2800
587.7342998519354,2719
590.0432040183106,2708
592.3514757438526,2801
594.6591152443794,2688
596.9661227357875,2685
599.2724984340531,2643
601.578242555231,2709
603.8833553154542,2737
606.1878369309362,2745
608.4916876179676,2782
610.7949075929192,2769
613.0974970722403,2678
615.3994562724587,2669
617.7007854101818,2744
620.0014847020951,2688
622.3015543649641,2627
624.6009946156324,2724
626.8998056710224,2639
629.1979877481361,2622
631.4955410640538,2673
633.7924658359349,2670
636.0887622810175,2695
638.3844306166192,2705
640.6794710601358,2655
642.9738838290426,2751
645.2676691408932,2808
647.5608272133207,2733
649.853358264037,2714
652.1452625108324,2735
654.4365401715764,2694
656.7271914642178,2749
659.0172166067838,2741
661.3066158173809,2649
663.5953893141935,2699
665.8835373154867,2716
668.1710600396028,2720
670.4579577049639,2747
672.7442305300709,2722
675.0298787335033,2712
677.3149025339197,2717
679.599302150058,2708
681.8830778007342,2749
684.1662297048437,2696
686.4487580813608,2719
688.7306631493387,2779
691.0119451279091,2662
693.2926042362834,2742
695.5726406937516,2870
697.8520547196814,2721
700.1308465335215,2693
702.4090163547982,2718
704.6865644031171,2689
706.9634908981619,2724
709.2397960596965,2704
711.5154801075631,2741
713.7905432616823,2714
716.0649857420548,2708
718.3388077687592,2732
720.612009561953,2783
722.8845913418733,2748
725.1565533288352,2693
727.427895743234,2694
729.6986188055427,2750
731.9687227363137,2747
734.238207756178,2727
736.5070740858458,2746
738.7753219461066,2754
741.0429515578281,2749
743.3099631419569,2786
745.5763569195191,2683
747.8421331116193,2775
750.1072919394409,2627
752.3718336242467,2765
754.6357583873777,2767
756.8990664502545,2783
759.1617580343765,2706
761.423833361321,2763
763.6852926527457,2724
765.9461361303862,2758
768.206364016058,2859
770.4659765316536,2719
772.7249738991469,2848
774.9833563405886,2871
777.2411240781092,2815
779.4982773339183,2790
781.7548163303044,2820
784.010741289634,2796
786.2660524343538,2897
788.5207499869881,2862
790.7748341701416,2927
793.0283052064964,2815
795.2811633188143,2760
797.5334087299362,2760
799.7850416627813,2756
802.0360623403484,2823
804.2864709857143,2787
806.5362678220353,2783
808.7854530725468,2853
811.0340269605625,2792
813.2819897094754,2739
815.5293415427581,2738
817.77608268396,2807
820.0222133567116,2832
822.2677337847211,2794
824.5126441917765,2830
826.7569448017433,2825
829.0006358385675,2834
831.2437175262731,2882
833.4861900889629,2767
835.7280537508192,2794
837.9693087361026,2874
840.2099552691533,2781
842.4499935743896,2888
844.689423876309,2821
846.9282463994886,2804
849.1664613685833,2851
851.4040690083276,2826
853.6410695435349,2776
855.877463199097,2861
858.1132501999847,2757
860.3484307712487,2812
862.5830051380175,2844
864.8169735254988,2805
867.0503361589791,2859
869.2830932638243,2935
871.5152450654786,2842
873.7467917894654,2916
875.9777336613873,2946
878.2080709069252,2907
880.4378037518389,2824
882.666932421968,2840
884.8954571432301,2841
887.1233781416219,2948
889.3506956432192,2939
891.5774098741766,2928
893.803521060728,2980
896.0290294291852,2957
898.2539352059397,2841
900.4782386174619,2866
902.7019398903011,2920
904.925039251085,2957
907.147536926521,3011
909.3694331433943,2971
911.59072812857,2859
913.8114221089921,2924
916.0315153116827,2918
918.2510079637437,2949
920.4699002923547,2895
922.6881925247761,2920
924.905884888345,2886
927.1229776104793,2930
929.3394709186747,2811
931.555365040506,2845
933.7706602036275,2867
935.9853566357709,2858
938.1994545647489,2902
940.4129542184515,2920
942.6258558248488,2888
944.8381596119883,2855
947.0498658079974,2819
949.2609746410825,2877
951.4714863395287,2745
953.6814011316998,2915
955.8907192460387,2773
958.0994409110671,2822
960.3075663553858,2836
962.5150958076741,2805
964.7220294966913,2820
966.928367651274,2789
969.1341105003388,2785
971.3392582728806,2673
973.5438111979742,2733
975.747769504772,2769
977.9511334225061,2752
980.153903180487,2780
982.3560790081052,2758
984.5576611348289,2753
986.7586497902058,2732
988.9590452038618,2660
991.158847605503,2766
993.3580572249133,2692
995.5566742919558,2634
997.7546990365728,2687
999.952131688785,2626
1002.1489724786926,2692
1004.3452216364743,2664
1006.5408793923874,2577
1008.7359459767691,2533
1010.9304216200343,2615
1013.1243065526781,2621
1015.3176010052733,2596
1017.510305208472,2499
1019.7024193930064,2579
1021.8939437896848,2520
1024.0848786293977,2525
1026.2752241431122,2533
1028.4649805618747,2528
1030.6541481168115,2595
1032.842727039127,2450
1035.0307175601051,2548
1037.2181199111074,2557
1039.4049343235752,2502
1041.591161029029,2526
1043.7768002590683,2458
1045.9618522453698,2461
1048.1463172196918,2464
1050.3301954138697,2472
1052.513487059818,2534
1054.69619238953,2550
1056.8783116350783,2412
1059.0598450286152,2427
1061.2407928023704,2463
1063.4211551886528,2439
1065.6009324198508,2561
1067.780124728432,2523
1069.9587323469414,2545
1072.1367555080046,2551
1074.314194444325,2577
1076.4910493886855,2540
1078.667320573947,2414
1080.843008233051,2529
1083.0181125990161,2405
1085.1926339049414,2436
1087.3665723840027,2388
1089.5399282694575,2509
1091.7127017946405,2539
1093.8848931929647,2442
1096.0565026979243,2401
1098.2275305430899,2387
1100.3979769621128,2372
1102.567842188722,2401
1104.737126456726,2414
1106.9058300000124,2387
1109.0739530525475,2484
1111.2414958483764,2408
1113.4084586216231,2379
1115.5748416064907,2380
1117.7406450372605,2396
1119.9058691482942,2496
1122.0705141740304,2376
1124.2345803489884,2319
1126.3980679077658,2359
1128.5609770850388,2291
1130.7233081155623,2465
1132.8850612341707,2368
1135.0462366757774,2344
1137.2068346753745,2424
1139.3668554680326,2423
1141.526299288901,2421
1143.68516637321,2356
1145.8434569562655,2407
1148.001171273455,2388
1150.158309560244,2308
1152.3148720521767,2381
1154.470858984876,2414
1156.626270594044,2442
1158.7811071154629,2331
1160.9353687849912,2313
1163.089055838569,2321
1165.242168512213,2302
1167.3947070420209,2340
1169.5466716641677,2400
1171.6980626149075,2356
1173.8488801305748,2364
1175.9991244475814,2281
1178.1487958024186,2339
1180.2978944316555,2370
1182.4464205719428,2314
1184.5943744600072,2369
1186.7417563326567,2445
1188.8885664267755,2345
1191.0348049793297,2313
1193.1804722273619,2340
1195.325568407995,2362
1197.4700937584303,2215
1199.614048515948,2248
1201.7574329179074,2315
1203.900247201746,2388
1206.042491604982,2341
1208.1841663652099,2324
1210.3252717201053,2309
1212.465807907422,2444
1214.6057751649923,2338
1216.7451737307279,2364
1218.8840038426192,2446
1221.0222657387353,2303
1223.1599596572241,2305
1225.2970858363137,2417
1227.4336445143094,2363
1229.5696359295966,2499
1231.705060320639,2428
1233.8399179259786,2490
1235.9742089842384,2478
1238.107933734118,2417
1240.2410924143974,2393
1242.373685263935,2444
1244.5057125216676,2377
1246.6371744266116,2417
1248.7680712178621,2492
1250.898403134593,2424
1253.028170416058,2409
1255.1573733015875,2408
1257.2860120305932,2304
1259.4140868425648,2320
1261.54159797707,2476
1263.6685456737569,2492
1265.7949301723515,2453
1267.9207517126597,2372
1270.046010534565,2430
1272.1707068780306,2400
1274.2948409830983,2435
1276.4184130898889,2360
1278.541423438603,2376
1280.6638722695184,2466
1282.785759822993,2452
1284.9070863394636,2389
1287.0278520594447,2521
1289.1480572235314,2477
1291.2677020723963,2506
1293.3867868467923,2491
1295.5053117875495,2571
1297.623277135579,2431
1299.740683131868,2522
1301.8575300174857,2575
1303.973818033578,2462
1306.0895474213703,2555
1308.2047184221678,2591
1310.3193312773528,2601
1312.4333862283888,2588
1314.5468835168163,2557
1316.659823384255,2470
1318.7722060724045,2554
1320.8840318230418,2539
1322.9953008780249,2522
1325.1060134792888,2576
1327.2161698688478,2549
1329.3257702887959,2553
1331.4348149813054,2574
1333.5433041886276,2542
1335.6512381530933,2591
1337.7586171171101,2534
1339.8654413231675,2471
1341.9717110138317,2496
1344.0774264317488,2563
1346.1825878196432,2536
1348.2871954203192,2667
1350.3912494766587,2607
1352.4947502316231,2571
1354.5976979282532,2501
1356.7000928096686,2622
1358.8019351190665,2526
1360.9032250997243,2515
1363.0039629949988,2586
1365.1041490483235,2524
1367.2037835032133,2582
1369.3028666032606,2566
1371.401398592137,2549
1373.4993797135926,2562
1375.5968102114575,2589
1377.6936903296396,2613
1379.7900203121262,2570
1381.8858004029835,2529
1383.9810308463561,2643
1386.075711886469,2561
1388.1698437676241,2571
1390.2634267342032,2661
1392.356461030667,2623
1394.4489469015557,2666
1396.5408845914872,2665
1398.6322743451592,2623
1400.7231164073469,2649
1402.813411022907,2662
1404.903158436773,2612
1406.9923588939578,2637
1409.0810126395531,2626
1411.1691199187303,2690
1413.2566809767386,2581
1415.343696058907,2609
1417.4301654106425,2613
1419.5160892774315,2631
1421.6014679048399,2667
1423.6863015385125,2631
1425.7705904241707,2654
1427.8543348076178,2648
1429.9375349347342,2745
1432.0201910514802,2683
1434.102303403894,2769
1436.1838722380944,2734
1438.2648978002767,2703
1440.3453803367174,2718
1442.4253200937692,2656
1444.5047173178677,2689
1446.5835722555234,2746
1448.6618851533285,2798
1450.739656257952,2828
1452.8168858161434,2804
1454.8935740747306,2817
1456.96972128062,2833
1459.045327680797,2898
1461.120393522327,2836
1463.1949190523528,2821
1465.2689045180973,2921
1467.3423501668608,2821
1469.415256246024,2861
1471.4876230030463,2860
1473.559450685465,2961
1475.6307395408976,2898
1477.7014898170391,3001
1479.771701761665,3039
1481.8413756226287,2997
1483.9105116478618,3029
1485.9791100853772,3027
1488.0471711832643,3134
1490.1146951896926,3049
1492.1816823529098,2972
1494.2481329212433,3097
1496.3140471430984,3049
1498.3794252669609,3193
1500.4442675413939,3128
1502.5085742150404,3099
1504.572345536622,3151
1506.6355817549388,3093
1508.6982831188702,3097
1510.7604498773744,3158
1512.8220822794883,3238
1514.8831805743293,3220
1516.9437450110909,3251
1519.003775839048,3179
1521.0632733075522,3256
1523.1222376660367,3280
1525.1806691640113,3237
1527.2385680510652,3211
1529.2959345768668,3254
1531.3527689911643,3270
1533.4090715437833,3329
1535.4648424846291,3447
1537.5200820636855,3367
1539.5747905310159,3340
1541.6289681367616,3355
1543.6826151311434,3389
1545.7357317644614,3355
1547.7883182870937,3390
1549.8403749494987,3486
1551.8919020022113,3602
1553.9428996958477,3512
1555.9933682811015,3465
1558.0433080087469,3659
1560.0927191296346,3678
1562.1416018946961,3621
1564.1899565549415,3601
1566.2377833614592,3725
1568.2850825654164,3680
1570.3318544180606,3490
1572.3780991707158,3611
1574.423817074788,3483
1576.4690083817595,3413
1578.5136733431923,3380
1580.5578122107272,3375
1582.601425236085,3347
1584.6445126710646,3179
1586.6870747675434,3092
1588.7291117774776,3091
1590.7706239529034,3016
1592.8116115459347,2966
1594.8520748087658,2947
1596.8920139936686,2911
1598.9314293529933,2809
1600.9703211391711,2861
1603.008689604711,2883
1605.0465350022005,2804
1607.0838575843068,2822
1609.1206576037753,2729
1611.1569353134305,2737
1613.1926909661765,2696
1615.2279248149953,2804
1617.2626371129481,2696
1619.2968281131757,2729
1621.3304980688963,2656
1623.3636472334088,2599
1625.39627586009,2709
1627.428384202396,2598
1629.459972513861,2615
1631.4910410480993,2655
1633.5215900588028,2669
1635.551619799744,2598
1637.5811305247717,2514
1639.6101224878166,2653
1641.6385959428862,2562
1643.6665511440683,2637
1645.693988345528,2595
1647.7209078015112,2594
1649.7473097663405,2537
1651.7731944944203,2618
1653.7985622402307,2563
1655.823413258333,2633
1657.847747803366,2666
1659.8715661300494,2576
1661.8948684931793,2555
1663.9176551476316,2572
1665.9399263483624,2626
1667.9616823504057,2588
1669.982923408873,2568
1672.0036497789574,2551
1674.0238617159293,2564
1676.043559475138,2534
1678.0627433120121,2456
1680.081413482059,2513
1682.0995702408654,2538
1684.117213844096,2586
1686.134344547495,2569
1688.1509626068864,2515
1690.1670682781705,2540
1692.182661817329,2603
1694.1977434804217,2518
1696.2123135235875,2496
1698.226372203043,2436
1700.2399197750851,2475
1702.2529564960905,2536
1704.2654826225112,2596
1706.277498410882,2531
1708.2890041178139,2489
1710.2999999999988,2475
1712.3104863142066,2518
1714.3204633172854,2584
1716.329931266163,2563
1718.3388904178469,2473
1720.3473410294214,2561
1722.3552833580516,2557
1724.3627176609807,2514
1726.3696441955308,2514
1728.3760632191033,2584
1730.3819749891782,2607
1732.3873797633146,2487
1734.3922777991502,2552
1736.3966693544012,2515
1738.4005546868639,2492
1740.4039340544127,2499
1742.406807715001,2517
1744.4091759266616,2541
1746.4110389475054,2511
1748.4123970357223,2560
1750.413250449582,2490
1752.4135994474318,2614
1754.4134442876993,2517
1756.4127852288902,2492
1758.4116225295893,2510
1760.4099564484595,2441
1762.407787244244,2474
1764.405115175764,2471
1766.4019405019203,2492
1768.3982634816916,2526
1770.3940843741357,2504
1772.3894034383907,2405
1774.3842209336717,2484
1776.378537119274,2487
1778.372352254571,2486
1780.3656665990156,2473
1782.3584804121397,2507
1784.3507939535534,2508
1786.3426074829463,2500
1788.3339212600863,2458
1790.3247355448211,2407
1792.3150505970766,2471
1794.3048666768573,2533
1796.2941840442477,2484
1798.2830029594106,2529
1800.2713236825884,2628
1802.2591464741004,2603
1804.2464715943465,2518
1806.2332993038058,2551
1808.2196298630352,2570
1810.2054635326708,2613
1812.190800573428,2625
1814.175641246101,2520
1816.1599858115628,2488
1818.1438345307652,2572
1820.127187664738,2541
1822.1100454745924,2452
1824.092408221516,2540
1826.0742761667766,2559
1828.055649571721,2478
1830.0365286977735,2506
1832.0169138064398,2545
1833.9968051593014,2667
1835.9762030180214,2640
1837.9551076443408,2510
1839.9335193000788,2534
1841.9114382471344,2526
1843.888864747485,2560
1845.8657990631878,2562
1847.842241456378,2496
1849.8181921892697,2439
1851.7936515241558,2490
1853.7686197234098,2533
1855.7430970494815,2454
1857.7170837649014,2528
1859.6905801322787,2482
1861.6635864143004,2510
1863.6361028737338,2540
1865.608129773424,2612
1867.5796673762961,2549
1869.5507159453537,2463
1871.521275743678,2542
1873.4913470344313,2509
1875.4609300808534,2543
1877.4300251462632,2594
1879.3986324940588,2664
1881.366752387717,2568
1883.3343850907936,2592
1885.3015308669228,2487
1887.268189979819,2602
1889.2343626932739,2551
1891.2000492711595,2524
1893.1652499774254,2558
1895.1299650761011,2609
1897.0941948312952,2495
1899.0579395071945,2506
1901.0211993680641,2564
1902.98397467825,2540
1904.9462657021745,2676
1906.9080727043415,2626
1908.869395949332,2575
1910.8302357018065,2572
1912.790592226504,2549
1914.7504657882428,2560
1916.7098566519212,2548
1918.6687650825133,2540
1920.6271913450764,2586
1922.5851357047422,2542
1924.5425984267245,2486
1926.499579776314,2507
1928.4560800188833,2586
1930.4120994198802,2552
1932.367638244833,2580
1934.32269675935,2568
1936.2772752291175,2585
1938.231373919899,2637
1940.1849930975404,2611
1942.1381330279637,2502
1944.0907939771696,2530
1946.0429762112412,2489
1947.9946799963363,2504
1949.9459055986945,2533
1951.896653284633,2521
1953.8469233205478,2496
1955.7967159729142,2489
1957.7460315082863,2584
1959.6948701932974,2559
1961.6432322946594,2493
1963.5911180791632,2595
1965.5385278136787,2475
1967.4854617651545,2529
1969.4319202006182,2593
1971.377903387176,2512
1973.3234115920136,2496
1975.268445082395,2535
1977.2130041256642,2551
1979.1570889892423,2565
1981.1006999406304,2499
1983.04383724741,2453
1984.986501177238,2521
1986.928691997853,2516
1988.8704099770712,2493
1990.811655382789,2449
1992.7524284829801,2451
1994.692729545698,2525
1996.6325588390755,2450
1998.5719166313224,2580
2000.5108031907307,2536
2002.4492187856677,2538
2004.387163684583,2482
2006.3246381560011,2464
2008.2616424685298,2515
2010.1981768908527,2506
2012.1342416917332,2506
2014.069837140014,2436
2016.0049635046162,2486
2017.9396210545406,2502
2019.8738100588666,2497
2021.8075307867502,2479
2023.740783507431,2478
2025.6735684902228,2533
2027.6058860045214,2440
2029.5377363198004,2418
2031.4691197056118,2456
2033.4000364315875,2442
2035.3304867674374,2526
2037.260470982952,2496
2039.189989347998,2486
2041.1190421325232,2546
2043.047629606554,2468
2044.9757520401945,2423
2046.9034097036288,2390
2048.8306028671195,2363
2050.7573318010086,2433
2052.683596775716,2454
2054.609398061742,2423
2056.5347359296647,2457
2058.4596106501403,2421
2060.384022493906,2497
2062.3079717317764,2526
2064.231458634646,2463
2066.1544834734873,2451
2068.077046519352,2477
2069.99914804337,2531
2071.9207883167524,2499
2073.8419676107865,2446
2075.7626861968406,2445
2077.6829443463607,2479
2079.6027423308715,2498
2081.522080421977,2418
2083.440958891362,2384
2085.359378010786,2455
2087.2773380520907,2389
2089.194839287196,2458
2091.111881988101,2417
2093.0284664268825,2387
2094.9445928756973,2445
2096.86026160678,2429
2098.775472892446,2396
2100.690227005088,2407
2102.604524217178,2473
2104.5183648012676,2405
2106.431749029985,2472
2108.34467717604,2388
2110.2571495122206,2391
2112.169166311393,2496
2114.080727846503,2446
2115.9918343905747,2381
2117.902486216711,2506
2119.8126835980956,2440
2121.722426807987,2407
2123.6317161197285,2454
2125.5405518067364,2486
2127.448934142509,2412
2129.356863400624,2447
2131.264339854737,2406
2133.1713637785815,2453
2135.077935445972,2411
2136.9840551308002,2429
2138.889723107037,2465
2140.7949396487334,2421
2142.699705030018,2436
2144.6040195250994,2516
2146.507883408264,2503
2148.4112969538774,2446
2150.3142604363848,2512
2152.2167741303097,2504
2154.1188383102535,2497
2156.0204532508997,2468
2157.9216192270064,2408
2159.822336513414,2360
2161.7226053850413,2476
2163.622426116884,2407
2165.5217989840185,2455
2167.4207242616,2474
2169.319202224862,2518
2171.2172331491165,2435
2173.1148173097563,2419
2175.0119549822507,2504
2176.90864644215,2578
2178.8048919650823,2529
2180.7006918267534,2427
2182.596046302952,2481
2184.4909556695407,2571
2186.3854202024645,2508
2188.279440177746,2420
2190.173015871487,2469
2192.066147559868,2472
2193.958835519149,2548
2195.851080025667,2434
2197.7428813558417,2512
2199.6342397861667,2484
2201.5251555932186,2474
2203.415629053651,2474
2205.3056604441986,2464
2207.19525004167,2485
2209.084398122958,2502
2210.9731049650327,2523
2212.861370844941,2512
2214.749196039812,2525
2216.636580826851,2536
2218.523525483344,2444
2220.410030286655,2520
2222.296095514226,2533
2224.1817214435805,2492
2226.066908352319,2479
2227.951656518121,2515
2229.835966218746,2631
2231.71983773203,2468
2233.6032713358913,2536
2235.486267308324,2457
2237.3688259274036,2515
2239.2509474712824,2532
2241.132632218193,2521
2243.013880446447,2506
2244.8946924344323,2589
2246.7750684606203,2564
2248.6550088035574,2479
2250.534513741871,2530
2252.413583554265,2497
2254.292218519526,2523
2256.170418916517,2489
2258.0481850241786,2440
2259.925517121534,2387
2261.8024154876825,2459
2263.678880401803,2521
2265.5549121431536,2532
2267.430510991071,2536
2269.305677224971,2421
2271.180411124348,2467
2273.0547129687766,2458
2274.9285830379076,2437
2276.8020216114737,2399
2278.6750289692845,2475
2280.5476053912294,2479
2282.4197511572766,2526
2284.2914665474727,2519
2286.162751841943,2465
2288.0336073208937,2520
2289.904033264608,2472
2291.774029953448,2435
2293.6435976678554,2521
2295.5127366883517,2452
2297.381447295534,2415
2299.2497297700825,2315
2301.1175843927526,2361
2302.9850114443825,2359
2304.852011205885,2328
2306.7185839582553,2351
2308.5847299825664,2230
2310.4504495599676,2252
2312.3157429716925,2274
2314.1806104990483,2240
2316.0450524234247,2312
2317.9090690262888,2274
2319.772660589186,2331
2321.635827393742,2321
2323.498569721661,2337
2325.3608878547248,2218
2327.2227820747967,2265
2329.0842526638157,2243
2330.945299903803,2230
2332.805924076857,2287
2334.6661254651535,2267
2336.525904350951,2254
2338.3852610165827,2199
2340.244195744464,2219
2342.102708817088,2283
2343.9608005170253,2276
2345.8184711269287,2274
2347.675720929526,2301
2349.532550207628,2305
2351.38895924412,2275
2353.24494832197,2244
2355.100517724223,2209
2356.955667734004,2231
2358.810398634514,2237
2360.664710709037,2297
2362.5186042409337,2310
2364.3720795136437,2278
2366.225136810686,2201
2368.0777764156583,2291
2369.929998612237,2257
2371.7818036841777,2198
2373.633191915315,2203
2375.484163589562,2280
2377.3347189909114,2234
2379.184858403434,2232
2381.03458211128,2242
2382.8838903986775,2262
2384.732783549936,2214
2386.5812618494406,2264
2388.4293255816588,2211
2390.2769750311327,2221
2392.1242104824883,2230
2393.971032220427,2265
2395.8174405297295,2274
2397.6634356952563,2227
2399.509018001947,2235
2401.3541877348193,2317
2403.1989451789705,2302
2405.043290619576,2247
2406.8872243418905,2246
2408.730746631247,2202
2410.5738577730594,2303
2412.4165580528183,2260
2414.258847756095,2206
2416.100727168537,2272
2417.9421965758734,2182
2419.783256263912,2241
2421.623906518538,2223
2423.4641476257157,2232
2425.303979871491,2240
2427.143403541984,2247
2428.9824189233977,2258
2430.821026302012,2287
2432.6592259641866,2272
2434.497018196361,2318
2436.33440328505,2162
2438.171381516851,2174
2440.00795317844,2236
2441.844118556569,2265
2443.6798779380724,2266
2445.5152316098606,2171
2447.3501798589255,2206
2449.1847229723357,2262
2451.0188612372403,2175
2452.8525949408663,2237
2454.6859243705203,2212
2456.518849813587,2214
2458.3513715575314,2257
2460.183489889895,2221
2462.015205098301,2219
2463.8465174704493,2176
2465.67742729412,2242
2467.5079348571717,2294
2469.338040447542,2195
2471.1677443532476,2204
2472.9970468623833,2253
2474.825948263123,2244
2476.6544488437207,2240
2478.482548892508,2281
2480.310248697896,2230
2482.137548548374,2183
2483.9644487325118,2296
2485.790949538956,2307
2487.617051256433,2237
2489.44275417375,2244
2491.26805857979,2208
2493.0929647635157,2224
2494.917473013971,2228
2496.741583620276,2175
2498.5652968716304,2244
2500.3886130573137,2209
2502.2115324666834,2278
2504.0340553891765,2252
2505.856182114308,2182
2507.6779129316733,2200
2509.499248130945,2244
2511.3201880018764,2176
2513.140732834298,2273
2514.9608829181198,2217
2516.780638543331,2172
2518.6,2213
2520.418967578273,2255
2522.237541568376,2242
2524.0557222606144,2154
2525.8735099453706,2159
2527.6909049131086,2252
2529.507907454368,2225
2531.32451785977,2221
2533.140736420014,2209
2534.9565634258774,2208
2536.771999168218,2285
2538.5870439379714,2172
2540.4016980261526,2251
2542.2159617238544,2284
2544.02983532225,2238
2545.8433191125914,2371
2547.656413386209,2208
2549.4691184345115,2286
2551.2814345489874,2322
2553.093362021204,2212
2554.904901142808,2238
2556.716052205523,2202
2558.526815501153,2217
2560.3371913215824,2195
2562.147179958771,2208
2563.956781704761,2270
2565.7659968516705,2310
2567.5748256916986,2262
2569.3832685171224,2292
2571.1913256202984,2286
2572.9989972936614,2302
2574.806283829725,2284
2576.613185521084,2293
2578.4197026604074,2329
2580.2258355404483,2293
2582.031584454035,2304
2583.836949694077,2274
2585.6419315535613,2270
2587.4465303255533,2286
2589.2507463032002,2399
2591.0545797797245,2341
2592.8580310484303,2309
2594.6611004026995,2297
2596.463788135992,2314
2598.266094541849,2272
2600.0680199138874,2302
2601.869564545807,2312
2603.670728731383,2296
2605.4715127644704,2321
2607.2719169390048,2276
2609.071941548998,2322
2610.8715868885433,2354
2612.670853251811,2318
2614.469740933052,2341
2616.268250226594,2385
2618.0663814268455,2270
2619.864134828292,2334
2621.6615107255006,2210
2623.458509413115,2291
2625.2551311858597,2335
2627.0513763385347,2311
2628.8472451660223,2316
2630.6427379632833,2343
2632.4378550253564,2307
2634.232596647359,2266
2636.026963124488,2257
2637.8209547520187,2346
2639.6145718253065,2200
2641.407814639785,2284
2643.200683490966,2233
2644.9931786744414,2294
2646.7853004858807,2242
2648.577049221034,2223
2650.3684251757277,2217
2652.1594286458712,2227
2653.9500599274484,2174
2655.740319316525,2240
2657.5302071092437,2169
2659.3197236018286,2243
2661.10886909058,2266
2662.8976438718782,2179
2664.686048242183,2180
2666.4740824980327,2182
2668.2617469360443,2166
2670.0490418529134,2233
2671.8359675454153,2239
2673.622524310403,2183
2675.408712444811,2213
2677.1945322456495,2170
2678.979984010009,2220
2680.76506803506,2157
2682.5497846180497,2185
2684.334134056306,2146
2686.1181166472343,2114
2687.9017326883213,2157
2689.6849824771293,2101
2691.4678663113013,2178
2693.2503844885596,2137
2695.032537306705,2104
2696.8143250636167,2134
2698.5957480572542,2197
2700.3768065856534,2143
2702.1575009469316,2061
2703.937831439283,2112
2705.717798360982,2082
2707.4974020103837,2184
2709.276642685917,2168
2711.055520686095,2094
2712.834036309506,2136
2714.612189854819,2141
2716.389981620782,2049
2718.1674119062204,2088
2719.944481010041,2106
2721.721189231226,2073
2723.4975368688415,2069
2725.273524222027,2119
2727.0491515900053,2041
2728.824419272075,2051
2730.5993275676146,2076
2732.3738767760838,2088
2734.148067197016,2065
2735.921899130031,2027
2737.6953728748194,2094
2739.468488731156,2078
2741.2412469988926,2037
2743.0136479779617,2100
2744.785691968372,2048
2746.5573792702116,2056
2748.3287101836504,2042
2750.099685008934,2098
2751.870304046388,2095
2753.640567596418,2006
2755.4104759595057,2052
2757.1800294362156,2067
2758.949228327187,2133
2760.7180729331412,2076
2762.486563554877,2074
2764.254700493272,2025
2766.022484049284,1994
2767.789914523947,2040
2769.5569922183786,1993
2771.3237174337705,2037
2773.090090471394,2135
2774.8561116326036,2118
2776.6217812188274,2084
2778.3870995315756,2078
2780.1520668724356,1988
2781.9166835430747,2070
2783.6809498452394,2071
2785.444866080754,2055
2787.2084325515225,2056
2788.971649559527,2028
2790.73451740683,2016
2792.4970363955713,2070
2794.2592068279705,2093
2796.0210290063264,2056
2797.7825032330147,2058
2799.543629810493,2117
2801.304409041296,2065
2803.0648412280366,1991
2804.8249266734088,2047
2806.5846656801846,2085
2808.344058551212,2116
2810.1031055894246,2035
2811.8618070978273,2097
2813.6201633795085,2058
2815.378174737636,2017
2817.1358414754536,2086
2818.893163896285,2011
2820.6501423035334,2096
2822.4067770006814,2038
2824.1630682912883,2104
2825.9190164789957,1987
2827.6746218675207,2079
2829.429884760661,2099
2831.184805462294,2026
2832.9393842763743,2024
2834.693621506936,2048
2836.4475174580916,2001
2838.201072434034,2044
2839.954286739034,2059
2841.707160677441,2026
2843.459694553685,2056
2845.2118886722724,2040
2846.96374333779,1976
2848.7152588549034,2060
2850.4664355283567,2132
2852.217273662973,2074
2853.9677735636546,2112
2855.7179355353833,2062
2857.4677598832186,2002
2859.217246912299,2055
2860.9663969278427,2112
2862.715210235146,1993
2864.4636871395846,2074
2866.211827946614,1948
2867.9596329617652,2053
2869.7071024906536,2091
2871.4542368389684,2051
2873.20103631248,2014
2874.947501217038,2024
2876.6936318585695,2023
2878.4394285430812,2012
2880.1848915766604,1986
2881.9300212654707,2052
2883.6748179157553,2003
2885.4192818338374,2033
2887.1634133261173,2016
2888.907212699077,1995
2890.6506802592744,2129
2892.393816313348,2011
2894.1366211680142,1992
2895.8790951300693,2080
2897.621238506388,2066
2899.363051603925,2012
2901.1045347297118,2078
2902.8456881908596,2007
2904.58651229456,1939
2906.327007348081,2001
2908.067173658772,2047
2909.8070115340597,1980
2911.5465212814497,1949
2913.285703208527,2005
2915.0245576229563,2036
2916.7630848324807,2019
2918.5012851449196,1905
2920.2391588681758,1980
2921.976706310227,1970
2923.7139277791334,1995
2925.4508235830313,1952
2927.187394030137,1970
2928.923639428745,1911
2930.6595600872306,1969
2932.395156314046,2005
2934.1304284177218,2037
2935.8653767068713,2004
2937.6000014901815,1954
2939.3343030764227,1996
2941.068281774442,1995
2942.8019378931644,2071
2944.5352717415976,2015
2946.2682836288236,2077
2948.0009738640065,2053
2949.7333427563885,1932
2951.465390615289,1951
2953.1971177501086,2051
2954.9285244703265,2000
2956.6596110855,1964
2958.3903779052657,1893
2960.1208252393385,2033
2961.8509533975125,2012
2963.5807626896617,1974
2965.3102534257378,1954
2967.0394259157715,1984
2968.768280469873,1937
2970.496817398232,2009
2972.2250370111146,1996
2973.952939618869,1923
2975.6805255319196,1926
2977.4077950607707,2004
2979.134748516006,2022
2980.861386208289,1943
2982.587708448359,1999
2984.313715547037,1964
2986.039407815222,2052
2987.764785563891,1967
2989.489849104102,2045
2991.2145987469908,1931
2992.9390348037705,1993
2994.6631575857346,2003
2996.3869674042576,1997
2998.1104645707887,2019
2999.83364939686,1932
3001.5565221940783,1953
3003.2790832741334,1985
3005.0013329487924,1912
3006.7232715298996,1940
3008.4448993293804,1930
3010.166216659239,1933
3011.887223831558,1924
3013.607921158498,1912
3015.3283089522993,1947
3017.0483875252826,1950
3018.7681571898443,1959
3020.4876182584626,1918
3022.2067710436927,1965
3023.9256158581707,1993
3025.644153014609,1909
3027.362382825801,1901
3029.0803056046193,2020
3030.797921664012,1976
3032.5152313170106,1925
3034.2322348767225,1905
3035.9489326563353,1901
3037.665324969115,1924
3039.3814121284063,1911
3041.097194447633,1882
3042.812672240299,1937
3044.5278458199855,1936
3046.2427155003525,1956
3047.9572815951406,1965
3049.671544418167,1937
3051.38550428333,1875
3053.0991615046073,1966
3054.812516396051,1911
3056.5255692717974,1868
3058.2383204460575,1993
3059.9507702331257,1940
3061.662918947372,1879
3063.3747669032446,1903
3065.0863144152736,1909
3066.7975617980674,1942
3068.508509366309,1849
3070.219157434767,1967
3071.9295063182844,1858
3073.639556331785,1928
3075.3493077902704,1906
3077.058761008821,1854
3078.7679163025964,1955
3080.476773986837,1946
3082.1853343768594,1860
3083.89359778806,1896
3085.6015645359153,1977
3087.3092349359786,1826
3089.016609303884,1918
3090.7236879553434,1945
3092.4304712061476,1856
3094.136959372166,1807
3095.843152769349,1919
3097.5490517137237,1973
3099.2546565213966,1915
3100.959967508554,1824
3102.66498499146,1801
3104.3697092864577,1928
3106.0741407099695,1863
3107.778279578498,1864
3109.482126208622,1897
3111.1856809170004,1928
3112.8889440203716,1879
3114.5919158355528,1908
3116.294596679439,1880
3117.996986869006,1923
3119.6990867213062,1875
3121.4008965534726,1925
3123.102416682717,1915
3124.803647426329,1919
3126.5045891016784,1931
3128.205242026213,1853
3129.90560651746,1932
3131.605682893025,1889
3133.3054714705922,1924
3135.0049725679282,1911
3136.7041865028714,1880
3138.4031135933465,1900
3140.101754157353,1865
3141.800108512971,1902
3143.498176978357,1926
3145.1959598717494,1831
3146.8934575114636,1786
3148.5906702158954,1790
3150.2875983035183,1868
3151.9842420928853,1848
3153.680601902627,1882
3155.376678051456,1826
3157.07247085816,1862
3158.767980641609,1865
3160.463207720748,1902
3162.158152414606,1866
3163.8528150422862,1815
3165.5471959229726,1869
3167.2412953759303,1882
3168.9351137204976,1893
3170.628651276098,1891
3172.3219083622307,1876
3174.014885298474,1901
3175.707582404485,1875
3177.4000000000005,1812
3179.092138404835,1852
3180.7839979388846,1824
3182.47557892212,1849
3184.166881674594,1866
3185.8579065164386,1833
3187.5486537678626,1927
3189.2391237491547,1904
3190.9293167806827,1854
3192.6192331828934,1873
3194.3088732763117,1871
3195.998237381542,1845
3197.687325819268,1865
3199.376138910251,1802
3201.064676975334,1819
3202.7529403354347,1911
3204.4409293115523,1871
3206.1286442247647,1814
3207.816085396229,1859
3209.5032531471825,1842
3211.190147798936,1865
3212.8767696728846,1810
3214.5631190905015,1828
3216.2491963733373,1804
3217.9350018430214,1846
3219.6205358212637,1771
3221.305798629851,1762
3222.990790590651,1768
3224.6755120256103,1754
3226.359963256751,1737
3228.0441446061795,1819
3229.7280563960758,1797
3231.411698948703,1777
3233.0950725863995,1874
3234.778177631587,1856
3236.461014406761,1833
3238.1435832345005,1851
3239.8258844374595,1877
3241.507918338374,1850
3243.1896852600576,1816
3244.8711855254023,1847
3246.552419457381,1784
3248.233387379042,1823
3249.914089613516,1824
3251.59452648401,1804
3253.274698313813,1766
3254.95460542629,1830
3256.6342481448855,1827
3258.313626793125,1817
3259.9927416946084,1741
3261.6715931730196,1832
3263.3501815521176,1750
3265.0285071557437,1753
3266.706570307815,1804
3268.3843713323286,1778
3270.0619105533615,1754
3271.739188295068,1823
3273.4162048816834,1815
3275.0929606375184,1803
3276.769455886966,1819
3278.445690954498,1807
3280.1216661646613,1833
3281.797381842087,1803
3283.4728383114807,1832
3285.1480358976296,1806
3286.8229749253996,1841
3288.4976557197333,1778
3290.172078605655,1745
3291.846243908266,1812
3293.5201519527463,1770
3295.193803064357,1778
3296.8671975684374,1829
3298.5403357904024,1866
3300.21321805575,1719
3301.8858446900567,1801
3303.558216018975,1775
3305.23033236824,1867
3306.9021940636603,1803
3308.57380143113,1773
3310.2451547966184,1832
3311.916254486174,1806
3313.5871008259246,1783
3315.2576941420766,1801
3316.9280347609147,1787
3318.5981230088046,1775
3320.2679592121895,1806
3321.9375436975924,1751
3323.606876791612,1771
3325.27595882093,1721
3326.944790112305,1717
3328.6133709925753,1751
3330.2817017886573,1690
3331.949782827547,1733
3333.617614436319,1747
3335.2851969421245,1816
3336.952530672199,1840
3338.619615953853,1804
3340.286453114475,1807
3341.9530424815357,1757
3343.619384382583,1745
3345.2854791452437,1797
3346.951327097224,1812
3348.6169285663073,1842
3350.2822838803577,1808
3351.947393367319,1830
3353.61225735521,1782
3355.2768761721345,1815
3356.9412501462693,1765
3358.605379605873,1804
3360.2692648792827,1764
3361.9329062949146,1744
3363.596304181263,1739
