CollectionTime,7/10/2024 3:08:26 PM
ExposureUsed,3
CalibratedSpectrum
-962.7078968117929,577
-959.9714848408522,632
-957.2358232597828,631
-954.5009119013725,614
-951.7667505983302,669
-949.0333391832855,664
-946.3006774887896,646
-943.5687653473143,627
-940.837602591253,647
-938.1071890529199,668
-935.3775245645503,631
-932.6486089583007,657
-929.9204420662485,655
-927.1930237203925,645
-924.4663537526524,651
-921.7404319948689,672
-919.0152582788041,687
-916.2908324361409,770
-913.5671542984834,710
-910.8442236973568,667
-908.1220404642074,672
-905.4006044304027,713
-902.679915427231,704
-899.959973285902,617
-897.2407778375464,626
-894.5223289132158,672
-891.8046263438832,677
-889.0876699604426,641
-886.3714595937089,634
-883.6559950744183,660
-880.9412762332282,628
-878.2273029007168,630
-875.5140749073835,614
-872.8015920836489,629
-870.0898542598545,648
-867.3788612662631,620
-864.6686129330585,635
-861.9591090903457,683
-859.2503495681506,666
-856.5423341964203,658
-853.8350628050229,658
-851.1285352237478,659
-848.4227512823054,673
-845.7177108103272,653
-843.0134136373656,637
-840.3098595928943,675
-837.6070485063082,721
-834.9049802069229,703
-832.2036545239757,665
-829.5030712866244,670
-826.8032303239481,632
-824.1041314649472,672
-821.4057745385428,675
-818.7081593735775,654
-816.0112857988148,714
-813.3151536429393,654
-810.6197627345566,639
-807.9251129021936,666
-805.2312039742981,712
-802.5380357792392,735
-799.8456081453069,750
-797.1539209007124,713
-794.462973873588,740
-791.772766891987,739
-789.083299783884,690
-786.3945723771743,718
-783.7065844996748,749
-781.0193359791231,678
-778.3328266431781,692
-775.6470563194197,721
-772.9620248353489,689
-770.2777320183878,685
-767.5941776958798,723
-764.9113616950891,717
-762.2292838432011,712
-759.5479439673222,693
-756.8673418944801,740
-754.1874774516235,703
-751.5083504656222,709
-748.8299607632671,750
-746.15230817127,737
-743.475392516264,775
-740.7992136248035,765
-738.1237713233636,762
-735.4490654383407,763
-732.7750957960521,777
-730.1018622227365,783
-727.4293645445534,733
-724.7576025875837,693
-722.0865761778291,766
-719.4162851412126,766
-716.7467293035781,769
-714.0779084906909,776
-711.409822528237,778
-708.7424712418238,754
-706.0758544569796,771
-703.4099719991541,795
-700.7448236937178,775
-698.0804093659622,787
-695.4167288411002,734
-692.7537819442656,767
-690.0915685005134,804
-687.4300883348199,751
-684.7693412720819,734
-682.1093271371178,779
-679.4500457546669,749
-676.7914969493897,817
-674.1336805458676,748
-671.4765963686034,782
-668.8202442420206,750
-666.1646239904642,755
-663.5097354382001,806
-660.8555784094151,775
-658.2021527282176,809
-655.5494582186366,797
-652.8974947046223,829
-650.2462620100463,768
-647.5957599587009,813
-644.9459883742998,844
-642.2969470804776,857
-639.6486359007902,837
-637.0010546587141,887
-634.3542031776476,843
-631.7080812809096,862
-629.0626887917401,816
-626.4180255333008,856
-623.7740913286734,865
-621.1308860008619,862
-618.4884093727904,827
-615.8466612673046,863
-613.2056415071715,807
-610.5653499150785,832
-607.9257863136347,850
-605.28695052537,791
-602.6488423727357,832
-600.0114616781036,853
-597.3748082637674,918
-594.7388819519412,951
-592.1036825647604,889
-589.4692099242818,914
-586.8354638524829,866
-584.2024441712624,890
-581.5701507024403,952
-578.9385832677575,955
-576.3077416888759,998
-573.6776257873787,924
-571.0482353847704,898
-568.4195703024757,959
-565.7916303618415,860
-563.164415384135,857
-560.5379251905453,872
-557.9121596021815,892
-555.2871184400748,954
-552.6628015251767,929
-550.0392086783606,935
-547.4163397204204,927
-544.794194472071,956
-542.1727727539491,967
-539.5520743866118,1004
-536.9320991905377,1042
-534.3128469861261,1055
-531.6943175936979,1075
-529.0765108334947,989
-526.4594265256793,1064
-523.8430644903358,1248
-521.2274245474689,1338
-518.612506517005,1436
-515.9983102187913,1401
-513.3848354725959,1474
-510.77208209810846,1576
-508.16004991493924,1798
-505.5487387426199,2024
-502.9381484006032,2204
-500.3282787082628,2152
-497.71912948489364,2056
-495.1107005497117,1863
-492.5029917218539,1652
-489.8960028203786,1484
-487.28973366426493,1408
-484.68418407241325,1244
-482.07935386364494,1164
-479.47524285670266,1131
-476.87185087025,1133
-474.2691777228715,1212
-471.66722323307334,1165
-469.0659872192821,1131
-466.4654694998459,1168
-463.86566989303384,1151
-461.26658821703614,1125
-458.66822428996414,1112
-456.07057792985,1195
-453.4736489546475,1194
-450.877437182231,1075
-448.28194243039627,1060
-445.68716451686,1108
-443.09310325926003,1103
-440.49975847515555,1119
-437.9071299820263,1121
-435.31521759727354,1177
-432.72402113821954,1194
-430.13354042210767,1191
-427.5437752661022,1203
-424.95472548728867,1171
-422.36639090267386,1206
-419.7787713291855,1321
-417.1918665836721,1374
-414.60567648290385,1298
-412.0202008435715,1251
-409.4354394822874,1296
-406.8513922155845,1319
-404.26805885991723,1311
-401.685439231661,1281
-399.103533147112,1302
-396.522340422488,1236
-393.9418608739278,1202
-391.3620943174908,1171
-388.7830405691583,1159
-386.2046994448317,1134
-383.6270707603344,1134
-381.05015433141045,1057
-378.473949973725,973
-375.8984575028645,914
-373.32367673433623,888
-370.74960748356875,961
-368.1762495659117,893
-365.60360279663576,725
-363.03166699093265,634
-360.4604419639154,636
-357.8899275306178,635
-355.32012350599507,602
-352.7510297049233,604
-350.1826459421999,555
-347.61497203254316,518
-345.04800779059235,511
-342.4817530309082,566
-339.91620756797226,616
-337.35137121618743,564
-334.7872437898774,629
-332.22382510328725,763
-329.66111497058273,653
-327.09911320585127,592
-324.53781962310075,579
-321.9772340362607,607
-319.4173562591816,578
-316.8581861056348,515
-314.2997233893127,588
-311.7419679238294,593
-309.1849195227194,598
-306.62857799943856,669
-304.0729431673641,627
-301.51801483979375,606
-298.963792829947,658
-296.41027695096386,672
-293.85746701590574,723
-291.3053628377552,678
-288.7539642294155,668
-286.2032710037115,634
-283.65328297338897,630
-281.1039999511146,659
-278.5554217494762,786
-276.007548180983,686
-273.4603790580651,648
-270.9139141930734,640
-268.3681533982807,638
-265.8230964858798,578
-263.27874326798565,642
-260.7350935566336,754
-258.1921471637804,839
-255.6499039013039,811
-253.10836358100266,739
-250.56752601459698,710
-248.02739101372765,700
-245.48795838995704,762
-242.94922795476816,767
-240.41119951956557,724
-237.8738728956746,839
-235.33724789434166,817
-232.80132432673452,723
-230.2661020039418,804
-227.73158073697357,814
-225.19776033676033,838
-222.66464061415422,864
-220.1322213799284,838
-217.60050244477725,765
-215.06948361931552,702
-212.53916471408013,895
-210.00954553952818,1050
-207.48062590603843,984
-204.9524056239104,821
-202.4248845033651,893
-199.8980623545441,927
-197.37193898751036,907
-194.84651421224817,857
-192.32178783866232,808
-189.79775967657952,873
-187.27442953574644,990
-184.7517972258321,1088
-182.2298625564256,1031
-179.7086253370378,1031
-177.18808537710026,978
-174.66824248596583,987
-172.14909647290835,998
-169.6306471471229,923
-167.11289431772548,1024
-164.59583779375328,1096
-162.07947738416453,1059
-159.5638128978386,1069
-157.04884414357605,1253
-154.53457093009854,1137
-152.02099306604828,1063
-149.50811035998936,1011
-146.99592262040665,1042
-144.48442965570587,1112
-141.97363127421409,1061
-139.46352728417958,1055
-136.95411749377126,1118
-134.44540171107985,1259
-131.93737974411636,1106
-129.43005140081357,1195
-126.92341648902493,1761
-124.41747481652521,2088
-121.91222619101006,2278
-119.40767042009657,2507
-116.90380731132257,2931
-114.40063667214702,3454
-111.8981583099503,3841
-109.3963720320337,3184
-106.89527764561933,2663
-104.39487495785067,2933
-101.89516377579241,4735
-99.39614390642998,7206
-96.89781515667039,7482
-94.40017733334128,6358
-91.90323024319173,5003
-89.40697369289148,4887
-86.91140748903172,5921
-84.41653143812482,7198
-81.92234534660395,8995
-79.42884902082358,9909
-76.93604226705907,12833
-74.4439248915071,19354
-71.95249670028534,26193
-69.46175749943245,29254
-66.97170709490854,28816
-64.48234529259423,25572
-61.99367189829195,18591
-59.50568671772464,12077
-57.01838955653636,9587
-54.53178022029283,11003
-52.045858514480074,10666
-49.560624244506016,10670
-47.07607721569923,12156
-44.59221723330904,15275
-42.10904410250669,14399
-39.62655762838392,14620
-37.14475761595372,16778
-34.66364387015028,16973
-32.18321619582866,16738
-29.70347439776515,17240
-27.224418280657005,17078
-24.74604764912317,16989
-22.26836230770266,21396
-19.7913620608565,35128
-17.315046712966478,62720
-14.83941606833514,65039
-12.36446993118659,65039
-9.89020810566592,65039
-7.416630395839093,65039
-4.94373660569363,65039
-2.471526539137585,65039
-6.821210263296962E-13,65039
2.47084320796705,65039
4.941003281093458,65039
7.410480415786196,65039
9.879274808531363,65039
12.347386655893956,65039
14.814816154518212,65039
17.28156350112681,65039
19.74762889252179,65039
22.21301252558385,65039
24.67771459727237,23378
27.141735304626195,6015
29.605074844762612,4441
32.06773341487792,3273
34.52971121224755,2700
36.99100843422559,3768
39.45162527824516,3973
41.91156194181792,2663
44.370818622535126,2353
46.82939551806646,2068
49.287292826160524,2513
51.74451074464503,3242
54.201049471426245,3681
56.65690920448981,2966
59.112090141899785,2329
61.56659248179983,2174
64.02041642241159,1701
66.4735621620365,1724
68.92602989905402,1764
71.37781983192338,1495
73.82893215918205,1845
76.27936707944684,1845
78.72912479141326,2203
81.17820549385567,2081
83.62660938562783,1957
86.07433666566146,1950
88.5213875329681,1578
90.96776218663751,1453
93.41346082583925,1340
95.85848364982041,1613
98.30283085790859,1683
100.7465026495089,1686
103.18949922410604,1582
105.63182078126385,1687
108.07346752062438,1946
110.51443964190923,1619
112.95473734491827,1281
115.39436082953114,1343
117.83331029570547,1521
120.27158594347827,1451
122.7091879729652,1620
125.1461165843615,1781
127.58237197794062,1440
130.01795435405518,1185
132.4528639131364,1150
134.88710085569494,1396
137.32066538231982,1187
139.75355769367923,1137
142.1857779905207,1123
144.61732647366978,1048
147.04820334403132,986
149.47840880258934,1064
151.90794305040674,1215
154.33680628862487,1399
156.76499871846443,1561
159.19252054122433,1663
161.61937195828352,1685
164.04555317109896,1955
166.47106438120693,2246
168.89590579022217,2381
171.320077599839,2468
173.7435800118302,2641
176.16641322804742,2724
178.58857745042144,2635
181.01007288096173,2732
183.43089972175687,2781
185.85105817497413,2770
188.27054844285988,2775
190.6893707277394,2964
193.10752523201643,2952
195.5250121581745,2936
197.9418317087751,3061
200.3579840864594,2995
202.7734694939469,3086
205.18828813403627,3163
207.6024402096051,3237
210.01592592360964,3238
212.42874547908548,3135
214.84089907914665,3103
217.2523869269868,3187
219.66320922587727,3268
222.0733661791695,3270
224.48285799029293,3214
226.8916848627572,3200
229.29984700014882,3213
231.7073446061355,3280
234.11417788446204,3199
236.520347038953,3238
238.92585227351185,3208
241.33069379212054,3315
243.73487179884035,3306
246.1383864978112,3342
248.541238093252,3381
250.9434267894609,3285
253.34495279081432,3150
255.74581630176783,3152
258.1460175268563,3131
260.54555667069314,3177
262.9444339379703,3148
265.3426495334594,3257
267.7402036620107,3250
270.1370965285529,3350
272.53332833809407,3315
274.9288992957214,3232
277.32380960660055,3193
279.718059475976,3089
282.1116491091717,3137
284.5045787115897,3221
286.89684848871195,3168
289.2884586460981,3182
291.67940938938807,3249
294.0697009242996,3344
296.4593334566299,3282
298.84830719225477,3272
301.23662233712923,3241
303.6242790972866,3160
306.01127767884,3212
308.39761828798066,3272
310.78330113097934,3199
313.16832641418534,3123
315.5526943440269,3039
317.9364051270112,3099
320.3194589697242,3083
322.70185607883093,3045
325.0835966610754,3013
327.4646809232805,2983
329.8451090723478,2914
332.2248813152577,2994
334.6039978590701,3008
336.9824589109231,3022
339.36026467803447,2907
341.7374153677,2830
344.113911187295,2973
346.48975234427337,2986
348.8649390461686,2943
351.2394715005918,2915
353.61334991523415,2896
355.9865744978655,2948
358.35914545633375,2796
360.73106299856715,2963
363.10232733257146,2942
365.47293866643247,2968
367.84289720831396,2847
370.2122031664593,2832
372.5808567491905,2886
374.9488581649083,2803
377.31620762209275,2774
379.6829053293021,2703
382.0489514951745,2732
384.4143463284262,2787
386.7790900378528,2757
389.14318283232853,2763
391.50662492080653,2841
393.86941651231916,2920
396.23155781597745,2952
398.5930490409713,2852
400.9538903965696,2829
403.3140820921202,2890
405.6736243370498,2749
408.03251734086336,2814
410.3907613131465,2640
412.74835646356166,2647
415.10530300185144,2804
417.4616011378372,2774
419.81725108141893,2655
422.1722530425758,2730
424.5266072313656,2659
426.880313857925,2702
429.2333731324701,2746
431.58578526529516,2727
433.9375504667738,2720
436.2886689473588,2659
438.63914091758113,2751
440.9889665880513,2848
443.33814616945835,2700
445.68667987257015,2651
448.03456790823395,2663
450.3818104873759,2661
452.72840782100013,2695
455.07436012019105,2693
457.41966759611057,2792
459.7643304600007,2697
462.10834892318155,2712
464.4517231970525,2603
466.79445349309174,2684
469.1365400228566,2778
471.4779829979826,2716
473.81878263018564,2656
476.15893913125876,2750
478.4984527130747,2805
480.8373235875855,2929
483.17555196682144,2830
485.5131380628919,3007
487.8500820879857,3024
490.1863842543697,2973
492.52204477439034,3237
494.8570638604725,3546
497.1914417251204,3877
499.52517858091653,4277
501.85827464052306,4832
504.19073011668036,5065
506.5225452222086,5250
508.85372017000566,5257
511.18425517304956,4960
513.514150444396,4869
515.8434061971808,5390
518.1720226446176,6107
520.4999999999999,6002
522.8273384766991,5762
525.1540382881666,5360
527.480099647932,4837
529.8055227696037,4253
532.1303078668694,3628
534.454455153496,3201
536.777964843328,3060
539.1008371502907,3008
541.4230722883866,2876
543.744670471698,2986
546.0656319143858,2943
548.3859568306899,2918
550.7056454349294,2869
553.0246979415016,2970
555.3431145648834,2910
557.6608955196306,2833
559.978041020377,2807
562.2945512818363,2795
564.6104265188006,2839
566.9256669461412,2878
569.2402727788082,2886
571.5542442318302,2902
573.8675815203156,2926
576.1802848594508,2945
578.4923544645015,2938
580.8037905508126,3035
583.114593333807,3008
585.4247630289875,2915
587.7342998519354,2848
590.0432040183106,2877
592.3514757438526,2957
594.6591152443794,2842
596.9661227357875,2926
599.2724984340531,2928
601.578242555231,2967
603.8833553154542,2965
606.1878369309362,2961
608.4916876179676,2916
610.7949075929192,2924
613.0974970722403,2966
615.3994562724587,2820
617.7007854101818,2862
620.0014847020951,2932
622.3015543649641,2904
624.6009946156324,2893
626.8998056710224,2873
629.1979877481361,2913
631.4955410640538,2805
633.7924658359349,2814
636.0887622810175,2872
638.3844306166192,2852
640.6794710601358,2851
642.9738838290426,2934
645.2676691408932,2896
647.5608272133207,2906
649.853358264037,2873
652.1452625108324,2862
654.4365401715764,2947
656.7271914642178,2926
659.0172166067838,3005
661.3066158173809,2925
663.5953893141935,2944
665.8835373154867,2951
668.1710600396028,2911
670.4579577049639,2875
672.7442305300709,2823
675.0298787335033,2781
677.3149025339197,2845
679.599302150058,2885
681.8830778007342,2870
684.1662297048437,2811
686.4487580813608,2992
688.7306631493387,2933
691.0119451279091,2829
693.2926042362834,2866
695.5726406937516,2909
697.8520547196814,2943
700.1308465335215,2912
702.4090163547982,2826
704.6865644031171,2878
706.9634908981619,2813
709.2397960596965,2918
711.5154801075631,2914
713.7905432616823,2882
716.0649857420548,2918
718.3388077687592,2784
720.612009561953,2943
722.8845913418733,2883
725.1565533288352,2799
727.427895743234,2900
729.6986188055427,2882
731.9687227363137,2836
734.238207756178,2935
736.5070740858458,2999
738.7753219461066,2876
741.0429515578281,2934
743.3099631419569,2911
745.5763569195191,2924
747.8421331116193,2847
750.1072919394409,2935
752.3718336242467,2890
754.6357583873777,2919
756.8990664502545,2962
759.1617580343765,2924
761.423833361321,2932
763.6852926527457,2909
765.9461361303862,3020
768.206364016058,2970
770.4659765316536,2983
772.7249738991469,2976
774.9833563405886,2956
777.2411240781092,2964
779.4982773339183,2902
781.7548163303044,2872
784.010741289634,2905
786.2660524343538,3009
788.5207499869881,3112
790.7748341701416,3062
793.0283052064964,3006
795.2811633188143,2908
797.5334087299362,2946
799.7850416627813,3019
802.0360623403484,3005
804.2864709857143,3026
806.5362678220353,2962
808.7854530725468,2948
811.0340269605625,3107
813.2819897094754,3029
815.5293415427581,3067
817.77608268396,3005
820.0222133567116,3014
822.2677337847211,3154
824.5126441917765,3074
826.7569448017433,3015
829.0006358385675,2972
831.2437175262731,3033
833.4861900889629,3043
835.7280537508192,3023
837.9693087361026,3103
840.2099552691533,3090
842.4499935743896,3080
844.689423876309,2996
846.9282463994886,2958
849.1664613685833,3016
851.4040690083276,3019
853.6410695435349,3013
855.877463199097,2942
858.1132501999847,3078
860.3484307712487,3047
862.5830051380175,3014
864.8169735254988,3010
867.0503361589791,3073
869.2830932638243,3103
871.5152450654786,3066
873.7467917894654,3050
875.9777336613873,2965
878.2080709069252,3064
880.4378037518389,3073
882.666932421968,3070
884.8954571432301,3134
887.1233781416219,3131
889.3506956432192,3209
891.5774098741766,3165
893.803521060728,3074
896.0290294291852,3185
898.2539352059397,3198
900.4782386174619,3104
902.7019398903011,3136
904.925039251085,3202
907.147536926521,3185
909.3694331433943,3208
911.59072812857,3163
913.8114221089921,3065
916.0315153116827,3151
918.2510079637437,3103
920.4699002923547,3131
922.6881925247761,3162
924.905884888345,3069
927.1229776104793,2987
929.3394709186747,3037
931.555365040506,3060
933.7706602036275,3091
935.9853566357709,3064
938.1994545647489,2992
940.4129542184515,3105
942.6258558248488,3148
944.8381596119883,3084
947.0498658079974,3047
949.2609746410825,3059
951.4714863395287,3019
953.6814011316998,3046
955.8907192460387,3115
958.0994409110671,3043
960.3075663553858,3080
962.5150958076741,2950
964.7220294966913,3059
966.928367651274,2992
969.1341105003388,2944
971.3392582728806,3004
973.5438111979742,2936
975.747769504772,2943
977.9511334225061,2986
980.153903180487,2971
982.3560790081052,2923
984.5576611348289,2953
986.7586497902058,2883
988.9590452038618,3012
991.158847605503,2876
993.3580572249133,2962
995.5566742919558,2791
997.7546990365728,2787
999.952131688785,2794
1002.1489724786926,2728
1004.3452216364743,2741
1006.5408793923874,2790
1008.7359459767691,2764
1010.9304216200343,2778
1013.1243065526781,2715
1015.3176010052733,2707
1017.510305208472,2668
1019.7024193930064,2652
1021.8939437896848,2682
1024.0848786293977,2641
1026.2752241431122,2695
1028.4649805618747,2672
1030.6541481168115,2646
1032.842727039127,2677
1035.0307175601051,2562
1037.2181199111074,2565
1039.4049343235752,2583
1041.591161029029,2559
1043.7768002590683,2678
1045.9618522453698,2580
1048.1463172196918,2653
1050.3301954138697,2570
1052.513487059818,2599
1054.69619238953,2615
1056.8783116350783,2697
1059.0598450286152,2582
1061.2407928023704,2613
1063.4211551886528,2625
1065.6009324198508,2525
1067.780124728432,2649
1069.9587323469414,2613
1072.1367555080046,2573
1074.314194444325,2622
1076.4910493886855,2617
1078.667320573947,2583
1080.843008233051,2545
1083.0181125990161,2581
1085.1926339049414,2652
1087.3665723840027,2615
1089.5399282694575,2640
1091.7127017946405,2593
1093.8848931929647,2534
1096.0565026979243,2608
1098.2275305430899,2616
1100.3979769621128,2550
1102.567842188722,2515
1104.737126456726,2527
1106.9058300000124,2527
1109.0739530525475,2525
1111.2414958483764,2521
1113.4084586216231,2549
1115.5748416064907,2527
1117.7406450372605,2439
1119.9058691482942,2528
1122.0705141740304,2515
1124.2345803489884,2498
1126.3980679077658,2583
1128.5609770850388,2519
1130.7233081155623,2580
1132.8850612341707,2542
1135.0462366757774,2581
1137.2068346753745,2506
1139.3668554680326,2550
1141.526299288901,2507
1143.68516637321,2494
1145.8434569562655,2504
1148.001171273455,2552
1150.158309560244,2528
1152.3148720521767,2541
1154.470858984876,2562
1156.626270594044,2497
1158.7811071154629,2510
1160.9353687849912,2475
1163.089055838569,2495
1165.242168512213,2514
1167.3947070420209,2404
1169.5466716641677,2480
1171.6980626149075,2494
1173.8488801305748,2460
1175.9991244475814,2484
1178.1487958024186,2484
1180.2978944316555,2495
1182.4464205719428,2451
1184.5943744600072,2460
1186.7417563326567,2443
1188.8885664267755,2545
1191.0348049793297,2453
1193.1804722273619,2404
1195.325568407995,2473
1197.4700937584303,2423
1199.614048515948,2430
1201.7574329179074,2489
1203.900247201746,2461
1206.042491604982,2508
1208.1841663652099,2438
1210.3252717201053,2490
1212.465807907422,2470
1214.6057751649923,2536
1216.7451737307279,2555
1218.8840038426192,2469
1221.0222657387353,2567
1223.1599596572241,2523
1225.2970858363137,2561
1227.4336445143094,2504
1229.5696359295966,2531
1231.705060320639,2526
1233.8399179259786,2521
1235.9742089842384,2579
1238.107933734118,2469
1240.2410924143974,2503
1242.373685263935,2516
1244.5057125216676,2583
1246.6371744266116,2439
1248.7680712178621,2591
1250.898403134593,2491
1253.028170416058,2518
1255.1573733015875,2560
1257.2860120305932,2543
1259.4140868425648,2584
1261.54159797707,2524
1263.6685456737569,2596
1265.7949301723515,2590
1267.9207517126597,2549
1270.046010534565,2555
1272.1707068780306,2551
1274.2948409830983,2568
1276.4184130898889,2541
1278.541423438603,2545
1280.6638722695184,2533
1282.785759822993,2588
1284.9070863394636,2588
1287.0278520594447,2551
1289.1480572235314,2549
1291.2677020723963,2609
1293.3867868467923,2592
1295.5053117875495,2522
1297.623277135579,2617
1299.740683131868,2575
1301.8575300174857,2539
1303.973818033578,2618
1306.0895474213703,2640
1308.2047184221678,2672
1310.3193312773528,2738
1312.4333862283888,2628
1314.5468835168163,2550
1316.659823384255,2620
1318.7722060724045,2618
1320.8840318230418,2636
1322.9953008780249,2658
1325.1060134792888,2635
1327.2161698688478,2592
1329.3257702887959,2583
1331.4348149813054,2632
1333.5433041886276,2670
1335.6512381530933,2600
1337.7586171171101,2758
1339.8654413231675,2633
1341.9717110138317,2633
1344.0774264317488,2667
1346.1825878196432,2687
1348.2871954203192,2648
1350.3912494766587,2641
1352.4947502316231,2566
1354.5976979282532,2707
1356.7000928096686,2671
1358.8019351190665,2708
1360.9032250997243,2635
1363.0039629949988,2659
1365.1041490483235,2616
1367.2037835032133,2680
1369.3028666032606,2681
1371.401398592137,2631
1373.4993797135926,2627
1375.5968102114575,2706
1377.6936903296396,2721
1379.7900203121262,2710
1381.8858004029835,2770
1383.9810308463561,2638
1386.075711886469,2781
1388.1698437676241,2780
1390.2634267342032,2716
1392.356461030667,2670
1394.4489469015557,2776
1396.5408845914872,2664
1398.6322743451592,2620
1400.7231164073469,2709
1402.813411022907,2689
1404.903158436773,2661
1406.9923588939578,2689
1409.0810126395531,2769
1411.1691199187303,2682
1413.2566809767386,2695
1415.343696058907,2744
1417.4301654106425,2828
1419.5160892774315,2767
1421.6014679048399,2729
1423.6863015385125,2660
1425.7705904241707,2694
1427.8543348076178,2702
1429.9375349347342,2734
1432.0201910514802,2776
1434.102303403894,2903
1436.1838722380944,2794
1438.2648978002767,2715
1440.3453803367174,2698
1442.4253200937692,2775
1444.5047173178677,2745
1446.5835722555234,2772
1448.6618851533285,2827
1450.739656257952,2918
1452.8168858161434,2806
1454.8935740747306,2775
1456.96972128062,2748
1459.045327680797,2757
1461.120393522327,2858
1463.1949190523528,2803
1465.2689045180973,2807
1467.3423501668608,2794
1469.415256246024,2887
1471.4876230030463,2813
1473.559450685465,2872
1475.6307395408976,2882
1477.7014898170391,2958
1479.771701761665,2899
1481.8413756226287,2854
1483.9105116478618,2865
1485.9791100853772,2879
1488.0471711832643,2932
1490.1146951896926,2834
1492.1816823529098,2848
1494.2481329212433,2896
1496.3140471430984,2916
1498.3794252669609,2953
1500.4442675413939,2898
1502.5085742150404,2938
1504.572345536622,2990
1506.6355817549388,2880
1508.6982831188702,2960
1510.7604498773744,2952
1512.8220822794883,2916
1514.8831805743293,3000
1516.9437450110909,2969
1519.003775839048,2922
1521.0632733075522,2896
1523.1222376660367,2980
1525.1806691640113,2846
1527.2385680510652,2987
1529.2959345768668,2893
1531.3527689911643,2938
1533.4090715437833,2900
1535.4648424846291,3028
1537.5200820636855,3019
1539.5747905310159,2976
1541.6289681367616,3042
1543.6826151311434,3030
1545.7357317644614,3012
1547.7883182870937,3039
1549.8403749494987,3102
1551.8919020022113,3059
1553.9428996958477,2975
1555.9933682811015,3051
1558.0433080087469,3103
1560.0927191296346,3072
1562.1416018946961,3098
1564.1899565549415,3161
1566.2377833614592,3200
1568.2850825654164,3164
1570.3318544180606,3111
1572.3780991707158,3106
1574.423817074788,3090
1576.4690083817595,3138
1578.5136733431923,3171
1580.5578122107272,3016
1582.601425236085,3043
1584.6445126710646,3068
1586.6870747675434,2982
1588.7291117774776,3035
1590.7706239529034,3045
1592.8116115459347,2964
1594.8520748087658,2958
1596.8920139936686,2849
1598.9314293529933,2866
1600.9703211391711,2912
1603.008689604711,2915
1605.0465350022005,2813
1607.0838575843068,2816
1609.1206576037753,2798
1611.1569353134305,2811
1613.1926909661765,2806
1615.2279248149953,2765
1617.2626371129481,2825
1619.2968281131757,2814
1621.3304980688963,2724
1623.3636472334088,2739
1625.39627586009,2779
1627.428384202396,2689
1629.459972513861,2760
1631.4910410480993,2756
1633.5215900588028,2806
1635.551619799744,2798
1637.5811305247717,2704
1639.6101224878166,2746
1641.6385959428862,2792
1643.6665511440683,2714
1645.693988345528,2744
1647.7209078015112,2675
1649.7473097663405,2719
1651.7731944944203,2811
1653.7985622402307,2594
1655.823413258333,2625
1657.847747803366,2670
1659.8715661300494,2674
1661.8948684931793,2644
1663.9176551476316,2744
1665.9399263483624,2743
1667.9616823504057,2724
1669.982923408873,2684
1672.0036497789574,2681
1674.0238617159293,2687
1676.043559475138,2702
1678.0627433120121,2623
1680.081413482059,2655
1682.0995702408654,2685
1684.117213844096,2747
1686.134344547495,2701
1688.1509626068864,2709
1690.1670682781705,2687
1692.182661817329,2712
1694.1977434804217,2728
1696.2123135235875,2732
1698.226372203043,2665
1700.2399197750851,2649
1702.2529564960905,2685
1704.2654826225112,2736
1706.277498410882,2697
1708.2890041178139,2685
1710.2999999999988,2713
1712.3104863142066,2664
1714.3204633172854,2778
1716.329931266163,2645
1718.3388904178469,2648
1720.3473410294214,2674
1722.3552833580516,2755
1724.3627176609807,2683
1726.3696441955308,2795
1728.3760632191033,2767
1730.3819749891782,2736
1732.3873797633146,2710
1734.3922777991502,2770
1736.3966693544012,2683
1738.4005546868639,2693
1740.4039340544127,2745
1742.406807715001,2683
1744.4091759266616,2652
1746.4110389475054,2647
1748.4123970357223,2763
1750.413250449582,2688
1752.4135994474318,2627
1754.4134442876993,2643
1756.4127852288902,2766
1758.4116225295893,2601
1760.4099564484595,2711
1762.407787244244,2692
1764.405115175764,2705
1766.4019405019203,2759
1768.3982634816916,2765
1770.3940843741357,2784
1772.3894034383907,2836
1774.3842209336717,2641
1776.378537119274,2771
1778.372352254571,2723
1780.3656665990156,2684
1782.3584804121397,2641
1784.3507939535534,2731
1786.3426074829463,2655
1788.3339212600863,2700
1790.3247355448211,2695
1792.3150505970766,2693
1794.3048666768573,2712
1796.2941840442477,2663
1798.2830029594106,2703
1800.2713236825884,2726
1802.2591464741004,2621
1804.2464715943465,2650
1806.2332993038058,2671
1808.2196298630352,2664
1810.2054635326708,2704
1812.190800573428,2701
1814.175641246101,2726
1816.1599858115628,2682
1818.1438345307652,2698
1820.127187664738,2764
1822.1100454745924,2781
1824.092408221516,2769
1826.0742761667766,2720
1828.055649571721,2766
1830.0365286977735,2709
1832.0169138064398,2722
1833.9968051593014,2787
1835.9762030180214,2794
1837.9551076443408,2714
1839.9335193000788,2747
1841.9114382471344,2760
1843.888864747485,2697
1845.8657990631878,2729
1847.842241456378,2713
1849.8181921892697,2740
1851.7936515241558,2710
1853.7686197234098,2652
1855.7430970494815,2730
1857.7170837649014,2755
1859.6905801322787,2712
1861.6635864143004,2646
1863.6361028737338,2719
1865.608129773424,2775
1867.5796673762961,2752
1869.5507159453537,2831
1871.521275743678,2887
1873.4913470344313,2740
1875.4609300808534,2801
1877.4300251462632,2730
1879.3986324940588,2663
1881.366752387717,2764
1883.3343850907936,2720
1885.3015308669228,2754
1887.268189979819,2739
1889.2343626932739,2840
1891.2000492711595,2773
1893.1652499774254,2812
1895.1299650761011,2798
1897.0941948312952,2783
1899.0579395071945,2853
1901.0211993680641,2811
1902.98397467825,2747
1904.9462657021745,2738
1906.9080727043415,2766
1908.869395949332,2803
1910.8302357018065,2715
1912.790592226504,2757
1914.7504657882428,2788
1916.7098566519212,2716
1918.6687650825133,2796
1920.6271913450764,2725
1922.5851357047422,2745
1924.5425984267245,2750
1926.499579776314,2731
1928.4560800188833,2659
1930.4120994198802,2810
1932.367638244833,2728
1934.32269675935,2727
1936.2772752291175,2720
1938.231373919899,2702
1940.1849930975404,2720
1942.1381330279637,2721
1944.0907939771696,2828
1946.0429762112412,2717
1947.9946799963363,2719
1949.9459055986945,2708
1951.896653284633,2725
1953.8469233205478,2729
1955.7967159729142,2607
1957.7460315082863,2721
1959.6948701932974,2783
1961.6432322946594,2765
1963.5911180791632,2742
1965.5385278136787,2763
1967.4854617651545,2692
1969.4319202006182,2763
1971.377903387176,2798
1973.3234115920136,2717
1975.268445082395,2708
1977.2130041256642,2704
1979.1570889892423,2739
1981.1006999406304,2692
1983.04383724741,2651
1984.986501177238,2780
1986.928691997853,2717
1988.8704099770712,2767
1990.811655382789,2695
1992.7524284829801,2723
1994.692729545698,2770
1996.6325588390755,2700
1998.5719166313224,2751
2000.5108031907307,2732
2002.4492187856677,2666
2004.387163684583,2742
2006.3246381560011,2720
2008.2616424685298,2657
2010.1981768908527,2636
2012.1342416917332,2639
2014.069837140014,2698
2016.0049635046162,2719
2017.9396210545406,2664
2019.8738100588666,2706
2021.8075307867502,2684
2023.740783507431,2696
2025.6735684902228,2687
2027.6058860045214,2648
2029.5377363198004,2696
2031.4691197056118,2656
2033.4000364315875,2672
2035.3304867674374,2718
2037.260470982952,2704
2039.189989347998,2622
2041.1190421325232,2675
2043.047629606554,2577
2044.9757520401945,2648
2046.9034097036288,2719
2048.8306028671195,2642
2050.7573318010086,2644
2052.683596775716,2682
2054.609398061742,2692
2056.5347359296647,2720
2058.4596106501403,2655
2060.384022493906,2656
2062.3079717317764,2584
2064.231458634646,2693
2066.1544834734873,2661
2068.077046519352,2638
2069.99914804337,2598
2071.9207883167524,2588
2073.8419676107865,2597
2075.7626861968406,2658
2077.6829443463607,2669
2079.6027423308715,2642
2081.522080421977,2673
2083.440958891362,2596
2085.359378010786,2673
2087.2773380520907,2681
2089.194839287196,2573
2091.111881988101,2683
2093.0284664268825,2650
2094.9445928756973,2549
2096.86026160678,2598
2098.775472892446,2680
2100.690227005088,2757
2102.604524217178,2697
2104.5183648012676,2718
2106.431749029985,2655
2108.34467717604,2565
2110.2571495122206,2633
2112.169166311393,2623
2114.080727846503,2654
2115.9918343905747,2617
2117.902486216711,2653
2119.8126835980956,2707
2121.722426807987,2720
2123.6317161197285,2695
2125.5405518067364,2704
2127.448934142509,2733
2129.356863400624,2623
2131.264339854737,2692
2133.1713637785815,2711
2135.077935445972,2739
2136.9840551308002,2655
2138.889723107037,2676
2140.7949396487334,2715
2142.699705030018,2709
2144.6040195250994,2682
2146.507883408264,2704
2148.4112969538774,2736
2150.3142604363848,2704
2152.2167741303097,2703
2154.1188383102535,2632
2156.0204532508997,2673
2157.9216192270064,2792
2159.822336513414,2681
2161.7226053850413,2686
2163.622426116884,2716
2165.5217989840185,2759
2167.4207242616,2693
2169.319202224862,2619
2171.2172331491165,2650
2173.1148173097563,2664
2175.0119549822507,2708
2176.90864644215,2759
2178.8048919650823,2660
2180.7006918267534,2737
2182.596046302952,2745
2184.4909556695407,2791
2186.3854202024645,2723
2188.279440177746,2747
2190.173015871487,2743
2192.066147559868,2745
2193.958835519149,2682
2195.851080025667,2669
2197.7428813558417,2706
2199.6342397861667,2699
2201.5251555932186,2762
2203.415629053651,2714
2205.3056604441986,2758
2207.19525004167,2764
2209.084398122958,2795
2210.9731049650327,2808
2212.861370844941,2713
2214.749196039812,2815
2216.636580826851,2830
2218.523525483344,2756
2220.410030286655,2710
2222.296095514226,2769
2224.1817214435805,2834
2226.066908352319,2730
2227.951656518121,2818
2229.835966218746,2653
2231.71983773203,2740
2233.6032713358913,2729
2235.486267308324,2716
2237.3688259274036,2700
2239.2509474712824,2671
2241.132632218193,2850
2243.013880446447,2720
2244.8946924344323,2728
2246.7750684606203,2649
2248.6550088035574,2679
2250.534513741871,2723
2252.413583554265,2769
2254.292218519526,2737
2256.170418916517,2591
2258.0481850241786,2745
2259.925517121534,2679
2261.8024154876825,2759
2263.678880401803,2779
2265.5549121431536,2698
2267.430510991071,2771
2269.305677224971,2729
2271.180411124348,2798
2273.0547129687766,2707
2274.9285830379076,2609
2276.8020216114737,2679
2278.6750289692845,2701
2280.5476053912294,2673
2282.4197511572766,2728
2284.2914665474727,2740
2286.162751841943,2830
2288.0336073208937,2806
2289.904033264608,2778
2291.774029953448,2682
2293.6435976678554,2786
2295.5127366883517,2696
2297.381447295534,2634
2299.2497297700825,2574
2301.1175843927526,2516
2302.9850114443825,2566
2304.852011205885,2487
2306.7185839582553,2476
2308.5847299825664,2463
2310.4504495599676,2534
2312.3157429716925,2413
2314.1806104990483,2420
2316.0450524234247,2407
2317.9090690262888,2475
2319.772660589186,2558
2321.635827393742,2435
2323.498569721661,2409
2325.3608878547248,2336
2327.2227820747967,2428
2329.0842526638157,2486
2330.945299903803,2445
2332.805924076857,2411
2334.6661254651535,2430
2336.525904350951,2465
2338.3852610165827,2433
2340.244195744464,2438
2342.102708817088,2396
2343.9608005170253,2445
2345.8184711269287,2387
2347.675720929526,2408
2349.532550207628,2433
2351.38895924412,2429
2353.24494832197,2422
2355.100517724223,2396
2356.955667734004,2377
2358.810398634514,2425
2360.664710709037,2438
2362.5186042409337,2392
2364.3720795136437,2441
2366.225136810686,2398
2368.0777764156583,2458
2369.929998612237,2439
2371.7818036841777,2414
2373.633191915315,2418
2375.484163589562,2428
2377.3347189909114,2377
2379.184858403434,2388
2381.03458211128,2413
2382.8838903986775,2390
2384.732783549936,2386
2386.5812618494406,2396
2388.4293255816588,2418
2390.2769750311327,2423
2392.1242104824883,2386
2393.971032220427,2414
2395.8174405297295,2369
2397.6634356952563,2382
2399.509018001947,2395
2401.3541877348193,2486
2403.1989451789705,2441
2405.043290619576,2419
2406.8872243418905,2419
2408.730746631247,2394
2410.5738577730594,2385
2412.4165580528183,2392
2414.258847756095,2308
2416.100727168537,2354
2417.9421965758734,2401
2419.783256263912,2403
2421.623906518538,2339
2423.4641476257157,2392
2425.303979871491,2374
2427.143403541984,2337
2428.9824189233977,2362
2430.821026302012,2458
2432.6592259641866,2411
2434.497018196361,2426
2436.33440328505,2407
2438.171381516851,2324
2440.00795317844,2370
2441.844118556569,2311
2443.6798779380724,2344
2445.5152316098606,2449
2447.3501798589255,2346
2449.1847229723357,2413
2451.0188612372403,2329
2452.8525949408663,2367
2454.6859243705203,2429
2456.518849813587,2426
2458.3513715575314,2411
2460.183489889895,2364
2462.015205098301,2382
2463.8465174704493,2375
2465.67742729412,2368
2467.5079348571717,2349
2469.338040447542,2495
2471.1677443532476,2385
2472.9970468623833,2344
2474.825948263123,2321
2476.6544488437207,2424
2478.482548892508,2333
2480.310248697896,2428
2482.137548548374,2367
2483.9644487325118,2378
2485.790949538956,2336
2487.617051256433,2437
2489.44275417375,2347
2491.26805857979,2411
2493.0929647635157,2401
2494.917473013971,2320
2496.741583620276,2462
2498.5652968716304,2386
2500.3886130573137,2442
2502.2115324666834,2468
2504.0340553891765,2396
2505.856182114308,2347
2507.6779129316733,2413
2509.499248130945,2331
2511.3201880018764,2365
2513.140732834298,2403
2514.9608829181198,2411
2516.780638543331,2359
2518.6,2355
2520.418967578273,2386
2522.237541568376,2341
2524.0557222606144,2383
2525.8735099453706,2413
2527.6909049131086,2347
2529.507907454368,2294
2531.32451785977,2380
2533.140736420014,2348
2534.9565634258774,2281
2536.771999168218,2442
2538.5870439379714,2317
2540.4016980261526,2451
2542.2159617238544,2359
2544.02983532225,2396
2545.8433191125914,2434
2547.656413386209,2466
2549.4691184345115,2379
2551.2814345489874,2401
2553.093362021204,2367
2554.904901142808,2367
2556.716052205523,2481
2558.526815501153,2331
2560.3371913215824,2333
2562.147179958771,2318
2563.956781704761,2375
2565.7659968516705,2372
2567.5748256916986,2449
2569.3832685171224,2413
2571.1913256202984,2363
2572.9989972936614,2344
2574.806283829725,2317
2576.613185521084,2422
2578.4197026604074,2377
2580.2258355404483,2353
2582.031584454035,2455
2583.836949694077,2407
2585.6419315535613,2320
2587.4465303255533,2404
2589.2507463032002,2412
2591.0545797797245,2458
2592.8580310484303,2403
2594.6611004026995,2531
2596.463788135992,2352
2598.266094541849,2395
2600.0680199138874,2475
2601.869564545807,2286
2603.670728731383,2371
2605.4715127644704,2464
2607.2719169390048,2347
2609.071941548998,2355
2610.8715868885433,2456
2612.670853251811,2500
2614.469740933052,2435
2616.268250226594,2371
2618.0663814268455,2326
2619.864134828292,2416
2621.6615107255006,2443
2623.458509413115,2376
2625.2551311858597,2392
2627.0513763385347,2386
2628.8472451660223,2360
2630.6427379632833,2384
2632.4378550253564,2306
2634.232596647359,2340
2636.026963124488,2358
2637.8209547520187,2281
2639.6145718253065,2385
2641.407814639785,2319
2643.200683490966,2335
2644.9931786744414,2307
2646.7853004858807,2208
2648.577049221034,2275
2650.3684251757277,2270
2652.1594286458712,2317
2653.9500599274484,2324
2655.740319316525,2344
2657.5302071092437,2293
2659.3197236018286,2300
2661.10886909058,2306
2662.8976438718782,2251
2664.686048242183,2311
2666.4740824980327,2324
2668.2617469360443,2340
2670.0490418529134,2272
2671.8359675454153,2309
2673.622524310403,2266
2675.408712444811,2312
2677.1945322456495,2229
2678.979984010009,2186
2680.76506803506,2254
2682.5497846180497,2280
2684.334134056306,2251
2686.1181166472343,2310
2687.9017326883213,2223
2689.6849824771293,2191
2691.4678663113013,2216
2693.2503844885596,2319
2695.032537306705,2290
2696.8143250636167,2282
2698.5957480572542,2255
2700.3768065856534,2226
2702.1575009469316,2353
2703.937831439283,2297
2705.717798360982,2226
2707.4974020103837,2188
2709.276642685917,2208
2711.055520686095,2234
2712.834036309506,2212
2714.612189854819,2234
2716.389981620782,2277
2718.1674119062204,2217
2719.944481010041,2275
2721.721189231226,2225
2723.4975368688415,2188
2725.273524222027,2222
2727.0491515900053,2271
2728.824419272075,2278
2730.5993275676146,2244
2732.3738767760838,2223
2734.148067197016,2170
2735.921899130031,2219
2737.6953728748194,2137
2739.468488731156,2176
2741.2412469988926,2182
2743.0136479779617,2148
2744.785691968372,2158
2746.5573792702116,2220
2748.3287101836504,2268
2750.099685008934,2215
2751.870304046388,2154
2753.640567596418,2150
2755.4104759595057,2214
2757.1800294362156,2205
2758.949228327187,2198
2760.7180729331412,2215
2762.486563554877,2255
2764.254700493272,2310
2766.022484049284,2188
2767.789914523947,2147
2769.5569922183786,2177
2771.3237174337705,2195
2773.090090471394,2248
2774.8561116326036,2238
2776.6217812188274,2181
2778.3870995315756,2253
2780.1520668724356,2161
2781.9166835430747,2249
2783.6809498452394,2222
2785.444866080754,2253
2787.2084325515225,2205
2788.971649559527,2196
2790.73451740683,2283
2792.4970363955713,2166
2794.2592068279705,2199
2796.0210290063264,2110
2797.7825032330147,2190
2799.543629810493,2237
2801.304409041296,2158
2803.0648412280366,2177
2804.8249266734088,2230
2806.5846656801846,2228
2808.344058551212,2192
2810.1031055894246,2231
2811.8618070978273,2185
2813.6201633795085,2232
2815.378174737636,2217
2817.1358414754536,2261
2818.893163896285,2225
2820.6501423035334,2248
2822.4067770006814,2243
2824.1630682912883,2281
2825.9190164789957,2244
2827.6746218675207,2230
2829.429884760661,2140
2831.184805462294,2220
2832.9393842763743,2192
2834.693621506936,2234
2836.4475174580916,2240
2838.201072434034,2210
2839.954286739034,2191
2841.707160677441,2263
2843.459694553685,2148
2845.2118886722724,2121
2846.96374333779,2221
2848.7152588549034,2211
2850.4664355283567,2117
2852.217273662973,2158
2853.9677735636546,2190
2855.7179355353833,2267
2857.4677598832186,2187
2859.217246912299,2142
2860.9663969278427,2149
2862.715210235146,2184
2864.4636871395846,2172
2866.211827946614,2157
2867.9596329617652,2231
2869.7071024906536,2199
2871.4542368389684,2225
2873.20103631248,2204
2874.947501217038,2195
2876.6936318585695,2207
2878.4394285430812,2143
2880.1848915766604,2227
2881.9300212654707,2200
2883.6748179157553,2134
2885.4192818338374,2158
2887.1634133261173,2193
2888.907212699077,2135
2890.6506802592744,2186
2892.393816313348,2137
2894.1366211680142,2169
2895.8790951300693,2178
2897.621238506388,2096
2899.363051603925,2120
2901.1045347297118,2136
2902.8456881908596,2185
2904.58651229456,2215
2906.327007348081,2210
2908.067173658772,2168
2909.8070115340597,2146
2911.5465212814497,2172
2913.285703208527,2197
2915.0245576229563,2080
2916.7630848324807,2195
2918.5012851449196,2149
2920.2391588681758,2083
2921.976706310227,2105
2923.7139277791334,2124
2925.4508235830313,2188
2927.187394030137,2184
2928.923639428745,2229
2930.6595600872306,2163
2932.395156314046,2218
2934.1304284177218,2215
2935.8653767068713,2207
2937.6000014901815,2107
2939.3343030764227,2149
2941.068281774442,2101
2942.8019378931644,2122
2944.5352717415976,2131
2946.2682836288236,2174
2948.0009738640065,2182
2949.7333427563885,2185
2951.465390615289,2101
2953.1971177501086,2163
2954.9285244703265,2172
2956.6596110855,2126
2958.3903779052657,2183
2960.1208252393385,2201
2961.8509533975125,2123
2963.5807626896617,1998
2965.3102534257378,2064
2967.0394259157715,2106
2968.768280469873,2137
2970.496817398232,2171
2972.2250370111146,2093
2973.952939618869,2093
2975.6805255319196,2137
2977.4077950607707,2163
2979.134748516006,2079
2980.861386208289,2096
2982.587708448359,2129
2984.313715547037,2146
2986.039407815222,2117
2987.764785563891,2143
2989.489849104102,2231
2991.2145987469908,2134
2992.9390348037705,2150
2994.6631575857346,2043
2996.3869674042576,2061
2998.1104645707887,2200
2999.83364939686,2047
3001.5565221940783,2093
3003.2790832741334,2081
3005.0013329487924,2078
3006.7232715298996,1999
3008.4448993293804,2048
3010.166216659239,2076
3011.887223831558,2097
3013.607921158498,2041
3015.3283089522993,2029
3017.0483875252826,2063
3018.7681571898443,2103
3020.4876182584626,2026
3022.2067710436927,2116
3023.9256158581707,2081
3025.644153014609,2124
3027.362382825801,2087
3029.0803056046193,2106
3030.797921664012,2020
3032.5152313170106,2027
3034.2322348767225,2093
3035.9489326563353,2029
3037.665324969115,2039
3039.3814121284063,2047
3041.097194447633,2091
3042.812672240299,2149
3044.5278458199855,2017
3046.2427155003525,2049
3047.9572815951406,2087
3049.671544418167,2048
3051.38550428333,1980
3053.0991615046073,2096
3054.812516396051,2097
3056.5255692717974,2119
3058.2383204460575,2064
3059.9507702331257,1971
3061.662918947372,2053
3063.3747669032446,2141
3065.0863144152736,2011
3066.7975617980674,1995
3068.508509366309,2012
3070.219157434767,2030
3071.9295063182844,2078
3073.639556331785,2003
3075.3493077902704,2064
3077.058761008821,2072
3078.7679163025964,2032
3080.476773986837,2144
3082.1853343768594,2064
3083.89359778806,2038
3085.6015645359153,2044
3087.3092349359786,2019
3089.016609303884,1983
3090.7236879553434,2067
3092.4304712061476,2013
3094.136959372166,2057
3095.843152769349,2026
3097.5490517137237,2051
3099.2546565213966,2012
3100.959967508554,2002
3102.66498499146,2021
3104.3697092864577,2068
3106.0741407099695,2009
3107.778279578498,2024
3109.482126208622,2011
3111.1856809170004,2054
3112.8889440203716,2053
3114.5919158355528,2040
3116.294596679439,2078
3117.996986869006,2050
3119.6990867213062,2043
3121.4008965534726,2017
3123.102416682717,2038
3124.803647426329,2069
3126.5045891016784,2010
3128.205242026213,2117
3129.90560651746,2061
3131.605682893025,2075
3133.3054714705922,1973
3135.0049725679282,2016
3136.7041865028714,1981
3138.4031135933465,2094
3140.101754157353,2045
3141.800108512971,2058
3143.498176978357,2004
3145.1959598717494,2015
3146.8934575114636,1959
3148.5906702158954,2002
3150.2875983035183,2072
3151.9842420928853,2042
3153.680601902627,2021
3155.376678051456,2027
3157.07247085816,1998
3158.767980641609,1994
3160.463207720748,1995
3162.158152414606,1985
3163.8528150422862,1960
3165.5471959229726,2011
3167.2412953759303,2009
3168.9351137204976,2024
3170.628651276098,1974
3172.3219083622307,1953
3174.014885298474,1975
3175.707582404485,2046
3177.4000000000005,1942
3179.092138404835,1928
3180.7839979388846,1972
3182.47557892212,1976
3184.166881674594,2023
3185.8579065164386,2038
3187.5486537678626,1993
3189.2391237491547,2049
3190.9293167806827,1990
3192.6192331828934,1990
3194.3088732763117,2010
3195.998237381542,1959
3197.687325819268,1991
3199.376138910251,1910
3201.064676975334,1937
3202.7529403354347,2001
3204.4409293115523,1998
3206.1286442247647,1981
3207.816085396229,1979
3209.5032531471825,1977
3211.190147798936,1890
3212.8767696728846,1963
3214.5631190905015,1904
3216.2491963733373,1923
3217.9350018430214,1948
3219.6205358212637,1852
3221.305798629851,1912
3222.990790590651,1888
3224.6755120256103,1935
3226.359963256751,1983
3228.0441446061795,1881
3229.7280563960758,1901
3231.411698948703,2001
3233.0950725863995,1896
3234.778177631587,1942
3236.461014406761,1936
3238.1435832345005,1955
3239.8258844374595,1958
3241.507918338374,1919
3243.1896852600576,1976
3244.8711855254023,1970
3246.552419457381,1971
3248.233387379042,1996
3249.914089613516,1978
3251.59452648401,2003
3253.274698313813,1986
3254.95460542629,1980
3256.6342481448855,1962
3258.313626793125,1904
3259.9927416946084,1880
3261.6715931730196,1860
3263.3501815521176,1950
3265.0285071557437,1911
3266.706570307815,1932
3268.3843713323286,1952
3270.0619105533615,1868
3271.739188295068,1908
3273.4162048816834,1996
3275.0929606375184,1925
3276.769455886966,1994
3278.445690954498,1939
3280.1216661646613,1909
3281.797381842087,1955
3283.4728383114807,1940
3285.1480358976296,1928
3286.8229749253996,1951
3288.4976557197333,1895
3290.172078605655,1888
3291.846243908266,1900
3293.5201519527463,1857
3295.193803064357,1835
3296.8671975684374,1831
3298.5403357904024,1909
3300.21321805575,1899
3301.8858446900567,1914
3303.558216018975,1953
3305.23033236824,1871
3306.9021940636603,1896
3308.57380143113,1965
3310.2451547966184,1918
3311.916254486174,1963
3313.5871008259246,1939
3315.2576941420766,1884
3316.9280347609147,1868
3318.5981230088046,1850
3320.2679592121895,1868
3321.9375436975924,1891
3323.606876791612,1856
3325.27595882093,1887
3326.944790112305,1898
3328.6133709925753,1913
3330.2817017886573,1932
3331.949782827547,1898
3333.617614436319,1911
3335.2851969421245,1868
3336.952530672199,1925
3338.619615953853,2023
3340.286453114475,1970
3341.9530424815357,1899
3343.619384382583,1952
3345.2854791452437,1958
3346.951327097224,1921
3348.6169285663073,1978
3350.2822838803577,1983
3351.947393367319,1957
3353.61225735521,1971
3355.2768761721345,1908
3356.9412501462693,1911
3358.605379605873,1905
3360.2692648792827,1917
3361.9329062949146,1936
3363.596304181263,1910
