CollectionTime,7/10/2024 3:11:20 PM
ExposureUsed,3
CalibratedSpectrum
-962.7078968117929,670
-959.9714848408522,797
-957.2358232597828,762
-954.5009119013725,718
-951.7667505983302,726
-949.0333391832855,742
-946.3006774887896,730
-943.5687653473143,739
-940.837602591253,686
-938.1071890529199,673
-935.3775245645503,693
-932.6486089583007,717
-929.9204420662485,749
-927.1930237203925,756
-924.4663537526524,678
-921.7404319948689,727
-919.0152582788041,741
-916.2908324361409,814
-913.5671542984834,736
-910.8442236973568,720
-908.1220404642074,766
-905.4006044304027,768
-902.679915427231,767
-899.959973285902,720
-897.2407778375464,707
-894.5223289132158,675
-891.8046263438832,709
-889.0876699604426,686
-886.3714595937089,711
-883.6559950744183,736
-880.9412762332282,704
-878.2273029007168,675
-875.5140749073835,657
-872.8015920836489,733
-870.0898542598545,692
-867.3788612662631,698
-864.6686129330585,727
-861.9591090903457,772
-859.2503495681506,717
-856.5423341964203,712
-853.8350628050229,732
-851.1285352237478,720
-848.4227512823054,745
-845.7177108103272,788
-843.0134136373656,755
-840.3098595928943,763
-837.6070485063082,761
-834.9049802069229,744
-832.2036545239757,745
-829.5030712866244,790
-826.8032303239481,767
-824.1041314649472,757
-821.4057745385428,738
-818.7081593735775,736
-816.0112857988148,763
-813.3151536429393,743
-810.6197627345566,727
-807.9251129021936,766
-805.2312039742981,790
-802.5380357792392,796
-799.8456081453069,794
-797.1539209007124,762
-794.462973873588,829
-791.772766891987,868
-789.083299783884,793
-786.3945723771743,730
-783.7065844996748,779
-781.0193359791231,759
-778.3328266431781,758
-775.6470563194197,723
-772.9620248353489,723
-770.2777320183878,712
-767.5941776958798,725
-764.9113616950891,768
-762.2292838432011,781
-759.5479439673222,801
-756.8673418944801,729
-754.1874774516235,755
-751.5083504656222,766
-748.8299607632671,758
-746.15230817127,731
-743.475392516264,776
-740.7992136248035,830
-738.1237713233636,781
-735.4490654383407,821
-732.7750957960521,803
-730.1018622227365,793
-727.4293645445534,752
-724.7576025875837,808
-722.0865761778291,781
-719.4162851412126,826
-716.7467293035781,864
-714.0779084906909,832
-711.409822528237,809
-708.7424712418238,784
-706.0758544569796,821
-703.4099719991541,868
-700.7448236937178,851
-698.0804093659622,895
-695.4167288411002,856
-692.7537819442656,835
-690.0915685005134,828
-687.4300883348199,827
-684.7693412720819,837
-682.1093271371178,840
-679.4500457546669,859
-676.7914969493897,818
-674.1336805458676,815
-671.4765963686034,813
-668.8202442420206,824
-666.1646239904642,803
-663.5097354382001,791
-660.8555784094151,864
-658.2021527282176,807
-655.5494582186366,830
-652.8974947046223,833
-650.2462620100463,836
-647.5957599587009,905
-644.9459883742998,900
-642.2969470804776,904
-639.6486359007902,871
-637.0010546587141,915
-634.3542031776476,894
-631.7080812809096,864
-629.0626887917401,922
-626.4180255333008,875
-623.7740913286734,925
-621.1308860008619,937
-618.4884093727904,887
-615.8466612673046,894
-613.2056415071715,885
-610.5653499150785,900
-607.9257863136347,894
-605.28695052537,909
-602.6488423727357,864
-600.0114616781036,875
-597.3748082637674,969
-594.7388819519412,998
-592.1036825647604,930
-589.4692099242818,1027
-586.8354638524829,969
-584.2024441712624,981
-581.5701507024403,1029
-578.9385832677575,1014
-576.3077416888759,979
-573.6776257873787,1041
-571.0482353847704,986
-568.4195703024757,928
-565.7916303618415,930
-563.164415384135,941
-560.5379251905453,938
-557.9121596021815,899
-555.2871184400748,905
-552.6628015251767,1017
-550.0392086783606,964
-547.4163397204204,942
-544.794194472071,943
-542.1727727539491,959
-539.5520743866118,1044
-536.9320991905377,1005
-534.3128469861261,1076
-531.6943175936979,1066
-529.0765108334947,1053
-526.4594265256793,1072
-523.8430644903358,1242
-521.2274245474689,1297
-518.612506517005,1311
-515.9983102187913,1365
-513.3848354725959,1387
-510.77208209810846,1427
-508.16004991493924,1669
-505.5487387426199,1836
-502.9381484006032,1801
-500.3282787082628,1748
-497.71912948489364,1791
-495.1107005497117,1620
-492.5029917218539,1547
-489.8960028203786,1394
-487.28973366426493,1314
-484.68418407241325,1185
-482.07935386364494,1163
-479.47524285670266,1061
-476.87185087025,1164
-474.2691777228715,1178
-471.66722323307334,1147
-469.0659872192821,1171
-466.4654694998459,1162
-463.86566989303384,1151
-461.26658821703614,1160
-458.66822428996414,1167
-456.07057792985,1244
-453.4736489546475,1226
-450.877437182231,1146
-448.28194243039627,1089
-445.68716451686,1094
-443.09310325926003,1102
-440.49975847515555,1119
-437.9071299820263,1161
-435.31521759727354,1187
-432.72402113821954,1250
-430.13354042210767,1151
-427.5437752661022,1130
-424.95472548728867,1162
-422.36639090267386,1137
-419.7787713291855,1305
-417.1918665836721,1322
-414.60567648290385,1247
-412.0202008435715,1256
-409.4354394822874,1281
-406.8513922155845,1337
-404.26805885991723,1274
-401.685439231661,1298
-399.103533147112,1288
-396.522340422488,1240
-393.9418608739278,1181
-391.3620943174908,1145
-388.7830405691583,1276
-386.2046994448317,1215
-383.6270707603344,1172
-381.05015433141045,1060
-378.473949973725,1008
-375.8984575028645,916
-373.32367673433623,848
-370.74960748356875,859
-368.1762495659117,886
-365.60360279663576,747
-363.03166699093265,642
-360.4604419639154,633
-357.8899275306178,590
-355.32012350599507,564
-352.7510297049233,547
-350.1826459421999,531
-347.61497203254316,552
-345.04800779059235,568
-342.4817530309082,613
-339.91620756797226,619
-337.35137121618743,545
-334.7872437898774,594
-332.22382510328725,754
-329.66111497058273,629
-327.09911320585127,526
-324.53781962310075,578
-321.9772340362607,621
-319.4173562591816,541
-316.8581861056348,532
-314.2997233893127,563
-311.7419679238294,590
-309.1849195227194,625
-306.62857799943856,697
-304.0729431673641,638
-301.51801483979375,560
-298.963792829947,694
-296.41027695096386,720
-293.85746701590574,701
-291.3053628377552,688
-288.7539642294155,675
-286.2032710037115,641
-283.65328297338897,557
-281.1039999511146,716
-278.5554217494762,895
-276.007548180983,749
-273.4603790580651,624
-270.9139141930734,647
-268.3681533982807,682
-265.8230964858798,667
-263.27874326798565,642
-260.7350935566336,787
-258.1921471637804,844
-255.6499039013039,762
-253.10836358100266,718
-250.56752601459698,660
-248.02739101372765,689
-245.48795838995704,831
-242.94922795476816,752
-240.41119951956557,717
-237.8738728956746,813
-235.33724789434166,811
-232.80132432673452,770
-230.2661020039418,821
-227.73158073697357,774
-225.19776033676033,818
-222.66464061415422,878
-220.1322213799284,864
-217.60050244477725,734
-215.06948361931552,739
-212.53916471408013,917
-210.00954553952818,973
-207.48062590603843,842
-204.9524056239104,757
-202.4248845033651,918
-199.8980623545441,826
-197.37193898751036,790
-194.84651421224817,825
-192.32178783866232,854
-189.79775967657952,915
-187.27442953574644,984
-184.7517972258321,1113
-182.2298625564256,1077
-179.7086253370378,968
-177.18808537710026,1021
-174.66824248596583,998
-172.14909647290835,939
-169.6306471471229,948
-167.11289431772548,1044
-164.59583779375328,1014
-162.07947738416453,1021
-159.5638128978386,1097
-157.04884414357605,1258
-154.53457093009854,1141
-152.02099306604828,1064
-149.50811035998936,1067
-146.99592262040665,1160
-144.48442965570587,1287
-141.97363127421409,1231
-139.46352728417958,1173
-136.95411749377126,1231
-134.44540171107985,1377
-131.93737974411636,1128
-129.43005140081357,1181
-126.92341648902493,1731
-124.41747481652521,2080
-121.91222619101006,1957
-119.40767042009657,2342
-116.90380731132257,2790
-114.40063667214702,3273
-111.8981583099503,3846
-109.3963720320337,3370
-106.89527764561933,2987
-104.39487495785067,2976
-101.89516377579241,4074
-99.39614390642998,5912
-96.89781515667039,6620
-94.40017733334128,6406
-91.90323024319173,5448
-89.40697369289148,5510
-86.91140748903172,6611
-84.41653143812482,7846
-81.92234534660395,8871
-79.42884902082358,8124
-76.93604226705907,9683
-74.4439248915071,15196
-71.95249670028534,21512
-69.46175749943245,25825
-66.97170709490854,26447
-64.48234529259423,23365
-61.99367189829195,17376
-59.50568671772464,12298
-57.01838955653636,10483
-54.53178022029283,13262
-52.045858514480074,12849
-49.560624244506016,14013
-47.07607721569923,15457
-44.59221723330904,16133
-42.10904410250669,15333
-39.62655762838392,13434
-37.14475761595372,14250
-34.66364387015028,14241
-32.18321619582866,12751
-29.70347439776515,12918
-27.224418280657005,12655
-24.74604764912317,12335
-22.26836230770266,16104
-19.7913620608565,29821
-17.315046712966478,55450
-14.83941606833514,65041
-12.36446993118659,65041
-9.89020810566592,65041
-7.416630395839093,65041
-4.94373660569363,65041
-2.471526539137585,65041
-6.821210263296962E-13,65041
2.47084320796705,65041
4.941003281093458,65041
7.410480415786196,65041
9.879274808531363,65041
12.347386655893956,65041
14.814816154518212,65041
17.28156350112681,65041
19.74762889252179,65041
22.21301252558385,65041
24.67771459727237,21779
27.141735304626195,5605
29.605074844762612,4746
32.06773341487792,3177
34.52971121224755,2886
36.99100843422559,3957
39.45162527824516,4024
41.91156194181792,2967
44.370818622535126,2681
46.82939551806646,2447
49.287292826160524,2683
51.74451074464503,3144
54.201049471426245,3678
56.65690920448981,3011
59.112090141899785,2238
61.56659248179983,2068
64.02041642241159,1740
66.4735621620365,1902
68.92602989905402,1936
71.37781983192338,1651
73.82893215918205,1801
76.27936707944684,1730
78.72912479141326,1770
81.17820549385567,1765
83.62660938562783,1676
86.07433666566146,1632
88.5213875329681,1325
90.96776218663751,1232
93.41346082583925,1203
95.85848364982041,1592
98.30283085790859,1859
100.7465026495089,1928
103.18949922410604,1768
105.63182078126385,1650
108.07346752062438,1725
110.51443964190923,1441
112.95473734491827,1354
115.39436082953114,1634
117.83331029570547,1761
120.27158594347827,1627
122.7091879729652,1835
125.1461165843615,1907
127.58237197794062,1509
130.01795435405518,1267
132.4528639131364,1487
134.88710085569494,1521
137.32066538231982,1183
139.75355769367923,1051
142.1857779905207,1140
144.61732647366978,1133
147.04820334403132,1026
149.47840880258934,1191
151.90794305040674,1235
154.33680628862487,1468
156.76499871846443,1540
159.19252054122433,1646
161.61937195828352,1788
164.04555317109896,2041
166.47106438120693,2273
168.89590579022217,2435
171.320077599839,2534
173.7435800118302,2665
176.16641322804742,2849
178.58857745042144,2794
181.01007288096173,2858
183.43089972175687,2957
185.85105817497413,2937
188.27054844285988,2929
190.6893707277394,3009
193.10752523201643,3067
195.5250121581745,3164
197.9418317087751,3235
200.3579840864594,3093
202.7734694939469,3201
205.18828813403627,3388
207.6024402096051,3415
210.01592592360964,3223
212.42874547908548,3231
214.84089907914665,3282
217.2523869269868,3319
219.66320922587727,3373
222.0733661791695,3377
224.48285799029293,3392
226.8916848627572,3252
229.29984700014882,3271
231.7073446061355,3241
234.11417788446204,3241
236.520347038953,3376
238.92585227351185,3433
241.33069379212054,3337
243.73487179884035,3416
246.1383864978112,3408
248.541238093252,3437
250.9434267894609,3486
253.34495279081432,3604
255.74581630176783,3526
258.1460175268563,3549
260.54555667069314,3568
262.9444339379703,3532
265.3426495334594,3561
267.7402036620107,3460
270.1370965285529,3558
272.53332833809407,3399
274.9288992957214,3257
277.32380960660055,3246
279.718059475976,3158
282.1116491091717,3181
284.5045787115897,3130
286.89684848871195,3088
289.2884586460981,3142
291.67940938938807,3147
294.0697009242996,3172
296.4593334566299,3155
298.84830719225477,3070
301.23662233712923,3149
303.6242790972866,2985
306.01127767884,3056
308.39761828798066,3083
310.78330113097934,3094
313.16832641418534,3037
315.5526943440269,3000
317.9364051270112,2999
320.3194589697242,2901
322.70185607883093,2998
325.0835966610754,2854
327.4646809232805,2850
329.8451090723478,2811
332.2248813152577,2859
334.6039978590701,2787
336.9824589109231,2748
339.36026467803447,2762
341.7374153677,2700
344.113911187295,2665
346.48975234427337,2794
348.8649390461686,2846
351.2394715005918,2807
353.61334991523415,2782
355.9865744978655,2781
358.35914545633375,2772
360.73106299856715,2784
363.10232733257146,2903
365.47293866643247,2773
367.84289720831396,2788
370.2122031664593,2786
372.5808567491905,2713
374.9488581649083,2666
377.31620762209275,2640
379.6829053293021,2582
382.0489514951745,2660
384.4143463284262,2596
386.7790900378528,2553
389.14318283232853,2598
391.50662492080653,2752
393.86941651231916,2693
396.23155781597745,2727
398.5930490409713,2677
400.9538903965696,2653
403.3140820921202,2730
405.6736243370498,2736
408.03251734086336,2633
410.3907613131465,2638
412.74835646356166,2665
415.10530300185144,2639
417.4616011378372,2628
419.81725108141893,2610
422.1722530425758,2600
424.5266072313656,2607
426.880313857925,2586
429.2333731324701,2657
431.58578526529516,2666
433.9375504667738,2626
436.2886689473588,2586
438.63914091758113,2570
440.9889665880513,2527
443.33814616945835,2519
445.68667987257015,2482
448.03456790823395,2548
450.3818104873759,2603
452.72840782100013,2602
455.07436012019105,2578
457.41966759611057,2533
459.7643304600007,2619
462.10834892318155,2560
464.4517231970525,2527
466.79445349309174,2581
469.1365400228566,2447
471.4779829979826,2578
473.81878263018564,2556
476.15893913125876,2544
478.4984527130747,2633
480.8373235875855,2681
483.17555196682144,2721
485.5131380628919,2758
487.8500820879857,2813
490.1863842543697,2840
492.52204477439034,2977
494.8570638604725,3102
497.1914417251204,3387
499.52517858091653,3717
501.85827464052306,4006
504.19073011668036,4212
506.5225452222086,4284
508.85372017000566,4305
511.18425517304956,4249
513.514150444396,4243
515.8434061971808,4624
518.1720226446176,5205
520.4999999999999,5365
522.8273384766991,5149
525.1540382881666,4797
527.480099647932,4352
529.8055227696037,3895
532.1303078668694,3272
534.454455153496,2997
536.777964843328,2956
539.1008371502907,2781
541.4230722883866,2642
543.744670471698,2688
546.0656319143858,2731
548.3859568306899,2694
550.7056454349294,2671
553.0246979415016,2688
555.3431145648834,2661
557.6608955196306,2631
559.978041020377,2620
562.2945512818363,2642
564.6104265188006,2670
566.9256669461412,2590
569.2402727788082,2656
571.5542442318302,2689
573.8675815203156,2777
576.1802848594508,2571
578.4923544645015,2548
580.8037905508126,2684
583.114593333807,2711
585.4247630289875,2593
587.7342998519354,2603
590.0432040183106,2594
592.3514757438526,2607
594.6591152443794,2593
596.9661227357875,2616
599.2724984340531,2670
601.578242555231,2674
603.8833553154542,2653
606.1878369309362,2625
608.4916876179676,2656
610.7949075929192,2638
613.0974970722403,2655
615.3994562724587,2672
617.7007854101818,2605
620.0014847020951,2611
622.3015543649641,2657
624.6009946156324,2554
626.8998056710224,2660
629.1979877481361,2625
631.4955410640538,2622
633.7924658359349,2644
636.0887622810175,2562
638.3844306166192,2697
640.6794710601358,2679
642.9738838290426,2633
645.2676691408932,2718
647.5608272133207,2652
649.853358264037,2728
652.1452625108324,2564
654.4365401715764,2625
656.7271914642178,2683
659.0172166067838,2614
661.3066158173809,2605
663.5953893141935,2710
665.8835373154867,2759
668.1710600396028,2690
670.4579577049639,2682
672.7442305300709,2682
675.0298787335033,2719
677.3149025339197,2684
679.599302150058,2660
681.8830778007342,2684
684.1662297048437,2599
686.4487580813608,2705
688.7306631493387,2736
691.0119451279091,2637
693.2926042362834,2694
695.5726406937516,2690
697.8520547196814,2647
700.1308465335215,2700
702.4090163547982,2718
704.6865644031171,2753
706.9634908981619,2717
709.2397960596965,2727
711.5154801075631,2697
713.7905432616823,2689
716.0649857420548,2710
718.3388077687592,2652
720.612009561953,2685
722.8845913418733,2741
725.1565533288352,2750
727.427895743234,2614
729.6986188055427,2721
731.9687227363137,2729
734.238207756178,2686
736.5070740858458,2631
738.7753219461066,2706
741.0429515578281,2656
743.3099631419569,2747
745.5763569195191,2857
747.8421331116193,2797
750.1072919394409,2683
752.3718336242467,2733
754.6357583873777,2731
756.8990664502545,2710
759.1617580343765,2691
761.423833361321,2770
763.6852926527457,2734
765.9461361303862,2707
768.206364016058,2686
770.4659765316536,2815
772.7249738991469,2830
774.9833563405886,2822
777.2411240781092,2682
779.4982773339183,2802
781.7548163303044,2649
784.010741289634,2753
786.2660524343538,2768
788.5207499869881,2683
790.7748341701416,2839
793.0283052064964,2790
795.2811633188143,2777
797.5334087299362,2735
799.7850416627813,2754
802.0360623403484,2688
804.2864709857143,2776
806.5362678220353,2722
808.7854530725468,2814
811.0340269605625,2742
813.2819897094754,2784
815.5293415427581,2792
817.77608268396,2760
820.0222133567116,2794
822.2677337847211,2718
824.5126441917765,2707
826.7569448017433,2733
829.0006358385675,2743
831.2437175262731,2780
833.4861900889629,2785
835.7280537508192,2772
837.9693087361026,2835
840.2099552691533,2752
842.4499935743896,2757
844.689423876309,2787
846.9282463994886,2736
849.1664613685833,2824
851.4040690083276,2729
853.6410695435349,2860
855.877463199097,2838
858.1132501999847,2867
860.3484307712487,2773
862.5830051380175,2809
864.8169735254988,2773
867.0503361589791,2845
869.2830932638243,2931
871.5152450654786,2817
873.7467917894654,2843
875.9777336613873,2834
878.2080709069252,2808
880.4378037518389,2880
882.666932421968,2865
884.8954571432301,2900
887.1233781416219,2906
889.3506956432192,2872
891.5774098741766,2867
893.803521060728,2947
896.0290294291852,2838
898.2539352059397,2873
900.4782386174619,2874
902.7019398903011,2907
904.925039251085,2942
907.147536926521,2916
909.3694331433943,2883
911.59072812857,2842
913.8114221089921,2884
916.0315153116827,2851
918.2510079637437,2741
920.4699002923547,2764
922.6881925247761,2870
924.905884888345,2847
927.1229776104793,2922
929.3394709186747,2837
931.555365040506,2734
933.7706602036275,2829
935.9853566357709,2839
938.1994545647489,2810
940.4129542184515,2851
942.6258558248488,2754
944.8381596119883,2843
947.0498658079974,2872
949.2609746410825,2845
951.4714863395287,2796
953.6814011316998,2793
955.8907192460387,2809
958.0994409110671,2802
960.3075663553858,2782
962.5150958076741,2745
964.7220294966913,2773
966.928367651274,2700
969.1341105003388,2781
971.3392582728806,2711
973.5438111979742,2814
975.747769504772,2676
977.9511334225061,2738
980.153903180487,2699
982.3560790081052,2785
984.5576611348289,2703
986.7586497902058,2752
988.9590452038618,2748
991.158847605503,2688
993.3580572249133,2629
995.5566742919558,2676
997.7546990365728,2675
999.952131688785,2686
1002.1489724786926,2503
1004.3452216364743,2640
1006.5408793923874,2593
1008.7359459767691,2551
1010.9304216200343,2534
1013.1243065526781,2606
1015.3176010052733,2682
1017.510305208472,2441
1019.7024193930064,2473
1021.8939437896848,2524
1024.0848786293977,2549
1026.2752241431122,2470
1028.4649805618747,2568
1030.6541481168115,2539
1032.842727039127,2468
1035.0307175601051,2519
1037.2181199111074,2492
1039.4049343235752,2459
1041.591161029029,2489
1043.7768002590683,2528
1045.9618522453698,2536
1048.1463172196918,2441
1050.3301954138697,2468
1052.513487059818,2503
1054.69619238953,2447
1056.8783116350783,2496
1059.0598450286152,2448
1061.2407928023704,2466
1063.4211551886528,2511
1065.6009324198508,2495
1067.780124728432,2500
1069.9587323469414,2514
1072.1367555080046,2476
1074.314194444325,2490
1076.4910493886855,2639
1078.667320573947,2467
1080.843008233051,2457
1083.0181125990161,2486
1085.1926339049414,2469
1087.3665723840027,2453
1089.5399282694575,2516
1091.7127017946405,2351
1093.8848931929647,2353
1096.0565026979243,2419
1098.2275305430899,2459
1100.3979769621128,2404
1102.567842188722,2457
1104.737126456726,2399
1106.9058300000124,2384
1109.0739530525475,2372
1111.2414958483764,2418
1113.4084586216231,2400
1115.5748416064907,2390
1117.7406450372605,2417
1119.9058691482942,2433
1122.0705141740304,2468
1124.2345803489884,2405
1126.3980679077658,2428
1128.5609770850388,2373
1130.7233081155623,2379
1132.8850612341707,2328
1135.0462366757774,2356
1137.2068346753745,2442
1139.3668554680326,2436
1141.526299288901,2334
1143.68516637321,2469
1145.8434569562655,2436
1148.001171273455,2428
1150.158309560244,2361
1152.3148720521767,2392
1154.470858984876,2378
1156.626270594044,2357
1158.7811071154629,2372
1160.9353687849912,2351
1163.089055838569,2365
1165.242168512213,2369
1167.3947070420209,2338
1169.5466716641677,2388
1171.6980626149075,2375
1173.8488801305748,2303
1175.9991244475814,2370
1178.1487958024186,2384
1180.2978944316555,2414
1182.4464205719428,2365
1184.5943744600072,2398
1186.7417563326567,2370
1188.8885664267755,2392
1191.0348049793297,2268
1193.1804722273619,2380
1195.325568407995,2376
1197.4700937584303,2355
1199.614048515948,2335
1201.7574329179074,2397
1203.900247201746,2416
1206.042491604982,2372
1208.1841663652099,2397
1210.3252717201053,2455
1212.465807907422,2409
1214.6057751649923,2389
1216.7451737307279,2433
1218.8840038426192,2399
1221.0222657387353,2388
1223.1599596572241,2458
1225.2970858363137,2567
1227.4336445143094,2466
1229.5696359295966,2399
1231.705060320639,2415
1233.8399179259786,2392
1235.9742089842384,2401
1238.107933734118,2374
1240.2410924143974,2375
1242.373685263935,2416
1244.5057125216676,2427
1246.6371744266116,2420
1248.7680712178621,2352
1250.898403134593,2430
1253.028170416058,2461
1255.1573733015875,2434
1257.2860120305932,2425
1259.4140868425648,2403
1261.54159797707,2472
1263.6685456737569,2410
1265.7949301723515,2483
1267.9207517126597,2392
1270.046010534565,2414
1272.1707068780306,2486
1274.2948409830983,2500
1276.4184130898889,2618
1278.541423438603,2432
1280.6638722695184,2469
1282.785759822993,2444
1284.9070863394636,2440
1287.0278520594447,2462
1289.1480572235314,2522
1291.2677020723963,2518
1293.3867868467923,2528
1295.5053117875495,2588
1297.623277135579,2492
1299.740683131868,2556
1301.8575300174857,2618
1303.973818033578,2512
1306.0895474213703,2652
1308.2047184221678,2620
1310.3193312773528,2505
1312.4333862283888,2570
1314.5468835168163,2537
1316.659823384255,2597
1318.7722060724045,2612
1320.8840318230418,2581
1322.9953008780249,2620
1325.1060134792888,2637
1327.2161698688478,2595
1329.3257702887959,2570
1331.4348149813054,2596
1333.5433041886276,2592
1335.6512381530933,2731
1337.7586171171101,2598
1339.8654413231675,2637
1341.9717110138317,2595
1344.0774264317488,2676
1346.1825878196432,2641
1348.2871954203192,2478
1350.3912494766587,2567
1352.4947502316231,2672
1354.5976979282532,2539
1356.7000928096686,2590
1358.8019351190665,2607
1360.9032250997243,2548
1363.0039629949988,2597
1365.1041490483235,2636
1367.2037835032133,2635
1369.3028666032606,2625
1371.401398592137,2586
1373.4993797135926,2670
1375.5968102114575,2623
1377.6936903296396,2639
1379.7900203121262,2635
1381.8858004029835,2588
1383.9810308463561,2606
1386.075711886469,2589
1388.1698437676241,2627
1390.2634267342032,2590
1392.356461030667,2654
1394.4489469015557,2655
1396.5408845914872,2639
1398.6322743451592,2686
1400.7231164073469,2733
1402.813411022907,2657
1404.903158436773,2693
1406.9923588939578,2661
1409.0810126395531,2608
1411.1691199187303,2719
1413.2566809767386,2630
1415.343696058907,2635
1417.4301654106425,2625
1419.5160892774315,2675
1421.6014679048399,2762
1423.6863015385125,2708
1425.7705904241707,2688
1427.8543348076178,2638
1429.9375349347342,2779
1432.0201910514802,2703
1434.102303403894,2800
1436.1838722380944,2734
1438.2648978002767,2850
1440.3453803367174,2732
1442.4253200937692,2781
1444.5047173178677,2790
1446.5835722555234,2785
1448.6618851533285,2771
1450.739656257952,2847
1452.8168858161434,2941
1454.8935740747306,2821
1456.96972128062,2916
1459.045327680797,2974
1461.120393522327,2967
1463.1949190523528,3013
1465.2689045180973,2977
1467.3423501668608,3027
1469.415256246024,2996
1471.4876230030463,3012
1473.559450685465,3033
1475.6307395408976,3085
1477.7014898170391,3102
1479.771701761665,3189
1481.8413756226287,3074
1483.9105116478618,3206
1485.9791100853772,3178
1488.0471711832643,3176
1490.1146951896926,3213
1492.1816823529098,3243
1494.2481329212433,3267
1496.3140471430984,3261
1498.3794252669609,3408
1500.4442675413939,3299
1502.5085742150404,3224
1504.572345536622,3353
1506.6355817549388,3371
1508.6982831188702,3389
1510.7604498773744,3425
1512.8220822794883,3346
1514.8831805743293,3462
1516.9437450110909,3482
1519.003775839048,3567
1521.0632733075522,3489
1523.1222376660367,3471
1525.1806691640113,3459
1527.2385680510652,3505
1529.2959345768668,3477
1531.3527689911643,3529
1533.4090715437833,3589
1535.4648424846291,3681
1537.5200820636855,3587
1539.5747905310159,3558
1541.6289681367616,3694
1543.6826151311434,3725
1545.7357317644614,3685
1547.7883182870937,3693
1549.8403749494987,3822
1551.8919020022113,3726
1553.9428996958477,3889
1555.9933682811015,3926
1558.0433080087469,4061
1560.0927191296346,4018
1562.1416018946961,3971
1564.1899565549415,3965
1566.2377833614592,4001
1568.2850825654164,3857
1570.3318544180606,3883
1572.3780991707158,3792
1574.423817074788,3781
1576.4690083817595,3678
1578.5136733431923,3665
1580.5578122107272,3566
1582.601425236085,3397
1584.6445126710646,3332
1586.6870747675434,3301
1588.7291117774776,3195
1590.7706239529034,3191
1592.8116115459347,3055
1594.8520748087658,2978
1596.8920139936686,3087
1598.9314293529933,2964
1600.9703211391711,2992
1603.008689604711,2900
1605.0465350022005,2823
1607.0838575843068,2809
1609.1206576037753,2799
1611.1569353134305,2676
1613.1926909661765,2734
1615.2279248149953,2739
1617.2626371129481,2760
1619.2968281131757,2704
1621.3304980688963,2804
1623.3636472334088,2721
1625.39627586009,2756
1627.428384202396,2726
1629.459972513861,2711
1631.4910410480993,2700
1633.5215900588028,2537
1635.551619799744,2657
1637.5811305247717,2617
1639.6101224878166,2547
1641.6385959428862,2623
1643.6665511440683,2565
1645.693988345528,2559
1647.7209078015112,2581
1649.7473097663405,2640
1651.7731944944203,2628
1653.7985622402307,2602
1655.823413258333,2601
1657.847747803366,2591
1659.8715661300494,2567
1661.8948684931793,2616
1663.9176551476316,2616
1665.9399263483624,2512
1667.9616823504057,2552
1669.982923408873,2515
1672.0036497789574,2626
1674.0238617159293,2604
1676.043559475138,2587
1678.0627433120121,2484
1680.081413482059,2520
1682.0995702408654,2531
1684.117213844096,2602
1686.134344547495,2634
1688.1509626068864,2600
1690.1670682781705,2545
1692.182661817329,2588
1694.1977434804217,2555
1696.2123135235875,2646
1698.226372203043,2579
1700.2399197750851,2501
1702.2529564960905,2561
1704.2654826225112,2494
1706.277498410882,2553
1708.2890041178139,2542
1710.2999999999988,2508
1712.3104863142066,2547
1714.3204633172854,2487
1716.329931266163,2588
1718.3388904178469,2613
1720.3473410294214,2554
1722.3552833580516,2506
1724.3627176609807,2537
1726.3696441955308,2539
1728.3760632191033,2504
1730.3819749891782,2489
1732.3873797633146,2572
1734.3922777991502,2500
1736.3966693544012,2532
1738.4005546868639,2491
1740.4039340544127,2546
1742.406807715001,2536
1744.4091759266616,2564
1746.4110389475054,2498
1748.4123970357223,2487
1750.413250449582,2489
1752.4135994474318,2560
1754.4134442876993,2557
1756.4127852288902,2567
1758.4116225295893,2514
1760.4099564484595,2392
1762.407787244244,2477
1764.405115175764,2426
1766.4019405019203,2590
1768.3982634816916,2499
1770.3940843741357,2494
1772.3894034383907,2453
1774.3842209336717,2497
1776.378537119274,2487
1778.372352254571,2469
1780.3656665990156,2486
1782.3584804121397,2481
1784.3507939535534,2475
1786.3426074829463,2504
1788.3339212600863,2416
1790.3247355448211,2507
1792.3150505970766,2555
1794.3048666768573,2505
1796.2941840442477,2531
1798.2830029594106,2459
1800.2713236825884,2547
1802.2591464741004,2477
1804.2464715943465,2540
1806.2332993038058,2523
1808.2196298630352,2490
1810.2054635326708,2497
1812.190800573428,2445
1814.175641246101,2550
1816.1599858115628,2449
1818.1438345307652,2495
1820.127187664738,2515
1822.1100454745924,2516
1824.092408221516,2461
1826.0742761667766,2482
1828.055649571721,2501
1830.0365286977735,2509
1832.0169138064398,2539
1833.9968051593014,2467
1835.9762030180214,2553
1837.9551076443408,2573
1839.9335193000788,2551
1841.9114382471344,2418
1843.888864747485,2397
1845.8657990631878,2549
1847.842241456378,2461
1849.8181921892697,2453
1851.7936515241558,2498
1853.7686197234098,2512
1855.7430970494815,2449
1857.7170837649014,2482
1859.6905801322787,2477
1861.6635864143004,2489
1863.6361028737338,2564
1865.608129773424,2541
1867.5796673762961,2554
1869.5507159453537,2515
1871.521275743678,2510
1873.4913470344313,2442
1875.4609300808534,2502
1877.4300251462632,2543
1879.3986324940588,2584
1881.366752387717,2546
1883.3343850907936,2509
1885.3015308669228,2611
1887.268189979819,2503
1889.2343626932739,2495
1891.2000492711595,2504
1893.1652499774254,2504
1895.1299650761011,2490
1897.0941948312952,2531
1899.0579395071945,2535
1901.0211993680641,2560
1902.98397467825,2534
1904.9462657021745,2512
1906.9080727043415,2572
1908.869395949332,2550
1910.8302357018065,2534
1912.790592226504,2508
1914.7504657882428,2546
1916.7098566519212,2524
1918.6687650825133,2517
1920.6271913450764,2498
1922.5851357047422,2523
1924.5425984267245,2526
1926.499579776314,2569
1928.4560800188833,2465
1930.4120994198802,2567
1932.367638244833,2598
1934.32269675935,2573
1936.2772752291175,2593
1938.231373919899,2604
1940.1849930975404,2552
1942.1381330279637,2535
1944.0907939771696,2513
1946.0429762112412,2496
1947.9946799963363,2476
1949.9459055986945,2500
1951.896653284633,2426
1953.8469233205478,2480
1955.7967159729142,2464
1957.7460315082863,2543
1959.6948701932974,2506
1961.6432322946594,2492
1963.5911180791632,2564
1965.5385278136787,2552
1967.4854617651545,2502
1969.4319202006182,2471
1971.377903387176,2499
1973.3234115920136,2506
1975.268445082395,2451
1977.2130041256642,2523
1979.1570889892423,2505
1981.1006999406304,2476
1983.04383724741,2493
1984.986501177238,2479
1986.928691997853,2429
1988.8704099770712,2461
1990.811655382789,2473
1992.7524284829801,2426
1994.692729545698,2430
1996.6325588390755,2486
1998.5719166313224,2472
2000.5108031907307,2490
2002.4492187856677,2363
2004.387163684583,2487
2006.3246381560011,2522
2008.2616424685298,2447
2010.1981768908527,2394
2012.1342416917332,2499
2014.069837140014,2441
2016.0049635046162,2428
2017.9396210545406,2426
2019.8738100588666,2407
2021.8075307867502,2526
2023.740783507431,2467
2025.6735684902228,2388
2027.6058860045214,2354
2029.5377363198004,2354
2031.4691197056118,2421
2033.4000364315875,2461
2035.3304867674374,2460
2037.260470982952,2424
2039.189989347998,2429
2041.1190421325232,2437
2043.047629606554,2380
2044.9757520401945,2403
2046.9034097036288,2434
2048.8306028671195,2415
2050.7573318010086,2389
2052.683596775716,2391
2054.609398061742,2338
2056.5347359296647,2402
2058.4596106501403,2415
2060.384022493906,2421
2062.3079717317764,2507
2064.231458634646,2483
2066.1544834734873,2418
2068.077046519352,2440
2069.99914804337,2427
2071.9207883167524,2506
2073.8419676107865,2525
2075.7626861968406,2365
2077.6829443463607,2357
2079.6027423308715,2361
2081.522080421977,2317
2083.440958891362,2398
2085.359378010786,2519
2087.2773380520907,2439
2089.194839287196,2363
2091.111881988101,2451
2093.0284664268825,2416
2094.9445928756973,2432
2096.86026160678,2499
2098.775472892446,2391
2100.690227005088,2420
2102.604524217178,2374
2104.5183648012676,2468
2106.431749029985,2314
2108.34467717604,2343
2110.2571495122206,2297
2112.169166311393,2427
2114.080727846503,2325
2115.9918343905747,2454
2117.902486216711,2360
2119.8126835980956,2419
2121.722426807987,2412
2123.6317161197285,2380
2125.5405518067364,2433
2127.448934142509,2350
2129.356863400624,2405
2131.264339854737,2469
2133.1713637785815,2471
2135.077935445972,2416
2136.9840551308002,2388
2138.889723107037,2377
2140.7949396487334,2452
2142.699705030018,2429
2144.6040195250994,2424
2146.507883408264,2396
2148.4112969538774,2429
2150.3142604363848,2428
2152.2167741303097,2464
2154.1188383102535,2513
2156.0204532508997,2417
2157.9216192270064,2359
2159.822336513414,2338
2161.7226053850413,2418
2163.622426116884,2450
2165.5217989840185,2531
2167.4207242616,2489
2169.319202224862,2382
2171.2172331491165,2379
2173.1148173097563,2370
2175.0119549822507,2407
2176.90864644215,2377
2178.8048919650823,2461
2180.7006918267534,2413
2182.596046302952,2377
2184.4909556695407,2521
2186.3854202024645,2508
2188.279440177746,2398
2190.173015871487,2482
2192.066147559868,2530
2193.958835519149,2427
2195.851080025667,2531
2197.7428813558417,2415
2199.6342397861667,2465
2201.5251555932186,2503
2203.415629053651,2474
2205.3056604441986,2441
2207.19525004167,2429
2209.084398122958,2328
2210.9731049650327,2371
2212.861370844941,2477
2214.749196039812,2461
2216.636580826851,2497
2218.523525483344,2448
2220.410030286655,2547
2222.296095514226,2422
2224.1817214435805,2500
2226.066908352319,2488
2227.951656518121,2489
2229.835966218746,2489
2231.71983773203,2476
2233.6032713358913,2487
2235.486267308324,2489
2237.3688259274036,2475
2239.2509474712824,2413
2241.132632218193,2383
2243.013880446447,2381
2244.8946924344323,2501
2246.7750684606203,2523
2248.6550088035574,2506
2250.534513741871,2414
2252.413583554265,2517
2254.292218519526,2421
2256.170418916517,2411
2258.0481850241786,2469
2259.925517121534,2476
2261.8024154876825,2471
2263.678880401803,2513
2265.5549121431536,2501
2267.430510991071,2438
2269.305677224971,2461
2271.180411124348,2487
2273.0547129687766,2450
2274.9285830379076,2467
2276.8020216114737,2432
2278.6750289692845,2320
2280.5476053912294,2414
2282.4197511572766,2430
2284.2914665474727,2478
2286.162751841943,2566
2288.0336073208937,2380
2289.904033264608,2422
2291.774029953448,2502
2293.6435976678554,2437
2295.5127366883517,2435
2297.381447295534,2457
2299.2497297700825,2377
2301.1175843927526,2296
2302.9850114443825,2305
2304.852011205885,2360
2306.7185839582553,2313
2308.5847299825664,2287
2310.4504495599676,2268
2312.3157429716925,2289
2314.1806104990483,2282
2316.0450524234247,2306
2317.9090690262888,2263
2319.772660589186,2284
2321.635827393742,2283
2323.498569721661,2257
2325.3608878547248,2240
2327.2227820747967,2220
2329.0842526638157,2238
2330.945299903803,2287
2332.805924076857,2255
2334.6661254651535,2233
2336.525904350951,2275
2338.3852610165827,2216
2340.244195744464,2217
2342.102708817088,2281
2343.9608005170253,2209
2345.8184711269287,2287
2347.675720929526,2241
2349.532550207628,2253
2351.38895924412,2218
2353.24494832197,2256
2355.100517724223,2305
2356.955667734004,2299
2358.810398634514,2355
2360.664710709037,2367
2362.5186042409337,2295
2364.3720795136437,2292
2366.225136810686,2254
2368.0777764156583,2239
2369.929998612237,2213
2371.7818036841777,2332
2373.633191915315,2271
2375.484163589562,2320
2377.3347189909114,2285
2379.184858403434,2268
2381.03458211128,2304
2382.8838903986775,2236
2384.732783549936,2269
2386.5812618494406,2258
2388.4293255816588,2221
2390.2769750311327,2226
2392.1242104824883,2257
2393.971032220427,2245
2395.8174405297295,2245
2397.6634356952563,2279
2399.509018001947,2276
2401.3541877348193,2348
2403.1989451789705,2302
2405.043290619576,2321
2406.8872243418905,2236
2408.730746631247,2209
2410.5738577730594,2262
2412.4165580528183,2348
2414.258847756095,2326
2416.100727168537,2251
2417.9421965758734,2285
2419.783256263912,2233
2421.623906518538,2236
2423.4641476257157,2289
2425.303979871491,2322
2427.143403541984,2319
2428.9824189233977,2256
2430.821026302012,2285
2432.6592259641866,2207
2434.497018196361,2312
2436.33440328505,2247
2438.171381516851,2216
2440.00795317844,2298
2441.844118556569,2191
2443.6798779380724,2345
2445.5152316098606,2276
2447.3501798589255,2261
2449.1847229723357,2212
2451.0188612372403,2157
2452.8525949408663,2189
2454.6859243705203,2215
2456.518849813587,2313
2458.3513715575314,2259
2460.183489889895,2304
2462.015205098301,2231
2463.8465174704493,2257
2465.67742729412,2248
2467.5079348571717,2266
2469.338040447542,2217
2471.1677443532476,2290
2472.9970468623833,2258
2474.825948263123,2234
2476.6544488437207,2272
2478.482548892508,2332
2480.310248697896,2256
2482.137548548374,2224
2483.9644487325118,2236
2485.790949538956,2176
2487.617051256433,2229
2489.44275417375,2284
2491.26805857979,2252
2493.0929647635157,2337
2494.917473013971,2272
2496.741583620276,2229
2498.5652968716304,2248
2500.3886130573137,2201
2502.2115324666834,2237
2504.0340553891765,2300
2505.856182114308,2259
2507.6779129316733,2340
2509.499248130945,2266
2511.3201880018764,2268
2513.140732834298,2344
2514.9608829181198,2273
2516.780638543331,2241
2518.6,2270
2520.418967578273,2278
2522.237541568376,2243
2524.0557222606144,2255
2525.8735099453706,2256
2527.6909049131086,2289
2529.507907454368,2202
2531.32451785977,2269
2533.140736420014,2256
2534.9565634258774,2325
2536.771999168218,2326
2538.5870439379714,2245
2540.4016980261526,2331
2542.2159617238544,2293
2544.02983532225,2365
2545.8433191125914,2352
2547.656413386209,2336
2549.4691184345115,2423
2551.2814345489874,2303
2553.093362021204,2384
2554.904901142808,2345
2556.716052205523,2385
2558.526815501153,2363
2560.3371913215824,2356
2562.147179958771,2373
2563.956781704761,2306
2565.7659968516705,2327
2567.5748256916986,2373
2569.3832685171224,2343
2571.1913256202984,2349
2572.9989972936614,2409
2574.806283829725,2428
2576.613185521084,2316
2578.4197026604074,2430
2580.2258355404483,2369
2582.031584454035,2318
2583.836949694077,2387
2585.6419315535613,2412
2587.4465303255533,2373
2589.2507463032002,2389
2591.0545797797245,2364
2592.8580310484303,2430
2594.6611004026995,2416
2596.463788135992,2423
2598.266094541849,2380
2600.0680199138874,2406
2601.869564545807,2355
2603.670728731383,2478
2605.4715127644704,2412
2607.2719169390048,2402
2609.071941548998,2403
2610.8715868885433,2360
2612.670853251811,2375
2614.469740933052,2381
2616.268250226594,2311
2618.0663814268455,2367
2619.864134828292,2401
2621.6615107255006,2388
2623.458509413115,2380
2625.2551311858597,2365
2627.0513763385347,2384
2628.8472451660223,2329
2630.6427379632833,2359
2632.4378550253564,2328
2634.232596647359,2365
2636.026963124488,2244
2637.8209547520187,2335
2639.6145718253065,2280
2641.407814639785,2311
2643.200683490966,2300
2644.9931786744414,2293
2646.7853004858807,2314
2648.577049221034,2220
2650.3684251757277,2344
2652.1594286458712,2384
2653.9500599274484,2226
2655.740319316525,2293
2657.5302071092437,2198
2659.3197236018286,2241
2661.10886909058,2243
2662.8976438718782,2239
2664.686048242183,2214
2666.4740824980327,2261
2668.2617469360443,2301
2670.0490418529134,2270
2671.8359675454153,2181
2673.622524310403,2247
2675.408712444811,2192
2677.1945322456495,2268
2678.979984010009,2197
2680.76506803506,2211
2682.5497846180497,2131
2684.334134056306,2171
2686.1181166472343,2195
2687.9017326883213,2163
2689.6849824771293,2183
2691.4678663113013,2138
2693.2503844885596,2261
2695.032537306705,2173
2696.8143250636167,2145
2698.5957480572542,2199
2700.3768065856534,2152
2702.1575009469316,2163
2703.937831439283,2198
2705.717798360982,2082
2707.4974020103837,2082
2709.276642685917,2166
2711.055520686095,2114
2712.834036309506,2174
2714.612189854819,2173
2716.389981620782,2117
2718.1674119062204,2148
2719.944481010041,2138
2721.721189231226,2049
2723.4975368688415,2126
2725.273524222027,2099
2727.0491515900053,2086
2728.824419272075,2100
2730.5993275676146,2032
2732.3738767760838,2048
2734.148067197016,2084
2735.921899130031,2104
2737.6953728748194,2091
2739.468488731156,2099
2741.2412469988926,2064
2743.0136479779617,2107
2744.785691968372,2122
2746.5573792702116,2186
2748.3287101836504,2135
2750.099685008934,2092
2751.870304046388,2115
2753.640567596418,2016
2755.4104759595057,2093
2757.1800294362156,2095
2758.949228327187,2048
2760.7180729331412,2084
2762.486563554877,2058
2764.254700493272,2060
2766.022484049284,2063
2767.789914523947,2136
2769.5569922183786,2090
2771.3237174337705,2064
2773.090090471394,2030
2774.8561116326036,2066
2776.6217812188274,2076
2778.3870995315756,2103
2780.1520668724356,2067
2781.9166835430747,2038
2783.6809498452394,2205
2785.444866080754,2114
2787.2084325515225,2019
2788.971649559527,2111
2790.73451740683,2128
2792.4970363955713,2076
2794.2592068279705,2067
2796.0210290063264,2115
2797.7825032330147,2070
2799.543629810493,2149
2801.304409041296,2036
2803.0648412280366,1995
2804.8249266734088,2035
2806.5846656801846,2019
2808.344058551212,2088
2810.1031055894246,1991
2811.8618070978273,2108
2813.6201633795085,2075
2815.378174737636,2083
2817.1358414754536,2002
2818.893163896285,2028
2820.6501423035334,2084
2822.4067770006814,2030
2824.1630682912883,2061
2825.9190164789957,2101
2827.6746218675207,2104
2829.429884760661,2119
2831.184805462294,2112
2832.9393842763743,2085
2834.693621506936,2067
2836.4475174580916,2066
2838.201072434034,2032
2839.954286739034,1985
2841.707160677441,2100
2843.459694553685,2105
2845.2118886722724,2091
2846.96374333779,2078
2848.7152588549034,2070
2850.4664355283567,2048
2852.217273662973,2058
2853.9677735636546,2112
2855.7179355353833,2026
2857.4677598832186,2072
2859.217246912299,2115
2860.9663969278427,2034
2862.715210235146,2011
2864.4636871395846,1987
2866.211827946614,2049
2867.9596329617652,2084
2869.7071024906536,2008
2871.4542368389684,2031
2873.20103631248,2015
2874.947501217038,2036
2876.6936318585695,2003
2878.4394285430812,2100
2880.1848915766604,2020
2881.9300212654707,2018
2883.6748179157553,2058
2885.4192818338374,2037
2887.1634133261173,2016
2888.907212699077,2052
2890.6506802592744,1985
2892.393816313348,1986
2894.1366211680142,2048
2895.8790951300693,2063
2897.621238506388,2016
2899.363051603925,2102
2901.1045347297118,2002
2902.8456881908596,2042
2904.58651229456,2024
2906.327007348081,2074
2908.067173658772,2103
2909.8070115340597,1955
2911.5465212814497,2012
2913.285703208527,2052
2915.0245576229563,2057
2916.7630848324807,2029
2918.5012851449196,1954
2920.2391588681758,2059
2921.976706310227,1977
2923.7139277791334,2009
2925.4508235830313,1990
2927.187394030137,2059
2928.923639428745,2072
2930.6595600872306,2017
2932.395156314046,1995
2934.1304284177218,2109
2935.8653767068713,1982
2937.6000014901815,2040
2939.3343030764227,2018
2941.068281774442,1994
2942.8019378931644,2086
2944.5352717415976,2016
2946.2682836288236,1969
2948.0009738640065,1966
2949.7333427563885,2012
2951.465390615289,1950
2953.1971177501086,2069
2954.9285244703265,1967
2956.6596110855,1972
2958.3903779052657,1985
2960.1208252393385,1937
2961.8509533975125,2030
2963.5807626896617,1961
2965.3102534257378,2026
2967.0394259157715,1968
2968.768280469873,1943
2970.496817398232,1948
2972.2250370111146,1971
2973.952939618869,1985
2975.6805255319196,2006
2977.4077950607707,1942
2979.134748516006,2024
2980.861386208289,1934
2982.587708448359,1999
2984.313715547037,1972
2986.039407815222,1989
2987.764785563891,2014
2989.489849104102,1930
2991.2145987469908,1951
2992.9390348037705,1978
2994.6631575857346,1901
2996.3869674042576,1888
2998.1104645707887,1970
2999.83364939686,2022
3001.5565221940783,1893
3003.2790832741334,1918
3005.0013329487924,1959
3006.7232715298996,1934
3008.4448993293804,1967
3010.166216659239,1945
3011.887223831558,1960
3013.607921158498,1927
3015.3283089522993,1963
3017.0483875252826,1938
3018.7681571898443,1966
3020.4876182584626,1899
3022.2067710436927,2013
3023.9256158581707,1828
3025.644153014609,1874
3027.362382825801,1873
3029.0803056046193,1916
3030.797921664012,1955
3032.5152313170106,1945
3034.2322348767225,1858
3035.9489326563353,1951
3037.665324969115,1954
3039.3814121284063,1921
3041.097194447633,1908
3042.812672240299,1841
3044.5278458199855,1892
3046.2427155003525,1963
3047.9572815951406,1965
3049.671544418167,1943
3051.38550428333,1975
3053.0991615046073,1972
3054.812516396051,1904
3056.5255692717974,1893
3058.2383204460575,1886
3059.9507702331257,2003
3061.662918947372,1891
3063.3747669032446,1965
3065.0863144152736,1909
3066.7975617980674,1856
3068.508509366309,1836
3070.219157434767,1902
3071.9295063182844,1832
3073.639556331785,1899
3075.3493077902704,1930
3077.058761008821,1883
3078.7679163025964,1962
3080.476773986837,1790
3082.1853343768594,1943
3083.89359778806,1879
3085.6015645359153,1828
3087.3092349359786,1858
3089.016609303884,1918
3090.7236879553434,1892
3092.4304712061476,1876
3094.136959372166,1904
3095.843152769349,1865
3097.5490517137237,1903
3099.2546565213966,1879
3100.959967508554,1862
3102.66498499146,1933
3104.3697092864577,1886
3106.0741407099695,1812
3107.778279578498,1918
3109.482126208622,1970
3111.1856809170004,1929
3112.8889440203716,1891
3114.5919158355528,1912
3116.294596679439,1998
3117.996986869006,1863
3119.6990867213062,1941
3121.4008965534726,1934
3123.102416682717,1901
3124.803647426329,1930
3126.5045891016784,1921
3128.205242026213,1895
3129.90560651746,1856
3131.605682893025,1944
3133.3054714705922,1930
3135.0049725679282,1910
3136.7041865028714,1876
3138.4031135933465,1915
3140.101754157353,1897
3141.800108512971,1882
3143.498176978357,1895
3145.1959598717494,1887
3146.8934575114636,1853
3148.5906702158954,1857
3150.2875983035183,1813
3151.9842420928853,1914
3153.680601902627,1814
3155.376678051456,1829
3157.07247085816,1885
3158.767980641609,1864
3160.463207720748,1859
3162.158152414606,1857
3163.8528150422862,1908
3165.5471959229726,1850
3167.2412953759303,1845
3168.9351137204976,1870
3170.628651276098,1897
3172.3219083622307,1856
3174.014885298474,1894
3175.707582404485,1934
3177.4000000000005,1886
3179.092138404835,1843
3180.7839979388846,1900
3182.47557892212,1845
3184.166881674594,1827
3185.8579065164386,1887
3187.5486537678626,1915
3189.2391237491547,1812
3190.9293167806827,1810
3192.6192331828934,1833
3194.3088732763117,1801
3195.998237381542,1849
3197.687325819268,1796
3199.376138910251,1773
3201.064676975334,1847
3202.7529403354347,1922
3204.4409293115523,1842
3206.1286442247647,1820
3207.816085396229,1894
3209.5032531471825,1842
3211.190147798936,1772
3212.8767696728846,1813
3214.5631190905015,1790
3216.2491963733373,1847
3217.9350018430214,1806
3219.6205358212637,1843
3221.305798629851,1868
3222.990790590651,1797
3224.6755120256103,1899
3226.359963256751,1765
3228.0441446061795,1782
3229.7280563960758,1814
3231.411698948703,1819
3233.0950725863995,1791
3234.778177631587,1836
3236.461014406761,1793
3238.1435832345005,1856
3239.8258844374595,1798
3241.507918338374,1793
3243.1896852600576,1794
3244.8711855254023,1815
3246.552419457381,1819
3248.233387379042,1806
3249.914089613516,1805
3251.59452648401,1845
3253.274698313813,1846
3254.95460542629,1857
3256.6342481448855,1742
3258.313626793125,1845
3259.9927416946084,1798
3261.6715931730196,1762
3263.3501815521176,1732
3265.0285071557437,1792
3266.706570307815,1829
3268.3843713323286,1726
3270.0619105533615,1756
3271.739188295068,1787
3273.4162048816834,1775
3275.0929606375184,1802
3276.769455886966,1793
3278.445690954498,1832
3280.1216661646613,1822
3281.797381842087,1808
3283.4728383114807,1843
3285.1480358976296,1819
3286.8229749253996,1750
3288.4976557197333,1755
3290.172078605655,1808
3291.846243908266,1820
3293.5201519527463,1789
3295.193803064357,1794
3296.8671975684374,1743
3298.5403357904024,1825
3300.21321805575,1844
3301.8858446900567,1776
3303.558216018975,1754
3305.23033236824,1831
3306.9021940636603,1815
3308.57380143113,1807
3310.2451547966184,1781
3311.916254486174,1808
3313.5871008259246,1771
3315.2576941420766,1735
3316.9280347609147,1822
3318.5981230088046,1783
3320.2679592121895,1732
3321.9375436975924,1753
3323.606876791612,1748
3325.27595882093,1769
3326.944790112305,1778
3328.6133709925753,1735
3330.2817017886573,1793
3331.949782827547,1672
3333.617614436319,1713
3335.2851969421245,1753
3336.952530672199,1769
3338.619615953853,1821
3340.286453114475,1760
3341.9530424815357,1821
3343.619384382583,1804
3345.2854791452437,1841
3346.951327097224,1769
3348.6169285663073,1783
3350.2822838803577,1769
3351.947393367319,1716
3353.61225735521,1801
3355.2768761721345,1843
3356.9412501462693,1785
3358.605379605873,1797
3360.2692648792827,1744
3361.9329062949146,1781
3363.596304181263,1742
