CollectionTime,7/10/2024 3:11:53 PM
ExposureUsed,3
CalibratedSpectrum
-962.7078968117929,823
-959.9714848408522,874
-957.2358232597828,961
-954.5009119013725,865
-951.7667505983302,911
-949.0333391832855,941
-946.3006774887896,927
-943.5687653473143,926
-940.837602591253,887
-938.1071890529199,885
-935.3775245645503,910
-932.6486089583007,944
-929.9204420662485,927
-927.1930237203925,919
-924.4663537526524,920
-921.7404319948689,935
-919.0152582788041,960
-916.2908324361409,971
-913.5671542984834,960
-910.8442236973568,899
-908.1220404642074,927
-905.4006044304027,952
-902.679915427231,920
-899.959973285902,899
-897.2407778375464,891
-894.5223289132158,897
-891.8046263438832,901
-889.0876699604426,914
-886.3714595937089,919
-883.6559950744183,956
-880.9412762332282,940
-878.2273029007168,903
-875.5140749073835,888
-872.8015920836489,925
-870.0898542598545,883
-867.3788612662631,949
-864.6686129330585,926
-861.9591090903457,908
-859.2503495681506,941
-856.5423341964203,919
-853.8350628050229,942
-851.1285352237478,947
-848.4227512823054,923
-845.7177108103272,895
-843.0134136373656,951
-840.3098595928943,1001
-837.6070485063082,948
-834.9049802069229,969
-832.2036545239757,940
-829.5030712866244,950
-826.8032303239481,936
-824.1041314649472,988
-821.4057745385428,961
-818.7081593735775,954
-816.0112857988148,917
-813.3151536429393,979
-810.6197627345566,918
-807.9251129021936,952
-805.2312039742981,979
-802.5380357792392,936
-799.8456081453069,949
-797.1539209007124,957
-794.462973873588,933
-791.772766891987,1010
-789.083299783884,977
-786.3945723771743,955
-783.7065844996748,948
-781.0193359791231,973
-778.3328266431781,970
-775.6470563194197,982
-772.9620248353489,985
-770.2777320183878,977
-767.5941776958798,1006
-764.9113616950891,1026
-762.2292838432011,958
-759.5479439673222,923
-756.8673418944801,978
-754.1874774516235,994
-751.5083504656222,1012
-748.8299607632671,972
-746.15230817127,1000
-743.475392516264,1018
-740.7992136248035,1049
-738.1237713233636,1027
-735.4490654383407,997
-732.7750957960521,1002
-730.1018622227365,1006
-727.4293645445534,1011
-724.7576025875837,1029
-722.0865761778291,1062
-719.4162851412126,1064
-716.7467293035781,1034
-714.0779084906909,1059
-711.409822528237,1074
-708.7424712418238,1046
-706.0758544569796,1048
-703.4099719991541,1074
-700.7448236937178,1079
-698.0804093659622,1080
-695.4167288411002,1052
-692.7537819442656,1044
-690.0915685005134,1081
-687.4300883348199,1098
-684.7693412720819,1083
-682.1093271371178,1117
-679.4500457546669,1076
-676.7914969493897,1079
-674.1336805458676,1051
-671.4765963686034,1089
-668.8202442420206,1129
-666.1646239904642,1086
-663.5097354382001,1024
-660.8555784094151,1050
-658.2021527282176,1082
-655.5494582186366,1130
-652.8974947046223,1144
-650.2462620100463,1146
-647.5957599587009,1118
-644.9459883742998,1183
-642.2969470804776,1127
-639.6486359007902,1147
-637.0010546587141,1134
-634.3542031776476,1079
-631.7080812809096,1168
-629.0626887917401,1141
-626.4180255333008,1095
-623.7740913286734,1135
-621.1308860008619,1147
-618.4884093727904,1129
-615.8466612673046,1185
-613.2056415071715,1164
-610.5653499150785,1099
-607.9257863136347,1174
-605.28695052537,1216
-602.6488423727357,1121
-600.0114616781036,1144
-597.3748082637674,1218
-594.7388819519412,1170
-592.1036825647604,1176
-589.4692099242818,1233
-586.8354638524829,1201
-584.2024441712624,1246
-581.5701507024403,1229
-578.9385832677575,1228
-576.3077416888759,1155
-573.6776257873787,1188
-571.0482353847704,1244
-568.4195703024757,1178
-565.7916303618415,1203
-563.164415384135,1198
-560.5379251905453,1181
-557.9121596021815,1206
-555.2871184400748,1262
-552.6628015251767,1276
-550.0392086783606,1207
-547.4163397204204,1223
-544.794194472071,1241
-542.1727727539491,1254
-539.5520743866118,1275
-536.9320991905377,1285
-534.3128469861261,1329
-531.6943175936979,1289
-529.0765108334947,1287
-526.4594265256793,1350
-523.8430644903358,1482
-521.2274245474689,1616
-518.612506517005,1597
-515.9983102187913,1645
-513.3848354725959,1680
-510.77208209810846,1639
-508.16004991493924,1727
-505.5487387426199,2031
-502.9381484006032,2038
-500.3282787082628,1956
-497.71912948489364,2046
-495.1107005497117,1943
-492.5029917218539,1831
-489.8960028203786,1702
-487.28973366426493,1584
-484.68418407241325,1506
-482.07935386364494,1436
-479.47524285670266,1418
-476.87185087025,1466
-474.2691777228715,1469
-471.66722323307334,1483
-469.0659872192821,1499
-466.4654694998459,1421
-463.86566989303384,1438
-461.26658821703614,1467
-458.66822428996414,1455
-456.07057792985,1488
-453.4736489546475,1470
-450.877437182231,1452
-448.28194243039627,1370
-445.68716451686,1452
-443.09310325926003,1434
-440.49975847515555,1464
-437.9071299820263,1469
-435.31521759727354,1471
-432.72402113821954,1444
-430.13354042210767,1514
-427.5437752661022,1482
-424.95472548728867,1541
-422.36639090267386,1477
-419.7787713291855,1568
-417.1918665836721,1555
-414.60567648290385,1523
-412.0202008435715,1635
-409.4354394822874,1567
-406.8513922155845,1586
-404.26805885991723,1635
-401.685439231661,1574
-399.103533147112,1508
-396.522340422488,1534
-393.9418608739278,1518
-391.3620943174908,1540
-388.7830405691583,1489
-386.2046994448317,1421
-383.6270707603344,1389
-381.05015433141045,1297
-378.473949973725,1190
-375.8984575028645,1061
-373.32367673433623,989
-370.74960748356875,954
-368.1762495659117,977
-365.60360279663576,819
-363.03166699093265,669
-360.4604419639154,645
-357.8899275306178,601
-355.32012350599507,590
-352.7510297049233,548
-350.1826459421999,470
-347.61497203254316,475
-345.04800779059235,485
-342.4817530309082,517
-339.91620756797226,534
-337.35137121618743,512
-334.7872437898774,586
-332.22382510328725,676
-329.66111497058273,602
-327.09911320585127,534
-324.53781962310075,562
-321.9772340362607,522
-319.4173562591816,524
-316.8581861056348,502
-314.2997233893127,484
-311.7419679238294,476
-309.1849195227194,515
-306.62857799943856,546
-304.0729431673641,581
-301.51801483979375,536
-298.963792829947,578
-296.41027695096386,566
-293.85746701590574,606
-291.3053628377552,594
-288.7539642294155,605
-286.2032710037115,566
-283.65328297338897,540
-281.1039999511146,608
-278.5554217494762,679
-276.007548180983,638
-273.4603790580651,596
-270.9139141930734,587
-268.3681533982807,574
-265.8230964858798,553
-263.27874326798565,588
-260.7350935566336,685
-258.1921471637804,683
-255.6499039013039,683
-253.10836358100266,636
-250.56752601459698,598
-248.02739101372765,641
-245.48795838995704,700
-242.94922795476816,658
-240.41119951956557,619
-237.8738728956746,741
-235.33724789434166,708
-232.80132432673452,592
-230.2661020039418,604
-227.73158073697357,660
-225.19776033676033,694
-222.66464061415422,752
-220.1322213799284,701
-217.60050244477725,641
-215.06948361931552,638
-212.53916471408013,748
-210.00954553952818,858
-207.48062590603843,778
-204.9524056239104,739
-202.4248845033651,727
-199.8980623545441,711
-197.37193898751036,685
-194.84651421224817,734
-192.32178783866232,726
-189.79775967657952,732
-187.27442953574644,884
-184.7517972258321,894
-182.2298625564256,882
-179.7086253370378,824
-177.18808537710026,799
-174.66824248596583,758
-172.14909647290835,761
-169.6306471471229,776
-167.11289431772548,906
-164.59583779375328,932
-162.07947738416453,869
-159.5638128978386,883
-157.04884414357605,1048
-154.53457093009854,1011
-152.02099306604828,928
-149.50811035998936,873
-146.99592262040665,874
-144.48442965570587,875
-141.97363127421409,942
-139.46352728417958,960
-136.95411749377126,982
-134.44540171107985,1006
-131.93737974411636,854
-129.43005140081357,847
-126.92341648902493,1233
-124.41747481652521,1665
-121.91222619101006,1890
-119.40767042009657,2287
-116.90380731132257,2666
-114.40063667214702,3007
-111.8981583099503,3736
-109.3963720320337,3341
-106.89527764561933,2873
-104.39487495785067,2469
-101.89516377579241,3168
-99.39614390642998,4631
-96.89781515667039,5351
-94.40017733334128,5412
-91.90323024319173,5293
-89.40697369289148,7210
-86.91140748903172,8814
-84.41653143812482,9142
-81.92234534660395,8422
-79.42884902082358,6098
-76.93604226705907,7996
-74.4439248915071,13750
-71.95249670028534,20717
-69.46175749943245,24821
-66.97170709490854,25279
-64.48234529259423,20980
-61.99367189829195,14595
-59.50568671772464,9625
-57.01838955653636,8135
-54.53178022029283,9100
-52.045858514480074,9291
-49.560624244506016,9608
-47.07607721569923,10614
-44.59221723330904,12013
-42.10904410250669,10908
-39.62655762838392,10872
-37.14475761595372,11772
-34.66364387015028,12034
-32.18321619582866,11750
-29.70347439776515,12573
-27.224418280657005,12109
-24.74604764912317,11850
-22.26836230770266,14986
-19.7913620608565,24477
-17.315046712966478,42349
-14.83941606833514,59704
-12.36446993118659,65041
-9.89020810566592,65041
-7.416630395839093,65041
-4.94373660569363,65041
-2.471526539137585,65041
-6.821210263296962E-13,65041
2.47084320796705,65041
4.941003281093458,65041
7.410480415786196,65041
9.879274808531363,65041
12.347386655893956,65041
14.814816154518212,65041
17.28156350112681,65041
19.74762889252179,65041
22.21301252558385,26462
24.67771459727237,5742
27.141735304626195,3815
29.605074844762612,3408
32.06773341487792,2645
34.52971121224755,2300
36.99100843422559,3134
39.45162527824516,3227
41.91156194181792,2190
44.370818622535126,1925
46.82939551806646,1859
49.287292826160524,2140
51.74451074464503,2857
54.201049471426245,3307
56.65690920448981,2540
59.112090141899785,1822
61.56659248179983,1718
64.02041642241159,1321
66.4735621620365,1403
68.92602989905402,1471
71.37781983192338,1288
73.82893215918205,1480
76.27936707944684,1606
78.72912479141326,1729
81.17820549385567,1668
83.62660938562783,1721
86.07433666566146,1833
88.5213875329681,1302
90.96776218663751,1151
93.41346082583925,1075
95.85848364982041,1230
98.30283085790859,1401
100.7465026495089,1420
103.18949922410604,1347
105.63182078126385,1477
108.07346752062438,1500
110.51443964190923,1357
112.95473734491827,1020
115.39436082953114,1076
117.83331029570547,1329
120.27158594347827,1169
122.7091879729652,1252
125.1461165843615,1401
127.58237197794062,1149
130.01795435405518,908
132.4528639131364,975
134.88710085569494,1026
137.32066538231982,935
139.75355769367923,910
142.1857779905207,1058
144.61732647366978,1020
147.04820334403132,925
149.47840880258934,961
151.90794305040674,1061
154.33680628862487,1192
156.76499871846443,1385
159.19252054122433,1541
161.61937195828352,1714
164.04555317109896,1924
166.47106438120693,2262
168.89590579022217,2446
171.320077599839,2500
173.7435800118302,2714
176.16641322804742,2792
178.58857745042144,2844
181.01007288096173,2944
183.43089972175687,3110
185.85105817497413,3096
188.27054844285988,3234
190.6893707277394,3363
193.10752523201643,3348
195.5250121581745,3348
197.9418317087751,3445
200.3579840864594,3548
202.7734694939469,3540
205.18828813403627,3605
207.6024402096051,3846
210.01592592360964,3653
212.42874547908548,3711
214.84089907914665,3645
217.2523869269868,3597
219.66320922587727,3629
222.0733661791695,3624
224.48285799029293,3702
226.8916848627572,3687
229.29984700014882,3735
231.7073446061355,3685
234.11417788446204,3651
236.520347038953,3888
238.92585227351185,3793
241.33069379212054,3824
243.73487179884035,3892
246.1383864978112,3891
248.541238093252,3727
250.9434267894609,3819
253.34495279081432,3854
255.74581630176783,3936
258.1460175268563,3853
260.54555667069314,3968
262.9444339379703,3856
265.3426495334594,3838
267.7402036620107,3810
270.1370965285529,3848
272.53332833809407,3753
274.9288992957214,3600
277.32380960660055,3587
279.718059475976,3597
282.1116491091717,3624
284.5045787115897,3519
286.89684848871195,3548
289.2884586460981,3544
291.67940938938807,3619
294.0697009242996,3652
296.4593334566299,3674
298.84830719225477,3657
301.23662233712923,3544
303.6242790972866,3542
306.01127767884,3513
308.39761828798066,3631
310.78330113097934,3525
313.16832641418534,3526
315.5526943440269,3353
317.9364051270112,3493
320.3194589697242,3353
322.70185607883093,3413
325.0835966610754,3343
327.4646809232805,3375
329.8451090723478,3294
332.2248813152577,3311
334.6039978590701,3361
336.9824589109231,3285
339.36026467803447,3362
341.7374153677,3187
344.113911187295,3237
346.48975234427337,3247
348.8649390461686,3178
351.2394715005918,3273
353.61334991523415,3189
355.9865744978655,3276
358.35914545633375,3314
360.73106299856715,3220
363.10232733257146,3289
365.47293866643247,3270
367.84289720831396,3207
370.2122031664593,3247
372.5808567491905,3213
374.9488581649083,3215
377.31620762209275,3123
379.6829053293021,3191
382.0489514951745,3123
384.4143463284262,3105
386.7790900378528,3147
389.14318283232853,3087
391.50662492080653,3085
393.86941651231916,3204
396.23155781597745,3245
398.5930490409713,3268
400.9538903965696,3223
403.3140820921202,3212
405.6736243370498,3147
408.03251734086336,3196
410.3907613131465,3075
412.74835646356166,3069
415.10530300185144,3116
417.4616011378372,3205
419.81725108141893,3151
422.1722530425758,3120
424.5266072313656,3063
426.880313857925,3103
429.2333731324701,3060
431.58578526529516,3138
433.9375504667738,3161
436.2886689473588,3150
438.63914091758113,3116
440.9889665880513,3087
443.33814616945835,3117
445.68667987257015,3085
448.03456790823395,2952
450.3818104873759,2948
452.72840782100013,3052
455.07436012019105,3141
457.41966759611057,3121
459.7643304600007,3061
462.10834892318155,3216
464.4517231970525,3033
466.79445349309174,3067
469.1365400228566,3038
471.4779829979826,3137
473.81878263018564,3077
476.15893913125876,3045
478.4984527130747,3070
480.8373235875855,3260
483.17555196682144,3152
485.5131380628919,3326
487.8500820879857,3366
490.1863842543697,3462
492.52204477439034,3421
494.8570638604725,3711
497.1914417251204,3870
499.52517858091653,4238
501.85827464052306,4474
504.19073011668036,4641
506.5225452222086,4603
508.85372017000566,4645
511.18425517304956,4467
513.514150444396,4603
515.8434061971808,4997
518.1720226446176,5783
520.4999999999999,5863
522.8273384766991,5697
525.1540382881666,5338
527.480099647932,4971
529.8055227696037,4514
532.1303078668694,3860
534.454455153496,3529
536.777964843328,3333
539.1008371502907,3252
541.4230722883866,3332
543.744670471698,3212
546.0656319143858,3302
548.3859568306899,3327
550.7056454349294,3222
553.0246979415016,3187
555.3431145648834,3250
557.6608955196306,3187
559.978041020377,3158
562.2945512818363,3173
564.6104265188006,3157
566.9256669461412,3212
569.2402727788082,3293
571.5542442318302,3289
573.8675815203156,3215
576.1802848594508,3223
578.4923544645015,3192
580.8037905508126,3317
583.114593333807,3290
585.4247630289875,3186
587.7342998519354,3172
590.0432040183106,3235
592.3514757438526,3223
594.6591152443794,3268
596.9661227357875,3251
599.2724984340531,3288
601.578242555231,3264
603.8833553154542,3324
606.1878369309362,3272
608.4916876179676,3279
610.7949075929192,3263
613.0974970722403,3243
615.3994562724587,3237
617.7007854101818,3202
620.0014847020951,3209
622.3015543649641,3310
624.6009946156324,3225
626.8998056710224,3216
629.1979877481361,3226
631.4955410640538,3262
633.7924658359349,3246
636.0887622810175,3208
638.3844306166192,3255
640.6794710601358,3205
642.9738838290426,3259
645.2676691408932,3295
647.5608272133207,3338
649.853358264037,3298
652.1452625108324,3287
654.4365401715764,3231
656.7271914642178,3240
659.0172166067838,3274
661.3066158173809,3190
663.5953893141935,3243
665.8835373154867,3287
668.1710600396028,3321
670.4579577049639,3361
672.7442305300709,3261
675.0298787335033,3380
677.3149025339197,3251
679.599302150058,3317
681.8830778007342,3221
684.1662297048437,3260
686.4487580813608,3347
688.7306631493387,3255
691.0119451279091,3303
693.2926042362834,3279
695.5726406937516,3353
697.8520547196814,3343
700.1308465335215,3295
702.4090163547982,3314
704.6865644031171,3366
706.9634908981619,3258
709.2397960596965,3262
711.5154801075631,3252
713.7905432616823,3382
716.0649857420548,3347
718.3388077687592,3323
720.612009561953,3228
722.8845913418733,3305
725.1565533288352,3273
727.427895743234,3316
729.6986188055427,3373
731.9687227363137,3403
734.238207756178,3304
736.5070740858458,3345
738.7753219461066,3385
741.0429515578281,3253
743.3099631419569,3228
745.5763569195191,3289
747.8421331116193,3281
750.1072919394409,3293
752.3718336242467,3372
754.6357583873777,3432
756.8990664502545,3345
759.1617580343765,3276
761.423833361321,3319
763.6852926527457,3252
765.9461361303862,3324
768.206364016058,3396
770.4659765316536,3351
772.7249738991469,3343
774.9833563405886,3324
777.2411240781092,3361
779.4982773339183,3401
781.7548163303044,3336
784.010741289634,3225
786.2660524343538,3408
788.5207499869881,3491
790.7748341701416,3443
793.0283052064964,3410
795.2811633188143,3452
797.5334087299362,3385
799.7850416627813,3468
802.0360623403484,3413
804.2864709857143,3403
806.5362678220353,3426
808.7854530725468,3414
811.0340269605625,3402
813.2819897094754,3409
815.5293415427581,3423
817.77608268396,3387
820.0222133567116,3485
822.2677337847211,3402
824.5126441917765,3491
826.7569448017433,3359
829.0006358385675,3448
831.2437175262731,3439
833.4861900889629,3408
835.7280537508192,3469
837.9693087361026,3387
840.2099552691533,3440
842.4499935743896,3458
844.689423876309,3437
846.9282463994886,3448
849.1664613685833,3595
851.4040690083276,3483
853.6410695435349,3351
855.877463199097,3393
858.1132501999847,3302
860.3484307712487,3484
862.5830051380175,3421
864.8169735254988,3446
867.0503361589791,3459
869.2830932638243,3480
871.5152450654786,3515
873.7467917894654,3376
875.9777336613873,3471
878.2080709069252,3465
880.4378037518389,3534
882.666932421968,3546
884.8954571432301,3470
887.1233781416219,3514
889.3506956432192,3565
891.5774098741766,3482
893.803521060728,3562
896.0290294291852,3522
898.2539352059397,3539
900.4782386174619,3475
902.7019398903011,3486
904.925039251085,3534
907.147536926521,3525
909.3694331433943,3508
911.59072812857,3564
913.8114221089921,3577
916.0315153116827,3507
918.2510079637437,3466
920.4699002923547,3480
922.6881925247761,3448
924.905884888345,3524
927.1229776104793,3459
929.3394709186747,3495
931.555365040506,3460
933.7706602036275,3417
935.9853566357709,3416
938.1994545647489,3481
940.4129542184515,3480
942.6258558248488,3432
944.8381596119883,3482
947.0498658079974,3383
949.2609746410825,3459
951.4714863395287,3478
953.6814011316998,3442
955.8907192460387,3486
958.0994409110671,3467
960.3075663553858,3396
962.5150958076741,3459
964.7220294966913,3351
966.928367651274,3432
969.1341105003388,3554
971.3392582728806,3409
973.5438111979742,3360
975.747769504772,3427
977.9511334225061,3450
980.153903180487,3419
982.3560790081052,3365
984.5576611348289,3374
986.7586497902058,3438
988.9590452038618,3335
991.158847605503,3407
993.3580572249133,3292
995.5566742919558,3359
997.7546990365728,3280
999.952131688785,3147
1002.1489724786926,3239
1004.3452216364743,3234
1006.5408793923874,3183
1008.7359459767691,3325
1010.9304216200343,3239
1013.1243065526781,3108
1015.3176010052733,3251
1017.510305208472,3262
1019.7024193930064,3275
1021.8939437896848,3170
1024.0848786293977,3203
1026.2752241431122,3174
1028.4649805618747,3213
1030.6541481168115,3257
1032.842727039127,3146
1035.0307175601051,3186
1037.2181199111074,3162
1039.4049343235752,3144
1041.591161029029,3151
1043.7768002590683,3142
1045.9618522453698,3065
1048.1463172196918,3109
1050.3301954138697,3189
1052.513487059818,3282
1054.69619238953,3172
1056.8783116350783,3128
1059.0598450286152,3172
1061.2407928023704,3173
1063.4211551886528,3144
1065.6009324198508,3177
1067.780124728432,3167
1069.9587323469414,3199
1072.1367555080046,3152
1074.314194444325,3202
1076.4910493886855,3247
1078.667320573947,3061
1080.843008233051,3139
1083.0181125990161,3192
1085.1926339049414,3164
1087.3665723840027,3098
1089.5399282694575,3100
1091.7127017946405,3150
1093.8848931929647,3197
1096.0565026979243,3034
1098.2275305430899,3171
1100.3979769621128,3083
1102.567842188722,3117
1104.737126456726,3096
1106.9058300000124,3088
1109.0739530525475,3094
1111.2414958483764,3016
1113.4084586216231,3031
1115.5748416064907,3058
1117.7406450372605,3095
1119.9058691482942,3099
1122.0705141740304,3097
1124.2345803489884,3108
1126.3980679077658,3179
1128.5609770850388,3089
1130.7233081155623,3065
1132.8850612341707,3046
1135.0462366757774,3105
1137.2068346753745,3135
1139.3668554680326,3058
1141.526299288901,3015
1143.68516637321,3071
1145.8434569562655,3041
1148.001171273455,3034
1150.158309560244,3019
1152.3148720521767,3062
1154.470858984876,3027
1156.626270594044,3050
1158.7811071154629,3127
1160.9353687849912,3117
1163.089055838569,3076
1165.242168512213,3057
1167.3947070420209,3029
1169.5466716641677,3082
1171.6980626149075,3020
1173.8488801305748,3031
1175.9991244475814,2989
1178.1487958024186,3017
1180.2978944316555,3004
1182.4464205719428,3082
1184.5943744600072,3004
1186.7417563326567,3061
1188.8885664267755,3060
1191.0348049793297,2987
1193.1804722273619,3056
1195.325568407995,3065
1197.4700937584303,3029
1199.614048515948,3033
1201.7574329179074,3023
1203.900247201746,3022
1206.042491604982,3044
1208.1841663652099,3070
1210.3252717201053,3046
1212.465807907422,3106
1214.6057751649923,3045
1216.7451737307279,3114
1218.8840038426192,3049
1221.0222657387353,3107
1223.1599596572241,3170
1225.2970858363137,3146
1227.4336445143094,3137
1229.5696359295966,3091
1231.705060320639,3084
1233.8399179259786,3055
1235.9742089842384,3143
1238.107933734118,3049
1240.2410924143974,3152
1242.373685263935,3135
1244.5057125216676,3124
1246.6371744266116,3152
1248.7680712178621,3188
1250.898403134593,3097
1253.028170416058,3085
1255.1573733015875,3172
1257.2860120305932,3111
1259.4140868425648,3138
1261.54159797707,3105
1263.6685456737569,3017
1265.7949301723515,3154
1267.9207517126597,3132
1270.046010534565,3188
1272.1707068780306,3170
1274.2948409830983,3114
1276.4184130898889,3211
1278.541423438603,3159
1280.6638722695184,3309
1282.785759822993,3188
1284.9070863394636,3186
1287.0278520594447,3261
1289.1480572235314,3242
1291.2677020723963,3179
1293.3867868467923,3308
1295.5053117875495,3281
1297.623277135579,3256
1299.740683131868,3161
1301.8575300174857,3275
1303.973818033578,3365
1306.0895474213703,3399
1308.2047184221678,3357
1310.3193312773528,3295
1312.4333862283888,3252
1314.5468835168163,3231
1316.659823384255,3356
1318.7722060724045,3457
1320.8840318230418,3375
1322.9953008780249,3325
1325.1060134792888,3298
1327.2161698688478,3383
1329.3257702887959,3252
1331.4348149813054,3269
1333.5433041886276,3378
1335.6512381530933,3297
1337.7586171171101,3361
1339.8654413231675,3387
1341.9717110138317,3262
1344.0774264317488,3314
1346.1825878196432,3377
1348.2871954203192,3296
1350.3912494766587,3300
1352.4947502316231,3305
1354.5976979282532,3347
1356.7000928096686,3329
1358.8019351190665,3267
1360.9032250997243,3239
1363.0039629949988,3318
1365.1041490483235,3388
1367.2037835032133,3284
1369.3028666032606,3288
1371.401398592137,3323
1373.4993797135926,3322
1375.5968102114575,3339
1377.6936903296396,3260
1379.7900203121262,3389
1381.8858004029835,3419
1383.9810308463561,3414
1386.075711886469,3315
1388.1698437676241,3374
1390.2634267342032,3316
1392.356461030667,3387
1394.4489469015557,3306
1396.5408845914872,3464
1398.6322743451592,3362
1400.7231164073469,3366
1402.813411022907,3356
1404.903158436773,3419
1406.9923588939578,3401
1409.0810126395531,3405
1411.1691199187303,3352
1413.2566809767386,3379
1415.343696058907,3367
1417.4301654106425,3451
1419.5160892774315,3418
1421.6014679048399,3435
1423.6863015385125,3399
1425.7705904241707,3440
1427.8543348076178,3390
1429.9375349347342,3476
1432.0201910514802,3557
1434.102303403894,3480
1436.1838722380944,3486
1438.2648978002767,3489
1440.3453803367174,3419
1442.4253200937692,3464
1444.5047173178677,3544
1446.5835722555234,3557
1448.6618851533285,3776
1450.739656257952,3662
1452.8168858161434,3517
1454.8935740747306,3647
1456.96972128062,3695
1459.045327680797,3713
1461.120393522327,3794
1463.1949190523528,3759
1465.2689045180973,3680
1467.3423501668608,3716
1469.415256246024,3823
1471.4876230030463,3865
1473.559450685465,3806
1475.6307395408976,3895
1477.7014898170391,4013
1479.771701761665,3864
1481.8413756226287,3917
1483.9105116478618,3953
1485.9791100853772,3958
1488.0471711832643,4029
1490.1146951896926,4046
1492.1816823529098,4001
1494.2481329212433,4066
1496.3140471430984,4009
1498.3794252669609,3988
1500.4442675413939,3992
1502.5085742150404,4181
1504.572345536622,4086
1506.6355817549388,4197
1508.6982831188702,4199
1510.7604498773744,4265
1512.8220822794883,4229
1514.8831805743293,4123
1516.9437450110909,4149
1519.003775839048,4199
1521.0632733075522,4318
1523.1222376660367,4220
1525.1806691640113,4274
1527.2385680510652,4268
1529.2959345768668,4348
1531.3527689911643,4348
1533.4090715437833,4411
1535.4648424846291,4386
1537.5200820636855,4437
1539.5747905310159,4377
1541.6289681367616,4481
1543.6826151311434,4520
1545.7357317644614,4471
1547.7883182870937,4528
1549.8403749494987,4525
1551.8919020022113,4603
1553.9428996958477,4665
1555.9933682811015,4735
1558.0433080087469,4797
1560.0927191296346,4653
1562.1416018946961,4752
1564.1899565549415,4777
1566.2377833614592,4771
1568.2850825654164,4803
1570.3318544180606,4691
1572.3780991707158,4587
1574.423817074788,4380
1576.4690083817595,4479
1578.5136733431923,4347
1580.5578122107272,4302
1582.601425236085,4240
1584.6445126710646,4107
1586.6870747675434,4094
1588.7291117774776,3960
1590.7706239529034,3909
1592.8116115459347,3931
1594.8520748087658,3845
1596.8920139936686,3752
1598.9314293529933,3779
1600.9703211391711,3737
1603.008689604711,3627
1605.0465350022005,3570
1607.0838575843068,3592
1609.1206576037753,3468
1611.1569353134305,3529
1613.1926909661765,3473
1615.2279248149953,3528
1617.2626371129481,3455
1619.2968281131757,3530
1621.3304980688963,3453
1623.3636472334088,3415
1625.39627586009,3490
1627.428384202396,3467
1629.459972513861,3440
1631.4910410480993,3424
1633.5215900588028,3448
1635.551619799744,3364
1637.5811305247717,3334
1639.6101224878166,3335
1641.6385959428862,3329
1643.6665511440683,3400
1645.693988345528,3337
1647.7209078015112,3331
1649.7473097663405,3401
1651.7731944944203,3325
1653.7985622402307,3325
1655.823413258333,3372
1657.847747803366,3329
1659.8715661300494,3372
1661.8948684931793,3237
1663.9176551476316,3225
1665.9399263483624,3458
1667.9616823504057,3362
1669.982923408873,3416
1672.0036497789574,3362
1674.0238617159293,3283
1676.043559475138,3241
1678.0627433120121,3227
1680.081413482059,3219
1682.0995702408654,3298
1684.117213844096,3284
1686.134344547495,3233
1688.1509626068864,3315
1690.1670682781705,3344
1692.182661817329,3296
1694.1977434804217,3330
1696.2123135235875,3414
1698.226372203043,3285
1700.2399197750851,3287
1702.2529564960905,3350
1704.2654826225112,3422
1706.277498410882,3292
1708.2890041178139,3232
1710.2999999999988,3218
1712.3104863142066,3245
1714.3204633172854,3268
1716.329931266163,3272
1718.3388904178469,3277
1720.3473410294214,3233
1722.3552833580516,3281
1724.3627176609807,3347
1726.3696441955308,3274
1728.3760632191033,3359
1730.3819749891782,3221
1732.3873797633146,3258
1734.3922777991502,3265
1736.3966693544012,3272
1738.4005546868639,3310
1740.4039340544127,3236
1742.406807715001,3266
1744.4091759266616,3186
1746.4110389475054,3322
1748.4123970357223,3294
1750.413250449582,3190
1752.4135994474318,3198
1754.4134442876993,3297
1756.4127852288902,3218
1758.4116225295893,3323
1760.4099564484595,3143
1762.407787244244,3285
1764.405115175764,3156
1766.4019405019203,3260
1768.3982634816916,3194
1770.3940843741357,3135
1772.3894034383907,3212
1774.3842209336717,3163
1776.378537119274,3254
1778.372352254571,3309
1780.3656665990156,3178
1782.3584804121397,3207
1784.3507939535534,3170
1786.3426074829463,3257
1788.3339212600863,3265
1790.3247355448211,3232
1792.3150505970766,3226
1794.3048666768573,3321
1796.2941840442477,3251
1798.2830029594106,3286
1800.2713236825884,3297
1802.2591464741004,3197
1804.2464715943465,3246
1806.2332993038058,3219
1808.2196298630352,3218
1810.2054635326708,3274
1812.190800573428,3309
1814.175641246101,3182
1816.1599858115628,3201
1818.1438345307652,3263
1820.127187664738,3216
1822.1100454745924,3292
1824.092408221516,3220
1826.0742761667766,3287
1828.055649571721,3196
1830.0365286977735,3258
1832.0169138064398,3233
1833.9968051593014,3201
1835.9762030180214,3193
1837.9551076443408,3236
1839.9335193000788,3198
1841.9114382471344,3234
1843.888864747485,3167
1845.8657990631878,3281
1847.842241456378,3182
1849.8181921892697,3244
1851.7936515241558,3207
1853.7686197234098,3213
1855.7430970494815,3199
1857.7170837649014,3320
1859.6905801322787,3211
1861.6635864143004,3246
1863.6361028737338,3264
1865.608129773424,3296
1867.5796673762961,3363
1869.5507159453537,3233
1871.521275743678,3196
1873.4913470344313,3205
1875.4609300808534,3292
1877.4300251462632,3236
1879.3986324940588,3295
1881.366752387717,3250
1883.3343850907936,3219
1885.3015308669228,3258
1887.268189979819,3237
1889.2343626932739,3155
1891.2000492711595,3291
1893.1652499774254,3299
1895.1299650761011,3232
1897.0941948312952,3283
1899.0579395071945,3277
1901.0211993680641,3284
1902.98397467825,3299
1904.9462657021745,3334
1906.9080727043415,3277
1908.869395949332,3298
1910.8302357018065,3343
1912.790592226504,3242
1914.7504657882428,3232
1916.7098566519212,3199
1918.6687650825133,3234
1920.6271913450764,3243
1922.5851357047422,3232
1924.5425984267245,3214
1926.499579776314,3304
1928.4560800188833,3164
1930.4120994198802,3283
1932.367638244833,3265
1934.32269675935,3202
1936.2772752291175,3358
1938.231373919899,3374
1940.1849930975404,3252
1942.1381330279637,3210
1944.0907939771696,3276
1946.0429762112412,3263
1947.9946799963363,3287
1949.9459055986945,3256
1951.896653284633,3334
1953.8469233205478,3190
1955.7967159729142,3227
1957.7460315082863,3254
1959.6948701932974,3223
1961.6432322946594,3237
1963.5911180791632,3268
1965.5385278136787,3291
1967.4854617651545,3227
1969.4319202006182,3224
1971.377903387176,3258
1973.3234115920136,3218
1975.268445082395,3244
1977.2130041256642,3189
1979.1570889892423,3262
1981.1006999406304,3175
1983.04383724741,3224
1984.986501177238,3263
1986.928691997853,3228
1988.8704099770712,3193
1990.811655382789,3339
1992.7524284829801,3156
1994.692729545698,3226
1996.6325588390755,3187
1998.5719166313224,3208
2000.5108031907307,3158
2002.4492187856677,3140
2004.387163684583,3258
2006.3246381560011,3241
2008.2616424685298,3291
2010.1981768908527,3209
2012.1342416917332,3147
2014.069837140014,3183
2016.0049635046162,3204
2017.9396210545406,3255
2019.8738100588666,3294
2021.8075307867502,3170
2023.740783507431,3263
2025.6735684902228,3199
2027.6058860045214,3250
2029.5377363198004,3184
2031.4691197056118,3201
2033.4000364315875,3158
2035.3304867674374,3188
2037.260470982952,3210
2039.189989347998,3225
2041.1190421325232,3136
2043.047629606554,3182
2044.9757520401945,3130
2046.9034097036288,3236
2048.8306028671195,3118
2050.7573318010086,3178
2052.683596775716,3223
2054.609398061742,3189
2056.5347359296647,3120
2058.4596106501403,3258
2060.384022493906,3252
2062.3079717317764,3251
2064.231458634646,3230
2066.1544834734873,3249
2068.077046519352,3128
2069.99914804337,3175
2071.9207883167524,3175
2073.8419676107865,3277
2075.7626861968406,3184
2077.6829443463607,3166
2079.6027423308715,3260
2081.522080421977,3076
2083.440958891362,3179
2085.359378010786,3234
2087.2773380520907,3127
2089.194839287196,3141
2091.111881988101,3199
2093.0284664268825,3244
2094.9445928756973,3219
2096.86026160678,3118
2098.775472892446,3171
2100.690227005088,3119
2102.604524217178,3145
2104.5183648012676,3146
2106.431749029985,3206
2108.34467717604,3208
2110.2571495122206,3223
2112.169166311393,3182
2114.080727846503,3181
2115.9918343905747,3234
2117.902486216711,3135
2119.8126835980956,3246
2121.722426807987,3135
2123.6317161197285,3162
2125.5405518067364,3174
2127.448934142509,3162
2129.356863400624,3190
2131.264339854737,3189
2133.1713637785815,3120
2135.077935445972,3229
2136.9840551308002,3224
2138.889723107037,3228
2140.7949396487334,3170
2142.699705030018,3188
2144.6040195250994,3134
2146.507883408264,3227
2148.4112969538774,3222
2150.3142604363848,3287
2152.2167741303097,3169
2154.1188383102535,3240
2156.0204532508997,3185
2157.9216192270064,3298
2159.822336513414,3197
2161.7226053850413,3215
2163.622426116884,3227
2165.5217989840185,3255
2167.4207242616,3171
2169.319202224862,3243
2171.2172331491165,3214
2173.1148173097563,3249
2175.0119549822507,3219
2176.90864644215,3188
2178.8048919650823,3235
2180.7006918267534,3148
2182.596046302952,3213
2184.4909556695407,3196
2186.3854202024645,3167
2188.279440177746,3241
2190.173015871487,3266
2192.066147559868,3218
2193.958835519149,3223
2195.851080025667,3185
2197.7428813558417,3223
2199.6342397861667,3155
2201.5251555932186,3188
2203.415629053651,3238
2205.3056604441986,3308
2207.19525004167,3228
2209.084398122958,3280
2210.9731049650327,3203
2212.861370844941,3160
2214.749196039812,3220
2216.636580826851,3278
2218.523525483344,3252
2220.410030286655,3218
2222.296095514226,3198
2224.1817214435805,3252
2226.066908352319,3256
2227.951656518121,3320
2229.835966218746,3274
2231.71983773203,3216
2233.6032713358913,3301
2235.486267308324,3289
2237.3688259274036,3339
2239.2509474712824,3231
2241.132632218193,3261
2243.013880446447,3258
2244.8946924344323,3259
2246.7750684606203,3258
2248.6550088035574,3334
2250.534513741871,3255
2252.413583554265,3164
2254.292218519526,3289
2256.170418916517,3302
2258.0481850241786,3234
2259.925517121534,3287
2261.8024154876825,3215
2263.678880401803,3226
2265.5549121431536,3344
2267.430510991071,3247
2269.305677224971,3295
2271.180411124348,3223
2273.0547129687766,3151
2274.9285830379076,3151
2276.8020216114737,3211
2278.6750289692845,3220
2280.5476053912294,3228
2282.4197511572766,3353
2284.2914665474727,3254
2286.162751841943,3193
2288.0336073208937,3308
2289.904033264608,3308
2291.774029953448,3301
2293.6435976678554,3316
2295.5127366883517,3260
2297.381447295534,3196
2299.2497297700825,3225
2301.1175843927526,3233
2302.9850114443825,3240
2304.852011205885,3155
2306.7185839582553,3152
2308.5847299825664,3071
2310.4504495599676,3149
2312.3157429716925,3050
2314.1806104990483,3104
2316.0450524234247,3137
2317.9090690262888,3083
2319.772660589186,3131
2321.635827393742,3141
2323.498569721661,3155
2325.3608878547248,3089
2327.2227820747967,3107
2329.0842526638157,3162
2330.945299903803,3090
2332.805924076857,3078
2334.6661254651535,3051
2336.525904350951,3044
2338.3852610165827,3131
2340.244195744464,3055
2342.102708817088,3023
2343.9608005170253,3070
2345.8184711269287,3124
2347.675720929526,3050
2349.532550207628,3040
2351.38895924412,3013
2353.24494832197,3086
2355.100517724223,3134
2356.955667734004,3102
2358.810398634514,3161
2360.664710709037,3169
2362.5186042409337,3115
2364.3720795136437,3095
2366.225136810686,3112
2368.0777764156583,3111
2369.929998612237,3029
2371.7818036841777,3170
2373.633191915315,3138
2375.484163589562,3088
2377.3347189909114,3109
2379.184858403434,3175
2381.03458211128,3094
2382.8838903986775,3191
2384.732783549936,3100
2386.5812618494406,3073
2388.4293255816588,3129
2390.2769750311327,3237
2392.1242104824883,3163
2393.971032220427,3059
2395.8174405297295,3074
2397.6634356952563,3123
2399.509018001947,3085
2401.3541877348193,3158
2403.1989451789705,3042
2405.043290619576,3122
2406.8872243418905,3156
2408.730746631247,3091
2410.5738577730594,3140
2412.4165580528183,3122
2414.258847756095,3068
2416.100727168537,3088
2417.9421965758734,3130
2419.783256263912,3040
2421.623906518538,3232
2423.4641476257157,3079
2425.303979871491,3120
2427.143403541984,3195
2428.9824189233977,3114
2430.821026302012,3127
2432.6592259641866,3133
2434.497018196361,3169
2436.33440328505,3141
2438.171381516851,3153
2440.00795317844,3086
2441.844118556569,3062
2443.6798779380724,3094
2445.5152316098606,3069
2447.3501798589255,3173
2449.1847229723357,3085
2451.0188612372403,3108
2452.8525949408663,3144
2454.6859243705203,3076
2456.518849813587,3036
2458.3513715575314,3168
2460.183489889895,3178
2462.015205098301,3085
2463.8465174704493,3018
2465.67742729412,3075
2467.5079348571717,3002
2469.338040447542,3182
2471.1677443532476,3138
2472.9970468623833,3122
2474.825948263123,3124
2476.6544488437207,3141
2478.482548892508,3107
2480.310248697896,3103
2482.137548548374,3189
2483.9644487325118,3122
2485.790949538956,3139
2487.617051256433,3082
2489.44275417375,3048
2491.26805857979,3135
2493.0929647635157,3093
2494.917473013971,3102
2496.741583620276,3105
2498.5652968716304,3083
2500.3886130573137,3154
2502.2115324666834,3130
2504.0340553891765,3081
2505.856182114308,3172
2507.6779129316733,3179
2509.499248130945,3088
2511.3201880018764,3154
2513.140732834298,3153
2514.9608829181198,3069
2516.780638543331,3138
2518.6,3176
2520.418967578273,3129
2522.237541568376,3180
2524.0557222606144,3083
2525.8735099453706,3147
2527.6909049131086,3097
2529.507907454368,3160
2531.32451785977,3132
2533.140736420014,3060
2534.9565634258774,3117
2536.771999168218,3158
2538.5870439379714,3186
2540.4016980261526,3102
2542.2159617238544,3133
2544.02983532225,3276
2545.8433191125914,3170
2547.656413386209,3199
2549.4691184345115,3141
2551.2814345489874,3214
2553.093362021204,3197
2554.904901142808,3241
2556.716052205523,3271
2558.526815501153,3293
2560.3371913215824,3268
2562.147179958771,3260
2563.956781704761,3193
2565.7659968516705,3263
2567.5748256916986,3269
2569.3832685171224,3201
2571.1913256202984,3248
2572.9989972936614,3224
2574.806283829725,3296
2576.613185521084,3268
2578.4197026604074,3345
2580.2258355404483,3255
2582.031584454035,3236
2583.836949694077,3201
2585.6419315535613,3341
2587.4465303255533,3245
2589.2507463032002,3251
2591.0545797797245,3289
2592.8580310484303,3245
2594.6611004026995,3378
2596.463788135992,3278
2598.266094541849,3284
2600.0680199138874,3257
2601.869564545807,3418
2603.670728731383,3254
2605.4715127644704,3273
2607.2719169390048,3362
2609.071941548998,3351
2610.8715868885433,3350
2612.670853251811,3359
2614.469740933052,3323
2616.268250226594,3363
2618.0663814268455,3250
2619.864134828292,3191
2621.6615107255006,3254
2623.458509413115,3243
2625.2551311858597,3234
2627.0513763385347,3263
2628.8472451660223,3226
2630.6427379632833,3183
2632.4378550253564,3135
2634.232596647359,3169
2636.026963124488,3223
2637.8209547520187,3275
2639.6145718253065,3204
2641.407814639785,3212
2643.200683490966,3237
2644.9931786744414,3284
2646.7853004858807,3143
2648.577049221034,3131
2650.3684251757277,3157
2652.1594286458712,3126
2653.9500599274484,3130
2655.740319316525,3103
2657.5302071092437,3179
2659.3197236018286,3181
2661.10886909058,3072
2662.8976438718782,3144
2664.686048242183,3117
2666.4740824980327,3110
2668.2617469360443,3057
2670.0490418529134,3159
2671.8359675454153,3196
2673.622524310403,3130
2675.408712444811,3123
2677.1945322456495,3070
2678.979984010009,3160
2680.76506803506,3105
2682.5497846180497,3105
2684.334134056306,3055
2686.1181166472343,3017
2687.9017326883213,3155
2689.6849824771293,3040
2691.4678663113013,3080
2693.2503844885596,3105
2695.032537306705,3032
2696.8143250636167,2986
2698.5957480572542,3042
2700.3768065856534,3042
2702.1575009469316,3067
2703.937831439283,3030
2705.717798360982,3105
2707.4974020103837,2945
2709.276642685917,3088
2711.055520686095,2994
2712.834036309506,3091
2714.612189854819,3027
2716.389981620782,2923
2718.1674119062204,3073
2719.944481010041,2994
2721.721189231226,3064
2723.4975368688415,3102
2725.273524222027,2984
2727.0491515900053,2986
2728.824419272075,2969
2730.5993275676146,2983
2732.3738767760838,3041
2734.148067197016,2958
2735.921899130031,3070
2737.6953728748194,2944
2739.468488731156,3030
2741.2412469988926,3018
2743.0136479779617,2983
2744.785691968372,2933
2746.5573792702116,3035
2748.3287101836504,2963
2750.099685008934,3032
2751.870304046388,2954
2753.640567596418,3087
2755.4104759595057,2989
2757.1800294362156,2987
2758.949228327187,3008
2760.7180729331412,3003
2762.486563554877,2935
2764.254700493272,2979
2766.022484049284,2881
2767.789914523947,3024
2769.5569922183786,2980
2771.3237174337705,2952
2773.090090471394,3013
2774.8561116326036,2978
2776.6217812188274,2991
2778.3870995315756,2966
2780.1520668724356,2969
2781.9166835430747,3048
2783.6809498452394,2999
2785.444866080754,2923
2787.2084325515225,3059
2788.971649559527,2810
2790.73451740683,2938
2792.4970363955713,2984
2794.2592068279705,3097
2796.0210290063264,2985
2797.7825032330147,2996
2799.543629810493,3018
2801.304409041296,3018
2803.0648412280366,3067
2804.8249266734088,2968
2806.5846656801846,2987
2808.344058551212,3029
2810.1031055894246,3026
2811.8618070978273,3001
2813.6201633795085,2985
2815.378174737636,2948
2817.1358414754536,2935
2818.893163896285,2985
2820.6501423035334,3083
2822.4067770006814,2917
2824.1630682912883,2988
2825.9190164789957,2930
2827.6746218675207,3034
2829.429884760661,3062
2831.184805462294,3012
2832.9393842763743,2960
2834.693621506936,2940
2836.4475174580916,3027
2838.201072434034,3037
2839.954286739034,2985
2841.707160677441,3000
2843.459694553685,3009
2845.2118886722724,3010
2846.96374333779,2902
2848.7152588549034,3017
2850.4664355283567,3033
2852.217273662973,2940
2853.9677735636546,3023
2855.7179355353833,2881
2857.4677598832186,2933
2859.217246912299,2921
2860.9663969278427,2971
2862.715210235146,3010
2864.4636871395846,2973
2866.211827946614,3016
2867.9596329617652,2892
2869.7071024906536,2939
2871.4542368389684,2942
2873.20103631248,2962
2874.947501217038,2963
2876.6936318585695,2964
2878.4394285430812,2940
2880.1848915766604,2985
2881.9300212654707,2952
2883.6748179157553,2945
2885.4192818338374,2947
2887.1634133261173,2937
2888.907212699077,2905
2890.6506802592744,2954
2892.393816313348,3003
2894.1366211680142,2996
2895.8790951300693,2978
2897.621238506388,2997
2899.363051603925,3045
2901.1045347297118,3069
2902.8456881908596,2978
2904.58651229456,2959
2906.327007348081,2947
2908.067173658772,2985
2909.8070115340597,2971
2911.5465212814497,3001
2913.285703208527,2891
2915.0245576229563,3017
2916.7630848324807,2937
2918.5012851449196,2972
2920.2391588681758,2896
2921.976706310227,2946
2923.7139277791334,2941
2925.4508235830313,2965
2927.187394030137,2881
2928.923639428745,2911
2930.6595600872306,2905
2932.395156314046,2932
2934.1304284177218,3015
2935.8653767068713,2965
2937.6000014901815,2936
2939.3343030764227,2980
2941.068281774442,2925
2942.8019378931644,2904
2944.5352717415976,2944
2946.2682836288236,2890
2948.0009738640065,2908
2949.7333427563885,2940
2951.465390615289,3012
2953.1971177501086,2895
2954.9285244703265,2939
2956.6596110855,2977
2958.3903779052657,2854
2960.1208252393385,2969
2961.8509533975125,2938
2963.5807626896617,2984
2965.3102534257378,3021
2967.0394259157715,2814
2968.768280469873,2875
2970.496817398232,2909
2972.2250370111146,2913
2973.952939618869,2914
2975.6805255319196,2898
2977.4077950607707,2921
2979.134748516006,2958
2980.861386208289,2993
2982.587708448359,2972
2984.313715547037,2970
2986.039407815222,2927
2987.764785563891,3008
2989.489849104102,2995
2991.2145987469908,2960
2992.9390348037705,2933
2994.6631575857346,3030
2996.3869674042576,2978
2998.1104645707887,2886
2999.83364939686,2798
3001.5565221940783,2867
3003.2790832741334,2951
3005.0013329487924,2927
3006.7232715298996,2863
3008.4448993293804,2976
3010.166216659239,2835
3011.887223831558,2898
3013.607921158498,2907
3015.3283089522993,2917
3017.0483875252826,2880
3018.7681571898443,2865
3020.4876182584626,2904
3022.2067710436927,2913
3023.9256158581707,2898
3025.644153014609,2904
3027.362382825801,2927
3029.0803056046193,2820
3030.797921664012,2904
3032.5152313170106,2855
3034.2322348767225,2885
3035.9489326563353,2794
3037.665324969115,2807
3039.3814121284063,2908
3041.097194447633,2853
3042.812672240299,2925
3044.5278458199855,2878
3046.2427155003525,2922
3047.9572815951406,2876
3049.671544418167,2822
3051.38550428333,3015
3053.0991615046073,2863
3054.812516396051,2779
3056.5255692717974,2878
3058.2383204460575,2805
3059.9507702331257,2845
3061.662918947372,2927
3063.3747669032446,2814
3065.0863144152736,2815
3066.7975617980674,2852
3068.508509366309,2840
3070.219157434767,2884
3071.9295063182844,2927
3073.639556331785,2930
3075.3493077902704,2903
3077.058761008821,2826
3078.7679163025964,2900
3080.476773986837,2862
3082.1853343768594,2910
3083.89359778806,2859
3085.6015645359153,2884
3087.3092349359786,2875
3089.016609303884,2983
3090.7236879553434,2947
3092.4304712061476,2909
3094.136959372166,2818
3095.843152769349,2832
3097.5490517137237,2906
3099.2546565213966,2878
3100.959967508554,2940
3102.66498499146,2800
3104.3697092864577,2867
3106.0741407099695,2890
3107.778279578498,2877
3109.482126208622,2905
3111.1856809170004,2850
3112.8889440203716,2884
3114.5919158355528,2832
3116.294596679439,2911
3117.996986869006,2934
3119.6990867213062,2877
3121.4008965534726,2951
3123.102416682717,3006
3124.803647426329,2910
3126.5045891016784,2935
3128.205242026213,2930
3129.90560651746,2933
3131.605682893025,2943
3133.3054714705922,2803
3135.0049725679282,2920
3136.7041865028714,2891
3138.4031135933465,2896
3140.101754157353,2927
3141.800108512971,2875
3143.498176978357,2904
3145.1959598717494,2889
3146.8934575114636,2913
3148.5906702158954,2849
3150.2875983035183,2768
3151.9842420928853,2822
3153.680601902627,2893
3155.376678051456,2811
3157.07247085816,2878
3158.767980641609,2800
3160.463207720748,2827
3162.158152414606,2834
3163.8528150422862,2827
3165.5471959229726,2845
3167.2412953759303,2879
3168.9351137204976,2848
3170.628651276098,2876
3172.3219083622307,2841
3174.014885298474,2946
3175.707582404485,2914
3177.4000000000005,2863
3179.092138404835,2888
3180.7839979388846,2952
3182.47557892212,2829
3184.166881674594,2837
3185.8579065164386,2879
3187.5486537678626,2858
3189.2391237491547,2853
3190.9293167806827,2847
3192.6192331828934,2762
3194.3088732763117,2898
3195.998237381542,2964
3197.687325819268,2865
3199.376138910251,2781
3201.064676975334,2840
3202.7529403354347,2852
3204.4409293115523,2881
3206.1286442247647,2826
3207.816085396229,2820
3209.5032531471825,2880
3211.190147798936,2777
3212.8767696728846,2781
3214.5631190905015,2787
3216.2491963733373,2850
3217.9350018430214,2830
3219.6205358212637,2786
3221.305798629851,2731
3222.990790590651,2797
3224.6755120256103,2725
3226.359963256751,2751
3228.0441446061795,2782
3229.7280563960758,2842
3231.411698948703,2814
3233.0950725863995,2799
3234.778177631587,2803
3236.461014406761,2849
3238.1435832345005,2860
3239.8258844374595,2838
3241.507918338374,2792
3243.1896852600576,2826
3244.8711855254023,2772
3246.552419457381,2882
3248.233387379042,2839
3249.914089613516,2843
3251.59452648401,2813
3253.274698313813,2913
3254.95460542629,2844
3256.6342481448855,2863
3258.313626793125,2744
3259.9927416946084,2804
3261.6715931730196,2781
3263.3501815521176,2802
3265.0285071557437,2815
3266.706570307815,2795
3268.3843713323286,2637
3270.0619105533615,2771
3271.739188295068,2821
3273.4162048816834,2782
3275.0929606375184,2842
3276.769455886966,2828
3278.445690954498,2849
3280.1216661646613,2810
3281.797381842087,2866
3283.4728383114807,2766
3285.1480358976296,2725
3286.8229749253996,2721
3288.4976557197333,2755
3290.172078605655,2779
3291.846243908266,2783
3293.5201519527463,2734
3295.193803064357,2720
3296.8671975684374,2805
3298.5403357904024,2800
3300.21321805575,2849
3301.8858446900567,2833
3303.558216018975,2765
3305.23033236824,2779
3306.9021940636603,2841
3308.57380143113,2793
3310.2451547966184,2761
3311.916254486174,2805
3313.5871008259246,2784
3315.2576941420766,2817
3316.9280347609147,2817
3318.5981230088046,2768
3320.2679592121895,2760
3321.9375436975924,2845
3323.606876791612,2787
3325.27595882093,2793
3326.944790112305,2689
3328.6133709925753,2765
3330.2817017886573,2706
3331.949782827547,2771
3333.617614436319,2852
3335.2851969421245,2766
3336.952530672199,2793
3338.619615953853,2842
3340.286453114475,2855
3341.9530424815357,2810
3343.619384382583,2843
3345.2854791452437,2797
3346.951327097224,2854
3348.6169285663073,2817
3350.2822838803577,2834
3351.947393367319,2895
3353.61225735521,2878
3355.2768761721345,2795
3356.9412501462693,2843
3358.605379605873,2774
3360.2692648792827,2841
3361.9329062949146,2830
3363.596304181263,2766
