CollectionTime,6/26/2024 3:13:46 PM
ExposureUsed,3
CalibratedSpectrum
-962.7078968117929,864
-959.9714848408522,903
-957.2358232597828,876
-954.5009119013725,900
-951.7667505983302,885
-949.0333391832855,933
-946.3006774887896,927
-943.5687653473143,951
-940.837602591253,911
-938.1071890529199,879
-935.3775245645503,888
-932.6486089583007,900
-929.9204420662485,904
-927.1930237203925,917
-924.4663537526524,900
-921.7404319948689,920
-919.0152582788041,906
-916.2908324361409,950
-913.5671542984834,976
-910.8442236973568,940
-908.1220404642074,942
-905.4006044304027,933
-902.679915427231,937
-899.959973285902,930
-897.2407778375464,945
-894.5223289132158,944
-891.8046263438832,893
-889.0876699604426,934
-886.3714595937089,911
-883.6559950744183,917
-880.9412762332282,895
-878.2273029007168,873
-875.5140749073835,877
-872.8015920836489,884
-870.0898542598545,876
-867.3788612662631,874
-864.6686129330585,883
-861.9591090903457,878
-859.2503495681506,885
-856.5423341964203,891
-853.8350628050229,906
-851.1285352237478,924
-848.4227512823054,885
-845.7177108103272,821
-843.0134136373656,859
-840.3098595928943,845
-837.6070485063082,933
-834.9049802069229,874
-832.2036545239757,947
-829.5030712866244,893
-826.8032303239481,915
-824.1041314649472,868
-821.4057745385428,872
-818.7081593735775,853
-816.0112857988148,836
-813.3151536429393,859
-810.6197627345566,866
-807.9251129021936,843
-805.2312039742981,868
-802.5380357792392,872
-799.8456081453069,858
-797.1539209007124,884
-794.462973873588,887
-791.772766891987,861
-789.083299783884,905
-786.3945723771743,865
-783.7065844996748,882
-781.0193359791231,883
-778.3328266431781,929
-775.6470563194197,915
-772.9620248353489,942
-770.2777320183878,842
-767.5941776958798,864
-764.9113616950891,864
-762.2292838432011,876
-759.5479439673222,876
-756.8673418944801,854
-754.1874774516235,895
-751.5083504656222,904
-748.8299607632671,942
-746.15230817127,923
-743.475392516264,945
-740.7992136248035,874
-738.1237713233636,893
-735.4490654383407,910
-732.7750957960521,927
-730.1018622227365,920
-727.4293645445534,913
-724.7576025875837,874
-722.0865761778291,888
-719.4162851412126,909
-716.7467293035781,907
-714.0779084906909,968
-711.409822528237,965
-708.7424712418238,933
-706.0758544569796,952
-703.4099719991541,940
-700.7448236937178,952
-698.0804093659622,993
-695.4167288411002,977
-692.7537819442656,964
-690.0915685005134,981
-687.4300883348199,965
-684.7693412720819,995
-682.1093271371178,922
-679.4500457546669,956
-676.7914969493897,962
-674.1336805458676,957
-671.4765963686034,1004
-668.8202442420206,979
-666.1646239904642,995
-663.5097354382001,1004
-660.8555784094151,987
-658.2021527282176,976
-655.5494582186366,1028
-652.8974947046223,1041
-650.2462620100463,1041
-647.5957599587009,1022
-644.9459883742998,1037
-642.2969470804776,1019
-639.6486359007902,1027
-637.0010546587141,1064
-634.3542031776476,1054
-631.7080812809096,1036
-629.0626887917401,1051
-626.4180255333008,1019
-623.7740913286734,1003
-621.1308860008619,1045
-618.4884093727904,987
-615.8466612673046,976
-613.2056415071715,977
-610.5653499150785,1040
-607.9257863136347,1031
-605.28695052537,1032
-602.6488423727357,982
-600.0114616781036,994
-597.3748082637674,1089
-594.7388819519412,1007
-592.1036825647604,1051
-589.4692099242818,1072
-586.8354638524829,983
-584.2024441712624,1012
-581.5701507024403,1025
-578.9385832677575,1015
-576.3077416888759,1048
-573.6776257873787,1065
-571.0482353847704,1026
-568.4195703024757,1017
-565.7916303618415,1120
-563.164415384135,1137
-560.5379251905453,1094
-557.9121596021815,1031
-555.2871184400748,1032
-552.6628015251767,1077
-550.0392086783606,1048
-547.4163397204204,1067
-544.794194472071,1041
-542.1727727539491,1069
-539.5520743866118,1078
-536.9320991905377,1109
-534.3128469861261,1179
-531.6943175936979,1194
-529.0765108334947,1143
-526.4594265256793,1235
-523.8430644903358,1351
-521.2274245474689,1508
-518.612506517005,1674
-515.9983102187913,1738
-513.3848354725959,1817
-510.77208209810846,1826
-508.16004991493924,1837
-505.5487387426199,1993
-502.9381484006032,2087
-500.3282787082628,2206
-497.71912948489364,2211
-495.1107005497117,2257
-492.5029917218539,2311
-489.8960028203786,2170
-487.28973366426493,1977
-484.68418407241325,1780
-482.07935386364494,1633
-479.47524285670266,1537
-476.87185087025,1501
-474.2691777228715,1568
-471.66722323307334,1489
-469.0659872192821,1382
-466.4654694998459,1400
-463.86566989303384,1379
-461.26658821703614,1301
-458.66822428996414,1326
-456.07057792985,1300
-453.4736489546475,1304
-450.877437182231,1310
-448.28194243039627,1303
-445.68716451686,1252
-443.09310325926003,1291
-440.49975847515555,1238
-437.9071299820263,1241
-435.31521759727354,1299
-432.72402113821954,1299
-430.13354042210767,1319
-427.5437752661022,1314
-424.95472548728867,1283
-422.36639090267386,1343
-419.7787713291855,1318
-417.1918665836721,1329
-414.60567648290385,1321
-412.0202008435715,1322
-409.4354394822874,1375
-406.8513922155845,1374
-404.26805885991723,1369
-401.685439231661,1379
-399.103533147112,1356
-396.522340422488,1349
-393.9418608739278,1420
-391.3620943174908,1350
-388.7830405691583,1363
-386.2046994448317,1324
-383.6270707603344,1224
-381.05015433141045,1159
-378.473949973725,1132
-375.8984575028645,1003
-373.32367673433623,894
-370.74960748356875,885
-368.1762495659117,827
-365.60360279663576,783
-363.03166699093265,713
-360.4604419639154,702
-357.8899275306178,593
-355.32012350599507,637
-352.7510297049233,589
-350.1826459421999,587
-347.61497203254316,584
-345.04800779059235,564
-342.4817530309082,501
-339.91620756797226,546
-337.35137121618743,518
-334.7872437898774,573
-332.22382510328725,585
-329.66111497058273,605
-327.09911320585127,601
-324.53781962310075,597
-321.9772340362607,610
-319.4173562591816,620
-316.8581861056348,686
-314.2997233893127,698
-311.7419679238294,678
-309.1849195227194,674
-306.62857799943856,571
-304.0729431673641,513
-301.51801483979375,536
-298.963792829947,598
-296.41027695096386,629
-293.85746701590574,664
-291.3053628377552,742
-288.7539642294155,698
-286.2032710037115,647
-283.65328297338897,650
-281.1039999511146,723
-278.5554217494762,819
-276.007548180983,761
-273.4603790580651,707
-270.9139141930734,647
-268.3681533982807,649
-265.8230964858798,706
-263.27874326798565,684
-260.7350935566336,789
-258.1921471637804,789
-255.6499039013039,788
-253.10836358100266,762
-250.56752601459698,773
-248.02739101372765,740
-245.48795838995704,786
-242.94922795476816,774
-240.41119951956557,766
-237.8738728956746,881
-235.33724789434166,939
-232.80132432673452,957
-230.2661020039418,1098
-227.73158073697357,900
-225.19776033676033,759
-222.66464061415422,905
-220.1322213799284,876
-217.60050244477725,862
-215.06948361931552,937
-212.53916471408013,897
-210.00954553952818,828
-207.48062590603843,850
-204.9524056239104,886
-202.4248845033651,962
-199.8980623545441,979
-197.37193898751036,817
-194.84651421224817,896
-192.32178783866232,968
-189.79775967657952,1019
-187.27442953574644,949
-184.7517972258321,917
-182.2298625564256,936
-179.7086253370378,936
-177.18808537710026,987
-174.66824248596583,1106
-172.14909647290835,1092
-169.6306471471229,1045
-167.11289431772548,986
-164.59583779375328,1021
-162.07947738416453,1072
-159.5638128978386,1135
-157.04884414357605,1271
-154.53457093009854,1303
-152.02099306604828,1207
-149.50811035998936,1114
-146.99592262040665,1244
-144.48442965570587,1260
-141.97363127421409,1202
-139.46352728417958,1337
-136.95411749377126,1303
-134.44540171107985,1418
-131.93737974411636,1485
-129.43005140081357,1499
-126.92341648902493,1458
-124.41747481652521,1360
-121.91222619101006,1376
-119.40767042009657,1457
-116.90380731132257,1397
-114.40063667214702,1521
-111.8981583099503,1654
-109.3963720320337,1806
-106.89527764561933,1526
-104.39487495785067,1651
-101.89516377579241,1803
-99.39614390642998,1729
-96.89781515667039,1841
-94.40017733334128,2162
-91.90323024319173,2124
-89.40697369289148,2104
-86.91140748903172,1949
-84.41653143812482,1735
-81.92234534660395,1891
-79.42884902082358,1985
-76.93604226705907,2078
-74.4439248915071,2231
-71.95249670028534,2115
-69.46175749943245,2375
-66.97170709490854,2628
-64.48234529259423,3061
-61.99367189829195,2850
-59.50568671772464,2735
-57.01838955653636,3328
-54.53178022029283,3246
-52.045858514480074,3472
-49.560624244506016,4146
-47.07607721569923,4160
-44.59221723330904,3963
-42.10904410250669,3869
-39.62655762838392,4908
-37.14475761595372,5851
-34.66364387015028,6193
-32.18321619582866,6440
-29.70347439776515,6747
-27.224418280657005,8848
-24.74604764912317,12265
-22.26836230770266,16461
-19.7913620608565,26485
-17.315046712966478,39823
-14.83941606833514,42660
-12.36446993118659,65039
-9.89020810566592,65039
-7.416630395839093,65039
-4.94373660569363,65039
-2.471526539137585,65039
-6.821210263296962E-13,65039
2.47084320796705,65039
4.941003281093458,65039
7.410480415786196,65039
9.879274808531363,65039
12.347386655893956,65039
14.814816154518212,65039
17.28156350112681,65039
19.74762889252179,65039
22.21301252558385,65039
24.67771459727237,65039
27.141735304626195,65039
29.605074844762612,36981
32.06773341487792,15733
34.52971121224755,12938
36.99100843422559,12974
39.45162527824516,12218
41.91156194181792,10546
44.370818622535126,12066
46.82939551806646,12738
49.287292826160524,12697
51.74451074464503,11008
54.201049471426245,7260
56.65690920448981,4956
59.112090141899785,4530
61.56659248179983,4879
64.02041642241159,4550
66.4735621620365,4295
68.92602989905402,3199
71.37781983192338,3328
73.82893215918205,3628
76.27936707944684,3583
78.72912479141326,3344
81.17820549385567,3124
83.62660938562783,3198
86.07433666566146,2912
88.5213875329681,3188
90.96776218663751,3216
93.41346082583925,2717
95.85848364982041,2163
98.30283085790859,2095
100.7465026495089,2400
103.18949922410604,2496
105.63182078126385,2282
108.07346752062438,2204
110.51443964190923,2156
112.95473734491827,1832
115.39436082953114,1725
117.83331029570547,1881
120.27158594347827,2176
122.7091879729652,1680
125.1461165843615,1717
127.58237197794062,1707
130.01795435405518,1486
132.4528639131364,1534
134.88710085569494,1711
137.32066538231982,1636
139.75355769367923,1595
142.1857779905207,1538
144.61732647366978,1590
147.04820334403132,1459
149.47840880258934,1571
151.90794305040674,1865
154.33680628862487,1923
156.76499871846443,1924
159.19252054122433,1943
161.61937195828352,2011
164.04555317109896,2046
166.47106438120693,2366
168.89590579022217,2778
171.320077599839,2851
173.7435800118302,2855
176.16641322804742,2946
178.58857745042144,3012
181.01007288096173,3063
183.43089972175687,3269
185.85105817497413,3300
188.27054844285988,3281
190.6893707277394,3136
193.10752523201643,3194
195.5250121581745,3365
197.9418317087751,3371
200.3579840864594,3515
202.7734694939469,3558
205.18828813403627,3582
207.6024402096051,3490
210.01592592360964,3436
212.42874547908548,3425
214.84089907914665,3384
217.2523869269868,3288
219.66320922587727,3369
222.0733661791695,3371
224.48285799029293,3327
226.8916848627572,3381
229.29984700014882,3533
231.7073446061355,3537
234.11417788446204,3404
236.520347038953,3507
238.92585227351185,3765
241.33069379212054,3821
243.73487179884035,3782
246.1383864978112,3560
248.541238093252,3623
250.9434267894609,3655
253.34495279081432,3788
255.74581630176783,3689
258.1460175268563,3752
260.54555667069314,3731
262.9444339379703,3504
265.3426495334594,3490
267.7402036620107,3541
270.1370965285529,3383
272.53332833809407,3290
274.9288992957214,3350
277.32380960660055,3223
279.718059475976,3211
282.1116491091717,3179
284.5045787115897,3159
286.89684848871195,3104
289.2884586460981,3133
291.67940938938807,3162
294.0697009242996,3224
296.4593334566299,3219
298.84830719225477,3170
301.23662233712923,3164
303.6242790972866,3011
306.01127767884,3011
308.39761828798066,3054
310.78330113097934,3084
313.16832641418534,2987
315.5526943440269,2948
317.9364051270112,2934
320.3194589697242,2866
322.70185607883093,2912
325.0835966610754,2815
327.4646809232805,2757
329.8451090723478,2796
332.2248813152577,2823
334.6039978590701,2792
336.9824589109231,2814
339.36026467803447,2799
341.7374153677,2680
344.113911187295,2703
346.48975234427337,2727
348.8649390461686,2642
351.2394715005918,2676
353.61334991523415,2649
355.9865744978655,2727
358.35914545633375,2645
360.73106299856715,2696
363.10232733257146,2628
365.47293866643247,2644
367.84289720831396,2600
370.2122031664593,2605
372.5808567491905,2632
374.9488581649083,2604
377.31620762209275,2700
379.6829053293021,2559
382.0489514951745,2547
384.4143463284262,2697
386.7790900378528,2487
389.14318283232853,2405
391.50662492080653,2542
393.86941651231916,2501
396.23155781597745,2553
398.5930490409713,2523
400.9538903965696,2449
403.3140820921202,2501
405.6736243370498,2457
408.03251734086336,2446
410.3907613131465,2479
412.74835646356166,2437
415.10530300185144,2435
417.4616011378372,2420
419.81725108141893,2535
422.1722530425758,2474
424.5266072313656,2477
426.880313857925,2344
429.2333731324701,2432
431.58578526529516,2448
433.9375504667738,2309
436.2886689473588,2315
438.63914091758113,2363
440.9889665880513,2385
443.33814616945835,2330
445.68667987257015,2341
448.03456790823395,2367
450.3818104873759,2329
452.72840782100013,2422
455.07436012019105,2311
457.41966759611057,2331
459.7643304600007,2349
462.10834892318155,2271
464.4517231970525,2369
466.79445349309174,2491
469.1365400228566,2440
471.4779829979826,2430
473.81878263018564,2459
476.15893913125876,2491
478.4984527130747,2376
480.8373235875855,2467
483.17555196682144,2535
485.5131380628919,2535
487.8500820879857,2645
490.1863842543697,2828
492.52204477439034,3133
494.8570638604725,3398
497.1914417251204,3673
499.52517858091653,3810
501.85827464052306,4058
504.19073011668036,4057
506.5225452222086,4041
508.85372017000566,3885
511.18425517304956,3680
513.514150444396,3821
515.8434061971808,4426
518.1720226446176,4926
520.4999999999999,5436
522.8273384766991,5796
525.1540382881666,5830
527.480099647932,5808
529.8055227696037,5034
532.1303078668694,3492
534.454455153496,2836
536.777964843328,2555
539.1008371502907,2463
541.4230722883866,2344
543.744670471698,2275
546.0656319143858,2231
548.3859568306899,2239
550.7056454349294,2215
553.0246979415016,2215
555.3431145648834,2132
557.6608955196306,2159
559.978041020377,2154
562.2945512818363,2129
564.6104265188006,2186
566.9256669461412,2143
569.2402727788082,2248
571.5542442318302,2149
573.8675815203156,2142
576.1802848594508,2156
578.4923544645015,2105
580.8037905508126,2100
583.114593333807,2123
585.4247630289875,2161
587.7342998519354,2111
590.0432040183106,2137
592.3514757438526,2122
594.6591152443794,2114
596.9661227357875,2218
599.2724984340531,2132
601.578242555231,2146
603.8833553154542,2174
606.1878369309362,2197
608.4916876179676,2201
610.7949075929192,2251
613.0974970722403,2178
615.3994562724587,2178
617.7007854101818,2264
620.0014847020951,2202
622.3015543649641,2219
624.6009946156324,2158
626.8998056710224,2102
629.1979877481361,2236
631.4955410640538,2192
633.7924658359349,2182
636.0887622810175,2191
638.3844306166192,2188
640.6794710601358,2167
642.9738838290426,2170
645.2676691408932,2204
647.5608272133207,2167
649.853358264037,2136
652.1452625108324,2224
654.4365401715764,2146
656.7271914642178,2205
659.0172166067838,2225
661.3066158173809,2231
663.5953893141935,2236
665.8835373154867,2178
668.1710600396028,2236
670.4579577049639,2262
672.7442305300709,2219
675.0298787335033,2276
677.3149025339197,2248
679.599302150058,2269
681.8830778007342,2264
684.1662297048437,2244
686.4487580813608,2247
688.7306631493387,2192
691.0119451279091,2182
693.2926042362834,2219
695.5726406937516,2229
697.8520547196814,2200
700.1308465335215,2199
702.4090163547982,2188
704.6865644031171,2229
706.9634908981619,2289
709.2397960596965,2332
711.5154801075631,2163
713.7905432616823,2242
716.0649857420548,2206
718.3388077687592,2203
720.612009561953,2191
722.8845913418733,2224
725.1565533288352,2264
727.427895743234,2201
729.6986188055427,2228
731.9687227363137,2206
734.238207756178,2159
736.5070740858458,2185
738.7753219461066,2168
741.0429515578281,2179
743.3099631419569,2175
745.5763569195191,2217
747.8421331116193,2205
750.1072919394409,2187
752.3718336242467,2170
754.6357583873777,2227
756.8990664502545,2202
759.1617580343765,2173
761.423833361321,2212
763.6852926527457,2163
765.9461361303862,2202
768.206364016058,2157
770.4659765316536,2168
772.7249738991469,2197
774.9833563405886,2234
777.2411240781092,2232
779.4982773339183,2163
781.7548163303044,2264
784.010741289634,2309
786.2660524343538,2379
788.5207499869881,2374
790.7748341701416,2221
793.0283052064964,2248
795.2811633188143,2263
797.5334087299362,2208
799.7850416627813,2283
802.0360623403484,2283
804.2864709857143,2294
806.5362678220353,2233
808.7854530725468,2273
811.0340269605625,2294
813.2819897094754,2206
815.5293415427581,2318
817.77608268396,2227
820.0222133567116,2312
822.2677337847211,2284
824.5126441917765,2208
826.7569448017433,2269
829.0006358385675,2145
831.2437175262731,2293
833.4861900889629,2282
835.7280537508192,2256
837.9693087361026,2201
840.2099552691533,2267
842.4499935743896,2252
844.689423876309,2247
846.9282463994886,2223
849.1664613685833,2209
851.4040690083276,2258
853.6410695435349,2221
855.877463199097,2238
858.1132501999847,2259
860.3484307712487,2223
862.5830051380175,2226
864.8169735254988,2213
867.0503361589791,2225
869.2830932638243,2375
871.5152450654786,2275
873.7467917894654,2307
875.9777336613873,2275
878.2080709069252,2254
880.4378037518389,2288
882.666932421968,2345
884.8954571432301,2288
887.1233781416219,2332
889.3506956432192,2403
891.5774098741766,2269
893.803521060728,2344
896.0290294291852,2264
898.2539352059397,2328
900.4782386174619,2321
902.7019398903011,2344
904.925039251085,2348
907.147536926521,2297
909.3694331433943,2198
911.59072812857,2258
913.8114221089921,2282
916.0315153116827,2290
918.2510079637437,2253
920.4699002923547,2375
922.6881925247761,2221
924.905884888345,2275
927.1229776104793,2268
929.3394709186747,2277
931.555365040506,2252
933.7706602036275,2341
935.9853566357709,2232
938.1994545647489,2247
940.4129542184515,2276
942.6258558248488,2240
944.8381596119883,2238
947.0498658079974,2306
949.2609746410825,2290
951.4714863395287,2184
953.6814011316998,2287
955.8907192460387,2360
958.0994409110671,2239
960.3075663553858,2256
962.5150958076741,2187
964.7220294966913,2191
966.928367651274,2215
969.1341105003388,2202
971.3392582728806,2248
973.5438111979742,2211
975.747769504772,2227
977.9511334225061,2178
980.153903180487,2164
982.3560790081052,2192
984.5576611348289,2122
986.7586497902058,2142
988.9590452038618,2103
991.158847605503,2128
993.3580572249133,2149
995.5566742919558,2049
997.7546990365728,2051
999.952131688785,2000
1002.1489724786926,1984
1004.3452216364743,1981
1006.5408793923874,1913
1008.7359459767691,1954
1010.9304216200343,1920
1013.1243065526781,1973
1015.3176010052733,1916
1017.510305208472,1909
1019.7024193930064,1924
1021.8939437896848,1867
1024.0848786293977,1890
1026.2752241431122,1916
1028.4649805618747,1888
1030.6541481168115,1883
1032.842727039127,1896
1035.0307175601051,1837
1037.2181199111074,1852
1039.4049343235752,1801
1041.591161029029,1881
1043.7768002590683,1814
1045.9618522453698,1811
1048.1463172196918,1842
1050.3301954138697,1843
1052.513487059818,1803
1054.69619238953,1874
1056.8783116350783,1776
1059.0598450286152,1813
1061.2407928023704,1891
1063.4211551886528,1894
1065.6009324198508,1755
1067.780124728432,1848
1069.9587323469414,1797
1072.1367555080046,1794
1074.314194444325,1837
1076.4910493886855,1866
1078.667320573947,1815
1080.843008233051,1750
1083.0181125990161,1760
1085.1926339049414,1739
1087.3665723840027,1782
1089.5399282694575,1740
1091.7127017946405,1732
1093.8848931929647,1764
1096.0565026979243,1816
1098.2275305430899,1738
1100.3979769621128,1724
1102.567842188722,1735
1104.737126456726,1787
1106.9058300000124,1725
1109.0739530525475,1704
1111.2414958483764,1746
1113.4084586216231,1733
1115.5748416064907,1778
1117.7406450372605,1729
1119.9058691482942,1708
1122.0705141740304,1657
1124.2345803489884,1780
1126.3980679077658,1685
1128.5609770850388,1687
1130.7233081155623,1656
1132.8850612341707,1729
1135.0462366757774,1670
1137.2068346753745,1714
1139.3668554680326,1684
1141.526299288901,1708
1143.68516637321,1708
1145.8434569562655,1708
1148.001171273455,1717
1150.158309560244,1696
1152.3148720521767,1655
1154.470858984876,1686
1156.626270594044,1651
1158.7811071154629,1654
1160.9353687849912,1689
1163.089055838569,1701
1165.242168512213,1739
1167.3947070420209,1633
1169.5466716641677,1686
1171.6980626149075,1662
1173.8488801305748,1665
1175.9991244475814,1639
1178.1487958024186,1644
1180.2978944316555,1639
1182.4464205719428,1686
1184.5943744600072,1690
1186.7417563326567,1604
1188.8885664267755,1657
1191.0348049793297,1630
1193.1804722273619,1639
1195.325568407995,1699
1197.4700937584303,1677
1199.614048515948,1667
1201.7574329179074,1714
1203.900247201746,1687
1206.042491604982,1659
1208.1841663652099,1716
1210.3252717201053,1681
1212.465807907422,1663
1214.6057751649923,1639
1216.7451737307279,1702
1218.8840038426192,1638
1221.0222657387353,1699
1223.1599596572241,1712
1225.2970858363137,1723
1227.4336445143094,1648
1229.5696359295966,1637
1231.705060320639,1663
1233.8399179259786,1757
1235.9742089842384,1708
1238.107933734118,1646
1240.2410924143974,1733
1242.373685263935,1689
1244.5057125216676,1742
1246.6371744266116,1680
1248.7680712178621,1707
1250.898403134593,1702
1253.028170416058,1667
1255.1573733015875,1723
1257.2860120305932,1727
1259.4140868425648,1685
1261.54159797707,1712
1263.6685456737569,1684
1265.7949301723515,1732
1267.9207517126597,1705
1270.046010534565,1749
1272.1707068780306,1707
1274.2948409830983,1755
1276.4184130898889,1764
1278.541423438603,1759
1280.6638722695184,1767
1282.785759822993,1754
1284.9070863394636,1781
1287.0278520594447,1775
1289.1480572235314,1874
1291.2677020723963,1820
1293.3867868467923,1791
1295.5053117875495,1735
1297.623277135579,1803
1299.740683131868,1788
1301.8575300174857,1849
1303.973818033578,1801
1306.0895474213703,1863
1308.2047184221678,1862
1310.3193312773528,1872
1312.4333862283888,1837
1314.5468835168163,1804
1316.659823384255,1834
1318.7722060724045,1872
1320.8840318230418,1907
1322.9953008780249,1950
1325.1060134792888,1815
1327.2161698688478,1899
1329.3257702887959,1889
1331.4348149813054,1792
1333.5433041886276,1820
1335.6512381530933,1856
1337.7586171171101,1784
1339.8654413231675,1854
1341.9717110138317,1834
1344.0774264317488,1798
1346.1825878196432,1798
1348.2871954203192,1822
1350.3912494766587,1782
1352.4947502316231,1818
1354.5976979282532,1764
1356.7000928096686,1783
1358.8019351190665,1815
1360.9032250997243,1844
1363.0039629949988,1889
1365.1041490483235,1811
1367.2037835032133,1792
1369.3028666032606,1762
1371.401398592137,1761
1373.4993797135926,1803
1375.5968102114575,1822
1377.6936903296396,1859
1379.7900203121262,1768
1381.8858004029835,1792
1383.9810308463561,1853
1386.075711886469,1887
1388.1698437676241,1829
1390.2634267342032,1821
1392.356461030667,1911
1394.4489469015557,1874
1396.5408845914872,1850
1398.6322743451592,1806
1400.7231164073469,1851
1402.813411022907,1861
1404.903158436773,1867
1406.9923588939578,1838
1409.0810126395531,1825
1411.1691199187303,1839
1413.2566809767386,1849
1415.343696058907,1842
1417.4301654106425,1891
1419.5160892774315,1868
1421.6014679048399,1856
1423.6863015385125,1861
1425.7705904241707,1866
1427.8543348076178,1899
1429.9375349347342,1947
1432.0201910514802,1880
1434.102303403894,1918
1436.1838722380944,1919
1438.2648978002767,1928
1440.3453803367174,1928
1442.4253200937692,2028
1444.5047173178677,2054
1446.5835722555234,1959
1448.6618851533285,2093
1450.739656257952,2036
1452.8168858161434,2111
1454.8935740747306,2107
1456.96972128062,2115
1459.045327680797,2175
1461.120393522327,2089
1463.1949190523528,2146
1465.2689045180973,2238
1467.3423501668608,2230
1469.415256246024,2212
1471.4876230030463,2237
1473.559450685465,2305
1475.6307395408976,2304
1477.7014898170391,2320
1479.771701761665,2350
1481.8413756226287,2401
1483.9105116478618,2409
1485.9791100853772,2594
1488.0471711832643,2561
1490.1146951896926,2518
1492.1816823529098,2520
1494.2481329212433,2584
1496.3140471430984,2653
1498.3794252669609,2724
1500.4442675413939,2766
1502.5085742150404,2764
1504.572345536622,2755
1506.6355817549388,2858
1508.6982831188702,2852
1510.7604498773744,2894
1512.8220822794883,2891
1514.8831805743293,2925
1516.9437450110909,3023
1519.003775839048,3009
1521.0632733075522,3055
1523.1222376660367,3212
1525.1806691640113,3131
1527.2385680510652,3178
1529.2959345768668,3282
1531.3527689911643,3282
1533.4090715437833,3441
1535.4648424846291,3431
1537.5200820636855,3397
1539.5747905310159,3542
1541.6289681367616,3582
1543.6826151311434,3597
1545.7357317644614,3792
1547.7883182870937,3739
1549.8403749494987,3719
1551.8919020022113,3959
1553.9428996958477,3880
1555.9933682811015,3966
1558.0433080087469,4094
1560.0927191296346,4130
1562.1416018946961,4165
1564.1899565549415,4127
1566.2377833614592,4191
1568.2850825654164,4082
1570.3318544180606,4034
1572.3780991707158,3898
1574.423817074788,3698
1576.4690083817595,3565
1578.5136733431923,3478
1580.5578122107272,3304
1582.601425236085,3124
1584.6445126710646,2896
1586.6870747675434,2912
1588.7291117774776,2697
1590.7706239529034,2697
1592.8116115459347,2516
1594.8520748087658,2455
1596.8920139936686,2347
1598.9314293529933,2351
1600.9703211391711,2330
1603.008689604711,2184
1605.0465350022005,2220
1607.0838575843068,2171
1609.1206576037753,1987
1611.1569353134305,2031
1613.1926909661765,1980
1615.2279248149953,2044
1617.2626371129481,1945
1619.2968281131757,1964
1621.3304980688963,1899
1623.3636472334088,1917
1625.39627586009,1883
1627.428384202396,1865
1629.459972513861,1798
1631.4910410480993,1759
1633.5215900588028,1839
1635.551619799744,1816
1637.5811305247717,1861
1639.6101224878166,1835
1641.6385959428862,1834
1643.6665511440683,1860
1645.693988345528,1753
1647.7209078015112,1747
1649.7473097663405,1858
1651.7731944944203,1760
1653.7985622402307,1711
1655.823413258333,1719
1657.847747803366,1739
1659.8715661300494,1716
1661.8948684931793,1763
1663.9176551476316,1741
1665.9399263483624,1688
1667.9616823504057,1741
1669.982923408873,1752
1672.0036497789574,1706
1674.0238617159293,1752
1676.043559475138,1690
1678.0627433120121,1714
1680.081413482059,1751
1682.0995702408654,1724
1684.117213844096,1745
1686.134344547495,1699
1688.1509626068864,1678
1690.1670682781705,1708
1692.182661817329,1630
1694.1977434804217,1707
1696.2123135235875,1685
1698.226372203043,1701
1700.2399197750851,1699
1702.2529564960905,1722
1704.2654826225112,1687
1706.277498410882,1692
1708.2890041178139,1730
1710.2999999999988,1745
1712.3104863142066,1802
1714.3204633172854,1746
1716.329931266163,1694
1718.3388904178469,1719
1720.3473410294214,1660
1722.3552833580516,1703
1724.3627176609807,1680
1726.3696441955308,1709
1728.3760632191033,1619
1730.3819749891782,1724
1732.3873797633146,1590
1734.3922777991502,1623
1736.3966693544012,1683
1738.4005546868639,1695
1740.4039340544127,1736
1742.406807715001,1632
1744.4091759266616,1694
1746.4110389475054,1624
1748.4123970357223,1642
1750.413250449582,1729
1752.4135994474318,1593
1754.4134442876993,1592
1756.4127852288902,1592
1758.4116225295893,1566
1760.4099564484595,1611
1762.407787244244,1593
1764.405115175764,1579
1766.4019405019203,1612
1768.3982634816916,1664
1770.3940843741357,1681
1772.3894034383907,1633
1774.3842209336717,1557
1776.378537119274,1532
1778.372352254571,1536
1780.3656665990156,1646
1782.3584804121397,1616
1784.3507939535534,1603
1786.3426074829463,1577
1788.3339212600863,1538
1790.3247355448211,1633
1792.3150505970766,1554
1794.3048666768573,1636
1796.2941840442477,1587
1798.2830029594106,1603
1800.2713236825884,1575
1802.2591464741004,1569
1804.2464715943465,1578
1806.2332993038058,1616
1808.2196298630352,1672
1810.2054635326708,1577
1812.190800573428,1538
1814.175641246101,1548
1816.1599858115628,1586
1818.1438345307652,1567
1820.127187664738,1607
1822.1100454745924,1601
1824.092408221516,1622
1826.0742761667766,1554
1828.055649571721,1573
1830.0365286977735,1604
1832.0169138064398,1512
1833.9968051593014,1541
1835.9762030180214,1571
1837.9551076443408,1567
1839.9335193000788,1561
1841.9114382471344,1552
1843.888864747485,1575
1845.8657990631878,1593
1847.842241456378,1555
1849.8181921892697,1554
1851.7936515241558,1571
1853.7686197234098,1544
1855.7430970494815,1533
1857.7170837649014,1532
1859.6905801322787,1584
1861.6635864143004,1509
1863.6361028737338,1624
1865.608129773424,1523
1867.5796673762961,1538
1869.5507159453537,1634
1871.521275743678,1560
1873.4913470344313,1511
1875.4609300808534,1577
1877.4300251462632,1522
1879.3986324940588,1579
1881.366752387717,1546
1883.3343850907936,1510
1885.3015308669228,1586
1887.268189979819,1547
1889.2343626932739,1553
1891.2000492711595,1596
1893.1652499774254,1592
1895.1299650761011,1579
1897.0941948312952,1573
1899.0579395071945,1627
1901.0211993680641,1578
1902.98397467825,1561
1904.9462657021745,1609
1906.9080727043415,1593
1908.869395949332,1611
1910.8302357018065,1623
1912.790592226504,1573
1914.7504657882428,1557
1916.7098566519212,1648
1918.6687650825133,1542
1920.6271913450764,1610
1922.5851357047422,1574
1924.5425984267245,1547
1926.499579776314,1605
1928.4560800188833,1572
1930.4120994198802,1551
1932.367638244833,1576
1934.32269675935,1608
1936.2772752291175,1564
1938.231373919899,1588
1940.1849930975404,1592
1942.1381330279637,1643
1944.0907939771696,1585
1946.0429762112412,1504
1947.9946799963363,1556
1949.9459055986945,1600
1951.896653284633,1550
1953.8469233205478,1586
1955.7967159729142,1547
1957.7460315082863,1601
1959.6948701932974,1560
1961.6432322946594,1576
1963.5911180791632,1611
1965.5385278136787,1596
1967.4854617651545,1562
1969.4319202006182,1618
1971.377903387176,1561
1973.3234115920136,1556
1975.268445082395,1670
1977.2130041256642,1568
1979.1570889892423,1570
1981.1006999406304,1560
1983.04383724741,1570
1984.986501177238,1614
1986.928691997853,1538
1988.8704099770712,1548
1990.811655382789,1602
1992.7524284829801,1545
1994.692729545698,1515
1996.6325588390755,1537
1998.5719166313224,1518
2000.5108031907307,1510
2002.4492187856677,1594
2004.387163684583,1576
2006.3246381560011,1562
2008.2616424685298,1551
2010.1981768908527,1536
2012.1342416917332,1538
2014.069837140014,1544
2016.0049635046162,1588
2017.9396210545406,1546
2019.8738100588666,1575
2021.8075307867502,1628
2023.740783507431,1560
2025.6735684902228,1527
2027.6058860045214,1595
2029.5377363198004,1514
2031.4691197056118,1560
2033.4000364315875,1585
2035.3304867674374,1583
2037.260470982952,1520
2039.189989347998,1543
2041.1190421325232,1529
2043.047629606554,1462
2044.9757520401945,1532
2046.9034097036288,1497
2048.8306028671195,1530
2050.7573318010086,1539
2052.683596775716,1535
2054.609398061742,1515
2056.5347359296647,1556
2058.4596106501403,1608
2060.384022493906,1495
2062.3079717317764,1504
2064.231458634646,1511
2066.1544834734873,1556
2068.077046519352,1549
2069.99914804337,1494
2071.9207883167524,1505
2073.8419676107865,1565
2075.7626861968406,1472
2077.6829443463607,1534
2079.6027423308715,1515
2081.522080421977,1554
2083.440958891362,1499
2085.359378010786,1568
2087.2773380520907,1499
2089.194839287196,1595
2091.111881988101,1568
2093.0284664268825,1563
2094.9445928756973,1591
2096.86026160678,1625
2098.775472892446,1502
2100.690227005088,1536
2102.604524217178,1558
2104.5183648012676,1520
2106.431749029985,1547
2108.34467717604,1527
2110.2571495122206,1603
2112.169166311393,1556
2114.080727846503,1490
2115.9918343905747,1597
2117.902486216711,1512
2119.8126835980956,1566
2121.722426807987,1566
2123.6317161197285,1562
2125.5405518067364,1575
2127.448934142509,1554
2129.356863400624,1564
2131.264339854737,1528
2133.1713637785815,1505
2135.077935445972,1548
2136.9840551308002,1533
2138.889723107037,1544
2140.7949396487334,1520
2142.699705030018,1581
2144.6040195250994,1504
2146.507883408264,1563
2148.4112969538774,1483
2150.3142604363848,1531
2152.2167741303097,1558
2154.1188383102535,1540
2156.0204532508997,1498
2157.9216192270064,1535
2159.822336513414,1574
2161.7226053850413,1535
2163.622426116884,1532
2165.5217989840185,1567
2167.4207242616,1513
2169.319202224862,1547
2171.2172331491165,1606
2173.1148173097563,1558
2175.0119549822507,1567
2176.90864644215,1522
2178.8048919650823,1539
2180.7006918267534,1524
2182.596046302952,1568
2184.4909556695407,1530
2186.3854202024645,1523
2188.279440177746,1480
2190.173015871487,1530
2192.066147559868,1578
2193.958835519149,1563
2195.851080025667,1569
2197.7428813558417,1564
2199.6342397861667,1588
2201.5251555932186,1550
2203.415629053651,1495
2205.3056604441986,1589
2207.19525004167,1566
2209.084398122958,1512
2210.9731049650327,1570
2212.861370844941,1587
2214.749196039812,1521
2216.636580826851,1524
2218.523525483344,1611
2220.410030286655,1552
2222.296095514226,1542
2224.1817214435805,1559
2226.066908352319,1487
2227.951656518121,1536
2229.835966218746,1577
2231.71983773203,1602
2233.6032713358913,1562
2235.486267308324,1522
2237.3688259274036,1539
2239.2509474712824,1579
2241.132632218193,1536
2243.013880446447,1527
2244.8946924344323,1565
2246.7750684606203,1493
2248.6550088035574,1605
2250.534513741871,1533
2252.413583554265,1551
2254.292218519526,1514
2256.170418916517,1554
2258.0481850241786,1498
2259.925517121534,1525
2261.8024154876825,1585
2263.678880401803,1513
2265.5549121431536,1523
2267.430510991071,1568
2269.305677224971,1552
2271.180411124348,1561
2273.0547129687766,1589
2274.9285830379076,1585
2276.8020216114737,1551
2278.6750289692845,1521
2280.5476053912294,1521
2282.4197511572766,1544
2284.2914665474727,1579
2286.162751841943,1533
2288.0336073208937,1541
2289.904033264608,1577
2291.774029953448,1558
2293.6435976678554,1551
2295.5127366883517,1617
2297.381447295534,1574
2299.2497297700825,1490
2301.1175843927526,1589
2302.9850114443825,1554
2304.852011205885,1595
2306.7185839582553,1581
2308.5847299825664,1534
2310.4504495599676,1547
2312.3157429716925,1625
2314.1806104990483,1587
2316.0450524234247,1623
2317.9090690262888,1563
2319.772660589186,1557
2321.635827393742,1539
2323.498569721661,1562
2325.3608878547248,1573
2327.2227820747967,1556
2329.0842526638157,1610
2330.945299903803,1607
2332.805924076857,1627
2334.6661254651535,1487
2336.525904350951,1548
2338.3852610165827,1595
2340.244195744464,1609
2342.102708817088,1548
2343.9608005170253,1643
2345.8184711269287,1638
2347.675720929526,1625
2349.532550207628,1619
2351.38895924412,1617
2353.24494832197,1593
2355.100517724223,1606
2356.955667734004,1609
2358.810398634514,1580
2360.664710709037,1616
2362.5186042409337,1574
2364.3720795136437,1583
2366.225136810686,1623
2368.0777764156583,1623
2369.929998612237,1601
2371.7818036841777,1610
2373.633191915315,1645
2375.484163589562,1605
2377.3347189909114,1595
2379.184858403434,1611
2381.03458211128,1608
2382.8838903986775,1649
2384.732783549936,1602
2386.5812618494406,1616
2388.4293255816588,1630
2390.2769750311327,1612
2392.1242104824883,1623
2393.971032220427,1579
2395.8174405297295,1594
2397.6634356952563,1595
2399.509018001947,1533
2401.3541877348193,1625
2403.1989451789705,1605
2405.043290619576,1614
2406.8872243418905,1629
2408.730746631247,1658
2410.5738577730594,1561
2412.4165580528183,1598
2414.258847756095,1621
2416.100727168537,1634
2417.9421965758734,1632
2419.783256263912,1614
2421.623906518538,1665
2423.4641476257157,1648
2425.303979871491,1598
2427.143403541984,1666
2428.9824189233977,1636
2430.821026302012,1638
2432.6592259641866,1667
2434.497018196361,1636
2436.33440328505,1642
2438.171381516851,1631
2440.00795317844,1647
2441.844118556569,1628
2443.6798779380724,1611
2445.5152316098606,1604
2447.3501798589255,1620
2449.1847229723357,1651
2451.0188612372403,1654
2452.8525949408663,1611
2454.6859243705203,1602
2456.518849813587,1645
2458.3513715575314,1578
2460.183489889895,1649
2462.015205098301,1683
2463.8465174704493,1644
2465.67742729412,1596
2467.5079348571717,1606
2469.338040447542,1626
2471.1677443532476,1619
2472.9970468623833,1604
2474.825948263123,1661
2476.6544488437207,1626
2478.482548892508,1623
2480.310248697896,1587
2482.137548548374,1664
2483.9644487325118,1651
2485.790949538956,1606
2487.617051256433,1624
2489.44275417375,1612
2491.26805857979,1639
2493.0929647635157,1661
2494.917473013971,1607
2496.741583620276,1682
2498.5652968716304,1677
2500.3886130573137,1655
2502.2115324666834,1699
2504.0340553891765,1687
2505.856182114308,1717
2507.6779129316733,1655
2509.499248130945,1659
2511.3201880018764,1677
2513.140732834298,1660
2514.9608829181198,1705
2516.780638543331,1694
2518.6,1665
2520.418967578273,1657
2522.237541568376,1650
2524.0557222606144,1639
2525.8735099453706,1651
2527.6909049131086,1655
2529.507907454368,1659
2531.32451785977,1718
2533.140736420014,1704
2534.9565634258774,1671
2536.771999168218,1651
2538.5870439379714,1733
2540.4016980261526,1749
2542.2159617238544,1695
2544.02983532225,1775
2545.8433191125914,1738
2547.656413386209,1733
2549.4691184345115,1759
2551.2814345489874,1731
2553.093362021204,1758
2554.904901142808,1769
2556.716052205523,1782
2558.526815501153,1753
2560.3371913215824,1851
2562.147179958771,1713
2563.956781704761,1778
2565.7659968516705,1833
2567.5748256916986,1812
2569.3832685171224,1787
2571.1913256202984,1755
2572.9989972936614,1802
2574.806283829725,1833
2576.613185521084,1824
2578.4197026604074,1829
2580.2258355404483,1858
2582.031584454035,1830
2583.836949694077,1829
2585.6419315535613,1884
2587.4465303255533,1840
2589.2507463032002,1856
2591.0545797797245,1951
2592.8580310484303,1927
2594.6611004026995,1895
2596.463788135992,1829
2598.266094541849,1948
2600.0680199138874,1907
2601.869564545807,1978
2603.670728731383,2051
2605.4715127644704,1926
2607.2719169390048,1870
2609.071941548998,1872
2610.8715868885433,1909
2612.670853251811,1897
2614.469740933052,1972
2616.268250226594,1835
2618.0663814268455,1884
2619.864134828292,1924
2621.6615107255006,1912
2623.458509413115,1921
2625.2551311858597,1902
2627.0513763385347,1947
2628.8472451660223,1820
2630.6427379632833,1833
2632.4378550253564,1897
2634.232596647359,1906
2636.026963124488,1880
2637.8209547520187,1876
2639.6145718253065,1876
2641.407814639785,1891
2643.200683490966,1835
2644.9931786744414,1833
2646.7853004858807,1772
2648.577049221034,1788
2650.3684251757277,1727
2652.1594286458712,1813
2653.9500599274484,1800
2655.740319316525,1808
2657.5302071092437,1738
2659.3197236018286,1783
2661.10886909058,1826
2662.8976438718782,1764
2664.686048242183,1675
2666.4740824980327,1723
2668.2617469360443,1751
2670.0490418529134,1700
2671.8359675454153,1705
2673.622524310403,1690
2675.408712444811,1628
2677.1945322456495,1645
2678.979984010009,1637
2680.76506803506,1716
2682.5497846180497,1693
2684.334134056306,1733
2686.1181166472343,1693
2687.9017326883213,1719
2689.6849824771293,1667
2691.4678663113013,1714
2693.2503844885596,1623
2695.032537306705,1660
2696.8143250636167,1651
2698.5957480572542,1627
2700.3768065856534,1607
2702.1575009469316,1654
2703.937831439283,1678
2705.717798360982,1584
2707.4974020103837,1643
2709.276642685917,1618
2711.055520686095,1581
2712.834036309506,1607
2714.612189854819,1559
2716.389981620782,1594
2718.1674119062204,1626
2719.944481010041,1593
2721.721189231226,1607
2723.4975368688415,1630
2725.273524222027,1573
2727.0491515900053,1572
2728.824419272075,1550
2730.5993275676146,1575
2732.3738767760838,1644
2734.148067197016,1544
2735.921899130031,1577
2737.6953728748194,1559
2739.468488731156,1554
2741.2412469988926,1621
2743.0136479779617,1579
2744.785691968372,1566
2746.5573792702116,1606
2748.3287101836504,1538
2750.099685008934,1552
2751.870304046388,1592
2753.640567596418,1580
2755.4104759595057,1574
2757.1800294362156,1603
2758.949228327187,1595
2760.7180729331412,1487
2762.486563554877,1600
2764.254700493272,1549
2766.022484049284,1629
2767.789914523947,1571
2769.5569922183786,1518
2771.3237174337705,1597
2773.090090471394,1546
2774.8561116326036,1553
2776.6217812188274,1518
2778.3870995315756,1548
2780.1520668724356,1544
2781.9166835430747,1515
2783.6809498452394,1569
2785.444866080754,1516
2787.2084325515225,1639
2788.971649559527,1596
2790.73451740683,1603
2792.4970363955713,1574
2794.2592068279705,1619
2796.0210290063264,1616
2797.7825032330147,1616
2799.543629810493,1486
2801.304409041296,1563
2803.0648412280366,1526
2804.8249266734088,1573
2806.5846656801846,1619
2808.344058551212,1587
2810.1031055894246,1652
2811.8618070978273,1556
2813.6201633795085,1509
2815.378174737636,1569
2817.1358414754536,1581
2818.893163896285,1608
2820.6501423035334,1589
2822.4067770006814,1662
2824.1630682912883,1619
2825.9190164789957,1596
2827.6746218675207,1624
2829.429884760661,1604
2831.184805462294,1552
2832.9393842763743,1556
2834.693621506936,1600
2836.4475174580916,1535
2838.201072434034,1564
2839.954286739034,1497
2841.707160677441,1543
2843.459694553685,1598
2845.2118886722724,1493
2846.96374333779,1566
2848.7152588549034,1550
2850.4664355283567,1603
2852.217273662973,1547
2853.9677735636546,1535
2855.7179355353833,1585
2857.4677598832186,1562
2859.217246912299,1599
2860.9663969278427,1506
2862.715210235146,1584
2864.4636871395846,1605
2866.211827946614,1534
2867.9596329617652,1543
2869.7071024906536,1619
2871.4542368389684,1571
2873.20103631248,1559
2874.947501217038,1558
2876.6936318585695,1613
2878.4394285430812,1576
2880.1848915766604,1583
2881.9300212654707,1573
2883.6748179157553,1518
2885.4192818338374,1550
2887.1634133261173,1619
2888.907212699077,1514
2890.6506802592744,1608
2892.393816313348,1553
2894.1366211680142,1559
2895.8790951300693,1548
2897.621238506388,1515
2899.363051603925,1527
2901.1045347297118,1523
2902.8456881908596,1510
2904.58651229456,1524
2906.327007348081,1559
2908.067173658772,1618
2909.8070115340597,1557
2911.5465212814497,1478
2913.285703208527,1590
2915.0245576229563,1575
2916.7630848324807,1559
2918.5012851449196,1476
2920.2391588681758,1545
2921.976706310227,1598
2923.7139277791334,1463
2925.4508235830313,1513
2927.187394030137,1581
2928.923639428745,1576
2930.6595600872306,1520
2932.395156314046,1603
2934.1304284177218,1536
2935.8653767068713,1523
2937.6000014901815,1538
2939.3343030764227,1512
2941.068281774442,1527
2942.8019378931644,1571
2944.5352717415976,1561
2946.2682836288236,1566
2948.0009738640065,1623
2949.7333427563885,1586
2951.465390615289,1590
2953.1971177501086,1511
2954.9285244703265,1527
2956.6596110855,1547
2958.3903779052657,1496
2960.1208252393385,1545
2961.8509533975125,1533
2963.5807626896617,1551
2965.3102534257378,1560
2967.0394259157715,1555
2968.768280469873,1572
2970.496817398232,1491
2972.2250370111146,1536
2973.952939618869,1547
2975.6805255319196,1557
2977.4077950607707,1557
2979.134748516006,1588
2980.861386208289,1576
2982.587708448359,1587
2984.313715547037,1551
2986.039407815222,1533
2987.764785563891,1581
2989.489849104102,1575
2991.2145987469908,1567
2992.9390348037705,1517
2994.6631575857346,1541
2996.3869674042576,1543
2998.1104645707887,1578
2999.83364939686,1497
3001.5565221940783,1631
3003.2790832741334,1567
3005.0013329487924,1571
3006.7232715298996,1547
3008.4448993293804,1552
3010.166216659239,1563
3011.887223831558,1555
3013.607921158498,1517
3015.3283089522993,1565
3017.0483875252826,1533
3018.7681571898443,1477
3020.4876182584626,1532
3022.2067710436927,1525
3023.9256158581707,1559
3025.644153014609,1492
3027.362382825801,1539
3029.0803056046193,1543
3030.797921664012,1576
3032.5152313170106,1534
3034.2322348767225,1532
3035.9489326563353,1538
3037.665324969115,1501
3039.3814121284063,1552
3041.097194447633,1436
3042.812672240299,1552
3044.5278458199855,1566
3046.2427155003525,1578
3047.9572815951406,1578
3049.671544418167,1564
3051.38550428333,1497
3053.0991615046073,1583
3054.812516396051,1574
3056.5255692717974,1513
3058.2383204460575,1537
3059.9507702331257,1633
3061.662918947372,1570
3063.3747669032446,1562
3065.0863144152736,1573
3066.7975617980674,1547
3068.508509366309,1560
3070.219157434767,1625
3071.9295063182844,1556
3073.639556331785,1594
3075.3493077902704,1539
3077.058761008821,1528
3078.7679163025964,1565
3080.476773986837,1581
3082.1853343768594,1572
3083.89359778806,1579
3085.6015645359153,1516
3087.3092349359786,1563
3089.016609303884,1522
3090.7236879553434,1538
3092.4304712061476,1567
3094.136959372166,1579
3095.843152769349,1580
3097.5490517137237,1540
3099.2546565213966,1520
3100.959967508554,1591
3102.66498499146,1586
3104.3697092864577,1527
3106.0741407099695,1534
3107.778279578498,1528
3109.482126208622,1581
3111.1856809170004,1529
3112.8889440203716,1575
3114.5919158355528,1539
3116.294596679439,1593
3117.996986869006,1561
3119.6990867213062,1546
3121.4008965534726,1606
3123.102416682717,1571
3124.803647426329,1562
3126.5045891016784,1571
3128.205242026213,1601
3129.90560651746,1560
3131.605682893025,1605
3133.3054714705922,1604
3135.0049725679282,1576
3136.7041865028714,1576
3138.4031135933465,1579
3140.101754157353,1604
3141.800108512971,1531
3143.498176978357,1558
3145.1959598717494,1538
3146.8934575114636,1527
3148.5906702158954,1564
3150.2875983035183,1546
3151.9842420928853,1544
3153.680601902627,1528
3155.376678051456,1514
3157.07247085816,1565
3158.767980641609,1530
3160.463207720748,1521
3162.158152414606,1525
3163.8528150422862,1461
3165.5471959229726,1434
3167.2412953759303,1526
3168.9351137204976,1581
3170.628651276098,1534
3172.3219083622307,1548
3174.014885298474,1562
3175.707582404485,1563
3177.4000000000005,1582
3179.092138404835,1535
3180.7839979388846,1589
3182.47557892212,1581
3184.166881674594,1557
3185.8579065164386,1593
3187.5486537678626,1539
3189.2391237491547,1557
3190.9293167806827,1536
3192.6192331828934,1542
3194.3088732763117,1565
3195.998237381542,1494
3197.687325819268,1519
3199.376138910251,1427
3201.064676975334,1486
3202.7529403354347,1492
3204.4409293115523,1554
3206.1286442247647,1512
3207.816085396229,1495
3209.5032531471825,1513
3211.190147798936,1522
3212.8767696728846,1477
3214.5631190905015,1563
3216.2491963733373,1526
3217.9350018430214,1494
3219.6205358212637,1468
3221.305798629851,1479
3222.990790590651,1498
3224.6755120256103,1498
3226.359963256751,1492
3228.0441446061795,1543
3229.7280563960758,1570
3231.411698948703,1467
3233.0950725863995,1507
3234.778177631587,1510
3236.461014406761,1466
3238.1435832345005,1534
3239.8258844374595,1511
3241.507918338374,1479
3243.1896852600576,1573
3244.8711855254023,1435
3246.552419457381,1546
3248.233387379042,1478
3249.914089613516,1533
3251.59452648401,1510
3253.274698313813,1575
3254.95460542629,1467
3256.6342481448855,1559
3258.313626793125,1535
3259.9927416946084,1470
3261.6715931730196,1525
3263.3501815521176,1480
3265.0285071557437,1512
3266.706570307815,1472
3268.3843713323286,1479
3270.0619105533615,1488
3271.739188295068,1453
3273.4162048816834,1483
3275.0929606375184,1512
3276.769455886966,1571
3278.445690954498,1523
3280.1216661646613,1516
3281.797381842087,1476
3283.4728383114807,1552
3285.1480358976296,1490
3286.8229749253996,1546
3288.4976557197333,1482
3290.172078605655,1497
3291.846243908266,1518
3293.5201519527463,1526
3295.193803064357,1508
3296.8671975684374,1460
3298.5403357904024,1506
3300.21321805575,1496
3301.8858446900567,1517
3303.558216018975,1533
3305.23033236824,1463
3306.9021940636603,1547
3308.57380143113,1512
3310.2451547966184,1499
3311.916254486174,1442
3313.5871008259246,1525
3315.2576941420766,1548
3316.9280347609147,1527
3318.5981230088046,1470
3320.2679592121895,1513
3321.9375436975924,1474
3323.606876791612,1527
3325.27595882093,1485
3326.944790112305,1488
3328.6133709925753,1483
3330.2817017886573,1487
3331.949782827547,1490
3333.617614436319,1531
3335.2851969421245,1475
3336.952530672199,1498
3338.619615953853,1503
3340.286453114475,1505
3341.9530424815357,1555
3343.619384382583,1473
3345.2854791452437,1514
3346.951327097224,1552
3348.6169285663073,1497
3350.2822838803577,1493
3351.947393367319,1477
3353.61225735521,1558
3355.2768761721345,1565
3356.9412501462693,1549
3358.605379605873,1539
3360.2692648792827,1532
3361.9329062949146,1501
3363.596304181263,1498
