CollectionTime,6/26/2024 3:14:42 PM
ExposureUsed,3
CalibratedSpectrum
-962.7078968117929,1190
-959.9714848408522,1281
-957.2358232597828,1277
-954.5009119013725,1259
-951.7667505983302,1276
-949.0333391832855,1245
-946.3006774887896,1280
-943.5687653473143,1275
-940.837602591253,1277
-938.1071890529199,1284
-935.3775245645503,1327
-932.6486089583007,1331
-929.9204420662485,1285
-927.1930237203925,1262
-924.4663537526524,1347
-921.7404319948689,1308
-919.0152582788041,1366
-916.2908324361409,1368
-913.5671542984834,1345
-910.8442236973568,1355
-908.1220404642074,1324
-905.4006044304027,1306
-902.679915427231,1327
-899.959973285902,1268
-897.2407778375464,1290
-894.5223289132158,1276
-891.8046263438832,1314
-889.0876699604426,1287
-886.3714595937089,1284
-883.6559950744183,1242
-880.9412762332282,1347
-878.2273029007168,1279
-875.5140749073835,1280
-872.8015920836489,1289
-870.0898542598545,1245
-867.3788612662631,1282
-864.6686129330585,1255
-861.9591090903457,1297
-859.2503495681506,1244
-856.5423341964203,1319
-853.8350628050229,1244
-851.1285352237478,1329
-848.4227512823054,1277
-845.7177108103272,1264
-843.0134136373656,1291
-840.3098595928943,1223
-837.6070485063082,1250
-834.9049802069229,1271
-832.2036545239757,1272
-829.5030712866244,1225
-826.8032303239481,1330
-824.1041314649472,1245
-821.4057745385428,1316
-818.7081593735775,1246
-816.0112857988148,1269
-813.3151536429393,1285
-810.6197627345566,1271
-807.9251129021936,1272
-805.2312039742981,1257
-802.5380357792392,1273
-799.8456081453069,1311
-797.1539209007124,1245
-794.462973873588,1266
-791.772766891987,1261
-789.083299783884,1299
-786.3945723771743,1284
-783.7065844996748,1232
-781.0193359791231,1234
-778.3328266431781,1313
-775.6470563194197,1294
-772.9620248353489,1343
-770.2777320183878,1270
-767.5941776958798,1271
-764.9113616950891,1337
-762.2292838432011,1266
-759.5479439673222,1305
-756.8673418944801,1257
-754.1874774516235,1250
-751.5083504656222,1336
-748.8299607632671,1327
-746.15230817127,1302
-743.475392516264,1359
-740.7992136248035,1343
-738.1237713233636,1270
-735.4490654383407,1332
-732.7750957960521,1379
-730.1018622227365,1360
-727.4293645445534,1316
-724.7576025875837,1333
-722.0865761778291,1317
-719.4162851412126,1371
-716.7467293035781,1345
-714.0779084906909,1367
-711.409822528237,1411
-708.7424712418238,1399
-706.0758544569796,1338
-703.4099719991541,1319
-700.7448236937178,1415
-698.0804093659622,1374
-695.4167288411002,1392
-692.7537819442656,1429
-690.0915685005134,1414
-687.4300883348199,1396
-684.7693412720819,1426
-682.1093271371178,1349
-679.4500457546669,1355
-676.7914969493897,1369
-674.1336805458676,1413
-671.4765963686034,1387
-668.8202442420206,1426
-666.1646239904642,1414
-663.5097354382001,1356
-660.8555784094151,1351
-658.2021527282176,1439
-655.5494582186366,1460
-652.8974947046223,1441
-650.2462620100463,1424
-647.5957599587009,1439
-644.9459883742998,1493
-642.2969470804776,1463
-639.6486359007902,1536
-637.0010546587141,1483
-634.3542031776476,1509
-631.7080812809096,1461
-629.0626887917401,1458
-626.4180255333008,1477
-623.7740913286734,1461
-621.1308860008619,1368
-618.4884093727904,1491
-615.8466612673046,1431
-613.2056415071715,1395
-610.5653499150785,1423
-607.9257863136347,1495
-605.28695052537,1505
-602.6488423727357,1454
-600.0114616781036,1426
-597.3748082637674,1404
-594.7388819519412,1479
-592.1036825647604,1468
-589.4692099242818,1511
-586.8354638524829,1536
-584.2024441712624,1483
-581.5701507024403,1499
-578.9385832677575,1555
-576.3077416888759,1464
-573.6776257873787,1458
-571.0482353847704,1535
-568.4195703024757,1532
-565.7916303618415,1576
-563.164415384135,1562
-560.5379251905453,1512
-557.9121596021815,1518
-555.2871184400748,1536
-552.6628015251767,1516
-550.0392086783606,1502
-547.4163397204204,1460
-544.794194472071,1517
-542.1727727539491,1504
-539.5520743866118,1554
-536.9320991905377,1613
-534.3128469861261,1630
-531.6943175936979,1615
-529.0765108334947,1634
-526.4594265256793,1752
-523.8430644903358,1913
-521.2274245474689,1965
-518.612506517005,2087
-515.9983102187913,2172
-513.3848354725959,2324
-510.77208209810846,2293
-508.16004991493924,2376
-505.5487387426199,2403
-502.9381484006032,2553
-500.3282787082628,2662
-497.71912948489364,2756
-495.1107005497117,2859
-492.5029917218539,2752
-489.8960028203786,2555
-487.28973366426493,2289
-484.68418407241325,2245
-482.07935386364494,2085
-479.47524285670266,1922
-476.87185087025,1990
-474.2691777228715,1977
-471.66722323307334,1955
-469.0659872192821,1883
-466.4654694998459,1885
-463.86566989303384,1832
-461.26658821703614,1744
-458.66822428996414,1806
-456.07057792985,1826
-453.4736489546475,1794
-450.877437182231,1800
-448.28194243039627,1827
-445.68716451686,1746
-443.09310325926003,1726
-440.49975847515555,1802
-437.9071299820263,1713
-435.31521759727354,1693
-432.72402113821954,1729
-430.13354042210767,1729
-427.5437752661022,1779
-424.95472548728867,1758
-422.36639090267386,1815
-419.7787713291855,1881
-417.1918665836721,1862
-414.60567648290385,1827
-412.0202008435715,1861
-409.4354394822874,1894
-406.8513922155845,1812
-404.26805885991723,1928
-401.685439231661,1859
-399.103533147112,1842
-396.522340422488,1855
-393.9418608739278,1858
-391.3620943174908,1845
-388.7830405691583,1853
-386.2046994448317,1744
-383.6270707603344,1639
-381.05015433141045,1524
-378.473949973725,1440
-375.8984575028645,1303
-373.32367673433623,1155
-370.74960748356875,1084
-368.1762495659117,976
-365.60360279663576,917
-363.03166699093265,835
-360.4604419639154,779
-357.8899275306178,686
-355.32012350599507,674
-352.7510297049233,609
-350.1826459421999,603
-347.61497203254316,612
-345.04800779059235,593
-342.4817530309082,534
-339.91620756797226,520
-337.35137121618743,563
-334.7872437898774,550
-332.22382510328725,604
-329.66111497058273,568
-327.09911320585127,605
-324.53781962310075,611
-321.9772340362607,639
-319.4173562591816,642
-316.8581861056348,677
-314.2997233893127,740
-311.7419679238294,755
-309.1849195227194,720
-306.62857799943856,602
-304.0729431673641,536
-301.51801483979375,563
-298.963792829947,590
-296.41027695096386,670
-293.85746701590574,649
-291.3053628377552,698
-288.7539642294155,671
-286.2032710037115,656
-283.65328297338897,699
-281.1039999511146,719
-278.5554217494762,830
-276.007548180983,739
-273.4603790580651,747
-270.9139141930734,694
-268.3681533982807,668
-265.8230964858798,700
-263.27874326798565,731
-260.7350935566336,784
-258.1921471637804,832
-255.6499039013039,862
-253.10836358100266,768
-250.56752601459698,776
-248.02739101372765,793
-245.48795838995704,821
-242.94922795476816,825
-240.41119951956557,804
-237.8738728956746,915
-235.33724789434166,946
-232.80132432673452,984
-230.2661020039418,1234
-227.73158073697357,1001
-225.19776033676033,778
-222.66464061415422,907
-220.1322213799284,894
-217.60050244477725,846
-215.06948361931552,895
-212.53916471408013,883
-210.00954553952818,854
-207.48062590603843,869
-204.9524056239104,947
-202.4248845033651,1033
-199.8980623545441,969
-197.37193898751036,839
-194.84651421224817,937
-192.32178783866232,1093
-189.79775967657952,1077
-187.27442953574644,1003
-184.7517972258321,903
-182.2298625564256,956
-179.7086253370378,1029
-177.18808537710026,1024
-174.66824248596583,1132
-172.14909647290835,1150
-169.6306471471229,1157
-167.11289431772548,1102
-164.59583779375328,998
-162.07947738416453,1050
-159.5638128978386,1179
-157.04884414357605,1290
-154.53457093009854,1313
-152.02099306604828,1286
-149.50811035998936,1183
-146.99592262040665,1270
-144.48442965570587,1271
-141.97363127421409,1304
-139.46352728417958,1373
-136.95411749377126,1322
-134.44540171107985,1485
-131.93737974411636,1484
-129.43005140081357,1414
-126.92341648902493,1550
-124.41747481652521,1426
-121.91222619101006,1387
-119.40767042009657,1441
-116.90380731132257,1501
-114.40063667214702,1705
-111.8981583099503,1832
-109.3963720320337,1865
-106.89527764561933,1593
-104.39487495785067,1722
-101.89516377579241,1781
-99.39614390642998,1781
-96.89781515667039,1845
-94.40017733334128,2111
-91.90323024319173,2216
-89.40697369289148,2192
-86.91140748903172,2089
-84.41653143812482,1867
-81.92234534660395,1858
-79.42884902082358,1945
-76.93604226705907,2134
-74.4439248915071,2297
-71.95249670028534,2075
-69.46175749943245,2522
-66.97170709490854,2816
-64.48234529259423,3229
-61.99367189829195,3122
-59.50568671772464,2987
-57.01838955653636,3596
-54.53178022029283,3455
-52.045858514480074,3615
-49.560624244506016,4154
-47.07607721569923,4172
-44.59221723330904,4038
-42.10904410250669,3896
-39.62655762838392,4936
-37.14475761595372,6100
-34.66364387015028,6581
-32.18321619582866,6827
-29.70347439776515,7195
-27.224418280657005,9564
-24.74604764912317,13795
-22.26836230770266,19965
-19.7913620608565,32144
-17.315046712966478,48522
-14.83941606833514,51827
-12.36446993118659,65039
-9.89020810566592,65039
-7.416630395839093,65039
-4.94373660569363,65039
-2.471526539137585,65039
-6.821210263296962E-13,65039
2.47084320796705,65039
4.941003281093458,65039
7.410480415786196,65039
9.879274808531363,65039
12.347386655893956,65039
14.814816154518212,65039
17.28156350112681,65039
19.74762889252179,65039
22.21301252558385,65039
24.67771459727237,65039
27.141735304626195,65039
29.605074844762612,42180
32.06773341487792,18183
34.52971121224755,15065
36.99100843422559,15182
39.45162527824516,13867
41.91156194181792,10792
44.370818622535126,11059
46.82939551806646,10771
49.287292826160524,10533
51.74451074464503,9318
54.201049471426245,6760
56.65690920448981,5051
59.112090141899785,4811
61.56659248179983,5043
64.02041642241159,4757
66.4735621620365,4379
68.92602989905402,3331
71.37781983192338,3433
73.82893215918205,3725
76.27936707944684,3483
78.72912479141326,3483
81.17820549385567,3381
83.62660938562783,3363
86.07433666566146,3004
88.5213875329681,3387
90.96776218663751,3255
93.41346082583925,2813
95.85848364982041,2117
98.30283085790859,2096
100.7465026495089,2584
103.18949922410604,2573
105.63182078126385,2327
108.07346752062438,2250
110.51443964190923,2194
112.95473734491827,1884
115.39436082953114,1727
117.83331029570547,1920
120.27158594347827,2312
122.7091879729652,1802
125.1461165843615,1732
127.58237197794062,1676
130.01795435405518,1483
132.4528639131364,1651
134.88710085569494,1825
137.32066538231982,1635
139.75355769367923,1586
142.1857779905207,1567
144.61732647366978,1626
147.04820334403132,1660
149.47840880258934,1558
151.90794305040674,1955
154.33680628862487,2097
156.76499871846443,2051
159.19252054122433,2002
161.61937195828352,2208
164.04555317109896,2269
166.47106438120693,2642
168.89590579022217,2976
171.320077599839,3066
173.7435800118302,3238
176.16641322804742,3195
178.58857745042144,3215
181.01007288096173,3434
183.43089972175687,3493
185.85105817497413,3546
188.27054844285988,3631
190.6893707277394,3589
193.10752523201643,3621
195.5250121581745,3771
197.9418317087751,3970
200.3579840864594,3973
202.7734694939469,4077
205.18828813403627,3950
207.6024402096051,3914
210.01592592360964,3942
212.42874547908548,3927
214.84089907914665,3922
217.2523869269868,3848
219.66320922587727,3970
222.0733661791695,3867
224.48285799029293,3864
226.8916848627572,3958
229.29984700014882,4050
231.7073446061355,4073
234.11417788446204,4073
236.520347038953,4108
238.92585227351185,4217
241.33069379212054,4281
243.73487179884035,4254
246.1383864978112,4110
248.541238093252,4027
250.9434267894609,4217
253.34495279081432,4236
255.74581630176783,4137
258.1460175268563,4363
260.54555667069314,4204
262.9444339379703,4122
265.3426495334594,3968
267.7402036620107,3978
270.1370965285529,3981
272.53332833809407,3917
274.9288992957214,3930
277.32380960660055,3747
279.718059475976,3778
282.1116491091717,3601
284.5045787115897,3719
286.89684848871195,3774
289.2884586460981,3720
291.67940938938807,3673
294.0697009242996,3644
296.4593334566299,3607
298.84830719225477,3535
301.23662233712923,3434
303.6242790972866,3573
306.01127767884,3505
308.39761828798066,3549
310.78330113097934,3583
313.16832641418534,3618
315.5526943440269,3494
317.9364051270112,3454
320.3194589697242,3344
322.70185607883093,3275
325.0835966610754,3328
327.4646809232805,3405
329.8451090723478,3307
332.2248813152577,3400
334.6039978590701,3274
336.9824589109231,3280
339.36026467803447,3296
341.7374153677,3305
344.113911187295,3083
346.48975234427337,3151
348.8649390461686,3239
351.2394715005918,3164
353.61334991523415,3099
355.9865744978655,3209
358.35914545633375,3112
360.73106299856715,3191
363.10232733257146,3103
365.47293866643247,3083
367.84289720831396,3049
370.2122031664593,3131
372.5808567491905,3033
374.9488581649083,3155
377.31620762209275,3105
379.6829053293021,3096
382.0489514951745,3163
384.4143463284262,3071
386.7790900378528,3046
389.14318283232853,2966
391.50662492080653,3061
393.86941651231916,2978
396.23155781597745,2977
398.5930490409713,2968
400.9538903965696,3097
403.3140820921202,3082
405.6736243370498,2947
408.03251734086336,2986
410.3907613131465,2864
412.74835646356166,2952
415.10530300185144,3012
417.4616011378372,2972
419.81725108141893,3003
422.1722530425758,3012
424.5266072313656,2938
426.880313857925,2849
429.2333731324701,2984
431.58578526529516,2897
433.9375504667738,2910
436.2886689473588,2910
438.63914091758113,2909
440.9889665880513,2909
443.33814616945835,2960
445.68667987257015,2933
448.03456790823395,2927
450.3818104873759,2836
452.72840782100013,2826
455.07436012019105,2983
457.41966759611057,2885
459.7643304600007,2869
462.10834892318155,2959
464.4517231970525,2995
466.79445349309174,2953
469.1365400228566,2881
471.4779829979826,2947
473.81878263018564,2952
476.15893913125876,2986
478.4984527130747,3040
480.8373235875855,3021
483.17555196682144,2968
485.5131380628919,3143
487.8500820879857,3216
490.1863842543697,3379
492.52204477439034,3601
494.8570638604725,3814
497.1914417251204,4113
499.52517858091653,4312
501.85827464052306,4441
504.19073011668036,4499
506.5225452222086,4519
508.85372017000566,4392
511.18425517304956,4153
513.514150444396,4349
515.8434061971808,4908
518.1720226446176,5620
520.4999999999999,6024
522.8273384766991,6159
525.1540382881666,6390
527.480099647932,6334
529.8055227696037,5490
532.1303078668694,4218
534.454455153496,3376
536.777964843328,3089
539.1008371502907,2887
541.4230722883866,2864
543.744670471698,2846
546.0656319143858,2828
548.3859568306899,2860
550.7056454349294,2754
553.0246979415016,2692
555.3431145648834,2740
557.6608955196306,2767
559.978041020377,2630
562.2945512818363,2647
564.6104265188006,2676
566.9256669461412,2654
569.2402727788082,2704
571.5542442318302,2745
573.8675815203156,2744
576.1802848594508,2725
578.4923544645015,2704
580.8037905508126,2670
583.114593333807,2774
585.4247630289875,2773
587.7342998519354,2650
590.0432040183106,2683
592.3514757438526,2680
594.6591152443794,2738
596.9661227357875,2696
599.2724984340531,2675
601.578242555231,2723
603.8833553154542,2786
606.1878369309362,2839
608.4916876179676,2848
610.7949075929192,2815
613.0974970722403,2786
615.3994562724587,2766
617.7007854101818,2771
620.0014847020951,2732
622.3015543649641,2743
624.6009946156324,2674
626.8998056710224,2834
629.1979877481361,2768
631.4955410640538,2804
633.7924658359349,2806
636.0887622810175,2723
638.3844306166192,2806
640.6794710601358,2807
642.9738838290426,2813
645.2676691408932,2783
647.5608272133207,2806
649.853358264037,2744
652.1452625108324,2892
654.4365401715764,2888
656.7271914642178,2804
659.0172166067838,2835
661.3066158173809,2927
663.5953893141935,2822
665.8835373154867,2793
668.1710600396028,2812
670.4579577049639,2897
672.7442305300709,2980
675.0298787335033,2875
677.3149025339197,2827
679.599302150058,2866
681.8830778007342,2886
684.1662297048437,2745
686.4487580813608,2808
688.7306631493387,2854
691.0119451279091,2863
693.2926042362834,2772
695.5726406937516,2885
697.8520547196814,2850
700.1308465335215,2873
702.4090163547982,2879
704.6865644031171,2835
706.9634908981619,2852
709.2397960596965,2842
711.5154801075631,2764
713.7905432616823,2736
716.0649857420548,2793
718.3388077687592,2832
720.612009561953,2845
722.8845913418733,2833
725.1565533288352,2858
727.427895743234,2827
729.6986188055427,2867
731.9687227363137,2807
734.238207756178,2753
736.5070740858458,2851
738.7753219461066,2796
741.0429515578281,2806
743.3099631419569,2776
745.5763569195191,2877
747.8421331116193,2833
750.1072919394409,2798
752.3718336242467,2762
754.6357583873777,2835
756.8990664502545,2898
759.1617580343765,2834
761.423833361321,2886
763.6852926527457,2900
765.9461361303862,2825
768.206364016058,2854
770.4659765316536,2823
772.7249738991469,2770
774.9833563405886,2806
777.2411240781092,2896
779.4982773339183,2878
781.7548163303044,2882
784.010741289634,2899
786.2660524343538,2964
788.5207499869881,2875
790.7748341701416,2971
793.0283052064964,2891
795.2811633188143,2876
797.5334087299362,2847
799.7850416627813,2885
802.0360623403484,2870
804.2864709857143,2858
806.5362678220353,2963
808.7854530725468,2899
811.0340269605625,2929
813.2819897094754,2782
815.5293415427581,2843
817.77608268396,2907
820.0222133567116,2790
822.2677337847211,2943
824.5126441917765,2853
826.7569448017433,2897
829.0006358385675,2884
831.2437175262731,2924
833.4861900889629,2854
835.7280537508192,2913
837.9693087361026,2779
840.2099552691533,2940
842.4499935743896,2901
844.689423876309,2917
846.9282463994886,2862
849.1664613685833,2880
851.4040690083276,2874
853.6410695435349,2853
855.877463199097,2858
858.1132501999847,2913
860.3484307712487,2852
862.5830051380175,2756
864.8169735254988,2895
867.0503361589791,2908
869.2830932638243,2939
871.5152450654786,2925
873.7467917894654,2951
875.9777336613873,2852
878.2080709069252,2824
880.4378037518389,2916
882.666932421968,2887
884.8954571432301,2934
887.1233781416219,2862
889.3506956432192,2954
891.5774098741766,3010
893.803521060728,2921
896.0290294291852,2921
898.2539352059397,3045
900.4782386174619,2949
902.7019398903011,2874
904.925039251085,2892
907.147536926521,2881
909.3694331433943,2899
911.59072812857,2870
913.8114221089921,2865
916.0315153116827,2884
918.2510079637437,2947
920.4699002923547,2864
922.6881925247761,2805
924.905884888345,2995
927.1229776104793,2855
929.3394709186747,2877
931.555365040506,2892
933.7706602036275,2842
935.9853566357709,2811
938.1994545647489,2783
940.4129542184515,2831
942.6258558248488,2791
944.8381596119883,2874
947.0498658079974,2847
949.2609746410825,2889
951.4714863395287,2875
953.6814011316998,2826
955.8907192460387,2919
958.0994409110671,2851
960.3075663553858,2803
962.5150958076741,2888
964.7220294966913,2807
966.928367651274,2755
969.1341105003388,2781
971.3392582728806,2746
973.5438111979742,2824
975.747769504772,2823
977.9511334225061,2786
980.153903180487,2789
982.3560790081052,2751
984.5576611348289,2695
986.7586497902058,2783
988.9590452038618,2738
991.158847605503,2681
993.3580572249133,2696
995.5566742919558,2595
997.7546990365728,2580
999.952131688785,2602
1002.1489724786926,2525
1004.3452216364743,2642
1006.5408793923874,2514
1008.7359459767691,2518
1010.9304216200343,2532
1013.1243065526781,2575
1015.3176010052733,2570
1017.510305208472,2494
1019.7024193930064,2518
1021.8939437896848,2513
1024.0848786293977,2445
1026.2752241431122,2463
1028.4649805618747,2464
1030.6541481168115,2501
1032.842727039127,2421
1035.0307175601051,2428
1037.2181199111074,2437
1039.4049343235752,2385
1041.591161029029,2496
1043.7768002590683,2437
1045.9618522453698,2431
1048.1463172196918,2379
1050.3301954138697,2373
1052.513487059818,2370
1054.69619238953,2459
1056.8783116350783,2416
1059.0598450286152,2439
1061.2407928023704,2512
1063.4211551886528,2541
1065.6009324198508,2384
1067.780124728432,2470
1069.9587323469414,2387
1072.1367555080046,2398
1074.314194444325,2430
1076.4910493886855,2444
1078.667320573947,2464
1080.843008233051,2427
1083.0181125990161,2402
1085.1926339049414,2376
1087.3665723840027,2386
1089.5399282694575,2357
1091.7127017946405,2327
1093.8848931929647,2322
1096.0565026979243,2335
1098.2275305430899,2308
1100.3979769621128,2286
1102.567842188722,2356
1104.737126456726,2302
1106.9058300000124,2275
1109.0739530525475,2349
1111.2414958483764,2351
1113.4084586216231,2336
1115.5748416064907,2327
1117.7406450372605,2281
1119.9058691482942,2237
1122.0705141740304,2245
1124.2345803489884,2265
1126.3980679077658,2220
1128.5609770850388,2299
1130.7233081155623,2336
1132.8850612341707,2301
1135.0462366757774,2291
1137.2068346753745,2346
1139.3668554680326,2249
1141.526299288901,2253
1143.68516637321,2215
1145.8434569562655,2315
1148.001171273455,2309
1150.158309560244,2253
1152.3148720521767,2238
1154.470858984876,2250
1156.626270594044,2315
1158.7811071154629,2299
1160.9353687849912,2303
1163.089055838569,2259
1165.242168512213,2318
1167.3947070420209,2306
1169.5466716641677,2244
1171.6980626149075,2299
1173.8488801305748,2315
1175.9991244475814,2222
1178.1487958024186,2222
1180.2978944316555,2245
1182.4464205719428,2313
1184.5943744600072,2264
1186.7417563326567,2223
1188.8885664267755,2204
1191.0348049793297,2260
1193.1804722273619,2264
1195.325568407995,2216
1197.4700937584303,2279
1199.614048515948,2236
1201.7574329179074,2269
1203.900247201746,2203
1206.042491604982,2185
1208.1841663652099,2214
1210.3252717201053,2225
1212.465807907422,2270
1214.6057751649923,2249
1216.7451737307279,2270
1218.8840038426192,2213
1221.0222657387353,2301
1223.1599596572241,2258
1225.2970858363137,2387
1227.4336445143094,2254
1229.5696359295966,2315
1231.705060320639,2211
1233.8399179259786,2295
1235.9742089842384,2301
1238.107933734118,2272
1240.2410924143974,2246
1242.373685263935,2257
1244.5057125216676,2296
1246.6371744266116,2242
1248.7680712178621,2264
1250.898403134593,2245
1253.028170416058,2163
1255.1573733015875,2272
1257.2860120305932,2246
1259.4140868425648,2255
1261.54159797707,2227
1263.6685456737569,2274
1265.7949301723515,2186
1267.9207517126597,2250
1270.046010534565,2297
1272.1707068780306,2281
1274.2948409830983,2272
1276.4184130898889,2332
1278.541423438603,2241
1280.6638722695184,2345
1282.785759822993,2262
1284.9070863394636,2251
1287.0278520594447,2372
1289.1480572235314,2364
1291.2677020723963,2350
1293.3867868467923,2384
1295.5053117875495,2416
1297.623277135579,2389
1299.740683131868,2317
1301.8575300174857,2422
1303.973818033578,2409
1306.0895474213703,2413
1308.2047184221678,2344
1310.3193312773528,2365
1312.4333862283888,2380
1314.5468835168163,2360
1316.659823384255,2411
1318.7722060724045,2387
1320.8840318230418,2430
1322.9953008780249,2412
1325.1060134792888,2459
1327.2161698688478,2412
1329.3257702887959,2465
1331.4348149813054,2422
1333.5433041886276,2343
1335.6512381530933,2390
1337.7586171171101,2349
1339.8654413231675,2358
1341.9717110138317,2398
1344.0774264317488,2399
1346.1825878196432,2381
1348.2871954203192,2344
1350.3912494766587,2359
1352.4947502316231,2393
1354.5976979282532,2327
1356.7000928096686,2343
1358.8019351190665,2364
1360.9032250997243,2374
1363.0039629949988,2339
1365.1041490483235,2421
1367.2037835032133,2418
1369.3028666032606,2432
1371.401398592137,2371
1373.4993797135926,2320
1375.5968102114575,2399
1377.6936903296396,2359
1379.7900203121262,2465
1381.8858004029835,2426
1383.9810308463561,2331
1386.075711886469,2321
1388.1698437676241,2392
1390.2634267342032,2404
1392.356461030667,2367
1394.4489469015557,2370
1396.5408845914872,2348
1398.6322743451592,2417
1400.7231164073469,2377
1402.813411022907,2425
1404.903158436773,2375
1406.9923588939578,2444
1409.0810126395531,2419
1411.1691199187303,2400
1413.2566809767386,2440
1415.343696058907,2376
1417.4301654106425,2354
1419.5160892774315,2444
1421.6014679048399,2389
1423.6863015385125,2493
1425.7705904241707,2460
1427.8543348076178,2440
1429.9375349347342,2455
1432.0201910514802,2477
1434.102303403894,2505
1436.1838722380944,2472
1438.2648978002767,2515
1440.3453803367174,2649
1442.4253200937692,2532
1444.5047173178677,2613
1446.5835722555234,2658
1448.6618851533285,2642
1450.739656257952,2656
1452.8168858161434,2627
1454.8935740747306,2746
1456.96972128062,2620
1459.045327680797,2679
1461.120393522327,2748
1463.1949190523528,2720
1465.2689045180973,2746
1467.3423501668608,2785
1469.415256246024,2828
1471.4876230030463,2839
1473.559450685465,2832
1475.6307395408976,2818
1477.7014898170391,2928
1479.771701761665,2976
1481.8413756226287,2981
1483.9105116478618,3045
1485.9791100853772,3070
1488.0471711832643,3068
1490.1146951896926,3125
1492.1816823529098,3189
1494.2481329212433,3168
1496.3140471430984,3291
1498.3794252669609,3244
1500.4442675413939,3294
1502.5085742150404,3200
1504.572345536622,3206
1506.6355817549388,3308
1508.6982831188702,3387
1510.7604498773744,3418
1512.8220822794883,3431
1514.8831805743293,3456
1516.9437450110909,3537
1519.003775839048,3439
1521.0632733075522,3562
1523.1222376660367,3550
1525.1806691640113,3724
1527.2385680510652,3821
1529.2959345768668,3839
1531.3527689911643,3703
1533.4090715437833,3997
1535.4648424846291,4053
1537.5200820636855,3927
1539.5747905310159,4098
1541.6289681367616,4157
1543.6826151311434,4153
1545.7357317644614,4186
1547.7883182870937,4129
1549.8403749494987,4404
1551.8919020022113,4321
1553.9428996958477,4498
1555.9933682811015,4587
1558.0433080087469,4617
1560.0927191296346,4707
1562.1416018946961,4786
1564.1899565549415,4688
1566.2377833614592,4586
1568.2850825654164,4712
1570.3318544180606,4582
1572.3780991707158,4634
1574.423817074788,4272
1576.4690083817595,4093
1578.5136733431923,4109
1580.5578122107272,3964
1582.601425236085,3775
1584.6445126710646,3586
1586.6870747675434,3398
1588.7291117774776,3178
1590.7706239529034,3276
1592.8116115459347,3059
1594.8520748087658,3046
1596.8920139936686,3071
1598.9314293529933,2870
1600.9703211391711,2839
1603.008689604711,2820
1605.0465350022005,2736
1607.0838575843068,2651
1609.1206576037753,2646
1611.1569353134305,2648
1613.1926909661765,2627
1615.2279248149953,2532
1617.2626371129481,2467
1619.2968281131757,2459
1621.3304980688963,2410
1623.3636472334088,2435
1625.39627586009,2495
1627.428384202396,2479
1629.459972513861,2386
1631.4910410480993,2398
1633.5215900588028,2436
1635.551619799744,2333
1637.5811305247717,2368
1639.6101224878166,2413
1641.6385959428862,2402
1643.6665511440683,2396
1645.693988345528,2377
1647.7209078015112,2272
1649.7473097663405,2325
1651.7731944944203,2354
1653.7985622402307,2397
1655.823413258333,2296
1657.847747803366,2251
1659.8715661300494,2341
1661.8948684931793,2292
1663.9176551476316,2340
1665.9399263483624,2300
1667.9616823504057,2291
1669.982923408873,2317
1672.0036497789574,2279
1674.0238617159293,2238
1676.043559475138,2229
1678.0627433120121,2287
1680.081413482059,2312
1682.0995702408654,2193
1684.117213844096,2309
1686.134344547495,2278
1688.1509626068864,2267
1690.1670682781705,2340
1692.182661817329,2236
1694.1977434804217,2227
1696.2123135235875,2327
1698.226372203043,2252
1700.2399197750851,2299
1702.2529564960905,2295
1704.2654826225112,2227
1706.277498410882,2252
1708.2890041178139,2302
1710.2999999999988,2287
1712.3104863142066,2337
1714.3204633172854,2342
1716.329931266163,2330
1718.3388904178469,2204
1720.3473410294214,2355
1722.3552833580516,2278
1724.3627176609807,2267
1726.3696441955308,2324
1728.3760632191033,2249
1730.3819749891782,2204
1732.3873797633146,2224
1734.3922777991502,2215
1736.3966693544012,2190
1738.4005546868639,2183
1740.4039340544127,2214
1742.406807715001,2250
1744.4091759266616,2216
1746.4110389475054,2252
1748.4123970357223,2284
1750.413250449582,2200
1752.4135994474318,2224
1754.4134442876993,2172
1756.4127852288902,2162
1758.4116225295893,2137
1760.4099564484595,2165
1762.407787244244,2223
1764.405115175764,2132
1766.4019405019203,2128
1768.3982634816916,2154
1770.3940843741357,2240
1772.3894034383907,2131
1774.3842209336717,2206
1776.378537119274,2084
1778.372352254571,2129
1780.3656665990156,2174
1782.3584804121397,2222
1784.3507939535534,2163
1786.3426074829463,2127
1788.3339212600863,2199
1790.3247355448211,2133
1792.3150505970766,2216
1794.3048666768573,2162
1796.2941840442477,2157
1798.2830029594106,2113
1800.2713236825884,2172
1802.2591464741004,2208
1804.2464715943465,2088
1806.2332993038058,2135
1808.2196298630352,2138
1810.2054635326708,2119
1812.190800573428,2147
1814.175641246101,2171
1816.1599858115628,2173
1818.1438345307652,2127
1820.127187664738,2128
1822.1100454745924,2180
1824.092408221516,2125
1826.0742761667766,2075
1828.055649571721,2136
1830.0365286977735,2119
1832.0169138064398,2195
1833.9968051593014,2104
1835.9762030180214,2127
1837.9551076443408,2187
1839.9335193000788,2150
1841.9114382471344,2115
1843.888864747485,2077
1845.8657990631878,2129
1847.842241456378,2141
1849.8181921892697,2126
1851.7936515241558,2069
1853.7686197234098,2139
1855.7430970494815,2196
1857.7170837649014,2151
1859.6905801322787,2077
1861.6635864143004,2137
1863.6361028737338,2137
1865.608129773424,2098
1867.5796673762961,2169
1869.5507159453537,2179
1871.521275743678,2181
1873.4913470344313,2233
1875.4609300808534,2182
1877.4300251462632,2055
1879.3986324940588,2112
1881.366752387717,2080
1883.3343850907936,2123
1885.3015308669228,2209
1887.268189979819,2228
1889.2343626932739,2147
1891.2000492711595,2097
1893.1652499774254,2198
1895.1299650761011,2096
1897.0941948312952,2188
1899.0579395071945,2131
1901.0211993680641,2165
1902.98397467825,2204
1904.9462657021745,2084
1906.9080727043415,2203
1908.869395949332,2204
1910.8302357018065,2182
1912.790592226504,2088
1914.7504657882428,2213
1916.7098566519212,2154
1918.6687650825133,2127
1920.6271913450764,2164
1922.5851357047422,2150
1924.5425984267245,2181
1926.499579776314,2106
1928.4560800188833,2133
1930.4120994198802,2175
1932.367638244833,2168
1934.32269675935,2124
1936.2772752291175,2120
1938.231373919899,2189
1940.1849930975404,2102
1942.1381330279637,2176
1944.0907939771696,2164
1946.0429762112412,2172
1947.9946799963363,2144
1949.9459055986945,2134
1951.896653284633,2229
1953.8469233205478,2106
1955.7967159729142,2111
1957.7460315082863,2107
1959.6948701932974,2122
1961.6432322946594,2200
1963.5911180791632,2238
1965.5385278136787,2185
1967.4854617651545,2192
1969.4319202006182,2150
1971.377903387176,2143
1973.3234115920136,2162
1975.268445082395,2203
1977.2130041256642,2177
1979.1570889892423,2190
1981.1006999406304,2171
1983.04383724741,2120
1984.986501177238,2155
1986.928691997853,2119
1988.8704099770712,2177
1990.811655382789,2164
1992.7524284829801,2210
1994.692729545698,2183
1996.6325588390755,2147
1998.5719166313224,2173
2000.5108031907307,2209
2002.4492187856677,2173
2004.387163684583,2113
2006.3246381560011,2112
2008.2616424685298,2099
2010.1981768908527,2224
2012.1342416917332,2143
2014.069837140014,2099
2016.0049635046162,2112
2017.9396210545406,2107
2019.8738100588666,2119
2021.8075307867502,2122
2023.740783507431,2116
2025.6735684902228,2149
2027.6058860045214,2075
2029.5377363198004,2080
2031.4691197056118,2163
2033.4000364315875,2120
2035.3304867674374,2129
2037.260470982952,2098
2039.189989347998,2126
2041.1190421325232,2184
2043.047629606554,2085
2044.9757520401945,2125
2046.9034097036288,2147
2048.8306028671195,2099
2050.7573318010086,2073
2052.683596775716,2090
2054.609398061742,2098
2056.5347359296647,2192
2058.4596106501403,2147
2060.384022493906,2145
2062.3079717317764,2130
2064.231458634646,2092
2066.1544834734873,2113
2068.077046519352,2138
2069.99914804337,2178
2071.9207883167524,2072
2073.8419676107865,2184
2075.7626861968406,2132
2077.6829443463607,2042
2079.6027423308715,2076
2081.522080421977,2137
2083.440958891362,2095
2085.359378010786,2105
2087.2773380520907,2095
2089.194839287196,2147
2091.111881988101,2091
2093.0284664268825,2115
2094.9445928756973,2070
2096.86026160678,2087
2098.775472892446,2060
2100.690227005088,2063
2102.604524217178,2093
2104.5183648012676,2106
2106.431749029985,2083
2108.34467717604,2159
2110.2571495122206,2169
2112.169166311393,2114
2114.080727846503,2074
2115.9918343905747,2020
2117.902486216711,2095
2119.8126835980956,2093
2121.722426807987,2047
2123.6317161197285,2115
2125.5405518067364,2086
2127.448934142509,2113
2129.356863400624,2051
2131.264339854737,2091
2133.1713637785815,2067
2135.077935445972,2086
2136.9840551308002,2113
2138.889723107037,2054
2140.7949396487334,2140
2142.699705030018,2071
2144.6040195250994,2077
2146.507883408264,2123
2148.4112969538774,2079
2150.3142604363848,2123
2152.2167741303097,2143
2154.1188383102535,2154
2156.0204532508997,2147
2157.9216192270064,2125
2159.822336513414,2093
2161.7226053850413,2065
2163.622426116884,2113
2165.5217989840185,2131
2167.4207242616,2171
2169.319202224862,2151
2171.2172331491165,2123
2173.1148173097563,2058
2175.0119549822507,2084
2176.90864644215,2132
2178.8048919650823,2057
2180.7006918267534,2063
2182.596046302952,2101
2184.4909556695407,2079
2186.3854202024645,2017
2188.279440177746,2068
2190.173015871487,2048
2192.066147559868,2151
2193.958835519149,2116
2195.851080025667,2092
2197.7428813558417,2046
2199.6342397861667,2121
2201.5251555932186,2118
2203.415629053651,2054
2205.3056604441986,2028
2207.19525004167,2061
2209.084398122958,2072
2210.9731049650327,2018
2212.861370844941,2081
2214.749196039812,2111
2216.636580826851,2111
2218.523525483344,2128
2220.410030286655,2121
2222.296095514226,2142
2224.1817214435805,2113
2226.066908352319,2120
2227.951656518121,2057
2229.835966218746,2115
2231.71983773203,2064
2233.6032713358913,2140
2235.486267308324,2061
2237.3688259274036,2060
2239.2509474712824,2023
2241.132632218193,2153
2243.013880446447,2132
2244.8946924344323,2068
2246.7750684606203,2077
2248.6550088035574,2069
2250.534513741871,2083
2252.413583554265,2028
2254.292218519526,2035
2256.170418916517,2080
2258.0481850241786,2062
2259.925517121534,2128
2261.8024154876825,2087
2263.678880401803,2083
2265.5549121431536,2113
2267.430510991071,2128
2269.305677224971,1967
2271.180411124348,2142
2273.0547129687766,2106
2274.9285830379076,2127
2276.8020216114737,2136
2278.6750289692845,2040
2280.5476053912294,2087
2282.4197511572766,2080
2284.2914665474727,2103
2286.162751841943,2108
2288.0336073208937,2126
2289.904033264608,2068
2291.774029953448,2166
2293.6435976678554,2039
2295.5127366883517,2046
2297.381447295534,2094
2299.2497297700825,2022
2301.1175843927526,2115
2302.9850114443825,2135
2304.852011205885,2132
2306.7185839582553,2091
2308.5847299825664,2148
2310.4504495599676,2125
2312.3157429716925,2163
2314.1806104990483,2162
2316.0450524234247,2144
2317.9090690262888,2116
2319.772660589186,2115
2321.635827393742,2173
2323.498569721661,2165
2325.3608878547248,2166
2327.2227820747967,2069
2329.0842526638157,2156
2330.945299903803,2099
2332.805924076857,2178
2334.6661254651535,2116
2336.525904350951,2119
2338.3852610165827,2090
2340.244195744464,2116
2342.102708817088,2075
2343.9608005170253,2120
2345.8184711269287,2092
2347.675720929526,2114
2349.532550207628,2131
2351.38895924412,2181
2353.24494832197,2132
2355.100517724223,2010
2356.955667734004,2107
2358.810398634514,2136
2360.664710709037,2123
2362.5186042409337,2109
2364.3720795136437,2070
2366.225136810686,2099
2368.0777764156583,2124
2369.929998612237,2139
2371.7818036841777,2126
2373.633191915315,2163
2375.484163589562,2122
2377.3347189909114,2092
2379.184858403434,2131
2381.03458211128,2100
2382.8838903986775,2123
2384.732783549936,2154
2386.5812618494406,2128
2388.4293255816588,2089
2390.2769750311327,2180
2392.1242104824883,2086
2393.971032220427,2162
2395.8174405297295,2203
2397.6634356952563,2121
2399.509018001947,2139
2401.3541877348193,2213
2403.1989451789705,2064
2405.043290619576,2170
2406.8872243418905,2078
2408.730746631247,2125
2410.5738577730594,2158
2412.4165580528183,2102
2414.258847756095,2163
2416.100727168537,2136
2417.9421965758734,2155
2419.783256263912,2143
2421.623906518538,2107
2423.4641476257157,2125
2425.303979871491,2160
2427.143403541984,2122
2428.9824189233977,2181
2430.821026302012,2184
2432.6592259641866,2175
2434.497018196361,2192
2436.33440328505,2215
2438.171381516851,2168
2440.00795317844,2167
2441.844118556569,2128
2443.6798779380724,2172
2445.5152316098606,2059
2447.3501798589255,2187
2449.1847229723357,2200
2451.0188612372403,2137
2452.8525949408663,2153
2454.6859243705203,2180
2456.518849813587,2163
2458.3513715575314,2130
2460.183489889895,2204
2462.015205098301,2167
2463.8465174704493,2140
2465.67742729412,2185
2467.5079348571717,2068
2469.338040447542,2100
2471.1677443532476,2166
2472.9970468623833,2155
2474.825948263123,2155
2476.6544488437207,2118
2478.482548892508,2180
2480.310248697896,2110
2482.137548548374,2235
2483.9644487325118,2259
2485.790949538956,2250
2487.617051256433,2121
2489.44275417375,2224
2491.26805857979,2192
2493.0929647635157,2165
2494.917473013971,2141
2496.741583620276,2132
2498.5652968716304,2145
2500.3886130573137,2087
2502.2115324666834,2208
2504.0340553891765,2133
2505.856182114308,2158
2507.6779129316733,2253
2509.499248130945,2211
2511.3201880018764,2246
2513.140732834298,2227
2514.9608829181198,2264
2516.780638543331,2227
2518.6,2183
2520.418967578273,2240
2522.237541568376,2169
2524.0557222606144,2190
2525.8735099453706,2173
2527.6909049131086,2270
2529.507907454368,2180
2531.32451785977,2233
2533.140736420014,2232
2534.9565634258774,2220
2536.771999168218,2298
2538.5870439379714,2232
2540.4016980261526,2245
2542.2159617238544,2242
2544.02983532225,2245
2545.8433191125914,2255
2547.656413386209,2219
2549.4691184345115,2286
2551.2814345489874,2199
2553.093362021204,2347
2554.904901142808,2281
2556.716052205523,2272
2558.526815501153,2302
2560.3371913215824,2340
2562.147179958771,2311
2563.956781704761,2281
2565.7659968516705,2309
2567.5748256916986,2355
2569.3832685171224,2359
2571.1913256202984,2280
2572.9989972936614,2323
2574.806283829725,2320
2576.613185521084,2396
2578.4197026604074,2328
2580.2258355404483,2374
2582.031584454035,2399
2583.836949694077,2396
2585.6419315535613,2380
2587.4465303255533,2415
2589.2507463032002,2396
2591.0545797797245,2375
2592.8580310484303,2393
2594.6611004026995,2389
2596.463788135992,2391
2598.266094541849,2449
2600.0680199138874,2419
2601.869564545807,2501
2603.670728731383,2468
2605.4715127644704,2403
2607.2719169390048,2483
2609.071941548998,2414
2610.8715868885433,2436
2612.670853251811,2473
2614.469740933052,2435
2616.268250226594,2428
2618.0663814268455,2405
2619.864134828292,2528
2621.6615107255006,2463
2623.458509413115,2365
2625.2551311858597,2460
2627.0513763385347,2426
2628.8472451660223,2457
2630.6427379632833,2358
2632.4378550253564,2392
2634.232596647359,2351
2636.026963124488,2389
2637.8209547520187,2487
2639.6145718253065,2354
2641.407814639785,2371
2643.200683490966,2402
2644.9931786744414,2377
2646.7853004858807,2343
2648.577049221034,2280
2650.3684251757277,2347
2652.1594286458712,2416
2653.9500599274484,2275
2655.740319316525,2299
2657.5302071092437,2307
2659.3197236018286,2328
2661.10886909058,2283
2662.8976438718782,2312
2664.686048242183,2248
2666.4740824980327,2224
2668.2617469360443,2278
2670.0490418529134,2283
2671.8359675454153,2273
2673.622524310403,2299
2675.408712444811,2290
2677.1945322456495,2259
2678.979984010009,2221
2680.76506803506,2294
2682.5497846180497,2266
2684.334134056306,2241
2686.1181166472343,2303
2687.9017326883213,2254
2689.6849824771293,2211
2691.4678663113013,2170
2693.2503844885596,2139
2695.032537306705,2113
2696.8143250636167,2176
2698.5957480572542,2194
2700.3768065856534,2127
2702.1575009469316,2233
2703.937831439283,2119
2705.717798360982,2282
2707.4974020103837,2143
2709.276642685917,2165
2711.055520686095,2118
2712.834036309506,2141
2714.612189854819,2118
2716.389981620782,2091
2718.1674119062204,2186
2719.944481010041,2129
2721.721189231226,2228
2723.4975368688415,2166
2725.273524222027,2140
2727.0491515900053,2120
2728.824419272075,2160
2730.5993275676146,2156
2732.3738767760838,2144
2734.148067197016,2138
2735.921899130031,2091
2737.6953728748194,2155
2739.468488731156,2091
2741.2412469988926,2069
2743.0136479779617,2097
2744.785691968372,2079
2746.5573792702116,2035
2748.3287101836504,2110
2750.099685008934,2128
2751.870304046388,2118
2753.640567596418,2146
2755.4104759595057,2108
2757.1800294362156,2093
2758.949228327187,2091
2760.7180729331412,2068
2762.486563554877,2093
2764.254700493272,2048
2766.022484049284,2107
2767.789914523947,2125
2769.5569922183786,2088
2771.3237174337705,2115
2773.090090471394,2068
2774.8561116326036,2186
2776.6217812188274,2119
2778.3870995315756,2134
2780.1520668724356,2057
2781.9166835430747,2145
2783.6809498452394,2115
2785.444866080754,2109
2787.2084325515225,2109
2788.971649559527,2117
2790.73451740683,2131
2792.4970363955713,2052
2794.2592068279705,2015
2796.0210290063264,2081
2797.7825032330147,2194
2799.543629810493,2154
2801.304409041296,2162
2803.0648412280366,2050
2804.8249266734088,2105
2806.5846656801846,2133
2808.344058551212,2067
2810.1031055894246,2116
2811.8618070978273,2118
2813.6201633795085,2163
2815.378174737636,2190
2817.1358414754536,2151
2818.893163896285,2155
2820.6501423035334,2130
2822.4067770006814,2147
2824.1630682912883,2109
2825.9190164789957,2154
2827.6746218675207,2134
2829.429884760661,2107
2831.184805462294,2139
2832.9393842763743,2120
2834.693621506936,2131
2836.4475174580916,2105
2838.201072434034,2118
2839.954286739034,2072
2841.707160677441,2125
2843.459694553685,2100
2845.2118886722724,2069
2846.96374333779,2145
2848.7152588549034,2053
2850.4664355283567,2097
2852.217273662973,2072
2853.9677735636546,2148
2855.7179355353833,2093
2857.4677598832186,2136
2859.217246912299,2102
2860.9663969278427,2179
2862.715210235146,2047
2864.4636871395846,2109
2866.211827946614,2085
2867.9596329617652,2170
2869.7071024906536,2099
2871.4542368389684,2157
2873.20103631248,2141
2874.947501217038,2175
2876.6936318585695,2145
2878.4394285430812,2128
2880.1848915766604,2042
2881.9300212654707,2132
2883.6748179157553,2188
2885.4192818338374,2120
2887.1634133261173,2142
2888.907212699077,2110
2890.6506802592744,2157
2892.393816313348,2125
2894.1366211680142,2116
2895.8790951300693,2102
2897.621238506388,2178
2899.363051603925,2074
2901.1045347297118,2128
2902.8456881908596,2099
2904.58651229456,2081
2906.327007348081,2152
2908.067173658772,2094
2909.8070115340597,1985
2911.5465212814497,2046
2913.285703208527,2083
2915.0245576229563,2042
2916.7630848324807,2112
2918.5012851449196,2094
2920.2391588681758,2132
2921.976706310227,2100
2923.7139277791334,2027
2925.4508235830313,2044
2927.187394030137,2093
2928.923639428745,2143
2930.6595600872306,2115
2932.395156314046,2140
2934.1304284177218,2119
2935.8653767068713,2080
2937.6000014901815,2172
2939.3343030764227,2110
2941.068281774442,2138
2942.8019378931644,2137
2944.5352717415976,2113
2946.2682836288236,2042
2948.0009738640065,2152
2949.7333427563885,2130
2951.465390615289,2070
2953.1971177501086,2106
2954.9285244703265,2148
2956.6596110855,2091
2958.3903779052657,2058
2960.1208252393385,2149
2961.8509533975125,2169
2963.5807626896617,2098
2965.3102534257378,2089
2967.0394259157715,2165
2968.768280469873,2095
2970.496817398232,2069
2972.2250370111146,2130
2973.952939618869,2099
2975.6805255319196,2124
2977.4077950607707,2079
2979.134748516006,2131
2980.861386208289,2059
2982.587708448359,2075
2984.313715547037,2143
2986.039407815222,2087
2987.764785563891,2081
2989.489849104102,2107
2991.2145987469908,2092
2992.9390348037705,2068
2994.6631575857346,2147
2996.3869674042576,2117
2998.1104645707887,2138
2999.83364939686,2038
3001.5565221940783,2096
3003.2790832741334,2115
3005.0013329487924,2097
3006.7232715298996,2040
3008.4448993293804,2071
3010.166216659239,2101
3011.887223831558,2107
3013.607921158498,2081
3015.3283089522993,2063
3017.0483875252826,2154
3018.7681571898443,2115
3020.4876182584626,2140
3022.2067710436927,2116
3023.9256158581707,2092
3025.644153014609,2098
3027.362382825801,2090
3029.0803056046193,2098
3030.797921664012,2135
3032.5152313170106,2148
3034.2322348767225,2111
3035.9489326563353,2043
3037.665324969115,2007
3039.3814121284063,2143
3041.097194447633,2074
3042.812672240299,2047
3044.5278458199855,2087
3046.2427155003525,2121
3047.9572815951406,2074
3049.671544418167,2148
3051.38550428333,2072
3053.0991615046073,2102
3054.812516396051,2078
3056.5255692717974,2075
3058.2383204460575,2156
3059.9507702331257,2107
3061.662918947372,2098
3063.3747669032446,2107
3065.0863144152736,2078
3066.7975617980674,2034
3068.508509366309,2064
3070.219157434767,2173
3071.9295063182844,2104
3073.639556331785,2059
3075.3493077902704,2109
3077.058761008821,2135
3078.7679163025964,2052
3080.476773986837,2081
3082.1853343768594,2097
3083.89359778806,2068
3085.6015645359153,2090
3087.3092349359786,2144
3089.016609303884,2080
3090.7236879553434,2050
3092.4304712061476,2130
3094.136959372166,2040
3095.843152769349,2073
3097.5490517137237,2037
3099.2546565213966,2062
3100.959967508554,2051
3102.66498499146,2109
3104.3697092864577,2064
3106.0741407099695,2072
3107.778279578498,2123
3109.482126208622,2079
3111.1856809170004,2076
3112.8889440203716,2081
3114.5919158355528,2086
3116.294596679439,2120
3117.996986869006,2080
3119.6990867213062,2091
3121.4008965534726,2129
3123.102416682717,2131
3124.803647426329,2136
3126.5045891016784,2102
3128.205242026213,2076
3129.90560651746,2164
3131.605682893025,2109
3133.3054714705922,2169
3135.0049725679282,2097
3136.7041865028714,2107
3138.4031135933465,2092
3140.101754157353,2070
3141.800108512971,2134
3143.498176978357,2141
3145.1959598717494,2134
3146.8934575114636,2075
3148.5906702158954,2106
3150.2875983035183,2088
3151.9842420928853,2113
3153.680601902627,2107
3155.376678051456,2094
3157.07247085816,2102
3158.767980641609,2086
3160.463207720748,2041
3162.158152414606,2090
3163.8528150422862,2095
3165.5471959229726,2103
3167.2412953759303,2065
3168.9351137204976,2059
3170.628651276098,2078
3172.3219083622307,2071
3174.014885298474,2087
3175.707582404485,2083
3177.4000000000005,2104
3179.092138404835,2120
3180.7839979388846,2107
3182.47557892212,2155
3184.166881674594,2003
3185.8579065164386,2067
3187.5486537678626,2064
3189.2391237491547,2084
3190.9293167806827,2096
3192.6192331828934,2107
3194.3088732763117,2096
3195.998237381542,2096
3197.687325819268,2099
3199.376138910251,2173
3201.064676975334,2072
3202.7529403354347,2107
3204.4409293115523,2095
3206.1286442247647,2028
3207.816085396229,2054
3209.5032531471825,2080
3211.190147798936,1996
3212.8767696728846,2017
3214.5631190905015,2045
3216.2491963733373,2069
3217.9350018430214,1985
3219.6205358212637,1988
3221.305798629851,2070
3222.990790590651,2102
3224.6755120256103,2070
3226.359963256751,1991
3228.0441446061795,2019
3229.7280563960758,2039
3231.411698948703,1973
3233.0950725863995,2079
3234.778177631587,2101
3236.461014406761,2055
3238.1435832345005,2084
3239.8258844374595,2073
3241.507918338374,2071
3243.1896852600576,2076
3244.8711855254023,2068
3246.552419457381,2071
3248.233387379042,2015
3249.914089613516,2093
3251.59452648401,2105
3253.274698313813,2015
3254.95460542629,2061
3256.6342481448855,2044
3258.313626793125,1981
3259.9927416946084,2010
3261.6715931730196,1966
3263.3501815521176,1997
3265.0285071557437,2110
3266.706570307815,1995
3268.3843713323286,2087
3270.0619105533615,2063
3271.739188295068,1971
3273.4162048816834,2041
3275.0929606375184,2039
3276.769455886966,2084
3278.445690954498,2068
3280.1216661646613,2068
3281.797381842087,2011
3283.4728383114807,2011
3285.1480358976296,2070
3286.8229749253996,2016
3288.4976557197333,2051
3290.172078605655,2010
3291.846243908266,2116
3293.5201519527463,2031
3295.193803064357,2025
3296.8671975684374,2055
3298.5403357904024,2008
3300.21321805575,2018
3301.8858446900567,1996
3303.558216018975,2018
3305.23033236824,2061
3306.9021940636603,1987
3308.57380143113,2078
3310.2451547966184,2133
3311.916254486174,1975
3313.5871008259246,2063
3315.2576941420766,2031
3316.9280347609147,2033
3318.5981230088046,1954
3320.2679592121895,2026
3321.9375436975924,2029
3323.606876791612,1977
3325.27595882093,2002
3326.944790112305,2038
3328.6133709925753,2030
3330.2817017886573,1958
3331.949782827547,2048
3333.617614436319,2027
3335.2851969421245,2015
3336.952530672199,2092
3338.619615953853,1981
3340.286453114475,2044
3341.9530424815357,1948
3343.619384382583,2043
3345.2854791452437,2067
3346.951327097224,2018
3348.6169285663073,2074
3350.2822838803577,1998
3351.947393367319,2045
3353.61225735521,2079
3355.2768761721345,2016
3356.9412501462693,2104
3358.605379605873,2134
3360.2692648792827,2002
3361.9329062949146,2160
3363.596304181263,2008
