CollectionTime,6/26/2024 3:13:36 PM
ExposureUsed,3
CalibratedSpectrum
-962.7078968117929,798
-959.9714848408522,818
-957.2358232597828,818
-954.5009119013725,809
-951.7667505983302,797
-949.0333391832855,837
-946.3006774887896,804
-943.5687653473143,841
-940.837602591253,863
-938.1071890529199,814
-935.3775245645503,856
-932.6486089583007,858
-929.9204420662485,862
-927.1930237203925,837
-924.4663537526524,846
-921.7404319948689,841
-919.0152582788041,894
-916.2908324361409,876
-913.5671542984834,870
-910.8442236973568,884
-908.1220404642074,870
-905.4006044304027,825
-902.679915427231,835
-899.959973285902,875
-897.2407778375464,902
-894.5223289132158,891
-891.8046263438832,843
-889.0876699604426,819
-886.3714595937089,822
-883.6559950744183,816
-880.9412762332282,794
-878.2273029007168,848
-875.5140749073835,809
-872.8015920836489,845
-870.0898542598545,854
-867.3788612662631,770
-864.6686129330585,804
-861.9591090903457,799
-859.2503495681506,774
-856.5423341964203,813
-853.8350628050229,830
-851.1285352237478,817
-848.4227512823054,806
-845.7177108103272,807
-843.0134136373656,776
-840.3098595928943,832
-837.6070485063082,805
-834.9049802069229,799
-832.2036545239757,818
-829.5030712866244,804
-826.8032303239481,815
-824.1041314649472,837
-821.4057745385428,816
-818.7081593735775,802
-816.0112857988148,820
-813.3151536429393,822
-810.6197627345566,822
-807.9251129021936,828
-805.2312039742981,823
-802.5380357792392,787
-799.8456081453069,795
-797.1539209007124,844
-794.462973873588,812
-791.772766891987,779
-789.083299783884,778
-786.3945723771743,790
-783.7065844996748,810
-781.0193359791231,773
-778.3328266431781,857
-775.6470563194197,828
-772.9620248353489,821
-770.2777320183878,783
-767.5941776958798,809
-764.9113616950891,802
-762.2292838432011,807
-759.5479439673222,851
-756.8673418944801,794
-754.1874774516235,816
-751.5083504656222,863
-748.8299607632671,797
-746.15230817127,793
-743.475392516264,879
-740.7992136248035,853
-738.1237713233636,841
-735.4490654383407,857
-732.7750957960521,818
-730.1018622227365,822
-727.4293645445534,844
-724.7576025875837,844
-722.0865761778291,814
-719.4162851412126,878
-716.7467293035781,880
-714.0779084906909,828
-711.409822528237,852
-708.7424712418238,890
-706.0758544569796,863
-703.4099719991541,871
-700.7448236937178,864
-698.0804093659622,858
-695.4167288411002,872
-692.7537819442656,851
-690.0915685005134,903
-687.4300883348199,874
-684.7693412720819,894
-682.1093271371178,899
-679.4500457546669,869
-676.7914969493897,861
-674.1336805458676,922
-671.4765963686034,922
-668.8202442420206,888
-666.1646239904642,926
-663.5097354382001,945
-660.8555784094151,918
-658.2021527282176,879
-655.5494582186366,977
-652.8974947046223,970
-650.2462620100463,934
-647.5957599587009,959
-644.9459883742998,977
-642.2969470804776,968
-639.6486359007902,980
-637.0010546587141,988
-634.3542031776476,955
-631.7080812809096,950
-629.0626887917401,941
-626.4180255333008,925
-623.7740913286734,938
-621.1308860008619,948
-618.4884093727904,931
-615.8466612673046,908
-613.2056415071715,919
-610.5653499150785,952
-607.9257863136347,947
-605.28695052537,912
-602.6488423727357,938
-600.0114616781036,927
-597.3748082637674,966
-594.7388819519412,953
-592.1036825647604,915
-589.4692099242818,945
-586.8354638524829,923
-584.2024441712624,944
-581.5701507024403,886
-578.9385832677575,919
-576.3077416888759,962
-573.6776257873787,934
-571.0482353847704,890
-568.4195703024757,974
-565.7916303618415,991
-563.164415384135,995
-560.5379251905453,1015
-557.9121596021815,983
-555.2871184400748,924
-552.6628015251767,1013
-550.0392086783606,958
-547.4163397204204,979
-544.794194472071,977
-542.1727727539491,995
-539.5520743866118,1008
-536.9320991905377,1081
-534.3128469861261,1136
-531.6943175936979,1052
-529.0765108334947,1092
-526.4594265256793,1129
-523.8430644903358,1266
-521.2274245474689,1391
-518.612506517005,1625
-515.9983102187913,1625
-513.3848354725959,1781
-510.77208209810846,1837
-508.16004991493924,1892
-505.5487387426199,1890
-502.9381484006032,2107
-500.3282787082628,2168
-497.71912948489364,2191
-495.1107005497117,2301
-492.5029917218539,2236
-489.8960028203786,2013
-487.28973366426493,1891
-484.68418407241325,1677
-482.07935386364494,1460
-479.47524285670266,1454
-476.87185087025,1424
-474.2691777228715,1399
-471.66722323307334,1270
-469.0659872192821,1312
-466.4654694998459,1225
-463.86566989303384,1235
-461.26658821703614,1194
-458.66822428996414,1238
-456.07057792985,1185
-453.4736489546475,1232
-450.877437182231,1263
-448.28194243039627,1207
-445.68716451686,1234
-443.09310325926003,1251
-440.49975847515555,1147
-437.9071299820263,1155
-435.31521759727354,1184
-432.72402113821954,1161
-430.13354042210767,1202
-427.5437752661022,1225
-424.95472548728867,1234
-422.36639090267386,1252
-419.7787713291855,1272
-417.1918665836721,1272
-414.60567648290385,1274
-412.0202008435715,1203
-409.4354394822874,1256
-406.8513922155845,1217
-404.26805885991723,1252
-401.685439231661,1220
-399.103533147112,1268
-396.522340422488,1275
-393.9418608739278,1282
-391.3620943174908,1277
-388.7830405691583,1296
-386.2046994448317,1243
-383.6270707603344,1170
-381.05015433141045,1082
-378.473949973725,1018
-375.8984575028645,945
-373.32367673433623,868
-370.74960748356875,813
-368.1762495659117,776
-365.60360279663576,723
-363.03166699093265,651
-360.4604419639154,694
-357.8899275306178,642
-355.32012350599507,581
-352.7510297049233,611
-350.1826459421999,558
-347.61497203254316,552
-345.04800779059235,537
-342.4817530309082,528
-339.91620756797226,520
-337.35137121618743,497
-334.7872437898774,555
-332.22382510328725,564
-329.66111497058273,565
-327.09911320585127,574
-324.53781962310075,580
-321.9772340362607,567
-319.4173562591816,615
-316.8581861056348,656
-314.2997233893127,618
-311.7419679238294,640
-309.1849195227194,607
-306.62857799943856,546
-304.0729431673641,567
-301.51801483979375,553
-298.963792829947,575
-296.41027695096386,566
-293.85746701590574,586
-291.3053628377552,605
-288.7539642294155,583
-286.2032710037115,636
-283.65328297338897,614
-281.1039999511146,651
-278.5554217494762,788
-276.007548180983,787
-273.4603790580651,693
-270.9139141930734,632
-268.3681533982807,697
-265.8230964858798,636
-263.27874326798565,682
-260.7350935566336,752
-258.1921471637804,844
-255.6499039013039,882
-253.10836358100266,797
-250.56752601459698,721
-248.02739101372765,791
-245.48795838995704,783
-242.94922795476816,791
-240.41119951956557,763
-237.8738728956746,815
-235.33724789434166,901
-232.80132432673452,1024
-230.2661020039418,1002
-227.73158073697357,845
-225.19776033676033,787
-222.66464061415422,863
-220.1322213799284,813
-217.60050244477725,789
-215.06948361931552,779
-212.53916471408013,832
-210.00954553952818,794
-207.48062590603843,821
-204.9524056239104,896
-202.4248845033651,890
-199.8980623545441,818
-197.37193898751036,765
-194.84651421224817,894
-192.32178783866232,1083
-189.79775967657952,980
-187.27442953574644,921
-184.7517972258321,970
-182.2298625564256,1053
-179.7086253370378,912
-177.18808537710026,940
-174.66824248596583,1049
-172.14909647290835,1105
-169.6306471471229,1061
-167.11289431772548,1015
-164.59583779375328,1009
-162.07947738416453,1018
-159.5638128978386,1018
-157.04884414357605,1102
-154.53457093009854,1218
-152.02099306604828,1200
-149.50811035998936,1168
-146.99592262040665,1266
-144.48442965570587,1279
-141.97363127421409,1220
-139.46352728417958,1154
-136.95411749377126,1265
-134.44540171107985,1260
-131.93737974411636,1311
-129.43005140081357,1385
-126.92341648902493,1477
-124.41747481652521,1445
-121.91222619101006,1351
-119.40767042009657,1310
-116.90380731132257,1340
-114.40063667214702,1496
-111.8981583099503,1578
-109.3963720320337,1746
-106.89527764561933,1501
-104.39487495785067,1652
-101.89516377579241,1806
-99.39614390642998,1765
-96.89781515667039,1737
-94.40017733334128,2085
-91.90323024319173,2017
-89.40697369289148,1990
-86.91140748903172,1964
-84.41653143812482,1807
-81.92234534660395,1901
-79.42884902082358,2084
-76.93604226705907,2232
-74.4439248915071,2161
-71.95249670028534,1908
-69.46175749943245,2390
-66.97170709490854,2479
-64.48234529259423,2901
-61.99367189829195,2688
-59.50568671772464,2580
-57.01838955653636,3125
-54.53178022029283,3041
-52.045858514480074,3279
-49.560624244506016,3974
-47.07607721569923,4033
-44.59221723330904,4215
-42.10904410250669,3655
-39.62655762838392,4451
-37.14475761595372,5425
-34.66364387015028,5746
-32.18321619582866,6053
-29.70347439776515,6778
-27.224418280657005,8838
-24.74604764912317,13167
-22.26836230770266,19342
-19.7913620608565,33070
-17.315046712966478,52865
-14.83941606833514,59524
-12.36446993118659,65039
-9.89020810566592,65039
-7.416630395839093,65039
-4.94373660569363,65039
-2.471526539137585,65039
-6.821210263296962E-13,65039
2.47084320796705,65039
4.941003281093458,65039
7.410480415786196,65039
9.879274808531363,65039
12.347386655893956,65039
14.814816154518212,65039
17.28156350112681,65039
19.74762889252179,65039
22.21301252558385,65039
24.67771459727237,65039
27.141735304626195,46598
29.605074844762612,16497
32.06773341487792,13817
34.52971121224755,12362
36.99100843422559,11438
39.45162527824516,10724
41.91156194181792,9590
44.370818622535126,10604
46.82939551806646,10834
49.287292826160524,11593
51.74451074464503,11039
54.201049471426245,7573
56.65690920448981,5681
59.112090141899785,4776
61.56659248179983,4391
64.02041642241159,4198
66.4735621620365,3819
68.92602989905402,2841
71.37781983192338,2763
73.82893215918205,3192
76.27936707944684,3369
78.72912479141326,3512
81.17820549385567,3019
83.62660938562783,3212
86.07433666566146,2788
88.5213875329681,3115
90.96776218663751,3034
93.41346082583925,2714
95.85848364982041,2218
98.30283085790859,2091
100.7465026495089,2193
103.18949922410604,2580
105.63182078126385,2357
108.07346752062438,1932
110.51443964190923,2037
112.95473734491827,1810
115.39436082953114,1691
117.83331029570547,1690
120.27158594347827,2171
122.7091879729652,1724
125.1461165843615,1605
127.58237197794062,1568
130.01795435405518,1522
132.4528639131364,1428
134.88710085569494,1583
137.32066538231982,1791
139.75355769367923,1678
142.1857779905207,1587
144.61732647366978,1482
147.04820334403132,1547
149.47840880258934,1498
151.90794305040674,1733
154.33680628862487,1933
156.76499871846443,1843
159.19252054122433,1873
161.61937195828352,1912
164.04555317109896,2196
166.47106438120693,2380
168.89590579022217,2669
171.320077599839,2776
173.7435800118302,2853
176.16641322804742,2963
178.58857745042144,3018
181.01007288096173,3150
183.43089972175687,3184
185.85105817497413,3170
188.27054844285988,3139
190.6893707277394,3188
193.10752523201643,3087
195.5250121581745,3416
197.9418317087751,3489
200.3579840864594,3439
202.7734694939469,3441
205.18828813403627,3327
207.6024402096051,3293
210.01592592360964,3313
212.42874547908548,3361
214.84089907914665,3248
217.2523869269868,3219
219.66320922587727,3309
222.0733661791695,3336
224.48285799029293,3265
226.8916848627572,3329
229.29984700014882,3408
231.7073446061355,3353
234.11417788446204,3379
236.520347038953,3497
238.92585227351185,3545
241.33069379212054,3694
243.73487179884035,3583
246.1383864978112,3530
248.541238093252,3455
250.9434267894609,3518
253.34495279081432,3577
255.74581630176783,3518
258.1460175268563,3648
260.54555667069314,3635
262.9444339379703,3568
265.3426495334594,3505
267.7402036620107,3349
270.1370965285529,3286
272.53332833809407,3292
274.9288992957214,3217
277.32380960660055,3217
279.718059475976,3068
282.1116491091717,3156
284.5045787115897,3060
286.89684848871195,3050
289.2884586460981,3138
291.67940938938807,3109
294.0697009242996,2992
296.4593334566299,3053
298.84830719225477,2993
301.23662233712923,2968
303.6242790972866,2987
306.01127767884,3052
308.39761828798066,3012
310.78330113097934,2961
313.16832641418534,2927
315.5526943440269,2865
317.9364051270112,2810
320.3194589697242,2790
322.70185607883093,2728
325.0835966610754,2748
327.4646809232805,2719
329.8451090723478,2666
332.2248813152577,2662
334.6039978590701,2595
336.9824589109231,2627
339.36026467803447,2594
341.7374153677,2646
344.113911187295,2502
346.48975234427337,2566
348.8649390461686,2503
351.2394715005918,2562
353.61334991523415,2540
355.9865744978655,2511
358.35914545633375,2593
360.73106299856715,2580
363.10232733257146,2484
365.47293866643247,2494
367.84289720831396,2446
370.2122031664593,2578
372.5808567491905,2444
374.9488581649083,2413
377.31620762209275,2464
379.6829053293021,2487
382.0489514951745,2481
384.4143463284262,2360
386.7790900378528,2367
389.14318283232853,2416
391.50662492080653,2380
393.86941651231916,2376
396.23155781597745,2318
398.5930490409713,2374
400.9538903965696,2456
403.3140820921202,2398
405.6736243370498,2327
408.03251734086336,2396
410.3907613131465,2321
412.74835646356166,2461
415.10530300185144,2342
417.4616011378372,2377
419.81725108141893,2412
422.1722530425758,2279
424.5266072313656,2386
426.880313857925,2233
429.2333731324701,2320
431.58578526529516,2372
433.9375504667738,2293
436.2886689473588,2255
438.63914091758113,2261
440.9889665880513,2288
443.33814616945835,2315
445.68667987257015,2286
448.03456790823395,2251
450.3818104873759,2175
452.72840782100013,2225
455.07436012019105,2187
457.41966759611057,2305
459.7643304600007,2262
462.10834892318155,2234
464.4517231970525,2300
466.79445349309174,2334
469.1365400228566,2293
471.4779829979826,2315
473.81878263018564,2255
476.15893913125876,2320
478.4984527130747,2354
480.8373235875855,2436
483.17555196682144,2364
485.5131380628919,2515
487.8500820879857,2545
490.1863842543697,2686
492.52204477439034,2911
494.8570638604725,3114
497.1914417251204,3527
499.52517858091653,3736
501.85827464052306,3946
504.19073011668036,3993
506.5225452222086,3936
508.85372017000566,3841
511.18425517304956,3555
513.514150444396,3703
515.8434061971808,4243
518.1720226446176,4889
520.4999999999999,5388
522.8273384766991,5716
525.1540382881666,5771
527.480099647932,5601
529.8055227696037,4911
532.1303078668694,3643
534.454455153496,2774
536.777964843328,2429
539.1008371502907,2293
541.4230722883866,2241
543.744670471698,2183
546.0656319143858,2175
548.3859568306899,2090
550.7056454349294,2143
553.0246979415016,2122
555.3431145648834,2072
557.6608955196306,2085
559.978041020377,2101
562.2945512818363,2014
564.6104265188006,2093
566.9256669461412,2078
569.2402727788082,2065
571.5542442318302,2122
573.8675815203156,2061
576.1802848594508,2020
578.4923544645015,1992
580.8037905508126,2070
583.114593333807,2088
585.4247630289875,2003
587.7342998519354,2041
590.0432040183106,2035
592.3514757438526,2027
594.6591152443794,2000
596.9661227357875,1968
599.2724984340531,2072
601.578242555231,2069
603.8833553154542,2017
606.1878369309362,2142
608.4916876179676,2205
610.7949075929192,2136
613.0974970722403,2105
615.3994562724587,2061
617.7007854101818,2066
620.0014847020951,2012
622.3015543649641,2155
624.6009946156324,2063
626.8998056710224,2020
629.1979877481361,2065
631.4955410640538,2024
633.7924658359349,2095
636.0887622810175,2049
638.3844306166192,2081
640.6794710601358,2119
642.9738838290426,2079
645.2676691408932,2004
647.5608272133207,2047
649.853358264037,2111
652.1452625108324,2061
654.4365401715764,2134
656.7271914642178,2104
659.0172166067838,2094
661.3066158173809,2163
663.5953893141935,2138
665.8835373154867,2177
668.1710600396028,2168
670.4579577049639,2142
672.7442305300709,2084
675.0298787335033,2108
677.3149025339197,2219
679.599302150058,2191
681.8830778007342,2103
684.1662297048437,2094
686.4487580813608,2058
688.7306631493387,2099
691.0119451279091,2093
693.2926042362834,2139
695.5726406937516,2223
697.8520547196814,2138
700.1308465335215,2094
702.4090163547982,2180
704.6865644031171,2151
706.9634908981619,2103
709.2397960596965,2064
711.5154801075631,2121
713.7905432616823,2103
716.0649857420548,2097
718.3388077687592,2063
720.612009561953,2091
722.8845913418733,2168
725.1565533288352,2089
727.427895743234,2182
729.6986188055427,2077
731.9687227363137,2038
734.238207756178,2107
736.5070740858458,2014
738.7753219461066,2130
741.0429515578281,2083
743.3099631419569,2105
745.5763569195191,2057
747.8421331116193,2129
750.1072919394409,2177
752.3718336242467,2145
754.6357583873777,2082
756.8990664502545,2081
759.1617580343765,2089
761.423833361321,2168
763.6852926527457,2173
765.9461361303862,2031
768.206364016058,2142
770.4659765316536,2079
772.7249738991469,2200
774.9833563405886,2103
777.2411240781092,2115
779.4982773339183,2093
781.7548163303044,2142
784.010741289634,2217
786.2660524343538,2248
788.5207499869881,2086
790.7748341701416,2135
793.0283052064964,2153
795.2811633188143,2194
797.5334087299362,2283
799.7850416627813,2172
802.0360623403484,2185
804.2864709857143,2073
806.5362678220353,2098
808.7854530725468,2165
811.0340269605625,2136
813.2819897094754,2168
815.5293415427581,2099
817.77608268396,2141
820.0222133567116,2191
822.2677337847211,2151
824.5126441917765,2110
826.7569448017433,2156
829.0006358385675,2103
831.2437175262731,2245
833.4861900889629,2072
835.7280537508192,2118
837.9693087361026,2156
840.2099552691533,2097
842.4499935743896,2222
844.689423876309,2072
846.9282463994886,2167
849.1664613685833,2243
851.4040690083276,2205
853.6410695435349,2167
855.877463199097,2131
858.1132501999847,2158
860.3484307712487,2169
862.5830051380175,2156
864.8169735254988,2212
867.0503361589791,2123
869.2830932638243,2142
871.5152450654786,2192
873.7467917894654,2241
875.9777336613873,2188
878.2080709069252,2147
880.4378037518389,2217
882.666932421968,2260
884.8954571432301,2207
887.1233781416219,2184
889.3506956432192,2267
891.5774098741766,2315
893.803521060728,2215
896.0290294291852,2270
898.2539352059397,2237
900.4782386174619,2201
902.7019398903011,2232
904.925039251085,2297
907.147536926521,2227
909.3694331433943,2204
911.59072812857,2173
913.8114221089921,2199
916.0315153116827,2138
918.2510079637437,2148
920.4699002923547,2131
922.6881925247761,2182
924.905884888345,2078
927.1229776104793,2035
929.3394709186747,2173
931.555365040506,2138
933.7706602036275,2176
935.9853566357709,2215
938.1994545647489,2234
940.4129542184515,2195
942.6258558248488,2221
944.8381596119883,2218
947.0498658079974,2160
949.2609746410825,2096
951.4714863395287,2128
953.6814011316998,2132
955.8907192460387,2136
958.0994409110671,2169
960.3075663553858,2127
962.5150958076741,2162
964.7220294966913,2167
966.928367651274,2106
969.1341105003388,2091
971.3392582728806,2040
973.5438111979742,2095
975.747769504772,2004
977.9511334225061,2120
980.153903180487,2176
982.3560790081052,2072
984.5576611348289,2036
986.7586497902058,2061
988.9590452038618,2047
991.158847605503,2063
993.3580572249133,1906
995.5566742919558,1939
997.7546990365728,1940
999.952131688785,1898
1002.1489724786926,1922
1004.3452216364743,1874
1006.5408793923874,1871
1008.7359459767691,1893
1010.9304216200343,1844
1013.1243065526781,1828
1015.3176010052733,1819
1017.510305208472,1856
1019.7024193930064,1844
1021.8939437896848,1812
1024.0848786293977,1835
1026.2752241431122,1751
1028.4649805618747,1828
1030.6541481168115,1819
1032.842727039127,1701
1035.0307175601051,1787
1037.2181199111074,1758
1039.4049343235752,1711
1041.591161029029,1772
1043.7768002590683,1723
1045.9618522453698,1776
1048.1463172196918,1803
1050.3301954138697,1736
1052.513487059818,1789
1054.69619238953,1774
1056.8783116350783,1727
1059.0598450286152,1728
1061.2407928023704,1733
1063.4211551886528,1803
1065.6009324198508,1760
1067.780124728432,1689
1069.9587323469414,1683
1072.1367555080046,1676
1074.314194444325,1718
1076.4910493886855,1726
1078.667320573947,1730
1080.843008233051,1691
1083.0181125990161,1679
1085.1926339049414,1675
1087.3665723840027,1687
1089.5399282694575,1681
1091.7127017946405,1692
1093.8848931929647,1684
1096.0565026979243,1686
1098.2275305430899,1624
1100.3979769621128,1650
1102.567842188722,1616
1104.737126456726,1566
1106.9058300000124,1619
1109.0739530525475,1647
1111.2414958483764,1619
1113.4084586216231,1676
1115.5748416064907,1649
1117.7406450372605,1659
1119.9058691482942,1626
1122.0705141740304,1659
1124.2345803489884,1624
1126.3980679077658,1688
1128.5609770850388,1670
1130.7233081155623,1632
1132.8850612341707,1675
1135.0462366757774,1595
1137.2068346753745,1631
1139.3668554680326,1638
1141.526299288901,1595
1143.68516637321,1594
1145.8434569562655,1645
1148.001171273455,1647
1150.158309560244,1645
1152.3148720521767,1578
1154.470858984876,1604
1156.626270594044,1571
1158.7811071154629,1632
1160.9353687849912,1635
1163.089055838569,1656
1165.242168512213,1664
1167.3947070420209,1628
1169.5466716641677,1581
1171.6980626149075,1637
1173.8488801305748,1561
1175.9991244475814,1580
1178.1487958024186,1591
1180.2978944316555,1581
1182.4464205719428,1593
1184.5943744600072,1619
1186.7417563326567,1579
1188.8885664267755,1554
1191.0348049793297,1564
1193.1804722273619,1594
1195.325568407995,1630
1197.4700937584303,1595
1199.614048515948,1586
1201.7574329179074,1538
1203.900247201746,1630
1206.042491604982,1625
1208.1841663652099,1584
1210.3252717201053,1617
1212.465807907422,1608
1214.6057751649923,1539
1216.7451737307279,1638
1218.8840038426192,1622
1221.0222657387353,1609
1223.1599596572241,1585
1225.2970858363137,1667
1227.4336445143094,1640
1229.5696359295966,1654
1231.705060320639,1636
1233.8399179259786,1623
1235.9742089842384,1645
1238.107933734118,1604
1240.2410924143974,1612
1242.373685263935,1651
1244.5057125216676,1616
1246.6371744266116,1641
1248.7680712178621,1622
1250.898403134593,1646
1253.028170416058,1659
1255.1573733015875,1642
1257.2860120305932,1636
1259.4140868425648,1618
1261.54159797707,1530
1263.6685456737569,1569
1265.7949301723515,1683
1267.9207517126597,1649
1270.046010534565,1626
1272.1707068780306,1688
1274.2948409830983,1691
1276.4184130898889,1727
1278.541423438603,1649
1280.6638722695184,1677
1282.785759822993,1654
1284.9070863394636,1610
1287.0278520594447,1698
1289.1480572235314,1690
1291.2677020723963,1783
1293.3867868467923,1682
1295.5053117875495,1737
1297.623277135579,1771
1299.740683131868,1749
1301.8575300174857,1778
1303.973818033578,1750
1306.0895474213703,1802
1308.2047184221678,1734
1310.3193312773528,1791
1312.4333862283888,1734
1314.5468835168163,1744
1316.659823384255,1730
1318.7722060724045,1737
1320.8840318230418,1808
1322.9953008780249,1807
1325.1060134792888,1783
1327.2161698688478,1846
1329.3257702887959,1700
1331.4348149813054,1763
1333.5433041886276,1806
1335.6512381530933,1762
1337.7586171171101,1805
1339.8654413231675,1765
1341.9717110138317,1756
1344.0774264317488,1695
1346.1825878196432,1780
1348.2871954203192,1750
1350.3912494766587,1720
1352.4947502316231,1717
1354.5976979282532,1664
1356.7000928096686,1821
1358.8019351190665,1706
1360.9032250997243,1705
1363.0039629949988,1709
1365.1041490483235,1712
1367.2037835032133,1722
1369.3028666032606,1718
1371.401398592137,1756
1373.4993797135926,1746
1375.5968102114575,1640
1377.6936903296396,1707
1379.7900203121262,1766
1381.8858004029835,1745
1383.9810308463561,1752
1386.075711886469,1787
1388.1698437676241,1724
1390.2634267342032,1791
1392.356461030667,1866
1394.4489469015557,1822
1396.5408845914872,1803
1398.6322743451592,1776
1400.7231164073469,1786
1402.813411022907,1784
1404.903158436773,1813
1406.9923588939578,1834
1409.0810126395531,1785
1411.1691199187303,1818
1413.2566809767386,1754
1415.343696058907,1793
1417.4301654106425,1802
1419.5160892774315,1835
1421.6014679048399,1841
1423.6863015385125,1836
1425.7705904241707,1790
1427.8543348076178,1769
1429.9375349347342,1891
1432.0201910514802,1873
1434.102303403894,1923
1436.1838722380944,1809
1438.2648978002767,1882
1440.3453803367174,1852
1442.4253200937692,1998
1444.5047173178677,1912
1446.5835722555234,1901
1448.6618851533285,1993
1450.739656257952,2023
1452.8168858161434,1940
1454.8935740747306,2081
1456.96972128062,2034
1459.045327680797,1989
1461.120393522327,2052
1463.1949190523528,2057
1465.2689045180973,2146
1467.3423501668608,2197
1469.415256246024,2296
1471.4876230030463,2190
1473.559450685465,2266
1475.6307395408976,2244
1477.7014898170391,2304
1479.771701761665,2384
1481.8413756226287,2348
1483.9105116478618,2416
1485.9791100853772,2404
1488.0471711832643,2478
1490.1146951896926,2509
1492.1816823529098,2506
1494.2481329212433,2612
1496.3140471430984,2640
1498.3794252669609,2690
1500.4442675413939,2661
1502.5085742150404,2734
1504.572345536622,2621
1506.6355817549388,2787
1508.6982831188702,2735
1510.7604498773744,2813
1512.8220822794883,2889
1514.8831805743293,2790
1516.9437450110909,2926
1519.003775839048,2824
1521.0632733075522,3016
1523.1222376660367,3059
1525.1806691640113,3094
1527.2385680510652,3058
1529.2959345768668,3106
1531.3527689911643,3265
1533.4090715437833,3361
1535.4648424846291,3421
1537.5200820636855,3314
1539.5747905310159,3357
1541.6289681367616,3427
1543.6826151311434,3519
1545.7357317644614,3568
1547.7883182870937,3636
1549.8403749494987,3646
1551.8919020022113,3751
1553.9428996958477,3837
1555.9933682811015,3977
1558.0433080087469,3884
1560.0927191296346,4160
1562.1416018946961,4150
1564.1899565549415,4102
1566.2377833614592,4217
1568.2850825654164,4093
1570.3318544180606,3943
1572.3780991707158,3795
1574.423817074788,3732
1576.4690083817595,3464
1578.5136733431923,3342
1580.5578122107272,3263
1582.601425236085,3067
1584.6445126710646,2965
1586.6870747675434,2791
1588.7291117774776,2748
1590.7706239529034,2601
1592.8116115459347,2471
1594.8520748087658,2385
1596.8920139936686,2357
1598.9314293529933,2319
1600.9703211391711,2206
1603.008689604711,2131
1605.0465350022005,2177
1607.0838575843068,2071
1609.1206576037753,2061
1611.1569353134305,1989
1613.1926909661765,2010
1615.2279248149953,1971
1617.2626371129481,1906
1619.2968281131757,1897
1621.3304980688963,1860
1623.3636472334088,1882
1625.39627586009,1852
1627.428384202396,1815
1629.459972513861,1760
1631.4910410480993,1747
1633.5215900588028,1731
1635.551619799744,1756
1637.5811305247717,1760
1639.6101224878166,1779
1641.6385959428862,1724
1643.6665511440683,1717
1645.693988345528,1756
1647.7209078015112,1762
1649.7473097663405,1672
1651.7731944944203,1707
1653.7985622402307,1636
1655.823413258333,1688
1657.847747803366,1693
1659.8715661300494,1735
1661.8948684931793,1692
1663.9176551476316,1657
1665.9399263483624,1654
1667.9616823504057,1694
1669.982923408873,1640
1672.0036497789574,1674
1674.0238617159293,1661
1676.043559475138,1665
1678.0627433120121,1670
1680.081413482059,1634
1682.0995702408654,1645
1684.117213844096,1638
1686.134344547495,1593
1688.1509626068864,1596
1690.1670682781705,1622
1692.182661817329,1644
1694.1977434804217,1663
1696.2123135235875,1651
1698.226372203043,1679
1700.2399197750851,1680
1702.2529564960905,1658
1704.2654826225112,1680
1706.277498410882,1675
1708.2890041178139,1715
1710.2999999999988,1674
1712.3104863142066,1707
1714.3204633172854,1671
1716.329931266163,1683
1718.3388904178469,1683
1720.3473410294214,1635
1722.3552833580516,1606
1724.3627176609807,1619
1726.3696441955308,1617
1728.3760632191033,1625
1730.3819749891782,1600
1732.3873797633146,1602
1734.3922777991502,1643
1736.3966693544012,1586
1738.4005546868639,1578
1740.4039340544127,1614
1742.406807715001,1564
1744.4091759266616,1594
1746.4110389475054,1625
1748.4123970357223,1534
1750.413250449582,1553
1752.4135994474318,1579
1754.4134442876993,1568
1756.4127852288902,1559
1758.4116225295893,1576
1760.4099564484595,1548
1762.407787244244,1559
1764.405115175764,1486
1766.4019405019203,1594
1768.3982634816916,1521
1770.3940843741357,1526
1772.3894034383907,1551
1774.3842209336717,1553
1776.378537119274,1538
1778.372352254571,1490
1780.3656665990156,1493
1782.3584804121397,1521
1784.3507939535534,1515
1786.3426074829463,1570
1788.3339212600863,1571
1790.3247355448211,1526
1792.3150505970766,1496
1794.3048666768573,1518
1796.2941840442477,1541
1798.2830029594106,1513
1800.2713236825884,1535
1802.2591464741004,1491
1804.2464715943465,1513
1806.2332993038058,1523
1808.2196298630352,1567
1810.2054635326708,1488
1812.190800573428,1443
1814.175641246101,1559
1816.1599858115628,1498
1818.1438345307652,1413
1820.127187664738,1481
1822.1100454745924,1509
1824.092408221516,1469
1826.0742761667766,1536
1828.055649571721,1496
1830.0365286977735,1491
1832.0169138064398,1559
1833.9968051593014,1449
1835.9762030180214,1467
1837.9551076443408,1491
1839.9335193000788,1508
1841.9114382471344,1496
1843.888864747485,1539
1845.8657990631878,1507
1847.842241456378,1476
1849.8181921892697,1490
1851.7936515241558,1441
1853.7686197234098,1484
1855.7430970494815,1454
1857.7170837649014,1489
1859.6905801322787,1503
1861.6635864143004,1485
1863.6361028737338,1550
1865.608129773424,1504
1867.5796673762961,1488
1869.5507159453537,1503
1871.521275743678,1532
1873.4913470344313,1518
1875.4609300808534,1547
1877.4300251462632,1511
1879.3986324940588,1481
1881.366752387717,1540
1883.3343850907936,1564
1885.3015308669228,1518
1887.268189979819,1489
1889.2343626932739,1484
1891.2000492711595,1481
1893.1652499774254,1492
1895.1299650761011,1557
1897.0941948312952,1493
1899.0579395071945,1486
1901.0211993680641,1563
1902.98397467825,1513
1904.9462657021745,1521
1906.9080727043415,1569
1908.869395949332,1567
1910.8302357018065,1565
1912.790592226504,1547
1914.7504657882428,1521
1916.7098566519212,1571
1918.6687650825133,1527
1920.6271913450764,1562
1922.5851357047422,1541
1924.5425984267245,1553
1926.499579776314,1473
1928.4560800188833,1506
1930.4120994198802,1545
1932.367638244833,1530
1934.32269675935,1456
1936.2772752291175,1511
1938.231373919899,1518
1940.1849930975404,1488
1942.1381330279637,1534
1944.0907939771696,1505
1946.0429762112412,1508
1947.9946799963363,1542
1949.9459055986945,1535
1951.896653284633,1487
1953.8469233205478,1546
1955.7967159729142,1553
1957.7460315082863,1547
1959.6948701932974,1452
1961.6432322946594,1505
1963.5911180791632,1568
1965.5385278136787,1546
1967.4854617651545,1521
1969.4319202006182,1548
1971.377903387176,1546
1973.3234115920136,1495
1975.268445082395,1447
1977.2130041256642,1510
1979.1570889892423,1475
1981.1006999406304,1473
1983.04383724741,1516
1984.986501177238,1411
1986.928691997853,1519
1988.8704099770712,1545
1990.811655382789,1559
1992.7524284829801,1474
1994.692729545698,1466
1996.6325588390755,1550
1998.5719166313224,1494
2000.5108031907307,1517
2002.4492187856677,1550
2004.387163684583,1526
2006.3246381560011,1446
2008.2616424685298,1458
2010.1981768908527,1475
2012.1342416917332,1507
2014.069837140014,1466
2016.0049635046162,1426
2017.9396210545406,1514
2019.8738100588666,1470
2021.8075307867502,1496
2023.740783507431,1509
2025.6735684902228,1492
2027.6058860045214,1453
2029.5377363198004,1513
2031.4691197056118,1451
2033.4000364315875,1531
2035.3304867674374,1505
2037.260470982952,1517
2039.189989347998,1419
2041.1190421325232,1457
2043.047629606554,1497
2044.9757520401945,1532
2046.9034097036288,1497
2048.8306028671195,1463
2050.7573318010086,1505
2052.683596775716,1493
2054.609398061742,1491
2056.5347359296647,1531
2058.4596106501403,1525
2060.384022493906,1522
2062.3079717317764,1478
2064.231458634646,1585
2066.1544834734873,1436
2068.077046519352,1484
2069.99914804337,1477
2071.9207883167524,1568
2073.8419676107865,1446
2075.7626861968406,1462
2077.6829443463607,1509
2079.6027423308715,1471
2081.522080421977,1449
2083.440958891362,1428
2085.359378010786,1461
2087.2773380520907,1469
2089.194839287196,1454
2091.111881988101,1434
2093.0284664268825,1489
2094.9445928756973,1511
2096.86026160678,1465
2098.775472892446,1493
2100.690227005088,1454
2102.604524217178,1477
2104.5183648012676,1456
2106.431749029985,1487
2108.34467717604,1467
2110.2571495122206,1464
2112.169166311393,1480
2114.080727846503,1503
2115.9918343905747,1457
2117.902486216711,1511
2119.8126835980956,1458
2121.722426807987,1504
2123.6317161197285,1461
2125.5405518067364,1421
2127.448934142509,1531
2129.356863400624,1552
2131.264339854737,1534
2133.1713637785815,1522
2135.077935445972,1509
2136.9840551308002,1470
2138.889723107037,1470
2140.7949396487334,1516
2142.699705030018,1475
2144.6040195250994,1493
2146.507883408264,1514
2148.4112969538774,1518
2150.3142604363848,1498
2152.2167741303097,1439
2154.1188383102535,1445
2156.0204532508997,1472
2157.9216192270064,1527
2159.822336513414,1477
2161.7226053850413,1458
2163.622426116884,1497
2165.5217989840185,1451
2167.4207242616,1475
2169.319202224862,1530
2171.2172331491165,1534
2173.1148173097563,1532
2175.0119549822507,1471
2176.90864644215,1527
2178.8048919650823,1507
2180.7006918267534,1422
2182.596046302952,1492
2184.4909556695407,1545
2186.3854202024645,1504
2188.279440177746,1479
2190.173015871487,1462
2192.066147559868,1482
2193.958835519149,1504
2195.851080025667,1435
2197.7428813558417,1445
2199.6342397861667,1509
2201.5251555932186,1456
2203.415629053651,1486
2205.3056604441986,1513
2207.19525004167,1442
2209.084398122958,1521
2210.9731049650327,1532
2212.861370844941,1479
2214.749196039812,1518
2216.636580826851,1488
2218.523525483344,1464
2220.410030286655,1467
2222.296095514226,1520
2224.1817214435805,1507
2226.066908352319,1513
2227.951656518121,1527
2229.835966218746,1492
2231.71983773203,1483
2233.6032713358913,1527
2235.486267308324,1484
2237.3688259274036,1538
2239.2509474712824,1453
2241.132632218193,1481
2243.013880446447,1468
2244.8946924344323,1520
2246.7750684606203,1495
2248.6550088035574,1487
2250.534513741871,1483
2252.413583554265,1494
2254.292218519526,1502
2256.170418916517,1480
2258.0481850241786,1468
2259.925517121534,1500
2261.8024154876825,1388
2263.678880401803,1438
2265.5549121431536,1518
2267.430510991071,1500
2269.305677224971,1531
2271.180411124348,1531
2273.0547129687766,1513
2274.9285830379076,1555
2276.8020216114737,1483
2278.6750289692845,1558
2280.5476053912294,1597
2282.4197511572766,1479
2284.2914665474727,1506
2286.162751841943,1457
2288.0336073208937,1510
2289.904033264608,1480
2291.774029953448,1510
2293.6435976678554,1475
2295.5127366883517,1478
2297.381447295534,1480
2299.2497297700825,1501
2301.1175843927526,1459
2302.9850114443825,1526
2304.852011205885,1471
2306.7185839582553,1553
2308.5847299825664,1473
2310.4504495599676,1522
2312.3157429716925,1559
2314.1806104990483,1459
2316.0450524234247,1471
2317.9090690262888,1518
2319.772660589186,1507
2321.635827393742,1504
2323.498569721661,1520
2325.3608878547248,1481
2327.2227820747967,1617
2329.0842526638157,1535
2330.945299903803,1554
2332.805924076857,1598
2334.6661254651535,1516
2336.525904350951,1538
2338.3852610165827,1533
2340.244195744464,1540
2342.102708817088,1505
2343.9608005170253,1531
2345.8184711269287,1500
2347.675720929526,1500
2349.532550207628,1521
2351.38895924412,1476
2353.24494832197,1512
2355.100517724223,1512
2356.955667734004,1508
2358.810398634514,1551
2360.664710709037,1480
2362.5186042409337,1518
2364.3720795136437,1546
2366.225136810686,1551
2368.0777764156583,1539
2369.929998612237,1548
2371.7818036841777,1512
2373.633191915315,1598
2375.484163589562,1568
2377.3347189909114,1513
2379.184858403434,1547
2381.03458211128,1555
2382.8838903986775,1539
2384.732783549936,1576
2386.5812618494406,1569
2388.4293255816588,1529
2390.2769750311327,1573
2392.1242104824883,1628
2393.971032220427,1585
2395.8174405297295,1575
2397.6634356952563,1566
2399.509018001947,1525
2401.3541877348193,1567
2403.1989451789705,1521
2405.043290619576,1563
2406.8872243418905,1537
2408.730746631247,1576
2410.5738577730594,1519
2412.4165580528183,1592
2414.258847756095,1634
2416.100727168537,1567
2417.9421965758734,1602
2419.783256263912,1552
2421.623906518538,1584
2423.4641476257157,1537
2425.303979871491,1555
2427.143403541984,1583
2428.9824189233977,1599
2430.821026302012,1602
2432.6592259641866,1583
2434.497018196361,1636
2436.33440328505,1614
2438.171381516851,1549
2440.00795317844,1530
2441.844118556569,1578
2443.6798779380724,1628
2445.5152316098606,1571
2447.3501798589255,1602
2449.1847229723357,1615
2451.0188612372403,1567
2452.8525949408663,1562
2454.6859243705203,1610
2456.518849813587,1634
2458.3513715575314,1634
2460.183489889895,1527
2462.015205098301,1568
2463.8465174704493,1570
2465.67742729412,1598
2467.5079348571717,1571
2469.338040447542,1536
2471.1677443532476,1584
2472.9970468623833,1594
2474.825948263123,1548
2476.6544488437207,1633
2478.482548892508,1600
2480.310248697896,1520
2482.137548548374,1569
2483.9644487325118,1524
2485.790949538956,1587
2487.617051256433,1603
2489.44275417375,1590
2491.26805857979,1632
2493.0929647635157,1592
2494.917473013971,1599
2496.741583620276,1551
2498.5652968716304,1579
2500.3886130573137,1571
2502.2115324666834,1558
2504.0340553891765,1589
2505.856182114308,1627
2507.6779129316733,1593
2509.499248130945,1559
2511.3201880018764,1608
2513.140732834298,1627
2514.9608829181198,1601
2516.780638543331,1647
2518.6,1580
2520.418967578273,1615
2522.237541568376,1556
2524.0557222606144,1609
2525.8735099453706,1690
2527.6909049131086,1683
2529.507907454368,1583
2531.32451785977,1626
2533.140736420014,1674
2534.9565634258774,1698
2536.771999168218,1670
2538.5870439379714,1594
2540.4016980261526,1670
2542.2159617238544,1665
2544.02983532225,1586
2545.8433191125914,1623
2547.656413386209,1695
2549.4691184345115,1710
2551.2814345489874,1707
2553.093362021204,1678
2554.904901142808,1714
2556.716052205523,1696
2558.526815501153,1711
2560.3371913215824,1750
2562.147179958771,1763
2563.956781704761,1737
2565.7659968516705,1816
2567.5748256916986,1757
2569.3832685171224,1765
2571.1913256202984,1715
2572.9989972936614,1805
2574.806283829725,1725
2576.613185521084,1776
2578.4197026604074,1808
2580.2258355404483,1792
2582.031584454035,1747
2583.836949694077,1801
2585.6419315535613,1825
2587.4465303255533,1817
2589.2507463032002,1820
2591.0545797797245,1830
2592.8580310484303,1882
2594.6611004026995,1910
2596.463788135992,1885
2598.266094541849,1885
2600.0680199138874,1896
2601.869564545807,1872
2603.670728731383,1970
2605.4715127644704,1828
2607.2719169390048,1855
2609.071941548998,1820
2610.8715868885433,1849
2612.670853251811,1856
2614.469740933052,1870
2616.268250226594,1871
2618.0663814268455,1880
2619.864134828292,1901
2621.6615107255006,1865
2623.458509413115,1836
2625.2551311858597,1840
2627.0513763385347,1878
2628.8472451660223,1867
2630.6427379632833,1820
2632.4378550253564,1795
2634.232596647359,1872
2636.026963124488,1821
2637.8209547520187,1808
2639.6145718253065,1794
2641.407814639785,1818
2643.200683490966,1790
2644.9931786744414,1782
2646.7853004858807,1762
2648.577049221034,1748
2650.3684251757277,1751
2652.1594286458712,1748
2653.9500599274484,1733
2655.740319316525,1698
2657.5302071092437,1663
2659.3197236018286,1730
2661.10886909058,1667
2662.8976438718782,1748
2664.686048242183,1670
2666.4740824980327,1667
2668.2617469360443,1673
2670.0490418529134,1709
2671.8359675454153,1684
2673.622524310403,1631
2675.408712444811,1641
2677.1945322456495,1644
2678.979984010009,1634
2680.76506803506,1642
2682.5497846180497,1578
2684.334134056306,1639
2686.1181166472343,1662
2687.9017326883213,1592
2689.6849824771293,1662
2691.4678663113013,1599
2693.2503844885596,1656
2695.032537306705,1562
2696.8143250636167,1587
2698.5957480572542,1601
2700.3768065856534,1557
2702.1575009469316,1570
2703.937831439283,1526
2705.717798360982,1584
2707.4974020103837,1539
2709.276642685917,1659
2711.055520686095,1517
2712.834036309506,1557
2714.612189854819,1548
2716.389981620782,1533
2718.1674119062204,1537
2719.944481010041,1606
2721.721189231226,1542
2723.4975368688415,1474
2725.273524222027,1504
2727.0491515900053,1490
2728.824419272075,1519
2730.5993275676146,1525
2732.3738767760838,1478
2734.148067197016,1564
2735.921899130031,1518
2737.6953728748194,1522
2739.468488731156,1529
2741.2412469988926,1533
2743.0136479779617,1479
2744.785691968372,1526
2746.5573792702116,1544
2748.3287101836504,1501
2750.099685008934,1531
2751.870304046388,1520
2753.640567596418,1553
2755.4104759595057,1582
2757.1800294362156,1495
2758.949228327187,1538
2760.7180729331412,1501
2762.486563554877,1547
2764.254700493272,1516
2766.022484049284,1526
2767.789914523947,1533
2769.5569922183786,1519
2771.3237174337705,1507
2773.090090471394,1501
2774.8561116326036,1577
2776.6217812188274,1532
2778.3870995315756,1478
2780.1520668724356,1517
2781.9166835430747,1510
2783.6809498452394,1486
2785.444866080754,1539
2787.2084325515225,1524
2788.971649559527,1523
2790.73451740683,1486
2792.4970363955713,1511
2794.2592068279705,1535
2796.0210290063264,1535
2797.7825032330147,1513
2799.543629810493,1474
2801.304409041296,1508
2803.0648412280366,1490
2804.8249266734088,1510
2806.5846656801846,1545
2808.344058551212,1499
2810.1031055894246,1475
2811.8618070978273,1471
2813.6201633795085,1522
2815.378174737636,1559
2817.1358414754536,1547
2818.893163896285,1504
2820.6501423035334,1525
2822.4067770006814,1486
2824.1630682912883,1505
2825.9190164789957,1490
2827.6746218675207,1544
2829.429884760661,1470
2831.184805462294,1463
2832.9393842763743,1559
2834.693621506936,1540
2836.4475174580916,1510
2838.201072434034,1499
2839.954286739034,1488
2841.707160677441,1526
2843.459694553685,1469
2845.2118886722724,1531
2846.96374333779,1514
2848.7152588549034,1449
2850.4664355283567,1500
2852.217273662973,1496
2853.9677735636546,1542
2855.7179355353833,1506
2857.4677598832186,1563
2859.217246912299,1498
2860.9663969278427,1537
2862.715210235146,1463
2864.4636871395846,1502
2866.211827946614,1513
2867.9596329617652,1526
2869.7071024906536,1526
2871.4542368389684,1484
2873.20103631248,1473
2874.947501217038,1544
2876.6936318585695,1534
2878.4394285430812,1528
2880.1848915766604,1471
2881.9300212654707,1494
2883.6748179157553,1562
2885.4192818338374,1484
2887.1634133261173,1473
2888.907212699077,1450
2890.6506802592744,1455
2892.393816313348,1514
2894.1366211680142,1537
2895.8790951300693,1467
2897.621238506388,1522
2899.363051603925,1519
2901.1045347297118,1498
2902.8456881908596,1442
2904.58651229456,1488
2906.327007348081,1448
2908.067173658772,1483
2909.8070115340597,1520
2911.5465212814497,1478
2913.285703208527,1510
2915.0245576229563,1544
2916.7630848324807,1475
2918.5012851449196,1463
2920.2391588681758,1531
2921.976706310227,1484
2923.7139277791334,1486
2925.4508235830313,1482
2927.187394030137,1484
2928.923639428745,1524
2930.6595600872306,1507
2932.395156314046,1517
2934.1304284177218,1480
2935.8653767068713,1480
2937.6000014901815,1510
2939.3343030764227,1476
2941.068281774442,1513
2942.8019378931644,1524
2944.5352717415976,1490
2946.2682836288236,1529
2948.0009738640065,1575
2949.7333427563885,1502
2951.465390615289,1504
2953.1971177501086,1472
2954.9285244703265,1481
2956.6596110855,1499
2958.3903779052657,1516
2960.1208252393385,1521
2961.8509533975125,1460
2963.5807626896617,1500
2965.3102534257378,1500
2967.0394259157715,1536
2968.768280469873,1437
2970.496817398232,1454
2972.2250370111146,1460
2973.952939618869,1406
2975.6805255319196,1500
2977.4077950607707,1516
2979.134748516006,1528
2980.861386208289,1530
2982.587708448359,1507
2984.313715547037,1529
2986.039407815222,1489
2987.764785563891,1498
2989.489849104102,1561
2991.2145987469908,1533
2992.9390348037705,1516
2994.6631575857346,1521
2996.3869674042576,1443
2998.1104645707887,1413
2999.83364939686,1447
3001.5565221940783,1476
3003.2790832741334,1491
3005.0013329487924,1522
3006.7232715298996,1462
3008.4448993293804,1428
3010.166216659239,1478
3011.887223831558,1533
3013.607921158498,1478
3015.3283089522993,1496
3017.0483875252826,1477
3018.7681571898443,1548
3020.4876182584626,1420
3022.2067710436927,1489
3023.9256158581707,1510
3025.644153014609,1487
3027.362382825801,1532
3029.0803056046193,1463
3030.797921664012,1495
3032.5152313170106,1430
3034.2322348767225,1502
3035.9489326563353,1390
3037.665324969115,1523
3039.3814121284063,1513
3041.097194447633,1484
3042.812672240299,1464
3044.5278458199855,1507
3046.2427155003525,1515
3047.9572815951406,1515
3049.671544418167,1561
3051.38550428333,1528
3053.0991615046073,1521
3054.812516396051,1484
3056.5255692717974,1477
3058.2383204460575,1529
3059.9507702331257,1505
3061.662918947372,1520
3063.3747669032446,1528
3065.0863144152736,1490
3066.7975617980674,1464
3068.508509366309,1469
3070.219157434767,1486
3071.9295063182844,1484
3073.639556331785,1506
3075.3493077902704,1527
3077.058761008821,1532
3078.7679163025964,1519
3080.476773986837,1469
3082.1853343768594,1559
3083.89359778806,1509
3085.6015645359153,1494
3087.3092349359786,1471
3089.016609303884,1521
3090.7236879553434,1584
3092.4304712061476,1482
3094.136959372166,1482
3095.843152769349,1507
3097.5490517137237,1511
3099.2546565213966,1530
3100.959967508554,1478
3102.66498499146,1532
3104.3697092864577,1467
3106.0741407099695,1528
3107.778279578498,1508
3109.482126208622,1512
3111.1856809170004,1516
3112.8889440203716,1491
3114.5919158355528,1524
3116.294596679439,1498
3117.996986869006,1538
3119.6990867213062,1574
3121.4008965534726,1455
3123.102416682717,1518
3124.803647426329,1501
3126.5045891016784,1529
3128.205242026213,1539
3129.90560651746,1515
3131.605682893025,1474
3133.3054714705922,1510
3135.0049725679282,1534
3136.7041865028714,1458
3138.4031135933465,1463
3140.101754157353,1486
3141.800108512971,1503
3143.498176978357,1521
3145.1959598717494,1547
3146.8934575114636,1527
3148.5906702158954,1495
3150.2875983035183,1531
3151.9842420928853,1498
3153.680601902627,1472
3155.376678051456,1489
3157.07247085816,1521
3158.767980641609,1439
3160.463207720748,1509
3162.158152414606,1458
3163.8528150422862,1486
3165.5471959229726,1515
3167.2412953759303,1468
3168.9351137204976,1475
3170.628651276098,1478
3172.3219083622307,1490
3174.014885298474,1489
3175.707582404485,1523
3177.4000000000005,1542
3179.092138404835,1512
3180.7839979388846,1481
3182.47557892212,1489
3184.166881674594,1511
3185.8579065164386,1485
3187.5486537678626,1489
3189.2391237491547,1532
3190.9293167806827,1512
3192.6192331828934,1554
3194.3088732763117,1488
3195.998237381542,1466
3197.687325819268,1509
3199.376138910251,1520
3201.064676975334,1505
3202.7529403354347,1527
3204.4409293115523,1435
3206.1286442247647,1480
3207.816085396229,1485
3209.5032531471825,1520
3211.190147798936,1448
3212.8767696728846,1543
3214.5631190905015,1491
3216.2491963733373,1452
3217.9350018430214,1458
3219.6205358212637,1478
3221.305798629851,1417
3222.990790590651,1445
3224.6755120256103,1442
3226.359963256751,1432
3228.0441446061795,1427
3229.7280563960758,1436
3231.411698948703,1491
3233.0950725863995,1466
3234.778177631587,1445
3236.461014406761,1436
3238.1435832345005,1468
3239.8258844374595,1458
3241.507918338374,1467
3243.1896852600576,1477
3244.8711855254023,1473
3246.552419457381,1428
3248.233387379042,1456
3249.914089613516,1487
3251.59452648401,1515
3253.274698313813,1462
3254.95460542629,1452
3256.6342481448855,1485
3258.313626793125,1407
3259.9927416946084,1471
3261.6715931730196,1449
3263.3501815521176,1482
3265.0285071557437,1432
3266.706570307815,1455
3268.3843713323286,1500
3270.0619105533615,1486
3271.739188295068,1450
3273.4162048816834,1464
3275.0929606375184,1464
3276.769455886966,1480
3278.445690954498,1504
3280.1216661646613,1541
3281.797381842087,1475
3283.4728383114807,1451
3285.1480358976296,1488
3286.8229749253996,1438
3288.4976557197333,1364
3290.172078605655,1436
3291.846243908266,1487
3293.5201519527463,1452
3295.193803064357,1508
3296.8671975684374,1427
3298.5403357904024,1432
3300.21321805575,1396
3301.8858446900567,1464
3303.558216018975,1443
3305.23033236824,1468
3306.9021940636603,1480
3308.57380143113,1496
3310.2451547966184,1475
3311.916254486174,1474
3313.5871008259246,1456
3315.2576941420766,1491
3316.9280347609147,1483
3318.5981230088046,1462
3320.2679592121895,1477
3321.9375436975924,1427
3323.606876791612,1463
3325.27595882093,1444
3326.944790112305,1399
3328.6133709925753,1451
3330.2817017886573,1432
3331.949782827547,1421
3333.617614436319,1499
3335.2851969421245,1417
3336.952530672199,1420
3338.619615953853,1437
3340.286453114475,1536
3341.9530424815357,1486
3343.619384382583,1524
3345.2854791452437,1507
3346.951327097224,1505
3348.6169285663073,1458
3350.2822838803577,1491
3351.947393367319,1501
3353.61225735521,1491
3355.2768761721345,1494
3356.9412501462693,1474
3358.605379605873,1478
3360.2692648792827,1499
3361.9329062949146,1465
3363.596304181263,1428
