CollectionTime,6/26/2024 3:13:43 PM
ExposureUsed,3
CalibratedSpectrum
-962.7078968117929,816
-959.9714848408522,891
-957.2358232597828,843
-954.5009119013725,842
-951.7667505983302,884
-949.0333391832855,891
-946.3006774887896,871
-943.5687653473143,908
-940.837602591253,897
-938.1071890529199,893
-935.3775245645503,862
-932.6486089583007,879
-929.9204420662485,903
-927.1930237203925,890
-924.4663537526524,866
-921.7404319948689,907
-919.0152582788041,924
-916.2908324361409,929
-913.5671542984834,919
-910.8442236973568,893
-908.1220404642074,888
-905.4006044304027,893
-902.679915427231,913
-899.959973285902,903
-897.2407778375464,919
-894.5223289132158,900
-891.8046263438832,872
-889.0876699604426,886
-886.3714595937089,849
-883.6559950744183,853
-880.9412762332282,904
-878.2273029007168,852
-875.5140749073835,872
-872.8015920836489,859
-870.0898542598545,854
-867.3788612662631,843
-864.6686129330585,865
-861.9591090903457,867
-859.2503495681506,800
-856.5423341964203,825
-853.8350628050229,845
-851.1285352237478,863
-848.4227512823054,877
-845.7177108103272,863
-843.0134136373656,885
-840.3098595928943,856
-837.6070485063082,878
-834.9049802069229,850
-832.2036545239757,934
-829.5030712866244,852
-826.8032303239481,879
-824.1041314649472,854
-821.4057745385428,851
-818.7081593735775,815
-816.0112857988148,834
-813.3151536429393,807
-810.6197627345566,837
-807.9251129021936,862
-805.2312039742981,867
-802.5380357792392,840
-799.8456081453069,847
-797.1539209007124,874
-794.462973873588,824
-791.772766891987,888
-789.083299783884,872
-786.3945723771743,861
-783.7065844996748,826
-781.0193359791231,808
-778.3328266431781,878
-775.6470563194197,883
-772.9620248353489,862
-770.2777320183878,850
-767.5941776958798,874
-764.9113616950891,869
-762.2292838432011,874
-759.5479439673222,865
-756.8673418944801,853
-754.1874774516235,850
-751.5083504656222,885
-748.8299607632671,905
-746.15230817127,920
-743.475392516264,959
-740.7992136248035,876
-738.1237713233636,890
-735.4490654383407,893
-732.7750957960521,908
-730.1018622227365,888
-727.4293645445534,905
-724.7576025875837,902
-722.0865761778291,927
-719.4162851412126,899
-716.7467293035781,909
-714.0779084906909,891
-711.409822528237,944
-708.7424712418238,964
-706.0758544569796,905
-703.4099719991541,902
-700.7448236937178,975
-698.0804093659622,996
-695.4167288411002,939
-692.7537819442656,938
-690.0915685005134,977
-687.4300883348199,922
-684.7693412720819,955
-682.1093271371178,933
-679.4500457546669,908
-676.7914969493897,923
-674.1336805458676,946
-671.4765963686034,956
-668.8202442420206,963
-666.1646239904642,1005
-663.5097354382001,1021
-660.8555784094151,925
-658.2021527282176,961
-655.5494582186366,1015
-652.8974947046223,1045
-650.2462620100463,1010
-647.5957599587009,1015
-644.9459883742998,1012
-642.2969470804776,1040
-639.6486359007902,1021
-637.0010546587141,1054
-634.3542031776476,1021
-631.7080812809096,1063
-629.0626887917401,1013
-626.4180255333008,981
-623.7740913286734,989
-621.1308860008619,1002
-618.4884093727904,1000
-615.8466612673046,976
-613.2056415071715,967
-610.5653499150785,1005
-607.9257863136347,988
-605.28695052537,969
-602.6488423727357,980
-600.0114616781036,958
-597.3748082637674,994
-594.7388819519412,1016
-592.1036825647604,1042
-589.4692099242818,1038
-586.8354638524829,979
-584.2024441712624,1010
-581.5701507024403,979
-578.9385832677575,1011
-576.3077416888759,1073
-573.6776257873787,1061
-571.0482353847704,1073
-568.4195703024757,1067
-565.7916303618415,1099
-563.164415384135,1091
-560.5379251905453,1023
-557.9121596021815,982
-555.2871184400748,1059
-552.6628015251767,1079
-550.0392086783606,1016
-547.4163397204204,1034
-544.794194472071,1044
-542.1727727539491,1107
-539.5520743866118,1071
-536.9320991905377,1081
-534.3128469861261,1128
-531.6943175936979,1194
-529.0765108334947,1125
-526.4594265256793,1242
-523.8430644903358,1355
-521.2274245474689,1544
-518.612506517005,1656
-515.9983102187913,1648
-513.3848354725959,1766
-510.77208209810846,1882
-508.16004991493924,1935
-505.5487387426199,1969
-502.9381484006032,2093
-500.3282787082628,2208
-497.71912948489364,2263
-495.1107005497117,2331
-492.5029917218539,2326
-489.8960028203786,2088
-487.28973366426493,1860
-484.68418407241325,1664
-482.07935386364494,1529
-479.47524285670266,1452
-476.87185087025,1446
-474.2691777228715,1483
-471.66722323307334,1420
-469.0659872192821,1315
-466.4654694998459,1308
-463.86566989303384,1283
-461.26658821703614,1330
-458.66822428996414,1314
-456.07057792985,1305
-453.4736489546475,1328
-450.877437182231,1309
-448.28194243039627,1285
-445.68716451686,1299
-443.09310325926003,1258
-440.49975847515555,1184
-437.9071299820263,1197
-435.31521759727354,1281
-432.72402113821954,1254
-430.13354042210767,1212
-427.5437752661022,1298
-424.95472548728867,1296
-422.36639090267386,1340
-419.7787713291855,1317
-417.1918665836721,1314
-414.60567648290385,1279
-412.0202008435715,1294
-409.4354394822874,1367
-406.8513922155845,1312
-404.26805885991723,1294
-401.685439231661,1308
-399.103533147112,1369
-396.522340422488,1376
-393.9418608739278,1315
-391.3620943174908,1346
-388.7830405691583,1356
-386.2046994448317,1269
-383.6270707603344,1221
-381.05015433141045,1179
-378.473949973725,1042
-375.8984575028645,966
-373.32367673433623,894
-370.74960748356875,812
-368.1762495659117,813
-365.60360279663576,762
-363.03166699093265,711
-360.4604419639154,677
-357.8899275306178,604
-355.32012350599507,603
-352.7510297049233,579
-350.1826459421999,598
-347.61497203254316,555
-345.04800779059235,529
-342.4817530309082,494
-339.91620756797226,504
-337.35137121618743,533
-334.7872437898774,552
-332.22382510328725,565
-329.66111497058273,566
-327.09911320585127,621
-324.53781962310075,596
-321.9772340362607,558
-319.4173562591816,648
-316.8581861056348,707
-314.2997233893127,667
-311.7419679238294,641
-309.1849195227194,627
-306.62857799943856,570
-304.0729431673641,565
-301.51801483979375,554
-298.963792829947,611
-296.41027695096386,646
-293.85746701590574,618
-291.3053628377552,673
-288.7539642294155,662
-286.2032710037115,649
-283.65328297338897,655
-281.1039999511146,725
-278.5554217494762,807
-276.007548180983,736
-273.4603790580651,709
-270.9139141930734,654
-268.3681533982807,632
-265.8230964858798,675
-263.27874326798565,708
-260.7350935566336,794
-258.1921471637804,811
-255.6499039013039,871
-253.10836358100266,755
-250.56752601459698,740
-248.02739101372765,765
-245.48795838995704,795
-242.94922795476816,745
-240.41119951956557,768
-237.8738728956746,824
-235.33724789434166,901
-232.80132432673452,974
-230.2661020039418,1034
-227.73158073697357,896
-225.19776033676033,829
-222.66464061415422,942
-220.1322213799284,860
-217.60050244477725,849
-215.06948361931552,863
-212.53916471408013,892
-210.00954553952818,798
-207.48062590603843,799
-204.9524056239104,908
-202.4248845033651,959
-199.8980623545441,906
-197.37193898751036,796
-194.84651421224817,915
-192.32178783866232,1054
-189.79775967657952,1060
-187.27442953574644,929
-184.7517972258321,906
-182.2298625564256,941
-179.7086253370378,983
-177.18808537710026,994
-174.66824248596583,1111
-172.14909647290835,1183
-169.6306471471229,1113
-167.11289431772548,999
-164.59583779375328,1038
-162.07947738416453,1111
-159.5638128978386,1097
-157.04884414357605,1211
-154.53457093009854,1291
-152.02099306604828,1182
-149.50811035998936,1117
-146.99592262040665,1255
-144.48442965570587,1263
-141.97363127421409,1215
-139.46352728417958,1271
-136.95411749377126,1227
-134.44540171107985,1317
-131.93737974411636,1368
-129.43005140081357,1439
-126.92341648902493,1475
-124.41747481652521,1430
-121.91222619101006,1369
-119.40767042009657,1418
-116.90380731132257,1421
-114.40063667214702,1510
-111.8981583099503,1580
-109.3963720320337,1775
-106.89527764561933,1503
-104.39487495785067,1693
-101.89516377579241,1759
-99.39614390642998,1837
-96.89781515667039,1847
-94.40017733334128,2188
-91.90323024319173,2101
-89.40697369289148,2174
-86.91140748903172,1940
-84.41653143812482,1748
-81.92234534660395,1976
-79.42884902082358,1954
-76.93604226705907,2141
-74.4439248915071,2254
-71.95249670028534,1943
-69.46175749943245,2427
-66.97170709490854,2545
-64.48234529259423,2830
-61.99367189829195,2752
-59.50568671772464,2753
-57.01838955653636,3363
-54.53178022029283,3210
-52.045858514480074,3572
-49.560624244506016,4277
-47.07607721569923,4324
-44.59221723330904,4218
-42.10904410250669,3950
-39.62655762838392,4883
-37.14475761595372,5681
-34.66364387015028,6017
-32.18321619582866,6340
-29.70347439776515,6666
-27.224418280657005,9123
-24.74604764912317,12919
-22.26836230770266,18132
-19.7913620608565,29311
-17.315046712966478,43696
-14.83941606833514,48325
-12.36446993118659,65039
-9.89020810566592,65039
-7.416630395839093,65039
-4.94373660569363,65039
-2.471526539137585,65039
-6.821210263296962E-13,65039
2.47084320796705,65039
4.941003281093458,65039
7.410480415786196,65039
9.879274808531363,65039
12.347386655893956,65039
14.814816154518212,65039
17.28156350112681,65039
19.74762889252179,65039
22.21301252558385,65039
24.67771459727237,65039
27.141735304626195,65039
29.605074844762612,24195
32.06773341487792,14935
34.52971121224755,12892
36.99100843422559,12892
39.45162527824516,11715
41.91156194181792,9936
44.370818622535126,11552
46.82939551806646,12019
49.287292826160524,12203
51.74451074464503,10653
54.201049471426245,7009
56.65690920448981,5123
59.112090141899785,4736
61.56659248179983,4746
64.02041642241159,4557
66.4735621620365,4034
68.92602989905402,2989
71.37781983192338,3073
73.82893215918205,3581
76.27936707944684,3550
78.72912479141326,3516
81.17820549385567,3213
83.62660938562783,3175
86.07433666566146,2976
88.5213875329681,3216
90.96776218663751,3092
93.41346082583925,2717
95.85848364982041,2036
98.30283085790859,2078
100.7465026495089,2361
103.18949922410604,2473
105.63182078126385,2281
108.07346752062438,2098
110.51443964190923,2023
112.95473734491827,1744
115.39436082953114,1719
117.83331029570547,1777
120.27158594347827,2128
122.7091879729652,1762
125.1461165843615,1709
127.58237197794062,1584
130.01795435405518,1495
132.4528639131364,1544
134.88710085569494,1651
137.32066538231982,1615
139.75355769367923,1537
142.1857779905207,1467
144.61732647366978,1464
147.04820334403132,1480
149.47840880258934,1500
151.90794305040674,1754
154.33680628862487,1954
156.76499871846443,1892
159.19252054122433,1936
161.61937195828352,1945
164.04555317109896,2113
166.47106438120693,2504
168.89590579022217,2702
171.320077599839,2755
173.7435800118302,2877
176.16641322804742,2983
178.58857745042144,2954
181.01007288096173,3086
183.43089972175687,3219
185.85105817497413,3311
188.27054844285988,3276
190.6893707277394,3151
193.10752523201643,3252
195.5250121581745,3371
197.9418317087751,3489
200.3579840864594,3484
202.7734694939469,3474
205.18828813403627,3444
207.6024402096051,3408
210.01592592360964,3369
212.42874547908548,3448
214.84089907914665,3422
217.2523869269868,3277
219.66320922587727,3396
222.0733661791695,3534
224.48285799029293,3354
226.8916848627572,3361
229.29984700014882,3527
231.7073446061355,3500
234.11417788446204,3430
236.520347038953,3476
238.92585227351185,3594
241.33069379212054,3719
243.73487179884035,3673
246.1383864978112,3472
248.541238093252,3614
250.9434267894609,3624
253.34495279081432,3698
255.74581630176783,3605
258.1460175268563,3611
260.54555667069314,3597
262.9444339379703,3583
265.3426495334594,3490
267.7402036620107,3489
270.1370965285529,3314
272.53332833809407,3359
274.9288992957214,3262
277.32380960660055,3155
279.718059475976,3139
282.1116491091717,3130
284.5045787115897,3165
286.89684848871195,3197
289.2884586460981,3233
291.67940938938807,3188
294.0697009242996,3142
296.4593334566299,3086
298.84830719225477,2946
301.23662233712923,2968
303.6242790972866,3046
306.01127767884,2983
308.39761828798066,3110
310.78330113097934,3058
313.16832641418534,2893
315.5526943440269,2954
317.9364051270112,2957
320.3194589697242,2898
322.70185607883093,2747
325.0835966610754,2793
327.4646809232805,2714
329.8451090723478,2754
332.2248813152577,2774
334.6039978590701,2687
336.9824589109231,2740
339.36026467803447,2678
341.7374153677,2648
344.113911187295,2627
346.48975234427337,2557
348.8649390461686,2524
351.2394715005918,2569
353.61334991523415,2633
355.9865744978655,2574
358.35914545633375,2641
360.73106299856715,2543
363.10232733257146,2637
365.47293866643247,2547
367.84289720831396,2627
370.2122031664593,2588
372.5808567491905,2520
374.9488581649083,2597
377.31620762209275,2587
379.6829053293021,2625
382.0489514951745,2544
384.4143463284262,2501
386.7790900378528,2418
389.14318283232853,2469
391.50662492080653,2473
393.86941651231916,2415
396.23155781597745,2442
398.5930490409713,2474
400.9538903965696,2492
403.3140820921202,2400
405.6736243370498,2402
408.03251734086336,2406
410.3907613131465,2377
412.74835646356166,2353
415.10530300185144,2413
417.4616011378372,2426
419.81725108141893,2429
422.1722530425758,2364
424.5266072313656,2366
426.880313857925,2425
429.2333731324701,2409
431.58578526529516,2353
433.9375504667738,2329
436.2886689473588,2304
438.63914091758113,2375
440.9889665880513,2295
443.33814616945835,2302
445.68667987257015,2359
448.03456790823395,2342
450.3818104873759,2284
452.72840782100013,2319
455.07436012019105,2330
457.41966759611057,2335
459.7643304600007,2316
462.10834892318155,2329
464.4517231970525,2320
466.79445349309174,2407
469.1365400228566,2364
471.4779829979826,2407
473.81878263018564,2390
476.15893913125876,2410
478.4984527130747,2370
480.8373235875855,2466
483.17555196682144,2496
485.5131380628919,2548
487.8500820879857,2660
490.1863842543697,2932
492.52204477439034,3127
494.8570638604725,3411
497.1914417251204,3544
499.52517858091653,3842
501.85827464052306,4011
504.19073011668036,4000
506.5225452222086,3952
508.85372017000566,3746
511.18425517304956,3651
513.514150444396,3753
515.8434061971808,4416
518.1720226446176,4973
520.4999999999999,5503
522.8273384766991,5822
525.1540382881666,5865
527.480099647932,5703
529.8055227696037,4869
532.1303078668694,3700
534.454455153496,2813
536.777964843328,2507
539.1008371502907,2385
541.4230722883866,2318
543.744670471698,2295
546.0656319143858,2202
548.3859568306899,2160
550.7056454349294,2190
553.0246979415016,2092
555.3431145648834,2099
557.6608955196306,2120
559.978041020377,2086
562.2945512818363,2085
564.6104265188006,2159
566.9256669461412,2165
569.2402727788082,2085
571.5542442318302,2026
573.8675815203156,2061
576.1802848594508,2048
578.4923544645015,2104
580.8037905508126,2080
583.114593333807,2076
585.4247630289875,2084
587.7342998519354,2055
590.0432040183106,2107
592.3514757438526,2044
594.6591152443794,2110
596.9661227357875,2035
599.2724984340531,2134
601.578242555231,2126
603.8833553154542,2176
606.1878369309362,2192
608.4916876179676,2189
610.7949075929192,2217
613.0974970722403,2149
615.3994562724587,2163
617.7007854101818,2213
620.0014847020951,2076
622.3015543649641,2138
624.6009946156324,2154
626.8998056710224,2076
629.1979877481361,2172
631.4955410640538,2163
633.7924658359349,2124
636.0887622810175,2130
638.3844306166192,2106
640.6794710601358,2199
642.9738838290426,2126
645.2676691408932,2147
647.5608272133207,2112
649.853358264037,2162
652.1452625108324,2156
654.4365401715764,2161
656.7271914642178,2162
659.0172166067838,2147
661.3066158173809,2131
663.5953893141935,2192
665.8835373154867,2219
668.1710600396028,2253
670.4579577049639,2248
672.7442305300709,2154
675.0298787335033,2174
677.3149025339197,2169
679.599302150058,2189
681.8830778007342,2134
684.1662297048437,2197
686.4487580813608,2202
688.7306631493387,2210
691.0119451279091,2192
693.2926042362834,2204
695.5726406937516,2272
697.8520547196814,2148
700.1308465335215,2142
702.4090163547982,2204
704.6865644031171,2162
706.9634908981619,2197
709.2397960596965,2181
711.5154801075631,2135
713.7905432616823,2186
716.0649857420548,2263
718.3388077687592,2214
720.612009561953,2163
722.8845913418733,2121
725.1565533288352,2155
727.427895743234,2243
729.6986188055427,2214
731.9687227363137,2167
734.238207756178,2148
736.5070740858458,2181
738.7753219461066,2144
741.0429515578281,2147
743.3099631419569,2105
745.5763569195191,2148
747.8421331116193,2248
750.1072919394409,2129
752.3718336242467,2174
754.6357583873777,2132
756.8990664502545,2185
759.1617580343765,2132
761.423833361321,2132
763.6852926527457,2124
765.9461361303862,2153
768.206364016058,2126
770.4659765316536,2140
772.7249738991469,2154
774.9833563405886,2194
777.2411240781092,2256
779.4982773339183,2204
781.7548163303044,2174
784.010741289634,2252
786.2660524343538,2221
788.5207499869881,2240
790.7748341701416,2261
793.0283052064964,2214
795.2811633188143,2192
797.5334087299362,2228
799.7850416627813,2237
802.0360623403484,2283
804.2864709857143,2152
806.5362678220353,2182
808.7854530725468,2211
811.0340269605625,2222
813.2819897094754,2220
815.5293415427581,2252
817.77608268396,2176
820.0222133567116,2179
822.2677337847211,2182
824.5126441917765,2164
826.7569448017433,2139
829.0006358385675,2232
831.2437175262731,2226
833.4861900889629,2241
835.7280537508192,2179
837.9693087361026,2207
840.2099552691533,2264
842.4499935743896,2178
844.689423876309,2215
846.9282463994886,2165
849.1664613685833,2184
851.4040690083276,2170
853.6410695435349,2210
855.877463199097,2135
858.1132501999847,2171
860.3484307712487,2196
862.5830051380175,2216
864.8169735254988,2253
867.0503361589791,2262
869.2830932638243,2278
871.5152450654786,2241
873.7467917894654,2229
875.9777336613873,2215
878.2080709069252,2181
880.4378037518389,2233
882.666932421968,2265
884.8954571432301,2280
887.1233781416219,2355
889.3506956432192,2302
891.5774098741766,2316
893.803521060728,2290
896.0290294291852,2323
898.2539352059397,2331
900.4782386174619,2288
902.7019398903011,2326
904.925039251085,2331
907.147536926521,2287
909.3694331433943,2269
911.59072812857,2223
913.8114221089921,2185
916.0315153116827,2305
918.2510079637437,2280
920.4699002923547,2226
922.6881925247761,2196
924.905884888345,2231
927.1229776104793,2273
929.3394709186747,2221
931.555365040506,2305
933.7706602036275,2278
935.9853566357709,2250
938.1994545647489,2244
940.4129542184515,2259
942.6258558248488,2266
944.8381596119883,2246
947.0498658079974,2253
949.2609746410825,2199
951.4714863395287,2169
953.6814011316998,2239
955.8907192460387,2225
958.0994409110671,2207
960.3075663553858,2193
962.5150958076741,2189
964.7220294966913,2148
966.928367651274,2138
969.1341105003388,2112
971.3392582728806,2171
973.5438111979742,2169
975.747769504772,2090
977.9511334225061,2147
980.153903180487,2135
982.3560790081052,2104
984.5576611348289,2084
986.7586497902058,2182
988.9590452038618,2053
991.158847605503,2062
993.3580572249133,2038
995.5566742919558,1992
997.7546990365728,2002
999.952131688785,1971
1002.1489724786926,1918
1004.3452216364743,1875
1006.5408793923874,1909
1008.7359459767691,1934
1010.9304216200343,1897
1013.1243065526781,1879
1015.3176010052733,1944
1017.510305208472,1893
1019.7024193930064,1837
1021.8939437896848,1872
1024.0848786293977,1858
1026.2752241431122,1870
1028.4649805618747,1863
1030.6541481168115,1825
1032.842727039127,1853
1035.0307175601051,1792
1037.2181199111074,1790
1039.4049343235752,1745
1041.591161029029,1824
1043.7768002590683,1787
1045.9618522453698,1757
1048.1463172196918,1821
1050.3301954138697,1852
1052.513487059818,1783
1054.69619238953,1780
1056.8783116350783,1802
1059.0598450286152,1772
1061.2407928023704,1794
1063.4211551886528,1746
1065.6009324198508,1739
1067.780124728432,1774
1069.9587323469414,1783
1072.1367555080046,1776
1074.314194444325,1740
1076.4910493886855,1796
1078.667320573947,1740
1080.843008233051,1736
1083.0181125990161,1744
1085.1926339049414,1720
1087.3665723840027,1726
1089.5399282694575,1797
1091.7127017946405,1697
1093.8848931929647,1770
1096.0565026979243,1720
1098.2275305430899,1633
1100.3979769621128,1715
1102.567842188722,1703
1104.737126456726,1702
1106.9058300000124,1730
1109.0739530525475,1685
1111.2414958483764,1669
1113.4084586216231,1708
1115.5748416064907,1638
1117.7406450372605,1695
1119.9058691482942,1719
1122.0705141740304,1631
1124.2345803489884,1738
1126.3980679077658,1721
1128.5609770850388,1626
1130.7233081155623,1728
1132.8850612341707,1683
1135.0462366757774,1651
1137.2068346753745,1675
1139.3668554680326,1648
1141.526299288901,1608
1143.68516637321,1668
1145.8434569562655,1655
1148.001171273455,1635
1150.158309560244,1649
1152.3148720521767,1632
1154.470858984876,1626
1156.626270594044,1643
1158.7811071154629,1649
1160.9353687849912,1652
1163.089055838569,1670
1165.242168512213,1667
1167.3947070420209,1655
1169.5466716641677,1652
1171.6980626149075,1593
1173.8488801305748,1703
1175.9991244475814,1601
1178.1487958024186,1612
1180.2978944316555,1723
1182.4464205719428,1673
1184.5943744600072,1705
1186.7417563326567,1643
1188.8885664267755,1639
1191.0348049793297,1584
1193.1804722273619,1602
1195.325568407995,1669
1197.4700937584303,1681
1199.614048515948,1653
1201.7574329179074,1662
1203.900247201746,1621
1206.042491604982,1627
1208.1841663652099,1637
1210.3252717201053,1673
1212.465807907422,1635
1214.6057751649923,1668
1216.7451737307279,1620
1218.8840038426192,1595
1221.0222657387353,1624
1223.1599596572241,1641
1225.2970858363137,1668
1227.4336445143094,1634
1229.5696359295966,1599
1231.705060320639,1683
1233.8399179259786,1661
1235.9742089842384,1632
1238.107933734118,1606
1240.2410924143974,1637
1242.373685263935,1635
1244.5057125216676,1659
1246.6371744266116,1662
1248.7680712178621,1651
1250.898403134593,1656
1253.028170416058,1646
1255.1573733015875,1643
1257.2860120305932,1647
1259.4140868425648,1695
1261.54159797707,1636
1263.6685456737569,1678
1265.7949301723515,1702
1267.9207517126597,1664
1270.046010534565,1739
1272.1707068780306,1685
1274.2948409830983,1699
1276.4184130898889,1748
1278.541423438603,1660
1280.6638722695184,1808
1282.785759822993,1667
1284.9070863394636,1777
1287.0278520594447,1738
1289.1480572235314,1806
1291.2677020723963,1796
1293.3867868467923,1834
1295.5053117875495,1688
1297.623277135579,1757
1299.740683131868,1769
1301.8575300174857,1796
1303.973818033578,1827
1306.0895474213703,1746
1308.2047184221678,1798
1310.3193312773528,1873
1312.4333862283888,1829
1314.5468835168163,1842
1316.659823384255,1819
1318.7722060724045,1863
1320.8840318230418,1776
1322.9953008780249,1840
1325.1060134792888,1830
1327.2161698688478,1860
1329.3257702887959,1853
1331.4348149813054,1921
1333.5433041886276,1770
1335.6512381530933,1770
1337.7586171171101,1844
1339.8654413231675,1739
1341.9717110138317,1819
1344.0774264317488,1826
1346.1825878196432,1776
1348.2871954203192,1829
1350.3912494766587,1794
1352.4947502316231,1708
1354.5976979282532,1783
1356.7000928096686,1801
1358.8019351190665,1787
1360.9032250997243,1850
1363.0039629949988,1741
1365.1041490483235,1824
1367.2037835032133,1788
1369.3028666032606,1784
1371.401398592137,1817
1373.4993797135926,1780
1375.5968102114575,1767
1377.6936903296396,1815
1379.7900203121262,1854
1381.8858004029835,1795
1383.9810308463561,1770
1386.075711886469,1824
1388.1698437676241,1777
1390.2634267342032,1773
1392.356461030667,1798
1394.4489469015557,1831
1396.5408845914872,1822
1398.6322743451592,1793
1400.7231164073469,1897
1402.813411022907,1824
1404.903158436773,1842
1406.9923588939578,1824
1409.0810126395531,1804
1411.1691199187303,1775
1413.2566809767386,1826
1415.343696058907,1872
1417.4301654106425,1846
1419.5160892774315,1829
1421.6014679048399,1838
1423.6863015385125,1818
1425.7705904241707,1857
1427.8543348076178,1919
1429.9375349347342,1874
1432.0201910514802,1934
1434.102303403894,1993
1436.1838722380944,1888
1438.2648978002767,1974
1440.3453803367174,1929
1442.4253200937692,1968
1444.5047173178677,2024
1446.5835722555234,2006
1448.6618851533285,1970
1450.739656257952,1972
1452.8168858161434,2055
1454.8935740747306,2062
1456.96972128062,2109
1459.045327680797,2086
1461.120393522327,2097
1463.1949190523528,2186
1465.2689045180973,2156
1467.3423501668608,2200
1469.415256246024,2304
1471.4876230030463,2260
1473.559450685465,2309
1475.6307395408976,2337
1477.7014898170391,2341
1479.771701761665,2361
1481.8413756226287,2332
1483.9105116478618,2348
1485.9791100853772,2501
1488.0471711832643,2550
1490.1146951896926,2539
1492.1816823529098,2592
1494.2481329212433,2613
1496.3140471430984,2612
1498.3794252669609,2726
1500.4442675413939,2745
1502.5085742150404,2784
1504.572345536622,2766
1506.6355817549388,2790
1508.6982831188702,2864
1510.7604498773744,2824
1512.8220822794883,2897
1514.8831805743293,2991
1516.9437450110909,2866
1519.003775839048,2996
1521.0632733075522,3095
1523.1222376660367,3103
1525.1806691640113,3211
1527.2385680510652,3203
1529.2959345768668,3235
1531.3527689911643,3272
1533.4090715437833,3293
1535.4648424846291,3309
1537.5200820636855,3402
1539.5747905310159,3538
1541.6289681367616,3486
1543.6826151311434,3514
1545.7357317644614,3634
1547.7883182870937,3588
1549.8403749494987,3716
1551.8919020022113,3761
1553.9428996958477,3977
1555.9933682811015,4036
1558.0433080087469,4044
1560.0927191296346,4220
1562.1416018946961,4112
1564.1899565549415,4145
1566.2377833614592,4012
1568.2850825654164,4083
1570.3318544180606,3915
1572.3780991707158,3871
1574.423817074788,3738
1576.4690083817595,3650
1578.5136733431923,3445
1580.5578122107272,3305
1582.601425236085,3130
1584.6445126710646,3144
1586.6870747675434,2859
1588.7291117774776,2674
1590.7706239529034,2591
1592.8116115459347,2529
1594.8520748087658,2350
1596.8920139936686,2281
1598.9314293529933,2270
1600.9703211391711,2322
1603.008689604711,2194
1605.0465350022005,2158
1607.0838575843068,2061
1609.1206576037753,2113
1611.1569353134305,2058
1613.1926909661765,1994
1615.2279248149953,1991
1617.2626371129481,1926
1619.2968281131757,1899
1621.3304980688963,1915
1623.3636472334088,1857
1625.39627586009,1841
1627.428384202396,1938
1629.459972513861,1768
1631.4910410480993,1774
1633.5215900588028,1900
1635.551619799744,1855
1637.5811305247717,1780
1639.6101224878166,1726
1641.6385959428862,1720
1643.6665511440683,1770
1645.693988345528,1698
1647.7209078015112,1741
1649.7473097663405,1784
1651.7731944944203,1707
1653.7985622402307,1749
1655.823413258333,1766
1657.847747803366,1721
1659.8715661300494,1727
1661.8948684931793,1750
1663.9176551476316,1714
1665.9399263483624,1645
1667.9616823504057,1740
1669.982923408873,1712
1672.0036497789574,1689
1674.0238617159293,1648
1676.043559475138,1749
1678.0627433120121,1716
1680.081413482059,1628
1682.0995702408654,1628
1684.117213844096,1698
1686.134344547495,1696
1688.1509626068864,1666
1690.1670682781705,1733
1692.182661817329,1721
1694.1977434804217,1669
1696.2123135235875,1674
1698.226372203043,1663
1700.2399197750851,1688
1702.2529564960905,1669
1704.2654826225112,1651
1706.277498410882,1705
1708.2890041178139,1706
1710.2999999999988,1740
1712.3104863142066,1676
1714.3204633172854,1644
1716.329931266163,1584
1718.3388904178469,1605
1720.3473410294214,1686
1722.3552833580516,1658
1724.3627176609807,1711
1726.3696441955308,1598
1728.3760632191033,1653
1730.3819749891782,1698
1732.3873797633146,1663
1734.3922777991502,1687
1736.3966693544012,1629
1738.4005546868639,1627
1740.4039340544127,1582
1742.406807715001,1616
1744.4091759266616,1640
1746.4110389475054,1620
1748.4123970357223,1614
1750.413250449582,1611
1752.4135994474318,1632
1754.4134442876993,1580
1756.4127852288902,1582
1758.4116225295893,1559
1760.4099564484595,1613
1762.407787244244,1633
1764.405115175764,1566
1766.4019405019203,1601
1768.3982634816916,1576
1770.3940843741357,1601
1772.3894034383907,1546
1774.3842209336717,1576
1776.378537119274,1581
1778.372352254571,1573
1780.3656665990156,1596
1782.3584804121397,1555
1784.3507939535534,1630
1786.3426074829463,1549
1788.3339212600863,1546
1790.3247355448211,1540
1792.3150505970766,1560
1794.3048666768573,1513
1796.2941840442477,1545
1798.2830029594106,1562
1800.2713236825884,1491
1802.2591464741004,1527
1804.2464715943465,1549
1806.2332993038058,1611
1808.2196298630352,1519
1810.2054635326708,1538
1812.190800573428,1535
1814.175641246101,1549
1816.1599858115628,1509
1818.1438345307652,1483
1820.127187664738,1537
1822.1100454745924,1575
1824.092408221516,1549
1826.0742761667766,1606
1828.055649571721,1525
1830.0365286977735,1509
1832.0169138064398,1499
1833.9968051593014,1530
1835.9762030180214,1622
1837.9551076443408,1528
1839.9335193000788,1521
1841.9114382471344,1497
1843.888864747485,1493
1845.8657990631878,1531
1847.842241456378,1506
1849.8181921892697,1501
1851.7936515241558,1569
1853.7686197234098,1487
1855.7430970494815,1532
1857.7170837649014,1503
1859.6905801322787,1528
1861.6635864143004,1553
1863.6361028737338,1552
1865.608129773424,1551
1867.5796673762961,1500
1869.5507159453537,1512
1871.521275743678,1531
1873.4913470344313,1554
1875.4609300808534,1621
1877.4300251462632,1532
1879.3986324940588,1521
1881.366752387717,1579
1883.3343850907936,1560
1885.3015308669228,1569
1887.268189979819,1557
1889.2343626932739,1574
1891.2000492711595,1540
1893.1652499774254,1551
1895.1299650761011,1552
1897.0941948312952,1541
1899.0579395071945,1586
1901.0211993680641,1579
1902.98397467825,1547
1904.9462657021745,1591
1906.9080727043415,1560
1908.869395949332,1643
1910.8302357018065,1530
1912.790592226504,1565
1914.7504657882428,1524
1916.7098566519212,1558
1918.6687650825133,1553
1920.6271913450764,1531
1922.5851357047422,1518
1924.5425984267245,1554
1926.499579776314,1568
1928.4560800188833,1614
1930.4120994198802,1557
1932.367638244833,1526
1934.32269675935,1547
1936.2772752291175,1585
1938.231373919899,1593
1940.1849930975404,1531
1942.1381330279637,1519
1944.0907939771696,1506
1946.0429762112412,1576
1947.9946799963363,1496
1949.9459055986945,1541
1951.896653284633,1557
1953.8469233205478,1530
1955.7967159729142,1559
1957.7460315082863,1567
1959.6948701932974,1560
1961.6432322946594,1579
1963.5911180791632,1505
1965.5385278136787,1588
1967.4854617651545,1563
1969.4319202006182,1495
1971.377903387176,1573
1973.3234115920136,1536
1975.268445082395,1553
1977.2130041256642,1577
1979.1570889892423,1646
1981.1006999406304,1571
1983.04383724741,1535
1984.986501177238,1554
1986.928691997853,1495
1988.8704099770712,1568
1990.811655382789,1578
1992.7524284829801,1525
1994.692729545698,1618
1996.6325588390755,1512
1998.5719166313224,1564
2000.5108031907307,1544
2002.4492187856677,1519
2004.387163684583,1540
2006.3246381560011,1544
2008.2616424685298,1566
2010.1981768908527,1560
2012.1342416917332,1519
2014.069837140014,1535
2016.0049635046162,1503
2017.9396210545406,1532
2019.8738100588666,1527
2021.8075307867502,1525
2023.740783507431,1476
2025.6735684902228,1581
2027.6058860045214,1486
2029.5377363198004,1487
2031.4691197056118,1575
2033.4000364315875,1530
2035.3304867674374,1446
2037.260470982952,1533
2039.189989347998,1459
2041.1190421325232,1506
2043.047629606554,1517
2044.9757520401945,1533
2046.9034097036288,1510
2048.8306028671195,1535
2050.7573318010086,1535
2052.683596775716,1566
2054.609398061742,1524
2056.5347359296647,1507
2058.4596106501403,1533
2060.384022493906,1505
2062.3079717317764,1526
2064.231458634646,1575
2066.1544834734873,1609
2068.077046519352,1503
2069.99914804337,1526
2071.9207883167524,1568
2073.8419676107865,1538
2075.7626861968406,1588
2077.6829443463607,1507
2079.6027423308715,1487
2081.522080421977,1516
2083.440958891362,1541
2085.359378010786,1527
2087.2773380520907,1475
2089.194839287196,1481
2091.111881988101,1534
2093.0284664268825,1493
2094.9445928756973,1479
2096.86026160678,1512
2098.775472892446,1492
2100.690227005088,1515
2102.604524217178,1557
2104.5183648012676,1524
2106.431749029985,1475
2108.34467717604,1521
2110.2571495122206,1540
2112.169166311393,1521
2114.080727846503,1514
2115.9918343905747,1498
2117.902486216711,1548
2119.8126835980956,1547
2121.722426807987,1527
2123.6317161197285,1586
2125.5405518067364,1539
2127.448934142509,1528
2129.356863400624,1493
2131.264339854737,1528
2133.1713637785815,1533
2135.077935445972,1493
2136.9840551308002,1522
2138.889723107037,1516
2140.7949396487334,1482
2142.699705030018,1573
2144.6040195250994,1524
2146.507883408264,1499
2148.4112969538774,1562
2150.3142604363848,1515
2152.2167741303097,1520
2154.1188383102535,1517
2156.0204532508997,1469
2157.9216192270064,1510
2159.822336513414,1558
2161.7226053850413,1519
2163.622426116884,1545
2165.5217989840185,1527
2167.4207242616,1503
2169.319202224862,1552
2171.2172331491165,1561
2173.1148173097563,1505
2175.0119549822507,1541
2176.90864644215,1523
2178.8048919650823,1567
2180.7006918267534,1489
2182.596046302952,1511
2184.4909556695407,1541
2186.3854202024645,1546
2188.279440177746,1496
2190.173015871487,1505
2192.066147559868,1594
2193.958835519149,1570
2195.851080025667,1510
2197.7428813558417,1467
2199.6342397861667,1546
2201.5251555932186,1543
2203.415629053651,1481
2205.3056604441986,1532
2207.19525004167,1454
2209.084398122958,1526
2210.9731049650327,1524
2212.861370844941,1525
2214.749196039812,1549
2216.636580826851,1518
2218.523525483344,1568
2220.410030286655,1542
2222.296095514226,1515
2224.1817214435805,1505
2226.066908352319,1547
2227.951656518121,1498
2229.835966218746,1549
2231.71983773203,1563
2233.6032713358913,1504
2235.486267308324,1526
2237.3688259274036,1521
2239.2509474712824,1509
2241.132632218193,1489
2243.013880446447,1544
2244.8946924344323,1526
2246.7750684606203,1561
2248.6550088035574,1519
2250.534513741871,1528
2252.413583554265,1547
2254.292218519526,1514
2256.170418916517,1547
2258.0481850241786,1559
2259.925517121534,1536
2261.8024154876825,1559
2263.678880401803,1529
2265.5549121431536,1531
2267.430510991071,1547
2269.305677224971,1488
2271.180411124348,1588
2273.0547129687766,1586
2274.9285830379076,1533
2276.8020216114737,1519
2278.6750289692845,1502
2280.5476053912294,1521
2282.4197511572766,1494
2284.2914665474727,1505
2286.162751841943,1522
2288.0336073208937,1448
2289.904033264608,1517
2291.774029953448,1487
2293.6435976678554,1508
2295.5127366883517,1518
2297.381447295534,1589
2299.2497297700825,1512
2301.1175843927526,1496
2302.9850114443825,1489
2304.852011205885,1536
2306.7185839582553,1490
2308.5847299825664,1551
2310.4504495599676,1552
2312.3157429716925,1551
2314.1806104990483,1564
2316.0450524234247,1560
2317.9090690262888,1574
2319.772660589186,1580
2321.635827393742,1560
2323.498569721661,1477
2325.3608878547248,1568
2327.2227820747967,1561
2329.0842526638157,1538
2330.945299903803,1552
2332.805924076857,1519
2334.6661254651535,1559
2336.525904350951,1541
2338.3852610165827,1515
2340.244195744464,1562
2342.102708817088,1554
2343.9608005170253,1591
2345.8184711269287,1596
2347.675720929526,1585
2349.532550207628,1524
2351.38895924412,1538
2353.24494832197,1560
2355.100517724223,1544
2356.955667734004,1562
2358.810398634514,1535
2360.664710709037,1549
2362.5186042409337,1597
2364.3720795136437,1540
2366.225136810686,1574
2368.0777764156583,1568
2369.929998612237,1561
2371.7818036841777,1560
2373.633191915315,1598
2375.484163589562,1613
2377.3347189909114,1524
2379.184858403434,1596
2381.03458211128,1610
2382.8838903986775,1588
2384.732783549936,1570
2386.5812618494406,1598
2388.4293255816588,1565
2390.2769750311327,1603
2392.1242104824883,1571
2393.971032220427,1573
2395.8174405297295,1556
2397.6634356952563,1556
2399.509018001947,1599
2401.3541877348193,1611
2403.1989451789705,1578
2405.043290619576,1575
2406.8872243418905,1566
2408.730746631247,1573
2410.5738577730594,1589
2412.4165580528183,1593
2414.258847756095,1552
2416.100727168537,1591
2417.9421965758734,1564
2419.783256263912,1649
2421.623906518538,1644
2423.4641476257157,1625
2425.303979871491,1631
2427.143403541984,1594
2428.9824189233977,1562
2430.821026302012,1711
2432.6592259641866,1649
2434.497018196361,1593
2436.33440328505,1584
2438.171381516851,1603
2440.00795317844,1604
2441.844118556569,1633
2443.6798779380724,1640
2445.5152316098606,1596
2447.3501798589255,1649
2449.1847229723357,1622
2451.0188612372403,1620
2452.8525949408663,1589
2454.6859243705203,1627
2456.518849813587,1570
2458.3513715575314,1634
2460.183489889895,1637
2462.015205098301,1607
2463.8465174704493,1603
2465.67742729412,1557
2467.5079348571717,1624
2469.338040447542,1614
2471.1677443532476,1635
2472.9970468623833,1578
2474.825948263123,1612
2476.6544488437207,1602
2478.482548892508,1653
2480.310248697896,1586
2482.137548548374,1562
2483.9644487325118,1583
2485.790949538956,1648
2487.617051256433,1642
2489.44275417375,1596
2491.26805857979,1621
2493.0929647635157,1622
2494.917473013971,1604
2496.741583620276,1579
2498.5652968716304,1631
2500.3886130573137,1612
2502.2115324666834,1646
2504.0340553891765,1620
2505.856182114308,1589
2507.6779129316733,1684
2509.499248130945,1597
2511.3201880018764,1666
2513.140732834298,1629
2514.9608829181198,1619
2516.780638543331,1663
2518.6,1668
2520.418967578273,1687
2522.237541568376,1661
2524.0557222606144,1646
2525.8735099453706,1629
2527.6909049131086,1653
2529.507907454368,1700
2531.32451785977,1635
2533.140736420014,1653
2534.9565634258774,1664
2536.771999168218,1750
2538.5870439379714,1671
2540.4016980261526,1710
2542.2159617238544,1726
2544.02983532225,1648
2545.8433191125914,1747
2547.656413386209,1792
2549.4691184345115,1743
2551.2814345489874,1692
2553.093362021204,1743
2554.904901142808,1720
2556.716052205523,1793
2558.526815501153,1775
2560.3371913215824,1747
2562.147179958771,1739
2563.956781704761,1802
2565.7659968516705,1745
2567.5748256916986,1778
2569.3832685171224,1758
2571.1913256202984,1739
2572.9989972936614,1776
2574.806283829725,1831
2576.613185521084,1747
2578.4197026604074,1714
2580.2258355404483,1788
2582.031584454035,1836
2583.836949694077,1866
2585.6419315535613,1861
2587.4465303255533,1808
2589.2507463032002,1840
2591.0545797797245,1919
2592.8580310484303,1902
2594.6611004026995,1860
2596.463788135992,1837
2598.266094541849,1891
2600.0680199138874,1869
2601.869564545807,1920
2603.670728731383,1939
2605.4715127644704,1931
2607.2719169390048,1908
2609.071941548998,1953
2610.8715868885433,1910
2612.670853251811,1899
2614.469740933052,1920
2616.268250226594,1949
2618.0663814268455,1959
2619.864134828292,1888
2621.6615107255006,1894
2623.458509413115,1968
2625.2551311858597,1879
2627.0513763385347,1957
2628.8472451660223,1909
2630.6427379632833,1885
2632.4378550253564,1858
2634.232596647359,1842
2636.026963124488,1859
2637.8209547520187,1829
2639.6145718253065,1869
2641.407814639785,1793
2643.200683490966,1810
2644.9931786744414,1818
2646.7853004858807,1742
2648.577049221034,1779
2650.3684251757277,1793
2652.1594286458712,1738
2653.9500599274484,1746
2655.740319316525,1723
2657.5302071092437,1812
2659.3197236018286,1772
2661.10886909058,1729
2662.8976438718782,1751
2664.686048242183,1769
2666.4740824980327,1713
2668.2617469360443,1674
2670.0490418529134,1690
2671.8359675454153,1685
2673.622524310403,1663
2675.408712444811,1648
2677.1945322456495,1670
2678.979984010009,1659
2680.76506803506,1655
2682.5497846180497,1706
2684.334134056306,1675
2686.1181166472343,1636
2687.9017326883213,1639
2689.6849824771293,1598
2691.4678663113013,1648
2693.2503844885596,1622
2695.032537306705,1582
2696.8143250636167,1587
2698.5957480572542,1652
2700.3768065856534,1654
2702.1575009469316,1579
2703.937831439283,1545
2705.717798360982,1607
2707.4974020103837,1656
2709.276642685917,1537
2711.055520686095,1611
2712.834036309506,1647
2714.612189854819,1521
2716.389981620782,1659
2718.1674119062204,1652
2719.944481010041,1597
2721.721189231226,1557
2723.4975368688415,1600
2725.273524222027,1578
2727.0491515900053,1579
2728.824419272075,1602
2730.5993275676146,1600
2732.3738767760838,1520
2734.148067197016,1568
2735.921899130031,1577
2737.6953728748194,1595
2739.468488731156,1529
2741.2412469988926,1477
2743.0136479779617,1521
2744.785691968372,1544
2746.5573792702116,1580
2748.3287101836504,1569
2750.099685008934,1477
2751.870304046388,1476
2753.640567596418,1509
2755.4104759595057,1594
2757.1800294362156,1508
2758.949228327187,1546
2760.7180729331412,1573
2762.486563554877,1613
2764.254700493272,1522
2766.022484049284,1519
2767.789914523947,1576
2769.5569922183786,1599
2771.3237174337705,1553
2773.090090471394,1472
2774.8561116326036,1507
2776.6217812188274,1577
2778.3870995315756,1509
2780.1520668724356,1514
2781.9166835430747,1480
2783.6809498452394,1545
2785.444866080754,1578
2787.2084325515225,1519
2788.971649559527,1525
2790.73451740683,1593
2792.4970363955713,1522
2794.2592068279705,1586
2796.0210290063264,1471
2797.7825032330147,1500
2799.543629810493,1531
2801.304409041296,1462
2803.0648412280366,1503
2804.8249266734088,1511
2806.5846656801846,1532
2808.344058551212,1518
2810.1031055894246,1510
2811.8618070978273,1585
2813.6201633795085,1519
2815.378174737636,1489
2817.1358414754536,1571
2818.893163896285,1508
2820.6501423035334,1530
2822.4067770006814,1536
2824.1630682912883,1533
2825.9190164789957,1522
2827.6746218675207,1552
2829.429884760661,1577
2831.184805462294,1552
2832.9393842763743,1567
2834.693621506936,1579
2836.4475174580916,1502
2838.201072434034,1583
2839.954286739034,1556
2841.707160677441,1496
2843.459694553685,1540
2845.2118886722724,1555
2846.96374333779,1548
2848.7152588549034,1551
2850.4664355283567,1505
2852.217273662973,1533
2853.9677735636546,1559
2855.7179355353833,1529
2857.4677598832186,1574
2859.217246912299,1570
2860.9663969278427,1530
2862.715210235146,1535
2864.4636871395846,1572
2866.211827946614,1563
2867.9596329617652,1567
2869.7071024906536,1539
2871.4542368389684,1554
2873.20103631248,1563
2874.947501217038,1562
2876.6936318585695,1534
2878.4394285430812,1567
2880.1848915766604,1523
2881.9300212654707,1479
2883.6748179157553,1535
2885.4192818338374,1531
2887.1634133261173,1509
2888.907212699077,1539
2890.6506802592744,1481
2892.393816313348,1564
2894.1366211680142,1533
2895.8790951300693,1557
2897.621238506388,1514
2899.363051603925,1519
2901.1045347297118,1566
2902.8456881908596,1522
2904.58651229456,1529
2906.327007348081,1467
2908.067173658772,1584
2909.8070115340597,1555
2911.5465212814497,1487
2913.285703208527,1524
2915.0245576229563,1548
2916.7630848324807,1569
2918.5012851449196,1483
2920.2391588681758,1568
2921.976706310227,1510
2923.7139277791334,1530
2925.4508235830313,1538
2927.187394030137,1507
2928.923639428745,1569
2930.6595600872306,1566
2932.395156314046,1539
2934.1304284177218,1588
2935.8653767068713,1521
2937.6000014901815,1541
2939.3343030764227,1504
2941.068281774442,1512
2942.8019378931644,1562
2944.5352717415976,1510
2946.2682836288236,1585
2948.0009738640065,1499
2949.7333427563885,1591
2951.465390615289,1584
2953.1971177501086,1535
2954.9285244703265,1517
2956.6596110855,1554
2958.3903779052657,1528
2960.1208252393385,1447
2961.8509533975125,1535
2963.5807626896617,1447
2965.3102534257378,1540
2967.0394259157715,1536
2968.768280469873,1500
2970.496817398232,1509
2972.2250370111146,1535
2973.952939618869,1485
2975.6805255319196,1528
2977.4077950607707,1534
2979.134748516006,1528
2980.861386208289,1531
2982.587708448359,1535
2984.313715547037,1485
2986.039407815222,1559
2987.764785563891,1553
2989.489849104102,1548
2991.2145987469908,1476
2992.9390348037705,1552
2994.6631575857346,1493
2996.3869674042576,1506
2998.1104645707887,1539
2999.83364939686,1496
3001.5565221940783,1557
3003.2790832741334,1493
3005.0013329487924,1507
3006.7232715298996,1514
3008.4448993293804,1535
3010.166216659239,1492
3011.887223831558,1501
3013.607921158498,1517
3015.3283089522993,1508
3017.0483875252826,1504
3018.7681571898443,1496
3020.4876182584626,1553
3022.2067710436927,1523
3023.9256158581707,1514
3025.644153014609,1519
3027.362382825801,1510
3029.0803056046193,1539
3030.797921664012,1512
3032.5152313170106,1604
3034.2322348767225,1566
3035.9489326563353,1520
3037.665324969115,1483
3039.3814121284063,1552
3041.097194447633,1502
3042.812672240299,1513
3044.5278458199855,1502
3046.2427155003525,1478
3047.9572815951406,1565
3049.671544418167,1571
3051.38550428333,1542
3053.0991615046073,1501
3054.812516396051,1584
3056.5255692717974,1530
3058.2383204460575,1530
3059.9507702331257,1538
3061.662918947372,1574
3063.3747669032446,1535
3065.0863144152736,1534
3066.7975617980674,1499
3068.508509366309,1560
3070.219157434767,1499
3071.9295063182844,1492
3073.639556331785,1529
3075.3493077902704,1574
3077.058761008821,1474
3078.7679163025964,1511
3080.476773986837,1480
3082.1853343768594,1547
3083.89359778806,1567
3085.6015645359153,1502
3087.3092349359786,1533
3089.016609303884,1494
3090.7236879553434,1485
3092.4304712061476,1510
3094.136959372166,1518
3095.843152769349,1489
3097.5490517137237,1520
3099.2546565213966,1516
3100.959967508554,1520
3102.66498499146,1548
3104.3697092864577,1540
3106.0741407099695,1495
3107.778279578498,1518
3109.482126208622,1556
3111.1856809170004,1548
3112.8889440203716,1517
3114.5919158355528,1545
3116.294596679439,1509
3117.996986869006,1555
3119.6990867213062,1497
3121.4008965534726,1550
3123.102416682717,1568
3124.803647426329,1538
3126.5045891016784,1565
3128.205242026213,1472
3129.90560651746,1572
3131.605682893025,1555
3133.3054714705922,1595
3135.0049725679282,1604
3136.7041865028714,1537
3138.4031135933465,1581
3140.101754157353,1536
3141.800108512971,1567
3143.498176978357,1538
3145.1959598717494,1506
3146.8934575114636,1539
3148.5906702158954,1514
3150.2875983035183,1539
3151.9842420928853,1490
3153.680601902627,1524
3155.376678051456,1508
3157.07247085816,1471
3158.767980641609,1572
3160.463207720748,1519
3162.158152414606,1456
3163.8528150422862,1564
3165.5471959229726,1501
3167.2412953759303,1508
3168.9351137204976,1511
3170.628651276098,1549
3172.3219083622307,1452
3174.014885298474,1519
3175.707582404485,1510
3177.4000000000005,1544
3179.092138404835,1524
3180.7839979388846,1493
3182.47557892212,1512
3184.166881674594,1546
3185.8579065164386,1541
3187.5486537678626,1572
3189.2391237491547,1513
3190.9293167806827,1519
3192.6192331828934,1491
3194.3088732763117,1535
3195.998237381542,1537
3197.687325819268,1536
3199.376138910251,1525
3201.064676975334,1509
3202.7529403354347,1472
3204.4409293115523,1501
3206.1286442247647,1430
3207.816085396229,1499
3209.5032531471825,1458
3211.190147798936,1502
3212.8767696728846,1514
3214.5631190905015,1501
3216.2491963733373,1480
3217.9350018430214,1457
3219.6205358212637,1475
3221.305798629851,1454
3222.990790590651,1440
3224.6755120256103,1415
3226.359963256751,1441
3228.0441446061795,1472
3229.7280563960758,1466
3231.411698948703,1459
3233.0950725863995,1554
3234.778177631587,1555
3236.461014406761,1499
3238.1435832345005,1536
3239.8258844374595,1556
3241.507918338374,1538
3243.1896852600576,1511
3244.8711855254023,1567
3246.552419457381,1506
3248.233387379042,1504
3249.914089613516,1521
3251.59452648401,1509
3253.274698313813,1470
3254.95460542629,1435
3256.6342481448855,1430
3258.313626793125,1438
3259.9927416946084,1445
3261.6715931730196,1487
3263.3501815521176,1453
3265.0285071557437,1439
3266.706570307815,1461
3268.3843713323286,1553
3270.0619105533615,1476
3271.739188295068,1491
3273.4162048816834,1513
3275.0929606375184,1532
3276.769455886966,1532
3278.445690954498,1488
3280.1216661646613,1542
3281.797381842087,1528
3283.4728383114807,1534
3285.1480358976296,1491
3286.8229749253996,1495
3288.4976557197333,1570
3290.172078605655,1466
3291.846243908266,1407
3293.5201519527463,1477
3295.193803064357,1424
3296.8671975684374,1431
3298.5403357904024,1469
3300.21321805575,1448
3301.8858446900567,1511
3303.558216018975,1444
3305.23033236824,1511
3306.9021940636603,1540
3308.57380143113,1456
3310.2451547966184,1520
3311.916254486174,1551
3313.5871008259246,1521
3315.2576941420766,1452
3316.9280347609147,1526
3318.5981230088046,1455
3320.2679592121895,1424
3321.9375436975924,1471
3323.606876791612,1484
3325.27595882093,1455
3326.944790112305,1467
3328.6133709925753,1517
3330.2817017886573,1466
3331.949782827547,1428
3333.617614436319,1457
3335.2851969421245,1455
3336.952530672199,1452
3338.619615953853,1501
3340.286453114475,1538
3341.9530424815357,1444
3343.619384382583,1511
3345.2854791452437,1527
3346.951327097224,1419
3348.6169285663073,1516
3350.2822838803577,1538
3351.947393367319,1501
3353.61225735521,1464
3355.2768761721345,1553
3356.9412501462693,1514
3358.605379605873,1552
3360.2692648792827,1480
3361.9329062949146,1485
3363.596304181263,1474
