CollectionTime,9/19/2024 11:34:16 AM
ExposureUsed,3
CalibratedSpectrum
-962.7078968117929,606
-959.9714848408522,657
-957.2358232597828,684
-954.5009119013725,635
-951.7667505983302,656
-949.0333391832855,701
-946.3006774887896,682
-943.5687653473143,655
-940.837602591253,671
-938.1071890529199,671
-935.3775245645503,638
-932.6486089583007,638
-929.9204420662485,630
-927.1930237203925,636
-924.4663537526524,680
-921.7404319948689,688
-919.0152582788041,703
-916.2908324361409,684
-913.5671542984834,637
-910.8442236973568,625
-908.1220404642074,599
-905.4006044304027,637
-902.679915427231,684
-899.959973285902,607
-897.2407778375464,600
-894.5223289132158,607
-891.8046263438832,645
-889.0876699604426,632
-886.3714595937089,610
-883.6559950744183,610
-880.9412762332282,559
-878.2273029007168,620
-875.5140749073835,650
-872.8015920836489,620
-870.0898542598545,603
-867.3788612662631,630
-864.6686129330585,595
-861.9591090903457,599
-859.2503495681506,612
-856.5423341964203,599
-853.8350628050229,648
-851.1285352237478,588
-848.4227512823054,618
-845.7177108103272,609
-843.0134136373656,626
-840.3098595928943,638
-837.6070485063082,631
-834.9049802069229,632
-832.2036545239757,637
-829.5030712866244,582
-826.8032303239481,603
-824.1041314649472,580
-821.4057745385428,621
-818.7081593735775,617
-816.0112857988148,614
-813.3151536429393,630
-810.6197627345566,642
-807.9251129021936,623
-805.2312039742981,616
-802.5380357792392,591
-799.8456081453069,610
-797.1539209007124,633
-794.462973873588,671
-791.772766891987,641
-789.083299783884,633
-786.3945723771743,632
-783.7065844996748,630
-781.0193359791231,611
-778.3328266431781,635
-775.6470563194197,624
-772.9620248353489,621
-770.2777320183878,612
-767.5941776958798,640
-764.9113616950891,630
-762.2292838432011,627
-759.5479439673222,618
-756.8673418944801,644
-754.1874774516235,627
-751.5083504656222,661
-748.8299607632671,637
-746.15230817127,656
-743.475392516264,676
-740.7992136248035,644
-738.1237713233636,632
-735.4490654383407,636
-732.7750957960521,622
-730.1018622227365,692
-727.4293645445534,693
-724.7576025875837,658
-722.0865761778291,656
-719.4162851412126,649
-716.7467293035781,668
-714.0779084906909,693
-711.409822528237,649
-708.7424712418238,701
-706.0758544569796,690
-703.4099719991541,688
-700.7448236937178,712
-698.0804093659622,680
-695.4167288411002,702
-692.7537819442656,707
-690.0915685005134,705
-687.4300883348199,685
-684.7693412720819,679
-682.1093271371178,709
-679.4500457546669,727
-676.7914969493897,723
-674.1336805458676,685
-671.4765963686034,704
-668.8202442420206,695
-666.1646239904642,705
-663.5097354382001,688
-660.8555784094151,689
-658.2021527282176,705
-655.5494582186366,674
-652.8974947046223,673
-650.2462620100463,719
-647.5957599587009,755
-644.9459883742998,727
-642.2969470804776,772
-639.6486359007902,715
-637.0010546587141,786
-634.3542031776476,757
-631.7080812809096,749
-629.0626887917401,723
-626.4180255333008,725
-623.7740913286734,785
-621.1308860008619,792
-618.4884093727904,735
-615.8466612673046,711
-613.2056415071715,728
-610.5653499150785,699
-607.9257863136347,780
-605.28695052537,791
-602.6488423727357,739
-600.0114616781036,763
-597.3748082637674,784
-594.7388819519412,866
-592.1036825647604,887
-589.4692099242818,811
-586.8354638524829,765
-584.2024441712624,762
-581.5701507024403,790
-578.9385832677575,787
-576.3077416888759,813
-573.6776257873787,749
-571.0482353847704,790
-568.4195703024757,791
-565.7916303618415,771
-563.164415384135,779
-560.5379251905453,779
-557.9121596021815,771
-555.2871184400748,750
-552.6628015251767,839
-550.0392086783606,813
-547.4163397204204,842
-544.794194472071,798
-542.1727727539491,860
-539.5520743866118,874
-536.9320991905377,867
-534.3128469861261,868
-531.6943175936979,918
-529.0765108334947,900
-526.4594265256793,954
-523.8430644903358,1226
-521.2274245474689,1316
-518.612506517005,1399
-515.9983102187913,1437
-513.3848354725959,1483
-510.77208209810846,1454
-508.16004991493924,1561
-505.5487387426199,1625
-502.9381484006032,1613
-500.3282787082628,1635
-497.71912948489364,1474
-495.1107005497117,1386
-492.5029917218539,1250
-489.8960028203786,1109
-487.28973366426493,1048
-484.68418407241325,1002
-482.07935386364494,892
-479.47524285670266,914
-476.87185087025,913
-474.2691777228715,932
-471.66722323307334,991
-469.0659872192821,914
-466.4654694998459,956
-463.86566989303384,937
-461.26658821703614,871
-458.66822428996414,942
-456.07057792985,947
-453.4736489546475,936
-450.877437182231,931
-448.28194243039627,913
-445.68716451686,895
-443.09310325926003,883
-440.49975847515555,929
-437.9071299820263,927
-435.31521759727354,898
-432.72402113821954,982
-430.13354042210767,932
-427.5437752661022,951
-424.95472548728867,989
-422.36639090267386,981
-419.7787713291855,1036
-417.1918665836721,993
-414.60567648290385,991
-412.0202008435715,977
-409.4354394822874,1025
-406.8513922155845,1004
-404.26805885991723,1045
-401.685439231661,1042
-399.103533147112,1079
-396.522340422488,1024
-393.9418608739278,1001
-391.3620943174908,999
-388.7830405691583,974
-386.2046994448317,920
-383.6270707603344,932
-381.05015433141045,837
-378.473949973725,791
-375.8984575028645,791
-373.32367673433623,748
-370.74960748356875,692
-368.1762495659117,674
-365.60360279663576,673
-363.03166699093265,572
-360.4604419639154,568
-357.8899275306178,532
-355.32012350599507,551
-352.7510297049233,497
-350.1826459421999,501
-347.61497203254316,517
-345.04800779059235,518
-342.4817530309082,510
-339.91620756797226,594
-337.35137121618743,661
-334.7872437898774,623
-332.22382510328725,529
-329.66111497058273,531
-327.09911320585127,550
-324.53781962310075,503
-321.9772340362607,507
-319.4173562591816,527
-316.8581861056348,523
-314.2997233893127,521
-311.7419679238294,529
-309.1849195227194,556
-306.62857799943856,559
-304.0729431673641,578
-301.51801483979375,578
-298.963792829947,611
-296.41027695096386,559
-293.85746701590574,556
-291.3053628377552,641
-288.7539642294155,657
-286.2032710037115,716
-283.65328297338897,696
-281.1039999511146,708
-278.5554217494762,637
-276.007548180983,577
-273.4603790580651,572
-270.9139141930734,622
-268.3681533982807,620
-265.8230964858798,678
-263.27874326798565,729
-260.7350935566336,716
-258.1921471637804,676
-255.6499039013039,764
-253.10836358100266,786
-250.56752601459698,812
-248.02739101372765,798
-245.48795838995704,825
-242.94922795476816,767
-240.41119951956557,790
-237.8738728956746,718
-235.33724789434166,756
-232.80132432673452,764
-230.2661020039418,726
-227.73158073697357,723
-225.19776033676033,787
-222.66464061415422,884
-220.1322213799284,823
-217.60050244477725,797
-215.06948361931552,845
-212.53916471408013,972
-210.00954553952818,978
-207.48062590603843,895
-204.9524056239104,807
-202.4248845033651,865
-199.8980623545441,1009
-197.37193898751036,988
-194.84651421224817,1076
-192.32178783866232,969
-189.79775967657952,932
-187.27442953574644,980
-184.7517972258321,1154
-182.2298625564256,1160
-179.7086253370378,1015
-177.18808537710026,1020
-174.66824248596583,1079
-172.14909647290835,1200
-169.6306471471229,1158
-167.11289431772548,1071
-164.59583779375328,1122
-162.07947738416453,1125
-159.5638128978386,1239
-157.04884414357605,1466
-154.53457093009854,1414
-152.02099306604828,1171
-149.50811035998936,1040
-146.99592262040665,1261
-144.48442965570587,1462
-141.97363127421409,1552
-139.46352728417958,1667
-136.95411749377126,1713
-134.44540171107985,1449
-131.93737974411636,1161
-129.43005140081357,1234
-126.92341648902493,1526
-124.41747481652521,1861
-121.91222619101006,2182
-119.40767042009657,2361
-116.90380731132257,2084
-114.40063667214702,2093
-111.8981583099503,2579
-109.3963720320337,3687
-106.89527764561933,6324
-104.39487495785067,8710
-101.89516377579241,11668
-99.39614390642998,14416
-96.89781515667039,18687
-94.40017733334128,24425
-91.90323024319173,25414
-89.40697369289148,19794
-86.91140748903172,12614
-84.41653143812482,7476
-81.92234534660395,8628
-79.42884902082358,16945
-76.93604226705907,27805
-74.4439248915071,33193
-71.95249670028534,33155
-69.46175749943245,28198
-66.97170709490854,22062
-64.48234529259423,15962
-61.99367189829195,11628
-59.50568671772464,10477
-57.01838955653636,13175
-54.53178022029283,14532
-52.045858514480074,14116
-49.560624244506016,15480
-47.07607721569923,16585
-44.59221723330904,16478
-42.10904410250669,18562
-39.62655762838392,18640
-37.14475761595372,19435
-34.66364387015028,19050
-32.18321619582866,20818
-29.70347439776515,21751
-27.224418280657005,19342
-24.74604764912317,23868
-22.26836230770266,45372
-19.7913620608565,65035
-17.315046712966478,65035
-14.83941606833514,65035
-12.36446993118659,65035
-9.89020810566592,65035
-7.416630395839093,65035
-4.94373660569363,65035
-2.471526539137585,65035
-6.821210263296962E-13,65035
2.47084320796705,65035
4.941003281093458,65035
7.410480415786196,65035
9.879274808531363,65035
12.347386655893956,65035
14.814816154518212,65035
17.28156350112681,65035
19.74762889252179,65035
22.21301252558385,30480
24.67771459727237,7401
27.141735304626195,6482
29.605074844762612,8474
32.06773341487792,9262
34.52971121224755,7271
36.99100843422559,6515
39.45162527824516,4853
41.91156194181792,4253
44.370818622535126,4827
46.82939551806646,4236
49.287292826160524,6943
51.74451074464503,8628
54.201049471426245,6160
56.65690920448981,4013
59.112090141899785,2805
61.56659248179983,2564
64.02041642241159,3720
66.4735621620365,3604
68.92602989905402,4076
71.37781983192338,4647
73.82893215918205,3624
76.27936707944684,2470
78.72912479141326,2403
81.17820549385567,2751
83.62660938562783,2733
86.07433666566146,2528
88.5213875329681,1983
90.96776218663751,2138
93.41346082583925,2265
95.85848364982041,2493
98.30283085790859,2789
100.7465026495089,2014
103.18949922410604,1761
105.63182078126385,1688
108.07346752062438,1536
110.51443964190923,1470
112.95473734491827,1281
115.39436082953114,1371
117.83331029570547,1269
120.27158594347827,1545
122.7091879729652,1673
125.1461165843615,1564
127.58237197794062,1267
130.01795435405518,1343
132.4528639131364,1450
134.88710085569494,1268
137.32066538231982,1313
139.75355769367923,1612
142.1857779905207,1369
144.61732647366978,1091
147.04820334403132,1017
149.47840880258934,1152
151.90794305040674,1102
154.33680628862487,1386
156.76499871846443,1529
159.19252054122433,1615
161.61937195828352,1644
164.04555317109896,1794
166.47106438120693,1987
168.89590579022217,2209
171.320077599839,2243
173.7435800118302,2409
176.16641322804742,2713
178.58857745042144,2659
181.01007288096173,2623
183.43089972175687,2601
185.85105817497413,2660
188.27054844285988,2645
190.6893707277394,2575
193.10752523201643,2581
195.5250121581745,2742
197.9418317087751,2594
200.3579840864594,2623
202.7734694939469,2735
205.18828813403627,2925
207.6024402096051,2928
210.01592592360964,2889
212.42874547908548,2874
214.84089907914665,2832
217.2523869269868,2699
219.66320922587727,2707
222.0733661791695,2769
224.48285799029293,2775
226.8916848627572,2823
229.29984700014882,2885
231.7073446061355,2890
234.11417788446204,2893
236.520347038953,2926
238.92585227351185,3027
241.33069379212054,3161
243.73487179884035,3094
246.1383864978112,3109
248.541238093252,3184
250.9434267894609,3200
253.34495279081432,3171
255.74581630176783,3198
258.1460175268563,3203
260.54555667069314,3124
262.9444339379703,3261
265.3426495334594,3199
267.7402036620107,3141
270.1370965285529,3133
272.53332833809407,3016
274.9288992957214,2905
277.32380960660055,2642
279.718059475976,2630
282.1116491091717,2657
284.5045787115897,2633
286.89684848871195,2519
289.2884586460981,2597
291.67940938938807,2643
294.0697009242996,2696
296.4593334566299,2684
298.84830719225477,2608
301.23662233712923,2602
303.6242790972866,2513
306.01127767884,2493
308.39761828798066,2450
310.78330113097934,2441
313.16832641418534,2364
315.5526943440269,2378
317.9364051270112,2430
320.3194589697242,2455
322.70185607883093,2428
325.0835966610754,2333
327.4646809232805,2207
329.8451090723478,2285
332.2248813152577,2302
334.6039978590701,2298
336.9824589109231,2291
339.36026467803447,2191
341.7374153677,2195
344.113911187295,2165
346.48975234427337,2125
348.8649390461686,2152
351.2394715005918,2172
353.61334991523415,2092
355.9865744978655,2159
358.35914545633375,2126
360.73106299856715,2167
363.10232733257146,2159
365.47293866643247,2149
367.84289720831396,2053
370.2122031664593,1972
372.5808567491905,2069
374.9488581649083,2103
377.31620762209275,2043
379.6829053293021,2048
382.0489514951745,2076
384.4143463284262,1980
386.7790900378528,1991
389.14318283232853,2039
391.50662492080653,2020
393.86941651231916,2086
396.23155781597745,1982
398.5930490409713,2031
400.9538903965696,2082
403.3140820921202,2019
405.6736243370498,1973
408.03251734086336,1925
410.3907613131465,1927
412.74835646356166,1948
415.10530300185144,1913
417.4616011378372,1932
419.81725108141893,2008
422.1722530425758,1995
424.5266072313656,1957
426.880313857925,1960
429.2333731324701,1929
431.58578526529516,1854
433.9375504667738,1930
436.2886689473588,1919
438.63914091758113,1936
440.9889665880513,1941
443.33814616945835,1893
445.68667987257015,1907
448.03456790823395,1937
450.3818104873759,1868
452.72840782100013,1920
455.07436012019105,1828
457.41966759611057,1890
459.7643304600007,1866
462.10834892318155,1903
464.4517231970525,1869
466.79445349309174,1851
469.1365400228566,1878
471.4779829979826,1938
473.81878263018564,1900
476.15893913125876,1936
478.4984527130747,1944
480.8373235875855,1991
483.17555196682144,1991
485.5131380628919,2055
487.8500820879857,2147
490.1863842543697,2069
492.52204477439034,2289
494.8570638604725,2360
497.1914417251204,2600
499.52517858091653,2985
501.85827464052306,3220
504.19073011668036,3368
506.5225452222086,3404
508.85372017000566,3587
511.18425517304956,3788
513.514150444396,4373
515.8434061971808,5486
518.1720226446176,6436
520.4999999999999,6543
522.8273384766991,6222
525.1540382881666,5780
527.480099647932,5299
529.8055227696037,4129
532.1303078668694,3089
534.454455153496,2599
536.777964843328,2221
539.1008371502907,2091
541.4230722883866,2094
543.744670471698,2038
546.0656319143858,2063
548.3859568306899,2043
550.7056454349294,1974
553.0246979415016,1992
555.3431145648834,1982
557.6608955196306,1991
559.978041020377,1896
562.2945512818363,1916
564.6104265188006,1944
566.9256669461412,1942
569.2402727788082,2011
571.5542442318302,1993
573.8675815203156,1983
576.1802848594508,1957
578.4923544645015,1996
580.8037905508126,2099
583.114593333807,2064
585.4247630289875,1968
587.7342998519354,1932
590.0432040183106,2062
592.3514757438526,1964
594.6591152443794,1967
596.9661227357875,1968
599.2724984340531,2012
601.578242555231,1947
603.8833553154542,1913
606.1878369309362,1927
608.4916876179676,1864
610.7949075929192,1894
613.0974970722403,1891
615.3994562724587,1964
617.7007854101818,1966
620.0014847020951,1997
622.3015543649641,1958
624.6009946156324,1940
626.8998056710224,1947
629.1979877481361,2051
631.4955410640538,1961
633.7924658359349,1943
636.0887622810175,1925
638.3844306166192,1959
640.6794710601358,1862
642.9738838290426,2002
645.2676691408932,1960
647.5608272133207,2011
649.853358264037,2099
652.1452625108324,2001
654.4365401715764,1987
656.7271914642178,2069
659.0172166067838,2073
661.3066158173809,1983
663.5953893141935,1987
665.8835373154867,2077
668.1710600396028,1968
670.4579577049639,2024
672.7442305300709,2077
675.0298787335033,2071
677.3149025339197,2071
679.599302150058,1989
681.8830778007342,2017
684.1662297048437,2023
686.4487580813608,1970
688.7306631493387,2039
691.0119451279091,1932
693.2926042362834,2015
695.5726406937516,2078
697.8520547196814,1986
700.1308465335215,1953
702.4090163547982,1880
704.6865644031171,1975
706.9634908981619,1961
709.2397960596965,1920
711.5154801075631,1935
713.7905432616823,2013
716.0649857420548,1897
718.3388077687592,1964
720.612009561953,1990
722.8845913418733,1959
725.1565533288352,1992
727.427895743234,1972
729.6986188055427,2014
731.9687227363137,1877
734.238207756178,1970
736.5070740858458,1962
738.7753219461066,1984
741.0429515578281,1931
743.3099631419569,1996
745.5763569195191,1993
747.8421331116193,1973
750.1072919394409,1949
752.3718336242467,1917
754.6357583873777,1950
756.8990664502545,1938
759.1617580343765,1942
761.423833361321,1971
763.6852926527457,2015
765.9461361303862,1947
768.206364016058,1966
770.4659765316536,1975
772.7249738991469,2000
774.9833563405886,1987
777.2411240781092,1981
779.4982773339183,1927
781.7548163303044,1930
784.010741289634,1945
786.2660524343538,2050
788.5207499869881,1998
790.7748341701416,1970
793.0283052064964,2062
795.2811633188143,1957
797.5334087299362,1995
799.7850416627813,1993
802.0360623403484,1975
804.2864709857143,1951
806.5362678220353,2069
808.7854530725468,2002
811.0340269605625,2015
813.2819897094754,1884
815.5293415427581,1971
817.77608268396,2010
820.0222133567116,2033
822.2677337847211,1997
824.5126441917765,1936
826.7569448017433,1971
829.0006358385675,1921
831.2437175262731,2054
833.4861900889629,1996
835.7280537508192,2048
837.9693087361026,2055
840.2099552691533,1993
842.4499935743896,2052
844.689423876309,2045
846.9282463994886,2000
849.1664613685833,2027
851.4040690083276,2064
853.6410695435349,2031
855.877463199097,2053
858.1132501999847,2085
860.3484307712487,2014
862.5830051380175,2026
864.8169735254988,2053
867.0503361589791,2050
869.2830932638243,2011
871.5152450654786,2063
873.7467917894654,2094
875.9777336613873,2054
878.2080709069252,2062
880.4378037518389,2149
882.666932421968,2034
884.8954571432301,2087
887.1233781416219,2046
889.3506956432192,2110
891.5774098741766,2104
893.803521060728,2061
896.0290294291852,1989
898.2539352059397,2023
900.4782386174619,2010
902.7019398903011,2073
904.925039251085,2076
907.147536926521,2055
909.3694331433943,2042
911.59072812857,2050
913.8114221089921,2104
916.0315153116827,2060
918.2510079637437,1989
920.4699002923547,1991
922.6881925247761,2020
924.905884888345,2085
927.1229776104793,2041
929.3394709186747,1989
931.555365040506,2013
933.7706602036275,2026
935.9853566357709,2114
938.1994545647489,2146
940.4129542184515,2105
942.6258558248488,2095
944.8381596119883,2097
947.0498658079974,2022
949.2609746410825,2127
951.4714863395287,2110
953.6814011316998,2159
955.8907192460387,2073
958.0994409110671,2036
960.3075663553858,2133
962.5150958076741,2028
964.7220294966913,2096
966.928367651274,2110
969.1341105003388,2039
971.3392582728806,2039
973.5438111979742,2055
975.747769504772,1962
977.9511334225061,2026
980.153903180487,1978
982.3560790081052,2014
984.5576611348289,1974
986.7586497902058,1967
988.9590452038618,1957
991.158847605503,1946
993.3580572249133,1885
995.5566742919558,1853
997.7546990365728,1806
999.952131688785,1811
1002.1489724786926,1748
1004.3452216364743,1773
1006.5408793923874,1760
1008.7359459767691,1788
1010.9304216200343,1708
1013.1243065526781,1664
1015.3176010052733,1768
1017.510305208472,1703
1019.7024193930064,1714
1021.8939437896848,1750
1024.0848786293977,1662
1026.2752241431122,1747
1028.4649805618747,1688
1030.6541481168115,1701
1032.842727039127,1719
1035.0307175601051,1681
1037.2181199111074,1622
1039.4049343235752,1630
1041.591161029029,1649
1043.7768002590683,1644
1045.9618522453698,1664
1048.1463172196918,1589
1050.3301954138697,1669
1052.513487059818,1608
1054.69619238953,1626
1056.8783116350783,1627
1059.0598450286152,1586
1061.2407928023704,1671
1063.4211551886528,1625
1065.6009324198508,1666
1067.780124728432,1638
1069.9587323469414,1636
1072.1367555080046,1631
1074.314194444325,1558
1076.4910493886855,1613
1078.667320573947,1546
1080.843008233051,1548
1083.0181125990161,1518
1085.1926339049414,1574
1087.3665723840027,1573
1089.5399282694575,1547
1091.7127017946405,1603
1093.8848931929647,1554
1096.0565026979243,1545
1098.2275305430899,1550
1100.3979769621128,1631
1102.567842188722,1496
1104.737126456726,1566
1106.9058300000124,1527
1109.0739530525475,1502
1111.2414958483764,1579
1113.4084586216231,1579
1115.5748416064907,1565
1117.7406450372605,1507
1119.9058691482942,1529
1122.0705141740304,1521
1124.2345803489884,1550
1126.3980679077658,1531
1128.5609770850388,1524
1130.7233081155623,1494
1132.8850612341707,1488
1135.0462366757774,1511
1137.2068346753745,1544
1139.3668554680326,1546
1141.526299288901,1548
1143.68516637321,1488
1145.8434569562655,1534
1148.001171273455,1524
1150.158309560244,1532
1152.3148720521767,1599
1154.470858984876,1542
1156.626270594044,1489
1158.7811071154629,1548
1160.9353687849912,1488
1163.089055838569,1506
1165.242168512213,1587
1167.3947070420209,1474
1169.5466716641677,1531
1171.6980626149075,1611
1173.8488801305748,1495
1175.9991244475814,1528
1178.1487958024186,1521
1180.2978944316555,1505
1182.4464205719428,1497
1184.5943744600072,1468
1186.7417563326567,1519
1188.8885664267755,1482
1191.0348049793297,1518
1193.1804722273619,1548
1195.325568407995,1502
1197.4700937584303,1471
1199.614048515948,1504
1201.7574329179074,1443
1203.900247201746,1499
1206.042491604982,1487
1208.1841663652099,1503
1210.3252717201053,1511
1212.465807907422,1474
1214.6057751649923,1586
1216.7451737307279,1546
1218.8840038426192,1563
1221.0222657387353,1558
1223.1599596572241,1542
1225.2970858363137,1572
1227.4336445143094,1536
1229.5696359295966,1590
1231.705060320639,1623
1233.8399179259786,1560
1235.9742089842384,1580
1238.107933734118,1588
1240.2410924143974,1594
1242.373685263935,1555
1244.5057125216676,1615
1246.6371744266116,1591
1248.7680712178621,1606
1250.898403134593,1537
1253.028170416058,1537
1255.1573733015875,1550
1257.2860120305932,1577
1259.4140868425648,1657
1261.54159797707,1571
1263.6685456737569,1603
1265.7949301723515,1630
1267.9207517126597,1669
1270.046010534565,1640
1272.1707068780306,1612
1274.2948409830983,1688
1276.4184130898889,1644
1278.541423438603,1680
1280.6638722695184,1676
1282.785759822993,1597
1284.9070863394636,1599
1287.0278520594447,1653
1289.1480572235314,1648
1291.2677020723963,1630
1293.3867868467923,1651
1295.5053117875495,1691
1297.623277135579,1797
1299.740683131868,1760
1301.8575300174857,1737
1303.973818033578,1822
1306.0895474213703,1786
1308.2047184221678,1738
1310.3193312773528,1695
1312.4333862283888,1716
1314.5468835168163,1794
1316.659823384255,1792
1318.7722060724045,1753
1320.8840318230418,1711
1322.9953008780249,1829
1325.1060134792888,1764
1327.2161698688478,1760
1329.3257702887959,1708
1331.4348149813054,1710
1333.5433041886276,1810
1335.6512381530933,1785
1337.7586171171101,1750
1339.8654413231675,1754
1341.9717110138317,1714
1344.0774264317488,1693
1346.1825878196432,1753
1348.2871954203192,1711
1350.3912494766587,1776
1352.4947502316231,1771
1354.5976979282532,1709
1356.7000928096686,1742
1358.8019351190665,1650
1360.9032250997243,1710
1363.0039629949988,1736
1365.1041490483235,1727
1367.2037835032133,1746
1369.3028666032606,1743
1371.401398592137,1734
1373.4993797135926,1725
1375.5968102114575,1749
1377.6936903296396,1692
1379.7900203121262,1668
1381.8858004029835,1711
1383.9810308463561,1721
1386.075711886469,1748
1388.1698437676241,1760
1390.2634267342032,1702
1392.356461030667,1741
1394.4489469015557,1758
1396.5408845914872,1767
1398.6322743451592,1765
1400.7231164073469,1723
1402.813411022907,1734
1404.903158436773,1708
1406.9923588939578,1821
1409.0810126395531,1766
1411.1691199187303,1764
1413.2566809767386,1855
1415.343696058907,1816
1417.4301654106425,1810
1419.5160892774315,1804
1421.6014679048399,1879
1423.6863015385125,1911
1425.7705904241707,1895
1427.8543348076178,1856
1429.9375349347342,1859
1432.0201910514802,1913
1434.102303403894,1835
1436.1838722380944,2000
1438.2648978002767,1932
1440.3453803367174,2007
1442.4253200937692,1971
1444.5047173178677,2017
1446.5835722555234,2059
1448.6618851533285,2147
1450.739656257952,2177
1452.8168858161434,2150
1454.8935740747306,2146
1456.96972128062,2155
1459.045327680797,2203
1461.120393522327,2238
1463.1949190523528,2258
1465.2689045180973,2291
1467.3423501668608,2308
1469.415256246024,2352
1471.4876230030463,2317
1473.559450685465,2426
1475.6307395408976,2422
1477.7014898170391,2511
1479.771701761665,2476
1481.8413756226287,2471
1483.9105116478618,2551
1485.9791100853772,2641
1488.0471711832643,2653
1490.1146951896926,2693
1492.1816823529098,2671
1494.2481329212433,2733
1496.3140471430984,2783
1498.3794252669609,2746
1500.4442675413939,2792
1502.5085742150404,2882
1504.572345536622,2883
1506.6355817549388,2894
1508.6982831188702,2854
1510.7604498773744,2918
1512.8220822794883,2934
1514.8831805743293,2966
1516.9437450110909,2894
1519.003775839048,3010
1521.0632733075522,2969
1523.1222376660367,3135
1525.1806691640113,3105
1527.2385680510652,3024
1529.2959345768668,3129
1531.3527689911643,3100
1533.4090715437833,3199
1535.4648424846291,3163
1537.5200820636855,3291
1539.5747905310159,3320
1541.6289681367616,3361
1543.6826151311434,3323
1545.7357317644614,3408
1547.7883182870937,3472
1549.8403749494987,3545
1551.8919020022113,3531
1553.9428996958477,3700
1555.9933682811015,3676
1558.0433080087469,3794
1560.0927191296346,3832
1562.1416018946961,3872
1564.1899565549415,3848
1566.2377833614592,3928
1568.2850825654164,3846
1570.3318544180606,3804
1572.3780991707158,3724
1574.423817074788,3629
1576.4690083817595,3458
1578.5136733431923,3311
1580.5578122107272,3145
1582.601425236085,3096
1584.6445126710646,2996
1586.6870747675434,2887
1588.7291117774776,2715
1590.7706239529034,2605
1592.8116115459347,2567
1594.8520748087658,2487
1596.8920139936686,2398
1598.9314293529933,2269
1600.9703211391711,2296
1603.008689604711,2224
1605.0465350022005,2062
1607.0838575843068,2003
1609.1206576037753,2031
1611.1569353134305,1992
1613.1926909661765,1978
1615.2279248149953,1932
1617.2626371129481,1889
1619.2968281131757,1853
1621.3304980688963,1849
1623.3636472334088,1788
1625.39627586009,1779
1627.428384202396,1716
1629.459972513861,1750
1631.4910410480993,1782
1633.5215900588028,1709
1635.551619799744,1626
1637.5811305247717,1718
1639.6101224878166,1636
1641.6385959428862,1629
1643.6665511440683,1605
1645.693988345528,1591
1647.7209078015112,1576
1649.7473097663405,1606
1651.7731944944203,1677
1653.7985622402307,1635
1655.823413258333,1558
1657.847747803366,1587
1659.8715661300494,1610
1661.8948684931793,1595
1663.9176551476316,1598
1665.9399263483624,1578
1667.9616823504057,1563
1669.982923408873,1581
1672.0036497789574,1592
1674.0238617159293,1604
1676.043559475138,1548
1678.0627433120121,1630
1680.081413482059,1633
1682.0995702408654,1621
1684.117213844096,1554
1686.134344547495,1594
1688.1509626068864,1547
1690.1670682781705,1590
1692.182661817329,1599
1694.1977434804217,1596
1696.2123135235875,1545
1698.226372203043,1588
1700.2399197750851,1599
1702.2529564960905,1555
1704.2654826225112,1575
1706.277498410882,1519
1708.2890041178139,1573
1710.2999999999988,1557
1712.3104863142066,1631
1714.3204633172854,1580
1716.329931266163,1561
1718.3388904178469,1582
1720.3473410294214,1541
1722.3552833580516,1574
1724.3627176609807,1548
1726.3696441955308,1512
1728.3760632191033,1526
1730.3819749891782,1485
1732.3873797633146,1487
1734.3922777991502,1518
1736.3966693544012,1531
1738.4005546868639,1465
1740.4039340544127,1462
1742.406807715001,1526
1744.4091759266616,1511
1746.4110389475054,1499
1748.4123970357223,1448
1750.413250449582,1548
1752.4135994474318,1480
1754.4134442876993,1439
1756.4127852288902,1478
1758.4116225295893,1513
1760.4099564484595,1485
1762.407787244244,1495
1764.405115175764,1492
1766.4019405019203,1456
1768.3982634816916,1460
1770.3940843741357,1459
1772.3894034383907,1409
1774.3842209336717,1413
1776.378537119274,1449
1778.372352254571,1438
1780.3656665990156,1403
1782.3584804121397,1449
1784.3507939535534,1410
1786.3426074829463,1458
1788.3339212600863,1447
1790.3247355448211,1430
1792.3150505970766,1429
1794.3048666768573,1427
1796.2941840442477,1439
1798.2830029594106,1412
1800.2713236825884,1422
1802.2591464741004,1423
1804.2464715943465,1408
1806.2332993038058,1442
1808.2196298630352,1416
1810.2054635326708,1443
1812.190800573428,1421
1814.175641246101,1419
1816.1599858115628,1475
1818.1438345307652,1420
1820.127187664738,1374
1822.1100454745924,1434
1824.092408221516,1460
1826.0742761667766,1389
1828.055649571721,1402
1830.0365286977735,1423
1832.0169138064398,1420
1833.9968051593014,1412
1835.9762030180214,1372
1837.9551076443408,1350
1839.9335193000788,1433
1841.9114382471344,1433
1843.888864747485,1427
1845.8657990631878,1363
1847.842241456378,1377
1849.8181921892697,1400
1851.7936515241558,1395
1853.7686197234098,1383
1855.7430970494815,1347
1857.7170837649014,1434
1859.6905801322787,1423
1861.6635864143004,1399
1863.6361028737338,1435
1865.608129773424,1413
1867.5796673762961,1398
1869.5507159453537,1422
1871.521275743678,1403
1873.4913470344313,1366
1875.4609300808534,1391
1877.4300251462632,1361
1879.3986324940588,1458
1881.366752387717,1457
1883.3343850907936,1433
1885.3015308669228,1389
1887.268189979819,1417
1889.2343626932739,1427
1891.2000492711595,1456
1893.1652499774254,1400
1895.1299650761011,1416
1897.0941948312952,1405
1899.0579395071945,1446
1901.0211993680641,1475
1902.98397467825,1401
1904.9462657021745,1432
1906.9080727043415,1467
1908.869395949332,1474
1910.8302357018065,1427
1912.790592226504,1435
1914.7504657882428,1436
1916.7098566519212,1429
1918.6687650825133,1393
1920.6271913450764,1391
1922.5851357047422,1446
1924.5425984267245,1425
1926.499579776314,1439
1928.4560800188833,1455
1930.4120994198802,1400
1932.367638244833,1416
1934.32269675935,1446
1936.2772752291175,1393
1938.231373919899,1402
1940.1849930975404,1426
1942.1381330279637,1427
1944.0907939771696,1419
1946.0429762112412,1443
1947.9946799963363,1391
1949.9459055986945,1443
1951.896653284633,1459
1953.8469233205478,1439
1955.7967159729142,1419
1957.7460315082863,1425
1959.6948701932974,1416
1961.6432322946594,1397
1963.5911180791632,1423
1965.5385278136787,1434
1967.4854617651545,1436
1969.4319202006182,1360
1971.377903387176,1389
1973.3234115920136,1392
1975.268445082395,1339
1977.2130041256642,1341
1979.1570889892423,1391
1981.1006999406304,1430
1983.04383724741,1390
1984.986501177238,1372
1986.928691997853,1388
1988.8704099770712,1302
1990.811655382789,1393
1992.7524284829801,1388
1994.692729545698,1399
1996.6325588390755,1344
1998.5719166313224,1370
2000.5108031907307,1336
2002.4492187856677,1427
2004.387163684583,1397
2006.3246381560011,1372
2008.2616424685298,1345
2010.1981768908527,1344
2012.1342416917332,1419
2014.069837140014,1393
2016.0049635046162,1431
2017.9396210545406,1318
2019.8738100588666,1385
2021.8075307867502,1376
2023.740783507431,1329
2025.6735684902228,1432
2027.6058860045214,1366
2029.5377363198004,1397
2031.4691197056118,1379
2033.4000364315875,1384
2035.3304867674374,1418
2037.260470982952,1385
2039.189989347998,1331
2041.1190421325232,1375
2043.047629606554,1370
2044.9757520401945,1370
2046.9034097036288,1373
2048.8306028671195,1340
2050.7573318010086,1370
2052.683596775716,1358
2054.609398061742,1359
2056.5347359296647,1353
2058.4596106501403,1325
2060.384022493906,1328
2062.3079717317764,1283
2064.231458634646,1355
2066.1544834734873,1319
2068.077046519352,1336
2069.99914804337,1338
2071.9207883167524,1327
2073.8419676107865,1295
2075.7626861968406,1338
2077.6829443463607,1365
2079.6027423308715,1368
2081.522080421977,1370
2083.440958891362,1313
2085.359378010786,1319
2087.2773380520907,1367
2089.194839287196,1350
2091.111881988101,1310
2093.0284664268825,1369
2094.9445928756973,1311
2096.86026160678,1301
2098.775472892446,1342
2100.690227005088,1347
2102.604524217178,1313
2104.5183648012676,1368
2106.431749029985,1342
2108.34467717604,1279
2110.2571495122206,1320
2112.169166311393,1337
2114.080727846503,1363
2115.9918343905747,1328
2117.902486216711,1392
2119.8126835980956,1375
2121.722426807987,1355
2123.6317161197285,1369
2125.5405518067364,1387
2127.448934142509,1421
2129.356863400624,1322
2131.264339854737,1424
2133.1713637785815,1413
2135.077935445972,1423
2136.9840551308002,1350
2138.889723107037,1402
2140.7949396487334,1410
2142.699705030018,1357
2144.6040195250994,1430
2146.507883408264,1415
2148.4112969538774,1359
2150.3142604363848,1397
2152.2167741303097,1391
2154.1188383102535,1355
2156.0204532508997,1381
2157.9216192270064,1403
2159.822336513414,1401
2161.7226053850413,1405
2163.622426116884,1412
2165.5217989840185,1390
2167.4207242616,1392
2169.319202224862,1384
2171.2172331491165,1341
2173.1148173097563,1368
2175.0119549822507,1437
2176.90864644215,1379
2178.8048919650823,1405
2180.7006918267534,1389
2182.596046302952,1433
2184.4909556695407,1452
2186.3854202024645,1443
2188.279440177746,1412
2190.173015871487,1458
2192.066147559868,1437
2193.958835519149,1435
2195.851080025667,1354
2197.7428813558417,1378
2199.6342397861667,1418
2201.5251555932186,1361
2203.415629053651,1399
2205.3056604441986,1415
2207.19525004167,1465
2209.084398122958,1397
2210.9731049650327,1463
2212.861370844941,1445
2214.749196039812,1460
2216.636580826851,1439
2218.523525483344,1422
2220.410030286655,1453
2222.296095514226,1499
2224.1817214435805,1436
2226.066908352319,1405
2227.951656518121,1410
2229.835966218746,1460
2231.71983773203,1423
2233.6032713358913,1404
2235.486267308324,1402
2237.3688259274036,1450
2239.2509474712824,1370
2241.132632218193,1421
2243.013880446447,1418
2244.8946924344323,1456
2246.7750684606203,1409
2248.6550088035574,1445
2250.534513741871,1457
2252.413583554265,1460
2254.292218519526,1389
2256.170418916517,1458
2258.0481850241786,1445
2259.925517121534,1404
2261.8024154876825,1452
2263.678880401803,1450
2265.5549121431536,1436
2267.430510991071,1400
2269.305677224971,1385
2271.180411124348,1383
2273.0547129687766,1367
2274.9285830379076,1351
2276.8020216114737,1437
2278.6750289692845,1428
2280.5476053912294,1392
2282.4197511572766,1434
2284.2914665474727,1385
2286.162751841943,1399
2288.0336073208937,1475
2289.904033264608,1456
2291.774029953448,1495
2293.6435976678554,1368
2295.5127366883517,1391
2297.381447295534,1409
2299.2497297700825,1379
2301.1175843927526,1321
2302.9850114443825,1351
2304.852011205885,1325
2306.7185839582553,1283
2308.5847299825664,1284
2310.4504495599676,1279
2312.3157429716925,1267
2314.1806104990483,1231
2316.0450524234247,1299
2317.9090690262888,1267
2319.772660589186,1239
2321.635827393742,1268
2323.498569721661,1253
2325.3608878547248,1279
2327.2227820747967,1269
2329.0842526638157,1214
2330.945299903803,1242
2332.805924076857,1217
2334.6661254651535,1260
2336.525904350951,1320
2338.3852610165827,1278
2340.244195744464,1272
2342.102708817088,1289
2343.9608005170253,1272
2345.8184711269287,1244
2347.675720929526,1297
2349.532550207628,1250
2351.38895924412,1257
2353.24494832197,1331
2355.100517724223,1227
2356.955667734004,1287
2358.810398634514,1268
2360.664710709037,1283
2362.5186042409337,1273
2364.3720795136437,1317
2366.225136810686,1292
2368.0777764156583,1231
2369.929998612237,1207
2371.7818036841777,1323
2373.633191915315,1266
2375.484163589562,1263
2377.3347189909114,1225
2379.184858403434,1246
2381.03458211128,1258
2382.8838903986775,1274
2384.732783549936,1273
2386.5812618494406,1341
2388.4293255816588,1264
2390.2769750311327,1264
2392.1242104824883,1337
2393.971032220427,1290
2395.8174405297295,1336
2397.6634356952563,1337
2399.509018001947,1316
2401.3541877348193,1273
2403.1989451789705,1280
2405.043290619576,1346
2406.8872243418905,1311
2408.730746631247,1344
2410.5738577730594,1277
2412.4165580528183,1317
2414.258847756095,1325
2416.100727168537,1285
2417.9421965758734,1274
2419.783256263912,1275
2421.623906518538,1297
2423.4641476257157,1286
2425.303979871491,1320
2427.143403541984,1279
2428.9824189233977,1302
2430.821026302012,1306
2432.6592259641866,1294
2434.497018196361,1307
2436.33440328505,1305
2438.171381516851,1331
2440.00795317844,1293
2441.844118556569,1253
2443.6798779380724,1326
2445.5152316098606,1369
2447.3501798589255,1287
2449.1847229723357,1322
2451.0188612372403,1316
2452.8525949408663,1279
2454.6859243705203,1296
2456.518849813587,1299
2458.3513715575314,1264
2460.183489889895,1340
2462.015205098301,1301
2463.8465174704493,1317
2465.67742729412,1293
2467.5079348571717,1325
2469.338040447542,1319
2471.1677443532476,1313
2472.9970468623833,1304
2474.825948263123,1377
2476.6544488437207,1289
2478.482548892508,1324
2480.310248697896,1337
2482.137548548374,1354
2483.9644487325118,1314
2485.790949538956,1319
2487.617051256433,1389
2489.44275417375,1356
2491.26805857979,1311
2493.0929647635157,1357
2494.917473013971,1334
2496.741583620276,1334
2498.5652968716304,1350
2500.3886130573137,1347
2502.2115324666834,1303
2504.0340553891765,1314
2505.856182114308,1339
2507.6779129316733,1342
2509.499248130945,1389
2511.3201880018764,1342
2513.140732834298,1349
2514.9608829181198,1327
2516.780638543331,1366
2518.6,1378
2520.418967578273,1366
2522.237541568376,1412
2524.0557222606144,1393
2525.8735099453706,1400
2527.6909049131086,1389
2529.507907454368,1398
2531.32451785977,1396
2533.140736420014,1355
2534.9565634258774,1386
2536.771999168218,1398
2538.5870439379714,1410
2540.4016980261526,1446
2542.2159617238544,1450
2544.02983532225,1429
2545.8433191125914,1466
2547.656413386209,1499
2549.4691184345115,1455
2551.2814345489874,1500
2553.093362021204,1498
2554.904901142808,1488
2556.716052205523,1475
2558.526815501153,1559
2560.3371913215824,1518
2562.147179958771,1541
2563.956781704761,1505
2565.7659968516705,1618
2567.5748256916986,1555
2569.3832685171224,1584
2571.1913256202984,1518
2572.9989972936614,1588
2574.806283829725,1656
2576.613185521084,1619
2578.4197026604074,1587
2580.2258355404483,1612
2582.031584454035,1621
2583.836949694077,1614
2585.6419315535613,1691
2587.4465303255533,1645
2589.2507463032002,1643
2591.0545797797245,1671
2592.8580310484303,1676
2594.6611004026995,1696
2596.463788135992,1633
2598.266094541849,1653
2600.0680199138874,1677
2601.869564545807,1660
2603.670728731383,1678
2605.4715127644704,1699
2607.2719169390048,1673
2609.071941548998,1676
2610.8715868885433,1687
2612.670853251811,1580
2614.469740933052,1707
2616.268250226594,1634
2618.0663814268455,1660
2619.864134828292,1611
2621.6615107255006,1610
2623.458509413115,1652
2625.2551311858597,1568
2627.0513763385347,1562
2628.8472451660223,1543
2630.6427379632833,1574
2632.4378550253564,1538
2634.232596647359,1569
2636.026963124488,1535
2637.8209547520187,1519
2639.6145718253065,1539
2641.407814639785,1522
2643.200683490966,1535
2644.9931786744414,1513
2646.7853004858807,1516
2648.577049221034,1582
2650.3684251757277,1520
2652.1594286458712,1492
2653.9500599274484,1448
2655.740319316525,1452
2657.5302071092437,1446
2659.3197236018286,1447
2661.10886909058,1424
2662.8976438718782,1476
2664.686048242183,1471
2666.4740824980327,1381
2668.2617469360443,1427
2670.0490418529134,1429
2671.8359675454153,1409
2673.622524310403,1340
2675.408712444811,1372
2677.1945322456495,1353
2678.979984010009,1366
2680.76506803506,1344
2682.5497846180497,1341
2684.334134056306,1349
2686.1181166472343,1377
2687.9017326883213,1327
2689.6849824771293,1292
2691.4678663113013,1334
2693.2503844885596,1316
2695.032537306705,1335
2696.8143250636167,1351
2698.5957480572542,1272
2700.3768065856534,1322
2702.1575009469316,1294
2703.937831439283,1326
2705.717798360982,1287
2707.4974020103837,1218
2709.276642685917,1320
2711.055520686095,1311
2712.834036309506,1263
2714.612189854819,1248
2716.389981620782,1241
2718.1674119062204,1242
2719.944481010041,1236
2721.721189231226,1331
2723.4975368688415,1335
2725.273524222027,1278
2727.0491515900053,1283
2728.824419272075,1264
2730.5993275676146,1264
2732.3738767760838,1294
2734.148067197016,1293
2735.921899130031,1222
2737.6953728748194,1203
2739.468488731156,1284
2741.2412469988926,1250
2743.0136479779617,1257
2744.785691968372,1226
2746.5573792702116,1263
2748.3287101836504,1274
2750.099685008934,1272
2751.870304046388,1236
2753.640567596418,1286
2755.4104759595057,1237
2757.1800294362156,1235
2758.949228327187,1269
2760.7180729331412,1244
2762.486563554877,1248
2764.254700493272,1248
2766.022484049284,1248
2767.789914523947,1182
2769.5569922183786,1204
2771.3237174337705,1313
2773.090090471394,1216
2774.8561116326036,1236
2776.6217812188274,1235
2778.3870995315756,1202
2780.1520668724356,1203
2781.9166835430747,1173
2783.6809498452394,1224
2785.444866080754,1234
2787.2084325515225,1233
2788.971649559527,1205
2790.73451740683,1194
2792.4970363955713,1227
2794.2592068279705,1200
2796.0210290063264,1197
2797.7825032330147,1221
2799.543629810493,1269
2801.304409041296,1256
2803.0648412280366,1236
2804.8249266734088,1226
2806.5846656801846,1276
2808.344058551212,1206
2810.1031055894246,1224
2811.8618070978273,1226
2813.6201633795085,1231
2815.378174737636,1220
2817.1358414754536,1191
2818.893163896285,1207
2820.6501423035334,1245
2822.4067770006814,1177
2824.1630682912883,1233
2825.9190164789957,1230
2827.6746218675207,1241
2829.429884760661,1258
2831.184805462294,1225
2832.9393842763743,1245
2834.693621506936,1236
2836.4475174580916,1213
2838.201072434034,1217
2839.954286739034,1202
2841.707160677441,1216
2843.459694553685,1208
2845.2118886722724,1269
2846.96374333779,1222
2848.7152588549034,1203
2850.4664355283567,1232
2852.217273662973,1219
2853.9677735636546,1224
2855.7179355353833,1186
2857.4677598832186,1251
2859.217246912299,1239
2860.9663969278427,1198
2862.715210235146,1234
2864.4636871395846,1183
2866.211827946614,1178
2867.9596329617652,1213
2869.7071024906536,1172
2871.4542368389684,1257
2873.20103631248,1221
2874.947501217038,1202
2876.6936318585695,1227
2878.4394285430812,1235
2880.1848915766604,1247
2881.9300212654707,1218
2883.6748179157553,1204
2885.4192818338374,1192
2887.1634133261173,1213
2888.907212699077,1240
2890.6506802592744,1148
2892.393816313348,1247
2894.1366211680142,1205
2895.8790951300693,1158
2897.621238506388,1200
2899.363051603925,1218
2901.1045347297118,1178
2902.8456881908596,1234
2904.58651229456,1239
2906.327007348081,1195
2908.067173658772,1200
2909.8070115340597,1147
2911.5465212814497,1197
2913.285703208527,1147
2915.0245576229563,1191
2916.7630848324807,1192
2918.5012851449196,1207
2920.2391588681758,1190
2921.976706310227,1191
2923.7139277791334,1219
2925.4508235830313,1206
2927.187394030137,1183
2928.923639428745,1273
2930.6595600872306,1249
2932.395156314046,1207
2934.1304284177218,1193
2935.8653767068713,1161
2937.6000014901815,1231
2939.3343030764227,1218
2941.068281774442,1191
2942.8019378931644,1199
2944.5352717415976,1188
2946.2682836288236,1280
2948.0009738640065,1223
2949.7333427563885,1198
2951.465390615289,1213
2953.1971177501086,1206
2954.9285244703265,1197
2956.6596110855,1265
2958.3903779052657,1242
2960.1208252393385,1230
2961.8509533975125,1230
2963.5807626896617,1217
2965.3102534257378,1185
2967.0394259157715,1197
2968.768280469873,1222
2970.496817398232,1228
2972.2250370111146,1207
2973.952939618869,1226
2975.6805255319196,1181
2977.4077950607707,1215
2979.134748516006,1201
2980.861386208289,1233
2982.587708448359,1179
2984.313715547037,1199
2986.039407815222,1194
2987.764785563891,1191
2989.489849104102,1247
2991.2145987469908,1201
2992.9390348037705,1149
2994.6631575857346,1221
2996.3869674042576,1202
2998.1104645707887,1237
2999.83364939686,1155
3001.5565221940783,1203
3003.2790832741334,1179
3005.0013329487924,1173
3006.7232715298996,1167
3008.4448993293804,1167
3010.166216659239,1168
3011.887223831558,1194
3013.607921158498,1179
3015.3283089522993,1236
3017.0483875252826,1211
3018.7681571898443,1166
3020.4876182584626,1191
3022.2067710436927,1175
3023.9256158581707,1164
3025.644153014609,1216
3027.362382825801,1212
3029.0803056046193,1200
3030.797921664012,1225
3032.5152313170106,1171
3034.2322348767225,1166
3035.9489326563353,1210
3037.665324969115,1153
3039.3814121284063,1195
3041.097194447633,1218
3042.812672240299,1226
3044.5278458199855,1166
3046.2427155003525,1219
3047.9572815951406,1207
3049.671544418167,1157
3051.38550428333,1187
3053.0991615046073,1119
3054.812516396051,1165
3056.5255692717974,1155
3058.2383204460575,1209
3059.9507702331257,1200
3061.662918947372,1175
3063.3747669032446,1201
3065.0863144152736,1224
3066.7975617980674,1185
3068.508509366309,1190
3070.219157434767,1217
3071.9295063182844,1168
3073.639556331785,1205
3075.3493077902704,1201
3077.058761008821,1228
3078.7679163025964,1143
3080.476773986837,1257
3082.1853343768594,1254
3083.89359778806,1205
3085.6015645359153,1234
3087.3092349359786,1216
3089.016609303884,1122
3090.7236879553434,1134
3092.4304712061476,1173
3094.136959372166,1190
3095.843152769349,1230
3097.5490517137237,1199
3099.2546565213966,1228
3100.959967508554,1203
3102.66498499146,1193
3104.3697092864577,1162
3106.0741407099695,1231
3107.778279578498,1153
3109.482126208622,1184
3111.1856809170004,1187
3112.8889440203716,1210
3114.5919158355528,1172
3116.294596679439,1205
3117.996986869006,1191
3119.6990867213062,1207
3121.4008965534726,1191
3123.102416682717,1205
3124.803647426329,1157
3126.5045891016784,1228
3128.205242026213,1208
3129.90560651746,1216
3131.605682893025,1188
3133.3054714705922,1196
3135.0049725679282,1196
3136.7041865028714,1199
3138.4031135933465,1180
3140.101754157353,1226
3141.800108512971,1219
3143.498176978357,1156
3145.1959598717494,1209
3146.8934575114636,1216
3148.5906702158954,1151
3150.2875983035183,1217
3151.9842420928853,1161
3153.680601902627,1183
3155.376678051456,1175
3157.07247085816,1165
3158.767980641609,1159
3160.463207720748,1210
3162.158152414606,1206
3163.8528150422862,1199
3165.5471959229726,1156
3167.2412953759303,1156
3168.9351137204976,1238
3170.628651276098,1169
3172.3219083622307,1175
3174.014885298474,1191
3175.707582404485,1210
3177.4000000000005,1191
3179.092138404835,1211
3180.7839979388846,1191
3182.47557892212,1210
3184.166881674594,1272
3185.8579065164386,1175
3187.5486537678626,1143
3189.2391237491547,1231
3190.9293167806827,1195
3192.6192331828934,1170
3194.3088732763117,1171
3195.998237381542,1187
3197.687325819268,1168
3199.376138910251,1145
3201.064676975334,1154
3202.7529403354347,1124
3204.4409293115523,1172
3206.1286442247647,1134
3207.816085396229,1166
3209.5032531471825,1196
3211.190147798936,1129
3212.8767696728846,1130
3214.5631190905015,1140
3216.2491963733373,1174
3217.9350018430214,1150
3219.6205358212637,1173
3221.305798629851,1129
3222.990790590651,1166
3224.6755120256103,1137
3226.359963256751,1147
3228.0441446061795,1168
3229.7280563960758,1141
3231.411698948703,1208
3233.0950725863995,1106
3234.778177631587,1182
3236.461014406761,1152
3238.1435832345005,1153
3239.8258844374595,1187
3241.507918338374,1141
3243.1896852600576,1159
3244.8711855254023,1191
3246.552419457381,1159
3248.233387379042,1138
3249.914089613516,1160
3251.59452648401,1147
3253.274698313813,1107
3254.95460542629,1146
3256.6342481448855,1116
3258.313626793125,1082
3259.9927416946084,1158
3261.6715931730196,1133
3263.3501815521176,1109
3265.0285071557437,1154
3266.706570307815,1107
3268.3843713323286,1150
3270.0619105533615,1182
3271.739188295068,1164
3273.4162048816834,1104
3275.0929606375184,1124
3276.769455886966,1213
3278.445690954498,1175
3280.1216661646613,1165
3281.797381842087,1203
3283.4728383114807,1124
3285.1480358976296,1130
3286.8229749253996,1152
3288.4976557197333,1167
3290.172078605655,1151
3291.846243908266,1143
3293.5201519527463,1149
3295.193803064357,1133
3296.8671975684374,1113
3298.5403357904024,1151
3300.21321805575,1157
3301.8858446900567,1137
3303.558216018975,1140
3305.23033236824,1158
3306.9021940636603,1102
3308.57380143113,1105
3310.2451547966184,1135
3311.916254486174,1159
3313.5871008259246,1147
3315.2576941420766,1160
3316.9280347609147,1129
3318.5981230088046,1128
3320.2679592121895,1135
3321.9375436975924,1131
3323.606876791612,1179
3325.27595882093,1160
3326.944790112305,1115
3328.6133709925753,1213
3330.2817017886573,1132
3331.949782827547,1095
3333.617614436319,1113
3335.2851969421245,1176
3336.952530672199,1155
3338.619615953853,1200
3340.286453114475,1151
3341.9530424815357,1135
3343.619384382583,1157
3345.2854791452437,1143
3346.951327097224,1195
3348.6169285663073,1183
3350.2822838803577,1145
3351.947393367319,1185
3353.61225735521,1150
3355.2768761721345,1158
3356.9412501462693,1143
3358.605379605873,1157
3360.2692648792827,1182
3361.9329062949146,1125
3363.596304181263,1144
