CollectionTime,9/19/2024 11:35:06 AM
ExposureUsed,3
CalibratedSpectrum
-962.7078968117929,661
-959.9714848408522,677
-957.2358232597828,704
-954.5009119013725,676
-951.7667505983302,690
-949.0333391832855,741
-946.3006774887896,747
-943.5687653473143,710
-940.837602591253,696
-938.1071890529199,664
-935.3775245645503,681
-932.6486089583007,704
-929.9204420662485,695
-927.1930237203925,719
-924.4663537526524,670
-921.7404319948689,743
-919.0152582788041,760
-916.2908324361409,768
-913.5671542984834,721
-910.8442236973568,710
-908.1220404642074,645
-905.4006044304027,735
-902.679915427231,740
-899.959973285902,678
-897.2407778375464,684
-894.5223289132158,692
-891.8046263438832,720
-889.0876699604426,717
-886.3714595937089,742
-883.6559950744183,698
-880.9412762332282,659
-878.2273029007168,685
-875.5140749073835,737
-872.8015920836489,717
-870.0898542598545,700
-867.3788612662631,712
-864.6686129330585,706
-861.9591090903457,667
-859.2503495681506,652
-856.5423341964203,674
-853.8350628050229,702
-851.1285352237478,657
-848.4227512823054,672
-845.7177108103272,701
-843.0134136373656,704
-840.3098595928943,701
-837.6070485063082,724
-834.9049802069229,725
-832.2036545239757,706
-829.5030712866244,695
-826.8032303239481,694
-824.1041314649472,662
-821.4057745385428,681
-818.7081593735775,689
-816.0112857988148,677
-813.3151536429393,677
-810.6197627345566,697
-807.9251129021936,686
-805.2312039742981,720
-802.5380357792392,716
-799.8456081453069,754
-797.1539209007124,738
-794.462973873588,715
-791.772766891987,694
-789.083299783884,724
-786.3945723771743,742
-783.7065844996748,694
-781.0193359791231,693
-778.3328266431781,711
-775.6470563194197,688
-772.9620248353489,687
-770.2777320183878,701
-767.5941776958798,685
-764.9113616950891,719
-762.2292838432011,676
-759.5479439673222,697
-756.8673418944801,695
-754.1874774516235,721
-751.5083504656222,682
-748.8299607632671,714
-746.15230817127,716
-743.475392516264,752
-740.7992136248035,717
-738.1237713233636,689
-735.4490654383407,666
-732.7750957960521,707
-730.1018622227365,723
-727.4293645445534,701
-724.7576025875837,708
-722.0865761778291,715
-719.4162851412126,791
-716.7467293035781,776
-714.0779084906909,767
-711.409822528237,778
-708.7424712418238,725
-706.0758544569796,735
-703.4099719991541,772
-700.7448236937178,806
-698.0804093659622,754
-695.4167288411002,753
-692.7537819442656,732
-690.0915685005134,743
-687.4300883348199,784
-684.7693412720819,774
-682.1093271371178,805
-679.4500457546669,786
-676.7914969493897,732
-674.1336805458676,757
-671.4765963686034,764
-668.8202442420206,775
-666.1646239904642,779
-663.5097354382001,776
-660.8555784094151,788
-658.2021527282176,785
-655.5494582186366,817
-652.8974947046223,826
-650.2462620100463,831
-647.5957599587009,803
-644.9459883742998,792
-642.2969470804776,843
-639.6486359007902,870
-637.0010546587141,852
-634.3542031776476,884
-631.7080812809096,825
-629.0626887917401,775
-626.4180255333008,840
-623.7740913286734,877
-621.1308860008619,837
-618.4884093727904,790
-615.8466612673046,778
-613.2056415071715,781
-610.5653499150785,801
-607.9257863136347,867
-605.28695052537,842
-602.6488423727357,811
-600.0114616781036,786
-597.3748082637674,843
-594.7388819519412,934
-592.1036825647604,1019
-589.4692099242818,927
-586.8354638524829,900
-584.2024441712624,920
-581.5701507024403,876
-578.9385832677575,877
-576.3077416888759,884
-573.6776257873787,906
-571.0482353847704,905
-568.4195703024757,861
-565.7916303618415,882
-563.164415384135,866
-560.5379251905453,887
-557.9121596021815,884
-555.2871184400748,844
-552.6628015251767,882
-550.0392086783606,903
-547.4163397204204,950
-544.794194472071,903
-542.1727727539491,968
-539.5520743866118,992
-536.9320991905377,932
-534.3128469861261,991
-531.6943175936979,1003
-529.0765108334947,1044
-526.4594265256793,1073
-523.8430644903358,1325
-521.2274245474689,1421
-518.612506517005,1461
-515.9983102187913,1520
-513.3848354725959,1489
-510.77208209810846,1485
-508.16004991493924,1520
-505.5487387426199,1570
-502.9381484006032,1627
-500.3282787082628,1632
-497.71912948489364,1609
-495.1107005497117,1610
-492.5029917218539,1502
-489.8960028203786,1388
-487.28973366426493,1192
-484.68418407241325,1172
-482.07935386364494,1122
-479.47524285670266,1112
-476.87185087025,1074
-474.2691777228715,1078
-471.66722323307334,1053
-469.0659872192821,1054
-466.4654694998459,1045
-463.86566989303384,1092
-461.26658821703614,1099
-458.66822428996414,1062
-456.07057792985,1079
-453.4736489546475,1075
-450.877437182231,1027
-448.28194243039627,1005
-445.68716451686,1059
-443.09310325926003,1024
-440.49975847515555,1043
-437.9071299820263,984
-435.31521759727354,1053
-432.72402113821954,1101
-430.13354042210767,1048
-427.5437752661022,1049
-424.95472548728867,1069
-422.36639090267386,1107
-419.7787713291855,1171
-417.1918665836721,1137
-414.60567648290385,1086
-412.0202008435715,1100
-409.4354394822874,1158
-406.8513922155845,1118
-404.26805885991723,1076
-401.685439231661,1209
-399.103533147112,1131
-396.522340422488,1055
-393.9418608739278,1123
-391.3620943174908,1139
-388.7830405691583,1072
-386.2046994448317,1057
-383.6270707603344,1019
-381.05015433141045,980
-378.473949973725,980
-375.8984575028645,945
-373.32367673433623,789
-370.74960748356875,788
-368.1762495659117,755
-365.60360279663576,715
-363.03166699093265,663
-360.4604419639154,590
-357.8899275306178,586
-355.32012350599507,580
-352.7510297049233,525
-350.1826459421999,563
-347.61497203254316,566
-345.04800779059235,552
-342.4817530309082,570
-339.91620756797226,668
-337.35137121618743,700
-334.7872437898774,607
-332.22382510328725,592
-329.66111497058273,629
-327.09911320585127,576
-324.53781962310075,537
-321.9772340362607,557
-319.4173562591816,526
-316.8581861056348,516
-314.2997233893127,566
-311.7419679238294,590
-309.1849195227194,602
-306.62857799943856,670
-304.0729431673641,590
-301.51801483979375,598
-298.963792829947,580
-296.41027695096386,612
-293.85746701590574,679
-291.3053628377552,746
-288.7539642294155,738
-286.2032710037115,725
-283.65328297338897,782
-281.1039999511146,840
-278.5554217494762,745
-276.007548180983,684
-273.4603790580651,669
-270.9139141930734,735
-268.3681533982807,754
-265.8230964858798,758
-263.27874326798565,897
-260.7350935566336,811
-258.1921471637804,796
-255.6499039013039,862
-253.10836358100266,836
-250.56752601459698,815
-248.02739101372765,813
-245.48795838995704,877
-242.94922795476816,856
-240.41119951956557,885
-237.8738728956746,803
-235.33724789434166,849
-232.80132432673452,832
-230.2661020039418,762
-227.73158073697357,804
-225.19776033676033,831
-222.66464061415422,867
-220.1322213799284,907
-217.60050244477725,907
-215.06948361931552,930
-212.53916471408013,1137
-210.00954553952818,1091
-207.48062590603843,897
-204.9524056239104,797
-202.4248845033651,958
-199.8980623545441,1046
-197.37193898751036,1076
-194.84651421224817,1094
-192.32178783866232,1124
-189.79775967657952,1129
-187.27442953574644,1279
-184.7517972258321,1425
-182.2298625564256,1197
-179.7086253370378,982
-177.18808537710026,1030
-174.66824248596583,1257
-172.14909647290835,1225
-169.6306471471229,1246
-167.11289431772548,1178
-164.59583779375328,1291
-162.07947738416453,1409
-159.5638128978386,1653
-157.04884414357605,1838
-154.53457093009854,1727
-152.02099306604828,1428
-149.50811035998936,1329
-146.99592262040665,1509
-144.48442965570587,1709
-141.97363127421409,1755
-139.46352728417958,1852
-136.95411749377126,1795
-134.44540171107985,1581
-131.93737974411636,1355
-129.43005140081357,1369
-126.92341648902493,1612
-124.41747481652521,2004
-121.91222619101006,2337
-119.40767042009657,2477
-116.90380731132257,2425
-114.40063667214702,2827
-111.8981583099503,3136
-109.3963720320337,4534
-106.89527764561933,7743
-104.39487495785067,10453
-101.89516377579241,13251
-99.39614390642998,15997
-96.89781515667039,21404
-94.40017733334128,27876
-91.90323024319173,28394
-89.40697369289148,21910
-86.91140748903172,14455
-84.41653143812482,8120
-81.92234534660395,9680
-79.42884902082358,19799
-76.93604226705907,31270
-74.4439248915071,37658
-71.95249670028534,36981
-69.46175749943245,32638
-66.97170709490854,26194
-64.48234529259423,20323
-61.99367189829195,16103
-59.50568671772464,15263
-57.01838955653636,18183
-54.53178022029283,20340
-52.045858514480074,17177
-49.560624244506016,18192
-47.07607721569923,21424
-44.59221723330904,19411
-42.10904410250669,17064
-39.62655762838392,17307
-37.14475761595372,20007
-34.66364387015028,23088
-32.18321619582866,28545
-29.70347439776515,30140
-27.224418280657005,29692
-24.74604764912317,32834
-22.26836230770266,50804
-19.7913620608565,65033
-17.315046712966478,65033
-14.83941606833514,65033
-12.36446993118659,65033
-9.89020810566592,65033
-7.416630395839093,65033
-4.94373660569363,65033
-2.471526539137585,65033
-6.821210263296962E-13,65033
2.47084320796705,65033
4.941003281093458,65033
7.410480415786196,65033
9.879274808531363,65033
12.347386655893956,65033
14.814816154518212,65033
17.28156350112681,65033
19.74762889252179,65033
22.21301252558385,29783
24.67771459727237,7395
27.141735304626195,8198
29.605074844762612,10029
32.06773341487792,9568
34.52971121224755,9328
36.99100843422559,8767
39.45162527824516,5932
41.91156194181792,5390
44.370818622535126,6017
46.82939551806646,4825
49.287292826160524,7594
51.74451074464503,8719
54.201049471426245,6400
56.65690920448981,5071
59.112090141899785,3687
61.56659248179983,2984
64.02041642241159,3583
66.4735621620365,3973
68.92602989905402,4467
71.37781983192338,5361
73.82893215918205,3862
76.27936707944684,2635
78.72912479141326,2672
81.17820549385567,3092
83.62660938562783,2916
86.07433666566146,2615
88.5213875329681,2133
90.96776218663751,2517
93.41346082583925,2538
95.85848364982041,2898
98.30283085790859,3100
100.7465026495089,2431
103.18949922410604,1848
105.63182078126385,1806
108.07346752062438,1746
110.51443964190923,1477
112.95473734491827,1368
115.39436082953114,1613
117.83331029570547,1698
120.27158594347827,2142
122.7091879729652,2124
125.1461165843615,1897
127.58237197794062,1534
130.01795435405518,1401
132.4528639131364,1525
134.88710085569494,1393
137.32066538231982,1454
139.75355769367923,1691
142.1857779905207,1533
144.61732647366978,1286
147.04820334403132,1305
149.47840880258934,1307
151.90794305040674,1217
154.33680628862487,1617
156.76499871846443,1822
159.19252054122433,1920
161.61937195828352,1821
164.04555317109896,1938
166.47106438120693,2216
168.89590579022217,2288
171.320077599839,2632
173.7435800118302,2761
176.16641322804742,2863
178.58857745042144,2787
181.01007288096173,2897
183.43089972175687,2858
185.85105817497413,2912
188.27054844285988,2989
190.6893707277394,2815
193.10752523201643,2861
195.5250121581745,2990
197.9418317087751,3049
200.3579840864594,2961
202.7734694939469,2993
205.18828813403627,3145
207.6024402096051,3246
210.01592592360964,3244
212.42874547908548,3288
214.84089907914665,3086
217.2523869269868,2992
219.66320922587727,3084
222.0733661791695,3091
224.48285799029293,2998
226.8916848627572,3146
229.29984700014882,3189
231.7073446061355,3054
234.11417788446204,3129
236.520347038953,3207
238.92585227351185,3242
241.33069379212054,3351
243.73487179884035,3343
246.1383864978112,3360
248.541238093252,3300
250.9434267894609,3609
253.34495279081432,3420
255.74581630176783,3178
258.1460175268563,3398
260.54555667069314,3371
262.9444339379703,3198
265.3426495334594,3265
267.7402036620107,3334
270.1370965285529,3236
272.53332833809407,3168
274.9288992957214,3093
277.32380960660055,2974
279.718059475976,2908
282.1116491091717,2955
284.5045787115897,2933
286.89684848871195,2808
289.2884586460981,2837
291.67940938938807,2947
294.0697009242996,3060
296.4593334566299,2938
298.84830719225477,2928
301.23662233712923,3010
303.6242790972866,2852
306.01127767884,2847
308.39761828798066,2793
310.78330113097934,2740
313.16832641418534,2659
315.5526943440269,2588
317.9364051270112,2728
320.3194589697242,2696
322.70185607883093,2659
325.0835966610754,2598
327.4646809232805,2548
329.8451090723478,2503
332.2248813152577,2501
334.6039978590701,2595
336.9824589109231,2510
339.36026467803447,2436
341.7374153677,2369
344.113911187295,2369
346.48975234427337,2405
348.8649390461686,2409
351.2394715005918,2456
353.61334991523415,2386
355.9865744978655,2337
358.35914545633375,2475
360.73106299856715,2460
363.10232733257146,2410
365.47293866643247,2425
367.84289720831396,2314
370.2122031664593,2313
372.5808567491905,2348
374.9488581649083,2306
377.31620762209275,2259
379.6829053293021,2290
382.0489514951745,2281
384.4143463284262,2372
386.7790900378528,2254
389.14318283232853,2252
391.50662492080653,2268
393.86941651231916,2276
396.23155781597745,2311
398.5930490409713,2308
400.9538903965696,2366
403.3140820921202,2266
405.6736243370498,2397
408.03251734086336,2191
410.3907613131465,2190
412.74835646356166,2185
415.10530300185144,2184
417.4616011378372,2197
419.81725108141893,2196
422.1722530425758,2196
424.5266072313656,2241
426.880313857925,2246
429.2333731324701,2165
431.58578526529516,2193
433.9375504667738,2237
436.2886689473588,2157
438.63914091758113,2186
440.9889665880513,2122
443.33814616945835,2161
445.68667987257015,2160
448.03456790823395,2141
450.3818104873759,2113
452.72840782100013,2068
455.07436012019105,2092
457.41966759611057,2129
459.7643304600007,2122
462.10834892318155,2100
464.4517231970525,2102
466.79445349309174,2103
469.1365400228566,2173
471.4779829979826,2177
473.81878263018564,2115
476.15893913125876,2110
478.4984527130747,2232
480.8373235875855,2259
483.17555196682144,2267
485.5131380628919,2414
487.8500820879857,2457
490.1863842543697,2577
492.52204477439034,2748
494.8570638604725,2899
497.1914417251204,3139
499.52517858091653,3376
501.85827464052306,3590
504.19073011668036,3385
506.5225452222086,3490
508.85372017000566,3580
511.18425517304956,3815
513.514150444396,4439
515.8434061971808,5826
518.1720226446176,6908
520.4999999999999,7158
522.8273384766991,6821
525.1540382881666,6436
527.480099647932,5684
529.8055227696037,4587
532.1303078668694,3429
534.454455153496,2770
536.777964843328,2594
539.1008371502907,2415
541.4230722883866,2342
543.744670471698,2295
546.0656319143858,2284
548.3859568306899,2118
550.7056454349294,2196
553.0246979415016,2186
555.3431145648834,2206
557.6608955196306,2158
559.978041020377,2139
562.2945512818363,2101
564.6104265188006,2170
566.9256669461412,2168
569.2402727788082,2110
571.5542442318302,2198
573.8675815203156,2198
576.1802848594508,2162
578.4923544645015,2233
580.8037905508126,2326
583.114593333807,2234
585.4247630289875,2141
587.7342998519354,2123
590.0432040183106,2221
592.3514757438526,2216
594.6591152443794,2183
596.9661227357875,2239
599.2724984340531,2179
601.578242555231,2156
603.8833553154542,2150
606.1878369309362,2157
608.4916876179676,2131
610.7949075929192,2157
613.0974970722403,2217
615.3994562724587,2208
617.7007854101818,2187
620.0014847020951,2168
622.3015543649641,2196
624.6009946156324,2193
626.8998056710224,2246
629.1979877481361,2164
631.4955410640538,2155
633.7924658359349,2168
636.0887622810175,2251
638.3844306166192,2262
640.6794710601358,2244
642.9738838290426,2223
645.2676691408932,2183
647.5608272133207,2232
649.853358264037,2267
652.1452625108324,2224
654.4365401715764,2197
656.7271914642178,2231
659.0172166067838,2190
661.3066158173809,2269
663.5953893141935,2237
665.8835373154867,2244
668.1710600396028,2201
670.4579577049639,2187
672.7442305300709,2227
675.0298787335033,2275
677.3149025339197,2294
679.599302150058,2241
681.8830778007342,2122
684.1662297048437,2160
686.4487580813608,2203
688.7306631493387,2213
691.0119451279091,2205
693.2926042362834,2178
695.5726406937516,2231
697.8520547196814,2265
700.1308465335215,2171
702.4090163547982,2225
704.6865644031171,2137
706.9634908981619,2158
709.2397960596965,2160
711.5154801075631,2102
713.7905432616823,2147
716.0649857420548,2154
718.3388077687592,2133
720.612009561953,2144
722.8845913418733,2113
725.1565533288352,2126
727.427895743234,2123
729.6986188055427,2119
731.9687227363137,2126
734.238207756178,2134
736.5070740858458,2141
738.7753219461066,2144
741.0429515578281,2139
743.3099631419569,2120
745.5763569195191,2102
747.8421331116193,2188
750.1072919394409,2137
752.3718336242467,2243
754.6357583873777,2154
756.8990664502545,2162
759.1617580343765,2177
761.423833361321,2163
763.6852926527457,2186
765.9461361303862,2141
768.206364016058,2149
770.4659765316536,2202
772.7249738991469,2198
774.9833563405886,2243
777.2411240781092,2221
779.4982773339183,2205
781.7548163303044,2167
784.010741289634,2189
786.2660524343538,2256
788.5207499869881,2224
790.7748341701416,2228
793.0283052064964,2181
795.2811633188143,2249
797.5334087299362,2250
799.7850416627813,2156
802.0360623403484,2272
804.2864709857143,2242
806.5362678220353,2254
808.7854530725468,2206
811.0340269605625,2205
813.2819897094754,2235
815.5293415427581,2227
817.77608268396,2291
820.0222133567116,2309
822.2677337847211,2219
824.5126441917765,2204
826.7569448017433,2281
829.0006358385675,2245
831.2437175262731,2142
833.4861900889629,2218
835.7280537508192,2228
837.9693087361026,2351
840.2099552691533,2191
842.4499935743896,2219
844.689423876309,2270
846.9282463994886,2205
849.1664613685833,2205
851.4040690083276,2274
853.6410695435349,2197
855.877463199097,2231
858.1132501999847,2285
860.3484307712487,2267
862.5830051380175,2215
864.8169735254988,2291
867.0503361589791,2168
869.2830932638243,2274
871.5152450654786,2293
873.7467917894654,2269
875.9777336613873,2300
878.2080709069252,2295
880.4378037518389,2294
882.666932421968,2247
884.8954571432301,2311
887.1233781416219,2298
889.3506956432192,2368
891.5774098741766,2329
893.803521060728,2337
896.0290294291852,2346
898.2539352059397,2306
900.4782386174619,2189
902.7019398903011,2360
904.925039251085,2297
907.147536926521,2300
909.3694331433943,2251
911.59072812857,2262
913.8114221089921,2311
916.0315153116827,2176
918.2510079637437,2244
920.4699002923547,2256
922.6881925247761,2258
924.905884888345,2252
927.1229776104793,2196
929.3394709186747,2227
931.555365040506,2210
933.7706602036275,2249
935.9853566357709,2246
938.1994545647489,2355
940.4129542184515,2283
942.6258558248488,2325
944.8381596119883,2216
947.0498658079974,2284
949.2609746410825,2229
951.4714863395287,2237
953.6814011316998,2287
955.8907192460387,2196
958.0994409110671,2352
960.3075663553858,2283
962.5150958076741,2218
964.7220294966913,2267
966.928367651274,2268
969.1341105003388,2238
971.3392582728806,2186
973.5438111979742,2218
975.747769504772,2141
977.9511334225061,2201
980.153903180487,2162
982.3560790081052,2301
984.5576611348289,2088
986.7586497902058,2165
988.9590452038618,2180
991.158847605503,2104
993.3580572249133,2162
995.5566742919558,2086
997.7546990365728,1994
999.952131688785,1936
1002.1489724786926,1949
1004.3452216364743,1916
1006.5408793923874,1945
1008.7359459767691,1945
1010.9304216200343,1947
1013.1243065526781,1911
1015.3176010052733,1901
1017.510305208472,1923
1019.7024193930064,1804
1021.8939437896848,1891
1024.0848786293977,1870
1026.2752241431122,1873
1028.4649805618747,1889
1030.6541481168115,1820
1032.842727039127,1859
1035.0307175601051,1866
1037.2181199111074,1821
1039.4049343235752,1816
1041.591161029029,1823
1043.7768002590683,1874
1045.9618522453698,1864
1048.1463172196918,1785
1050.3301954138697,1774
1052.513487059818,1765
1054.69619238953,1752
1056.8783116350783,1813
1059.0598450286152,1858
1061.2407928023704,1760
1063.4211551886528,1789
1065.6009324198508,1848
1067.780124728432,1790
1069.9587323469414,1778
1072.1367555080046,1816
1074.314194444325,1761
1076.4910493886855,1726
1078.667320573947,1747
1080.843008233051,1785
1083.0181125990161,1722
1085.1926339049414,1729
1087.3665723840027,1773
1089.5399282694575,1755
1091.7127017946405,1757
1093.8848931929647,1701
1096.0565026979243,1793
1098.2275305430899,1795
1100.3979769621128,1786
1102.567842188722,1734
1104.737126456726,1737
1106.9058300000124,1740
1109.0739530525475,1653
1111.2414958483764,1754
1113.4084586216231,1692
1115.5748416064907,1674
1117.7406450372605,1764
1119.9058691482942,1675
1122.0705141740304,1708
1124.2345803489884,1625
1126.3980679077658,1659
1128.5609770850388,1705
1130.7233081155623,1697
1132.8850612341707,1610
1135.0462366757774,1680
1137.2068346753745,1683
1139.3668554680326,1709
1141.526299288901,1706
1143.68516637321,1685
1145.8434569562655,1701
1148.001171273455,1688
1150.158309560244,1752
1152.3148720521767,1710
1154.470858984876,1641
1156.626270594044,1685
1158.7811071154629,1719
1160.9353687849912,1686
1163.089055838569,1734
1165.242168512213,1646
1167.3947070420209,1642
1169.5466716641677,1691
1171.6980626149075,1644
1173.8488801305748,1717
1175.9991244475814,1646
1178.1487958024186,1671
1180.2978944316555,1657
1182.4464205719428,1727
1184.5943744600072,1721
1186.7417563326567,1670
1188.8885664267755,1696
1191.0348049793297,1587
1193.1804722273619,1668
1195.325568407995,1665
1197.4700937584303,1670
1199.614048515948,1608
1201.7574329179074,1748
1203.900247201746,1673
1206.042491604982,1606
1208.1841663652099,1713
1210.3252717201053,1633
1212.465807907422,1663
1214.6057751649923,1690
1216.7451737307279,1703
1218.8840038426192,1694
1221.0222657387353,1732
1223.1599596572241,1724
1225.2970858363137,1630
1227.4336445143094,1672
1229.5696359295966,1666
1231.705060320639,1787
1233.8399179259786,1716
1235.9742089842384,1694
1238.107933734118,1713
1240.2410924143974,1737
1242.373685263935,1730
1244.5057125216676,1735
1246.6371744266116,1749
1248.7680712178621,1738
1250.898403134593,1781
1253.028170416058,1764
1255.1573733015875,1792
1257.2860120305932,1807
1259.4140868425648,1809
1261.54159797707,1871
1263.6685456737569,1796
1265.7949301723515,1810
1267.9207517126597,1824
1270.046010534565,1848
1272.1707068780306,1841
1274.2948409830983,1808
1276.4184130898889,1868
1278.541423438603,1791
1280.6638722695184,1791
1282.785759822993,1882
1284.9070863394636,1820
1287.0278520594447,1789
1289.1480572235314,1841
1291.2677020723963,1834
1293.3867868467923,1857
1295.5053117875495,1863
1297.623277135579,1838
1299.740683131868,1900
1301.8575300174857,1952
1303.973818033578,1899
1306.0895474213703,1909
1308.2047184221678,1944
1310.3193312773528,1954
1312.4333862283888,2000
1314.5468835168163,1966
1316.659823384255,1886
1318.7722060724045,1927
1320.8840318230418,2005
1322.9953008780249,1954
1325.1060134792888,1967
1327.2161698688478,1979
1329.3257702887959,1919
1331.4348149813054,1943
1333.5433041886276,1934
1335.6512381530933,1856
1337.7586171171101,1923
1339.8654413231675,1914
1341.9717110138317,1927
1344.0774264317488,1949
1346.1825878196432,1900
1348.2871954203192,1892
1350.3912494766587,1903
1352.4947502316231,1877
1354.5976979282532,1881
1356.7000928096686,1892
1358.8019351190665,1786
1360.9032250997243,1820
1363.0039629949988,1866
1365.1041490483235,1901
1367.2037835032133,1854
1369.3028666032606,1918
1371.401398592137,1938
1373.4993797135926,1949
1375.5968102114575,1987
1377.6936903296396,1859
1379.7900203121262,1854
1381.8858004029835,1818
1383.9810308463561,1867
1386.075711886469,1955
1388.1698437676241,1869
1390.2634267342032,1909
1392.356461030667,1941
1394.4489469015557,1877
1396.5408845914872,1909
1398.6322743451592,1931
1400.7231164073469,1944
1402.813411022907,1954
1404.903158436773,1962
1406.9923588939578,2018
1409.0810126395531,1940
1411.1691199187303,1988
1413.2566809767386,1984
1415.343696058907,1978
1417.4301654106425,2061
1419.5160892774315,2039
1421.6014679048399,1974
1423.6863015385125,1983
1425.7705904241707,2069
1427.8543348076178,2050
1429.9375349347342,2080
1432.0201910514802,2033
1434.102303403894,2070
1436.1838722380944,2134
1438.2648978002767,2168
1440.3453803367174,2093
1442.4253200937692,2153
1444.5047173178677,2213
1446.5835722555234,2185
1448.6618851533285,2355
1450.739656257952,2226
1452.8168858161434,2286
1454.8935740747306,2349
1456.96972128062,2285
1459.045327680797,2369
1461.120393522327,2450
1463.1949190523528,2486
1465.2689045180973,2390
1467.3423501668608,2526
1469.415256246024,2520
1471.4876230030463,2569
1473.559450685465,2603
1475.6307395408976,2606
1477.7014898170391,2688
1479.771701761665,2707
1481.8413756226287,2773
1483.9105116478618,2667
1485.9791100853772,2731
1488.0471711832643,2787
1490.1146951896926,2916
1492.1816823529098,2888
1494.2481329212433,2863
1496.3140471430984,2889
1498.3794252669609,2995
1500.4442675413939,3013
1502.5085742150404,3024
1504.572345536622,2977
1506.6355817549388,3040
1508.6982831188702,3013
1510.7604498773744,3052
1512.8220822794883,3116
1514.8831805743293,3231
1516.9437450110909,3130
1519.003775839048,3257
1521.0632733075522,3226
1523.1222376660367,3229
1525.1806691640113,3267
1527.2385680510652,3367
1529.2959345768668,3407
1531.3527689911643,3418
1533.4090715437833,3430
1535.4648424846291,3525
1537.5200820636855,3549
1539.5747905310159,3564
1541.6289681367616,3643
1543.6826151311434,3652
1545.7357317644614,3737
1547.7883182870937,3726
1549.8403749494987,3852
1551.8919020022113,3946
1553.9428996958477,3844
1555.9933682811015,4017
1558.0433080087469,3951
1560.0927191296346,3982
1562.1416018946961,3987
1564.1899565549415,3884
1566.2377833614592,3852
1568.2850825654164,3786
1570.3318544180606,3626
1572.3780991707158,3504
1574.423817074788,3405
1576.4690083817595,3284
1578.5136733431923,3066
1580.5578122107272,2982
1582.601425236085,2909
1584.6445126710646,2826
1586.6870747675434,2731
1588.7291117774776,2650
1590.7706239529034,2488
1592.8116115459347,2488
1594.8520748087658,2484
1596.8920139936686,2408
1598.9314293529933,2369
1600.9703211391711,2280
1603.008689604711,2274
1605.0465350022005,2231
1607.0838575843068,2099
1609.1206576037753,2149
1611.1569353134305,2129
1613.1926909661765,2009
1615.2279248149953,2109
1617.2626371129481,2024
1619.2968281131757,1894
1621.3304980688963,2009
1623.3636472334088,1985
1625.39627586009,1980
1627.428384202396,1855
1629.459972513861,1870
1631.4910410480993,1864
1633.5215900588028,1886
1635.551619799744,1820
1637.5811305247717,1850
1639.6101224878166,1845
1641.6385959428862,1820
1643.6665511440683,1807
1645.693988345528,1767
1647.7209078015112,1802
1649.7473097663405,1755
1651.7731944944203,1730
1653.7985622402307,1749
1655.823413258333,1833
1657.847747803366,1690
1659.8715661300494,1759
1661.8948684931793,1788
1663.9176551476316,1743
1665.9399263483624,1751
1667.9616823504057,1758
1669.982923408873,1758
1672.0036497789574,1825
1674.0238617159293,1718
1676.043559475138,1701
1678.0627433120121,1756
1680.081413482059,1710
1682.0995702408654,1773
1684.117213844096,1709
1686.134344547495,1689
1688.1509626068864,1713
1690.1670682781705,1691
1692.182661817329,1776
1694.1977434804217,1688
1696.2123135235875,1697
1698.226372203043,1675
1700.2399197750851,1747
1702.2529564960905,1745
1704.2654826225112,1722
1706.277498410882,1713
1708.2890041178139,1682
1710.2999999999988,1779
1712.3104863142066,1673
1714.3204633172854,1789
1716.329931266163,1711
1718.3388904178469,1665
1720.3473410294214,1640
1722.3552833580516,1665
1724.3627176609807,1660
1726.3696441955308,1676
1728.3760632191033,1644
1730.3819749891782,1691
1732.3873797633146,1664
1734.3922777991502,1613
1736.3966693544012,1668
1738.4005546868639,1677
1740.4039340544127,1638
1742.406807715001,1657
1744.4091759266616,1609
1746.4110389475054,1608
1748.4123970357223,1705
1750.413250449582,1636
1752.4135994474318,1635
1754.4134442876993,1617
1756.4127852288902,1582
1758.4116225295893,1553
1760.4099564484595,1589
1762.407787244244,1602
1764.405115175764,1613
1766.4019405019203,1692
1768.3982634816916,1623
1770.3940843741357,1559
1772.3894034383907,1617
1774.3842209336717,1548
1776.378537119274,1526
1778.372352254571,1602
1780.3656665990156,1525
1782.3584804121397,1570
1784.3507939535534,1563
1786.3426074829463,1549
1788.3339212600863,1543
1790.3247355448211,1570
1792.3150505970766,1574
1794.3048666768573,1656
1796.2941840442477,1578
1798.2830029594106,1595
1800.2713236825884,1590
1802.2591464741004,1557
1804.2464715943465,1604
1806.2332993038058,1553
1808.2196298630352,1596
1810.2054635326708,1569
1812.190800573428,1541
1814.175641246101,1550
1816.1599858115628,1577
1818.1438345307652,1559
1820.127187664738,1533
1822.1100454745924,1585
1824.092408221516,1608
1826.0742761667766,1553
1828.055649571721,1545
1830.0365286977735,1533
1832.0169138064398,1540
1833.9968051593014,1622
1835.9762030180214,1572
1837.9551076443408,1568
1839.9335193000788,1571
1841.9114382471344,1519
1843.888864747485,1578
1845.8657990631878,1469
1847.842241456378,1517
1849.8181921892697,1565
1851.7936515241558,1565
1853.7686197234098,1551
1855.7430970494815,1550
1857.7170837649014,1544
1859.6905801322787,1539
1861.6635864143004,1588
1863.6361028737338,1585
1865.608129773424,1576
1867.5796673762961,1593
1869.5507159453537,1548
1871.521275743678,1563
1873.4913470344313,1562
1875.4609300808534,1562
1877.4300251462632,1554
1879.3986324940588,1605
1881.366752387717,1582
1883.3343850907936,1645
1885.3015308669228,1669
1887.268189979819,1582
1889.2343626932739,1605
1891.2000492711595,1643
1893.1652499774254,1629
1895.1299650761011,1650
1897.0941948312952,1588
1899.0579395071945,1628
1901.0211993680641,1620
1902.98397467825,1584
1904.9462657021745,1674
1906.9080727043415,1668
1908.869395949332,1558
1910.8302357018065,1573
1912.790592226504,1584
1914.7504657882428,1520
1916.7098566519212,1557
1918.6687650825133,1582
1920.6271913450764,1500
1922.5851357047422,1586
1924.5425984267245,1602
1926.499579776314,1591
1928.4560800188833,1578
1930.4120994198802,1542
1932.367638244833,1638
1934.32269675935,1553
1936.2772752291175,1546
1938.231373919899,1633
1940.1849930975404,1567
1942.1381330279637,1562
1944.0907939771696,1571
1946.0429762112412,1541
1947.9946799963363,1516
1949.9459055986945,1536
1951.896653284633,1606
1953.8469233205478,1502
1955.7967159729142,1536
1957.7460315082863,1511
1959.6948701932974,1562
1961.6432322946594,1528
1963.5911180791632,1580
1965.5385278136787,1569
1967.4854617651545,1547
1969.4319202006182,1524
1971.377903387176,1569
1973.3234115920136,1575
1975.268445082395,1521
1977.2130041256642,1540
1979.1570889892423,1546
1981.1006999406304,1490
1983.04383724741,1484
1984.986501177238,1552
1986.928691997853,1559
1988.8704099770712,1493
1990.811655382789,1531
1992.7524284829801,1532
1994.692729545698,1475
1996.6325588390755,1551
1998.5719166313224,1497
2000.5108031907307,1482
2002.4492187856677,1587
2004.387163684583,1547
2006.3246381560011,1498
2008.2616424685298,1535
2010.1981768908527,1559
2012.1342416917332,1519
2014.069837140014,1509
2016.0049635046162,1502
2017.9396210545406,1477
2019.8738100588666,1534
2021.8075307867502,1548
2023.740783507431,1518
2025.6735684902228,1529
2027.6058860045214,1473
2029.5377363198004,1504
2031.4691197056118,1487
2033.4000364315875,1516
2035.3304867674374,1517
2037.260470982952,1443
2039.189989347998,1502
2041.1190421325232,1507
2043.047629606554,1501
2044.9757520401945,1533
2046.9034097036288,1527
2048.8306028671195,1479
2050.7573318010086,1500
2052.683596775716,1487
2054.609398061742,1462
2056.5347359296647,1481
2058.4596106501403,1460
2060.384022493906,1451
2062.3079717317764,1502
2064.231458634646,1460
2066.1544834734873,1547
2068.077046519352,1523
2069.99914804337,1516
2071.9207883167524,1477
2073.8419676107865,1490
2075.7626861968406,1549
2077.6829443463607,1568
2079.6027423308715,1535
2081.522080421977,1484
2083.440958891362,1500
2085.359378010786,1573
2087.2773380520907,1462
2089.194839287196,1527
2091.111881988101,1509
2093.0284664268825,1465
2094.9445928756973,1462
2096.86026160678,1448
2098.775472892446,1523
2100.690227005088,1505
2102.604524217178,1490
2104.5183648012676,1495
2106.431749029985,1539
2108.34467717604,1463
2110.2571495122206,1505
2112.169166311393,1520
2114.080727846503,1521
2115.9918343905747,1485
2117.902486216711,1465
2119.8126835980956,1546
2121.722426807987,1515
2123.6317161197285,1437
2125.5405518067364,1494
2127.448934142509,1503
2129.356863400624,1537
2131.264339854737,1516
2133.1713637785815,1559
2135.077935445972,1543
2136.9840551308002,1534
2138.889723107037,1525
2140.7949396487334,1491
2142.699705030018,1557
2144.6040195250994,1542
2146.507883408264,1564
2148.4112969538774,1510
2150.3142604363848,1594
2152.2167741303097,1525
2154.1188383102535,1545
2156.0204532508997,1554
2157.9216192270064,1506
2159.822336513414,1551
2161.7226053850413,1497
2163.622426116884,1547
2165.5217989840185,1556
2167.4207242616,1614
2169.319202224862,1563
2171.2172331491165,1507
2173.1148173097563,1476
2175.0119549822507,1569
2176.90864644215,1565
2178.8048919650823,1559
2180.7006918267534,1543
2182.596046302952,1609
2184.4909556695407,1540
2186.3854202024645,1555
2188.279440177746,1608
2190.173015871487,1541
2192.066147559868,1626
2193.958835519149,1635
2195.851080025667,1563
2197.7428813558417,1532
2199.6342397861667,1592
2201.5251555932186,1596
2203.415629053651,1580
2205.3056604441986,1502
2207.19525004167,1573
2209.084398122958,1555
2210.9731049650327,1633
2212.861370844941,1591
2214.749196039812,1623
2216.636580826851,1554
2218.523525483344,1623
2220.410030286655,1622
2222.296095514226,1613
2224.1817214435805,1579
2226.066908352319,1575
2227.951656518121,1552
2229.835966218746,1583
2231.71983773203,1592
2233.6032713358913,1551
2235.486267308324,1607
2237.3688259274036,1626
2239.2509474712824,1625
2241.132632218193,1593
2243.013880446447,1613
2244.8946924344323,1570
2246.7750684606203,1599
2248.6550088035574,1562
2250.534513741871,1569
2252.413583554265,1625
2254.292218519526,1628
2256.170418916517,1575
2258.0481850241786,1570
2259.925517121534,1532
2261.8024154876825,1535
2263.678880401803,1599
2265.5549121431536,1564
2267.430510991071,1516
2269.305677224971,1576
2271.180411124348,1576
2273.0547129687766,1579
2274.9285830379076,1546
2276.8020216114737,1601
2278.6750289692845,1557
2280.5476053912294,1542
2282.4197511572766,1617
2284.2914665474727,1601
2286.162751841943,1571
2288.0336073208937,1600
2289.904033264608,1605
2291.774029953448,1578
2293.6435976678554,1577
2295.5127366883517,1575
2297.381447295534,1626
2299.2497297700825,1536
2301.1175843927526,1547
2302.9850114443825,1494
2304.852011205885,1476
2306.7185839582553,1420
2308.5847299825664,1426
2310.4504495599676,1391
2312.3157429716925,1373
2314.1806104990483,1454
2316.0450524234247,1434
2317.9090690262888,1383
2319.772660589186,1513
2321.635827393742,1428
2323.498569721661,1388
2325.3608878547248,1476
2327.2227820747967,1398
2329.0842526638157,1433
2330.945299903803,1423
2332.805924076857,1415
2334.6661254651535,1432
2336.525904350951,1438
2338.3852610165827,1402
2340.244195744464,1417
2342.102708817088,1406
2343.9608005170253,1362
2345.8184711269287,1406
2347.675720929526,1402
2349.532550207628,1414
2351.38895924412,1469
2353.24494832197,1442
2355.100517724223,1410
2356.955667734004,1442
2358.810398634514,1386
2360.664710709037,1426
2362.5186042409337,1437
2364.3720795136437,1453
2366.225136810686,1410
2368.0777764156583,1413
2369.929998612237,1463
2371.7818036841777,1492
2373.633191915315,1462
2375.484163589562,1397
2377.3347189909114,1422
2379.184858403434,1402
2381.03458211128,1440
2382.8838903986775,1485
2384.732783549936,1447
2386.5812618494406,1464
2388.4293255816588,1482
2390.2769750311327,1437
2392.1242104824883,1449
2393.971032220427,1484
2395.8174405297295,1438
2397.6634356952563,1510
2399.509018001947,1443
2401.3541877348193,1475
2403.1989451789705,1428
2405.043290619576,1376
2406.8872243418905,1395
2408.730746631247,1427
2410.5738577730594,1451
2412.4165580528183,1396
2414.258847756095,1471
2416.100727168537,1478
2417.9421965758734,1437
2419.783256263912,1473
2421.623906518538,1442
2423.4641476257157,1471
2425.303979871491,1433
2427.143403541984,1391
2428.9824189233977,1492
2430.821026302012,1494
2432.6592259641866,1497
2434.497018196361,1418
2436.33440328505,1417
2438.171381516851,1484
2440.00795317844,1478
2441.844118556569,1391
2443.6798779380724,1471
2445.5152316098606,1435
2447.3501798589255,1496
2449.1847229723357,1449
2451.0188612372403,1505
2452.8525949408663,1494
2454.6859243705203,1445
2456.518849813587,1437
2458.3513715575314,1516
2460.183489889895,1517
2462.015205098301,1471
2463.8465174704493,1446
2465.67742729412,1475
2467.5079348571717,1472
2469.338040447542,1494
2471.1677443532476,1456
2472.9970468623833,1491
2474.825948263123,1503
2476.6544488437207,1473
2478.482548892508,1514
2480.310248697896,1485
2482.137548548374,1505
2483.9644487325118,1429
2485.790949538956,1466
2487.617051256433,1408
2489.44275417375,1485
2491.26805857979,1420
2493.0929647635157,1483
2494.917473013971,1489
2496.741583620276,1509
2498.5652968716304,1522
2500.3886130573137,1466
2502.2115324666834,1486
2504.0340553891765,1524
2505.856182114308,1571
2507.6779129316733,1512
2509.499248130945,1482
2511.3201880018764,1510
2513.140732834298,1546
2514.9608829181198,1548
2516.780638543331,1497
2518.6,1470
2520.418967578273,1514
2522.237541568376,1495
2524.0557222606144,1553
2525.8735099453706,1619
2527.6909049131086,1534
2529.507907454368,1567
2531.32451785977,1528
2533.140736420014,1600
2534.9565634258774,1562
2536.771999168218,1572
2538.5870439379714,1551
2540.4016980261526,1633
2542.2159617238544,1660
2544.02983532225,1610
2545.8433191125914,1666
2547.656413386209,1592
2549.4691184345115,1661
2551.2814345489874,1681
2553.093362021204,1656
2554.904901142808,1739
2556.716052205523,1696
2558.526815501153,1725
2560.3371913215824,1637
2562.147179958771,1684
2563.956781704761,1650
2565.7659968516705,1636
2567.5748256916986,1679
2569.3832685171224,1676
2571.1913256202984,1681
2572.9989972936614,1698
2574.806283829725,1677
2576.613185521084,1677
2578.4197026604074,1753
2580.2258355404483,1732
2582.031584454035,1738
2583.836949694077,1723
2585.6419315535613,1770
2587.4465303255533,1799
2589.2507463032002,1770
2591.0545797797245,1766
2592.8580310484303,1733
2594.6611004026995,1728
2596.463788135992,1789
2598.266094541849,1784
2600.0680199138874,1759
2601.869564545807,1788
2603.670728731383,1801
2605.4715127644704,1772
2607.2719169390048,1719
2609.071941548998,1759
2610.8715868885433,1740
2612.670853251811,1710
2614.469740933052,1714
2616.268250226594,1771
2618.0663814268455,1763
2619.864134828292,1726
2621.6615107255006,1718
2623.458509413115,1585
2625.2551311858597,1702
2627.0513763385347,1727
2628.8472451660223,1705
2630.6427379632833,1640
2632.4378550253564,1706
2634.232596647359,1699
2636.026963124488,1685
2637.8209547520187,1633
2639.6145718253065,1644
2641.407814639785,1671
2643.200683490966,1665
2644.9931786744414,1633
2646.7853004858807,1670
2648.577049221034,1608
2650.3684251757277,1585
2652.1594286458712,1599
2653.9500599274484,1572
2655.740319316525,1578
2657.5302071092437,1581
2659.3197236018286,1602
2661.10886909058,1570
2662.8976438718782,1518
2664.686048242183,1511
2666.4740824980327,1592
2668.2617469360443,1601
2670.0490418529134,1528
2671.8359675454153,1532
2673.622524310403,1484
2675.408712444811,1456
2677.1945322456495,1555
2678.979984010009,1521
2680.76506803506,1514
2682.5497846180497,1477
2684.334134056306,1464
2686.1181166472343,1496
2687.9017326883213,1465
2689.6849824771293,1563
2691.4678663113013,1467
2693.2503844885596,1456
2695.032537306705,1412
2696.8143250636167,1432
2698.5957480572542,1381
2700.3768065856534,1460
2702.1575009469316,1497
2703.937831439283,1449
2705.717798360982,1432
2707.4974020103837,1427
2709.276642685917,1438
2711.055520686095,1401
2712.834036309506,1414
2714.612189854819,1399
2716.389981620782,1414
2718.1674119062204,1445
2719.944481010041,1397
2721.721189231226,1424
2723.4975368688415,1478
2725.273524222027,1410
2727.0491515900053,1432
2728.824419272075,1422
2730.5993275676146,1428
2732.3738767760838,1412
2734.148067197016,1363
2735.921899130031,1399
2737.6953728748194,1413
2739.468488731156,1367
2741.2412469988926,1413
2743.0136479779617,1403
2744.785691968372,1425
2746.5573792702116,1417
2748.3287101836504,1416
2750.099685008934,1396
2751.870304046388,1393
2753.640567596418,1343
2755.4104759595057,1388
2757.1800294362156,1368
2758.949228327187,1371
2760.7180729331412,1392
2762.486563554877,1368
2764.254700493272,1407
2766.022484049284,1435
2767.789914523947,1398
2769.5569922183786,1407
2771.3237174337705,1436
2773.090090471394,1393
2774.8561116326036,1451
2776.6217812188274,1366
2778.3870995315756,1374
2780.1520668724356,1320
2781.9166835430747,1411
2783.6809498452394,1407
2785.444866080754,1471
2787.2084325515225,1361
2788.971649559527,1374
2790.73451740683,1362
2792.4970363955713,1379
2794.2592068279705,1364
2796.0210290063264,1406
2797.7825032330147,1402
2799.543629810493,1382
2801.304409041296,1357
2803.0648412280366,1401
2804.8249266734088,1399
2806.5846656801846,1392
2808.344058551212,1353
2810.1031055894246,1344
2811.8618070978273,1355
2813.6201633795085,1389
2815.378174737636,1345
2817.1358414754536,1403
2818.893163896285,1364
2820.6501423035334,1363
2822.4067770006814,1362
2824.1630682912883,1367
2825.9190164789957,1338
2827.6746218675207,1393
2829.429884760661,1397
2831.184805462294,1434
2832.9393842763743,1387
2834.693621506936,1405
2836.4475174580916,1401
2838.201072434034,1331
2839.954286739034,1413
2841.707160677441,1404
2843.459694553685,1360
2845.2118886722724,1425
2846.96374333779,1393
2848.7152588549034,1366
2850.4664355283567,1340
2852.217273662973,1374
2853.9677735636546,1333
2855.7179355353833,1365
2857.4677598832186,1334
2859.217246912299,1379
2860.9663969278427,1356
2862.715210235146,1381
2864.4636871395846,1400
2866.211827946614,1322
2867.9596329617652,1383
2869.7071024906536,1364
2871.4542368389684,1356
2873.20103631248,1383
2874.947501217038,1363
2876.6936318585695,1331
2878.4394285430812,1364
2880.1848915766604,1429
2881.9300212654707,1396
2883.6748179157553,1345
2885.4192818338374,1366
2887.1634133261173,1390
2888.907212699077,1409
2890.6506802592744,1375
2892.393816313348,1373
2894.1366211680142,1408
2895.8790951300693,1402
2897.621238506388,1358
2899.363051603925,1405
2901.1045347297118,1322
2902.8456881908596,1372
2904.58651229456,1400
2906.327007348081,1423
2908.067173658772,1329
2909.8070115340597,1416
2911.5465212814497,1387
2913.285703208527,1437
2915.0245576229563,1372
2916.7630848324807,1356
2918.5012851449196,1356
2920.2391588681758,1356
2921.976706310227,1364
2923.7139277791334,1302
2925.4508235830313,1380
2927.187394030137,1354
2928.923639428745,1418
2930.6595600872306,1359
2932.395156314046,1408
2934.1304284177218,1349
2935.8653767068713,1360
2937.6000014901815,1390
2939.3343030764227,1397
2941.068281774442,1437
2942.8019378931644,1348
2944.5352717415976,1362
2946.2682836288236,1410
2948.0009738640065,1373
2949.7333427563885,1400
2951.465390615289,1334
2953.1971177501086,1402
2954.9285244703265,1389
2956.6596110855,1339
2958.3903779052657,1345
2960.1208252393385,1430
2961.8509533975125,1362
2963.5807626896617,1379
2965.3102534257378,1345
2967.0394259157715,1354
2968.768280469873,1360
2970.496817398232,1343
2972.2250370111146,1385
2973.952939618869,1390
2975.6805255319196,1413
2977.4077950607707,1373
2979.134748516006,1435
2980.861386208289,1392
2982.587708448359,1375
2984.313715547037,1385
2986.039407815222,1357
2987.764785563891,1345
2989.489849104102,1351
2991.2145987469908,1374
2992.9390348037705,1393
2994.6631575857346,1324
2996.3869674042576,1355
2998.1104645707887,1406
2999.83364939686,1301
3001.5565221940783,1345
3003.2790832741334,1342
3005.0013329487924,1350
3006.7232715298996,1366
3008.4448993293804,1352
3010.166216659239,1362
3011.887223831558,1340
3013.607921158498,1358
3015.3283089522993,1354
3017.0483875252826,1369
3018.7681571898443,1357
3020.4876182584626,1330
3022.2067710436927,1405
3023.9256158581707,1344
3025.644153014609,1370
3027.362382825801,1363
3029.0803056046193,1325
3030.797921664012,1370
3032.5152313170106,1308
3034.2322348767225,1354
3035.9489326563353,1323
3037.665324969115,1361
3039.3814121284063,1362
3041.097194447633,1440
3042.812672240299,1366
3044.5278458199855,1361
3046.2427155003525,1380
3047.9572815951406,1316
3049.671544418167,1330
3051.38550428333,1362
3053.0991615046073,1299
3054.812516396051,1315
3056.5255692717974,1339
3058.2383204460575,1338
3059.9507702331257,1276
3061.662918947372,1363
3063.3747669032446,1334
3065.0863144152736,1353
3066.7975617980674,1424
3068.508509366309,1349
3070.219157434767,1365
3071.9295063182844,1333
3073.639556331785,1311
3075.3493077902704,1383
3077.058761008821,1369
3078.7679163025964,1339
3080.476773986837,1373
3082.1853343768594,1307
3083.89359778806,1360
3085.6015645359153,1314
3087.3092349359786,1370
3089.016609303884,1397
3090.7236879553434,1415
3092.4304712061476,1286
3094.136959372166,1370
3095.843152769349,1341
3097.5490517137237,1283
3099.2546565213966,1368
3100.959967508554,1320
3102.66498499146,1304
3104.3697092864577,1318
3106.0741407099695,1324
3107.778279578498,1285
3109.482126208622,1384
3111.1856809170004,1348
3112.8889440203716,1355
3114.5919158355528,1283
3116.294596679439,1346
3117.996986869006,1305
3119.6990867213062,1389
3121.4008965534726,1357
3123.102416682717,1354
3124.803647426329,1416
3126.5045891016784,1383
3128.205242026213,1349
3129.90560651746,1421
3131.605682893025,1331
3133.3054714705922,1357
3135.0049725679282,1398
3136.7041865028714,1359
3138.4031135933465,1335
3140.101754157353,1408
3141.800108512971,1342
3143.498176978357,1292
3145.1959598717494,1328
3146.8934575114636,1298
3148.5906702158954,1298
3150.2875983035183,1376
3151.9842420928853,1301
3153.680601902627,1341
3155.376678051456,1307
3157.07247085816,1359
3158.767980641609,1357
3160.463207720748,1320
3162.158152414606,1356
3163.8528150422862,1333
3165.5471959229726,1358
3167.2412953759303,1371
3168.9351137204976,1350
3170.628651276098,1385
3172.3219083622307,1325
3174.014885298474,1375
3175.707582404485,1337
3177.4000000000005,1344
3179.092138404835,1395
3180.7839979388846,1319
3182.47557892212,1306
3184.166881674594,1305
3185.8579065164386,1392
3187.5486537678626,1390
3189.2391237491547,1398
3190.9293167806827,1270
3192.6192331828934,1354
3194.3088732763117,1295
3195.998237381542,1321
3197.687325819268,1299
3199.376138910251,1309
3201.064676975334,1360
3202.7529403354347,1315
3204.4409293115523,1335
3206.1286442247647,1317
3207.816085396229,1279
3209.5032531471825,1312
3211.190147798936,1288
3212.8767696728846,1322
3214.5631190905015,1340
3216.2491963733373,1235
3217.9350018430214,1290
3219.6205358212637,1255
3221.305798629851,1363
3222.990790590651,1326
3224.6755120256103,1272
3226.359963256751,1310
3228.0441446061795,1268
3229.7280563960758,1299
3231.411698948703,1322
3233.0950725863995,1320
3234.778177631587,1338
3236.461014406761,1356
3238.1435832345005,1281
3239.8258844374595,1303
3241.507918338374,1305
3243.1896852600576,1344
3244.8711855254023,1365
3246.552419457381,1298
3248.233387379042,1319
3249.914089613516,1321
3251.59452648401,1344
3253.274698313813,1332
3254.95460542629,1284
3256.6342481448855,1274
3258.313626793125,1277
3259.9927416946084,1320
3261.6715931730196,1306
3263.3501815521176,1260
3265.0285071557437,1241
3266.706570307815,1302
3268.3843713323286,1273
3270.0619105533615,1355
3271.739188295068,1298
3273.4162048816834,1253
3275.0929606375184,1326
3276.769455886966,1368
3278.445690954498,1314
3280.1216661646613,1318
3281.797381842087,1381
3283.4728383114807,1325
3285.1480358976296,1345
3286.8229749253996,1359
3288.4976557197333,1325
3290.172078605655,1365
3291.846243908266,1288
3293.5201519527463,1275
3295.193803064357,1329
3296.8671975684374,1325
3298.5403357904024,1216
3300.21321805575,1273
3301.8858446900567,1307
3303.558216018975,1330
3305.23033236824,1383
3306.9021940636603,1352
3308.57380143113,1248
3310.2451547966184,1274
3311.916254486174,1316
3313.5871008259246,1334
3315.2576941420766,1339
3316.9280347609147,1319
3318.5981230088046,1318
3320.2679592121895,1272
3321.9375436975924,1278
3323.606876791612,1290
3325.27595882093,1335
3326.944790112305,1271
3328.6133709925753,1250
3330.2817017886573,1332
3331.949782827547,1258
3333.617614436319,1363
3335.2851969421245,1296
3336.952530672199,1291
3338.619615953853,1302
3340.286453114475,1356
3341.9530424815357,1287
3343.619384382583,1318
3345.2854791452437,1303
3346.951327097224,1309
3348.6169285663073,1339
3350.2822838803577,1317
3351.947393367319,1305
3353.61225735521,1318
3355.2768761721345,1266
3356.9412501462693,1406
3358.605379605873,1329
3360.2692648792827,1292
3361.9329062949146,1320
3363.596304181263,1293
