CollectionTime,9/20/2024 11:59:05 AM
ExposureUsed,3
CalibratedSpectrum
-962.7078968117929,538
-959.9714848408522,568
-957.2358232597828,534
-954.5009119013725,562
-951.7667505983302,536
-949.0333391832855,534
-946.3006774887896,553
-943.5687653473143,564
-940.837602591253,538
-938.1071890529199,501
-935.3775245645503,520
-932.6486089583007,511
-929.9204420662485,504
-927.1930237203925,511
-924.4663537526524,573
-921.7404319948689,563
-919.0152582788041,589
-916.2908324361409,572
-913.5671542984834,536
-910.8442236973568,480
-908.1220404642074,525
-905.4006044304027,544
-902.679915427231,537
-899.959973285902,480
-897.2407778375464,492
-894.5223289132158,512
-891.8046263438832,498
-889.0876699604426,541
-886.3714595937089,547
-883.6559950744183,504
-880.9412762332282,580
-878.2273029007168,570
-875.5140749073835,532
-872.8015920836489,517
-870.0898542598545,488
-867.3788612662631,526
-864.6686129330585,552
-861.9591090903457,580
-859.2503495681506,529
-856.5423341964203,521
-853.8350628050229,506
-851.1285352237478,518
-848.4227512823054,549
-845.7177108103272,570
-843.0134136373656,510
-840.3098595928943,537
-837.6070485063082,564
-834.9049802069229,604
-832.2036545239757,608
-829.5030712866244,561
-826.8032303239481,579
-824.1041314649472,485
-821.4057745385428,505
-818.7081593735775,525
-816.0112857988148,515
-813.3151536429393,487
-810.6197627345566,522
-807.9251129021936,549
-805.2312039742981,597
-802.5380357792392,678
-799.8456081453069,596
-797.1539209007124,568
-794.462973873588,581
-791.772766891987,617
-789.083299783884,617
-786.3945723771743,582
-783.7065844996748,553
-781.0193359791231,555
-778.3328266431781,585
-775.6470563194197,603
-772.9620248353489,555
-770.2777320183878,515
-767.5941776958798,558
-764.9113616950891,563
-762.2292838432011,509
-759.5479439673222,517
-756.8673418944801,564
-754.1874774516235,646
-751.5083504656222,561
-748.8299607632671,610
-746.15230817127,616
-743.475392516264,577
-740.7992136248035,534
-738.1237713233636,568
-735.4490654383407,573
-732.7750957960521,522
-730.1018622227365,512
-727.4293645445534,570
-724.7576025875837,548
-722.0865761778291,547
-719.4162851412126,594
-716.7467293035781,609
-714.0779084906909,670
-711.409822528237,631
-708.7424712418238,573
-706.0758544569796,592
-703.4099719991541,604
-700.7448236937178,580
-698.0804093659622,555
-695.4167288411002,590
-692.7537819442656,581
-690.0915685005134,566
-687.4300883348199,584
-684.7693412720819,584
-682.1093271371178,623
-679.4500457546669,628
-676.7914969493897,578
-674.1336805458676,567
-671.4765963686034,578
-668.8202442420206,567
-666.1646239904642,541
-663.5097354382001,571
-660.8555784094151,592
-658.2021527282176,601
-655.5494582186366,576
-652.8974947046223,605
-650.2462620100463,612
-647.5957599587009,606
-644.9459883742998,641
-642.2969470804776,629
-639.6486359007902,624
-637.0010546587141,639
-634.3542031776476,645
-631.7080812809096,617
-629.0626887917401,580
-626.4180255333008,584
-623.7740913286734,640
-621.1308860008619,662
-618.4884093727904,611
-615.8466612673046,588
-613.2056415071715,620
-610.5653499150785,618
-607.9257863136347,658
-605.28695052537,659
-602.6488423727357,666
-600.0114616781036,679
-597.3748082637674,703
-594.7388819519412,774
-592.1036825647604,730
-589.4692099242818,694
-586.8354638524829,734
-584.2024441712624,708
-581.5701507024403,704
-578.9385832677575,824
-576.3077416888759,790
-573.6776257873787,695
-571.0482353847704,715
-568.4195703024757,652
-565.7916303618415,653
-563.164415384135,678
-560.5379251905453,680
-557.9121596021815,646
-555.2871184400748,654
-552.6628015251767,698
-550.0392086783606,704
-547.4163397204204,692
-544.794194472071,692
-542.1727727539491,683
-539.5520743866118,745
-536.9320991905377,756
-534.3128469861261,846
-531.6943175936979,845
-529.0765108334947,830
-526.4594265256793,950
-523.8430644903358,1113
-521.2274245474689,1288
-518.612506517005,1491
-515.9983102187913,1761
-513.3848354725959,2000
-510.77208209810846,2142
-508.16004991493924,2150
-505.5487387426199,2014
-502.9381484006032,1749
-500.3282787082628,1459
-497.71912948489364,1178
-495.1107005497117,999
-492.5029917218539,923
-489.8960028203786,932
-487.28973366426493,863
-484.68418407241325,797
-482.07935386364494,737
-479.47524285670266,753
-476.87185087025,783
-474.2691777228715,834
-471.66722323307334,843
-469.0659872192821,831
-466.4654694998459,800
-463.86566989303384,843
-461.26658821703614,811
-458.66822428996414,819
-456.07057792985,863
-453.4736489546475,851
-450.877437182231,848
-448.28194243039627,872
-445.68716451686,813
-443.09310325926003,754
-440.49975847515555,782
-437.9071299820263,828
-435.31521759727354,919
-432.72402113821954,942
-430.13354042210767,834
-427.5437752661022,816
-424.95472548728867,832
-422.36639090267386,926
-419.7787713291855,914
-417.1918665836721,839
-414.60567648290385,843
-412.0202008435715,978
-409.4354394822874,1024
-406.8513922155845,1027
-404.26805885991723,1023
-401.685439231661,1045
-399.103533147112,939
-396.522340422488,869
-393.9418608739278,936
-391.3620943174908,900
-388.7830405691583,869
-386.2046994448317,867
-383.6270707603344,855
-381.05015433141045,869
-378.473949973725,839
-375.8984575028645,759
-373.32367673433623,736
-370.74960748356875,809
-368.1762495659117,812
-365.60360279663576,747
-363.03166699093265,664
-360.4604419639154,656
-357.8899275306178,684
-355.32012350599507,618
-352.7510297049233,589
-350.1826459421999,591
-347.61497203254316,607
-345.04800779059235,651
-342.4817530309082,626
-339.91620756797226,637
-337.35137121618743,625
-334.7872437898774,667
-332.22382510328725,632
-329.66111497058273,625
-327.09911320585127,596
-324.53781962310075,575
-321.9772340362607,598
-319.4173562591816,616
-316.8581861056348,636
-314.2997233893127,747
-311.7419679238294,810
-309.1849195227194,887
-306.62857799943856,838
-304.0729431673641,673
-301.51801483979375,782
-298.963792829947,851
-296.41027695096386,711
-293.85746701590574,674
-291.3053628377552,710
-288.7539642294155,686
-286.2032710037115,686
-283.65328297338897,784
-281.1039999511146,773
-278.5554217494762,920
-276.007548180983,1002
-273.4603790580651,863
-270.9139141930734,814
-268.3681533982807,912
-265.8230964858798,817
-263.27874326798565,814
-260.7350935566336,821
-258.1921471637804,943
-255.6499039013039,1105
-253.10836358100266,949
-250.56752601459698,904
-248.02739101372765,814
-245.48795838995704,933
-242.94922795476816,960
-240.41119951956557,941
-237.8738728956746,839
-235.33724789434166,946
-232.80132432673452,1108
-230.2661020039418,1069
-227.73158073697357,963
-225.19776033676033,932
-222.66464061415422,1135
-220.1322213799284,1235
-217.60050244477725,1102
-215.06948361931552,1055
-212.53916471408013,1182
-210.00954553952818,1272
-207.48062590603843,1189
-204.9524056239104,1043
-202.4248845033651,1035
-199.8980623545441,1031
-197.37193898751036,1132
-194.84651421224817,1285
-192.32178783866232,1254
-189.79775967657952,1174
-187.27442953574644,1036
-184.7517972258321,1311
-182.2298625564256,1036
-179.7086253370378,1137
-177.18808537710026,1099
-174.66824248596583,1275
-172.14909647290835,1340
-169.6306471471229,1379
-167.11289431772548,1296
-164.59583779375328,1254
-162.07947738416453,1619
-159.5638128978386,1626
-157.04884414357605,1441
-154.53457093009854,1480
-152.02099306604828,1368
-149.50811035998936,1514
-146.99592262040665,1628
-144.48442965570587,1565
-141.97363127421409,1614
-139.46352728417958,1688
-136.95411749377126,1781
-134.44540171107985,1763
-131.93737974411636,1714
-129.43005140081357,1759
-126.92341648902493,2176
-124.41747481652521,2299
-121.91222619101006,2188
-119.40767042009657,2037
-116.90380731132257,2621
-114.40063667214702,3518
-111.8981583099503,4187
-109.3963720320337,5518
-106.89527764561933,7931
-104.39487495785067,9023
-101.89516377579241,10223
-99.39614390642998,13610
-96.89781515667039,17968
-94.40017733334128,21237
-91.90323024319173,22322
-89.40697369289148,20558
-86.91140748903172,12936
-84.41653143812482,7908
-81.92234534660395,8682
-79.42884902082358,12239
-76.93604226705907,16071
-74.4439248915071,19743
-71.95249670028534,20089
-69.46175749943245,17190
-66.97170709490854,13885
-64.48234529259423,11457
-61.99367189829195,10912
-59.50568671772464,12917
-57.01838955653636,12895
-54.53178022029283,15205
-52.045858514480074,21704
-49.560624244506016,24563
-47.07607721569923,22639
-44.59221723330904,27018
-42.10904410250669,31341
-39.62655762838392,36338
-37.14475761595372,40827
-34.66364387015028,53513
-32.18321619582866,63400
-29.70347439776515,59037
-27.224418280657005,59735
-24.74604764912317,62966
-22.26836230770266,65036
-19.7913620608565,65036
-17.315046712966478,65036
-14.83941606833514,65036
-12.36446993118659,65036
-9.89020810566592,65036
-7.416630395839093,65036
-4.94373660569363,65036
-2.471526539137585,65036
-6.821210263296962E-13,65036
2.47084320796705,65036
4.941003281093458,65036
7.410480415786196,65036
9.879274808531363,65036
12.347386655893956,65036
14.814816154518212,65036
17.28156350112681,65036
19.74762889252179,65036
22.21301252558385,65036
24.67771459727237,28782
27.141735304626195,10950
29.605074844762612,9636
32.06773341487792,8289
34.52971121224755,7872
36.99100843422559,7276
39.45162527824516,6776
41.91156194181792,5869
44.370818622535126,5302
46.82939551806646,5162
49.287292826160524,5938
51.74451074464503,6026
54.201049471426245,5779
56.65690920448981,5014
59.112090141899785,4952
61.56659248179983,3639
64.02041642241159,3694
66.4735621620365,4402
68.92602989905402,4561
71.37781983192338,4757
73.82893215918205,4395
76.27936707944684,3083
78.72912479141326,3484
81.17820549385567,2936
83.62660938562783,2107
86.07433666566146,2306
88.5213875329681,2223
90.96776218663751,2230
93.41346082583925,2392
95.85848364982041,3018
98.30283085790859,2464
100.7465026495089,2397
103.18949922410604,2443
105.63182078126385,1965
108.07346752062438,2326
110.51443964190923,2467
112.95473734491827,2434
115.39436082953114,2222
117.83331029570547,2365
120.27158594347827,2614
122.7091879729652,2661
125.1461165843615,2510
127.58237197794062,2236
130.01795435405518,2031
132.4528639131364,2170
134.88710085569494,2347
137.32066538231982,2044
139.75355769367923,1688
142.1857779905207,1443
144.61732647366978,1324
147.04820334403132,1374
149.47840880258934,1631
151.90794305040674,1984
154.33680628862487,1884
156.76499871846443,1935
159.19252054122433,2003
161.61937195828352,1931
164.04555317109896,2046
166.47106438120693,2100
168.89590579022217,2128
171.320077599839,2364
173.7435800118302,2535
176.16641322804742,2618
178.58857745042144,2636
181.01007288096173,2303
183.43089972175687,2317
185.85105817497413,2217
188.27054844285988,2324
190.6893707277394,2406
193.10752523201643,2526
195.5250121581745,2661
197.9418317087751,2582
200.3579840864594,2347
202.7734694939469,2534
205.18828813403627,2854
207.6024402096051,2771
210.01592592360964,2477
212.42874547908548,2270
214.84089907914665,2389
217.2523869269868,2403
219.66320922587727,2553
222.0733661791695,2433
224.48285799029293,2278
226.8916848627572,2403
229.29984700014882,2509
231.7073446061355,2557
234.11417788446204,2466
236.520347038953,2418
238.92585227351185,2618
241.33069379212054,2581
243.73487179884035,2619
246.1383864978112,2454
248.541238093252,2518
250.9434267894609,2453
253.34495279081432,2387
255.74581630176783,2405
258.1460175268563,2389
260.54555667069314,2477
262.9444339379703,2633
265.3426495334594,2647
267.7402036620107,2574
270.1370965285529,2485
272.53332833809407,2545
274.9288992957214,2537
277.32380960660055,2470
279.718059475976,2362
282.1116491091717,2310
284.5045787115897,2385
286.89684848871195,2365
289.2884586460981,2424
291.67940938938807,2440
294.0697009242996,2488
296.4593334566299,2395
298.84830719225477,2419
301.23662233712923,2565
303.6242790972866,2449
306.01127767884,2398
308.39761828798066,2429
310.78330113097934,2300
313.16832641418534,2252
315.5526943440269,2325
317.9364051270112,2271
320.3194589697242,2139
322.70185607883093,2236
325.0835966610754,2151
327.4646809232805,2153
329.8451090723478,2088
332.2248813152577,2130
334.6039978590701,2135
336.9824589109231,2135
339.36026467803447,2019
341.7374153677,2028
344.113911187295,1998
346.48975234427337,2213
348.8649390461686,2255
351.2394715005918,2184
353.61334991523415,2118
355.9865744978655,2068
358.35914545633375,2157
360.73106299856715,2145
363.10232733257146,2005
365.47293866643247,1992
367.84289720831396,1953
370.2122031664593,1938
372.5808567491905,1965
374.9488581649083,1940
377.31620762209275,1904
379.6829053293021,1904
382.0489514951745,1840
384.4143463284262,1933
386.7790900378528,1995
389.14318283232853,1971
391.50662492080653,2034
393.86941651231916,2024
396.23155781597745,2024
398.5930490409713,1846
400.9538903965696,1901
403.3140820921202,1836
405.6736243370498,1850
408.03251734086336,1826
410.3907613131465,1778
412.74835646356166,1879
415.10530300185144,1847
417.4616011378372,1887
419.81725108141893,1883
422.1722530425758,1931
424.5266072313656,1859
426.880313857925,1821
429.2333731324701,1828
431.58578526529516,1775
433.9375504667738,1723
436.2886689473588,1803
438.63914091758113,1876
440.9889665880513,1757
443.33814616945835,1744
445.68667987257015,1829
448.03456790823395,1744
450.3818104873759,1766
452.72840782100013,1739
455.07436012019105,1751
457.41966759611057,1739
459.7643304600007,1744
462.10834892318155,1768
464.4517231970525,1747
466.79445349309174,1754
469.1365400228566,1729
471.4779829979826,1764
473.81878263018564,1721
476.15893913125876,1732
478.4984527130747,1926
480.8373235875855,1984
483.17555196682144,1940
485.5131380628919,1902
487.8500820879857,1980
490.1863842543697,1933
492.52204477439034,1949
494.8570638604725,1996
497.1914417251204,2148
499.52517858091653,2375
501.85827464052306,2629
504.19073011668036,3197
506.5225452222086,4019
508.85372017000566,4796
511.18425517304956,5260
513.514150444396,6035
515.8434061971808,7248
518.1720226446176,8017
520.4999999999999,7670
522.8273384766991,6800
525.1540382881666,6299
527.480099647932,5425
529.8055227696037,4292
532.1303078668694,3013
534.454455153496,2358
536.777964843328,2075
539.1008371502907,2028
541.4230722883866,1958
543.744670471698,1877
546.0656319143858,1917
548.3859568306899,1850
550.7056454349294,1872
553.0246979415016,1756
555.3431145648834,1756
557.6608955196306,1780
559.978041020377,1739
562.2945512818363,1819
564.6104265188006,1889
566.9256669461412,1856
569.2402727788082,1738
571.5542442318302,1796
573.8675815203156,1897
576.1802848594508,1791
578.4923544645015,1915
580.8037905508126,1883
583.114593333807,1885
585.4247630289875,1872
587.7342998519354,1733
590.0432040183106,1757
592.3514757438526,1793
594.6591152443794,1811
596.9661227357875,1777
599.2724984340531,1820
601.578242555231,1818
603.8833553154542,1774
606.1878369309362,1787
608.4916876179676,1814
610.7949075929192,1738
613.0974970722403,1771
615.3994562724587,1784
617.7007854101818,1778
620.0014847020951,1813
622.3015543649641,1800
624.6009946156324,1812
626.8998056710224,1750
629.1979877481361,1841
631.4955410640538,1808
633.7924658359349,1810
636.0887622810175,1769
638.3844306166192,1796
640.6794710601358,1770
642.9738838290426,1784
645.2676691408932,1815
647.5608272133207,1792
649.853358264037,1854
652.1452625108324,1848
654.4365401715764,1863
656.7271914642178,1804
659.0172166067838,1843
661.3066158173809,1829
663.5953893141935,1797
665.8835373154867,1818
668.1710600396028,1815
670.4579577049639,1696
672.7442305300709,1772
675.0298787335033,1804
677.3149025339197,1863
679.599302150058,1771
681.8830778007342,1747
684.1662297048437,1828
686.4487580813608,1757
688.7306631493387,1754
691.0119451279091,1773
693.2926042362834,1825
695.5726406937516,1912
697.8520547196814,1834
700.1308465335215,1798
702.4090163547982,1797
704.6865644031171,1784
706.9634908981619,1763
709.2397960596965,1805
711.5154801075631,1847
713.7905432616823,1871
716.0649857420548,1838
718.3388077687592,1828
720.612009561953,1790
722.8845913418733,1836
725.1565533288352,1838
727.427895743234,1771
729.6986188055427,1720
731.9687227363137,1808
734.238207756178,1779
736.5070740858458,1867
738.7753219461066,1869
741.0429515578281,1870
743.3099631419569,1790
745.5763569195191,1866
747.8421331116193,1811
750.1072919394409,1830
752.3718336242467,1783
754.6357583873777,1736
756.8990664502545,1810
759.1617580343765,1846
761.423833361321,1837
763.6852926527457,1864
765.9461361303862,1934
768.206364016058,1911
770.4659765316536,1944
772.7249738991469,2024
774.9833563405886,1952
777.2411240781092,1944
779.4982773339183,1849
781.7548163303044,1856
784.010741289634,1865
786.2660524343538,1970
788.5207499869881,1983
790.7748341701416,1999
793.0283052064964,1953
795.2811633188143,1869
797.5334087299362,1905
799.7850416627813,1856
802.0360623403484,1777
804.2864709857143,1837
806.5362678220353,1867
808.7854530725468,1823
811.0340269605625,1816
813.2819897094754,1867
815.5293415427581,1819
817.77608268396,1791
820.0222133567116,1805
822.2677337847211,1866
824.5126441917765,1822
826.7569448017433,1783
829.0006358385675,1734
831.2437175262731,1797
833.4861900889629,1816
835.7280537508192,1819
837.9693087361026,1892
840.2099552691533,1705
842.4499935743896,1883
844.689423876309,1803
846.9282463994886,1818
849.1664613685833,1790
851.4040690083276,1839
853.6410695435349,1888
855.877463199097,1846
858.1132501999847,1773
860.3484307712487,1820
862.5830051380175,1736
864.8169735254988,1893
867.0503361589791,1850
869.2830932638243,1828
871.5152450654786,1873
873.7467917894654,1793
875.9777336613873,1809
878.2080709069252,1860
880.4378037518389,1804
882.666932421968,1822
884.8954571432301,1834
887.1233781416219,1840
889.3506956432192,1899
891.5774098741766,1826
893.803521060728,1836
896.0290294291852,1784
898.2539352059397,1798
900.4782386174619,1767
902.7019398903011,1732
904.925039251085,1714
907.147536926521,1801
909.3694331433943,1782
911.59072812857,1854
913.8114221089921,1830
916.0315153116827,1829
918.2510079637437,1837
920.4699002923547,1798
922.6881925247761,1838
924.905884888345,1834
927.1229776104793,1855
929.3394709186747,1848
931.555365040506,1789
933.7706602036275,1892
935.9853566357709,1818
938.1994545647489,1897
940.4129542184515,1872
942.6258558248488,1946
944.8381596119883,1915
947.0498658079974,1913
949.2609746410825,1906
951.4714863395287,1841
953.6814011316998,1903
955.8907192460387,1900
958.0994409110671,1900
960.3075663553858,1872
962.5150958076741,1874
964.7220294966913,1819
966.928367651274,1879
969.1341105003388,1895
971.3392582728806,1806
973.5438111979742,1846
975.747769504772,1837
977.9511334225061,1797
980.153903180487,1746
982.3560790081052,1753
984.5576611348289,1670
986.7586497902058,1757
988.9590452038618,1713
991.158847605503,1666
993.3580572249133,1668
995.5566742919558,1565
997.7546990365728,1624
999.952131688785,1597
1002.1489724786926,1633
1004.3452216364743,1666
1006.5408793923874,1563
1008.7359459767691,1552
1010.9304216200343,1464
1013.1243065526781,1485
1015.3176010052733,1513
1017.510305208472,1455
1019.7024193930064,1465
1021.8939437896848,1431
1024.0848786293977,1467
1026.2752241431122,1419
1028.4649805618747,1472
1030.6541481168115,1432
1032.842727039127,1421
1035.0307175601051,1391
1037.2181199111074,1415
1039.4049343235752,1366
1041.591161029029,1372
1043.7768002590683,1396
1045.9618522453698,1353
1048.1463172196918,1365
1050.3301954138697,1362
1052.513487059818,1419
1054.69619238953,1411
1056.8783116350783,1387
1059.0598450286152,1360
1061.2407928023704,1368
1063.4211551886528,1411
1065.6009324198508,1409
1067.780124728432,1365
1069.9587323469414,1342
1072.1367555080046,1367
1074.314194444325,1330
1076.4910493886855,1313
1078.667320573947,1353
1080.843008233051,1312
1083.0181125990161,1342
1085.1926339049414,1336
1087.3665723840027,1328
1089.5399282694575,1315
1091.7127017946405,1274
1093.8848931929647,1298
1096.0565026979243,1262
1098.2275305430899,1268
1100.3979769621128,1330
1102.567842188722,1293
1104.737126456726,1246
1106.9058300000124,1255
1109.0739530525475,1343
1111.2414958483764,1319
1113.4084586216231,1321
1115.5748416064907,1240
1117.7406450372605,1272
1119.9058691482942,1304
1122.0705141740304,1319
1124.2345803489884,1272
1126.3980679077658,1256
1128.5609770850388,1295
1130.7233081155623,1281
1132.8850612341707,1290
1135.0462366757774,1274
1137.2068346753745,1236
1139.3668554680326,1231
1141.526299288901,1294
1143.68516637321,1245
1145.8434569562655,1268
1148.001171273455,1262
1150.158309560244,1291
1152.3148720521767,1262
1154.470858984876,1264
1156.626270594044,1298
1158.7811071154629,1308
1160.9353687849912,1305
1163.089055838569,1296
1165.242168512213,1314
1167.3947070420209,1342
1169.5466716641677,1240
1171.6980626149075,1210
1173.8488801305748,1255
1175.9991244475814,1242
1178.1487958024186,1219
1180.2978944316555,1238
1182.4464205719428,1250
1184.5943744600072,1299
1186.7417563326567,1242
1188.8885664267755,1238
1191.0348049793297,1208
1193.1804722273619,1151
1195.325568407995,1244
1197.4700937584303,1223
1199.614048515948,1269
1201.7574329179074,1250
1203.900247201746,1229
1206.042491604982,1213
1208.1841663652099,1240
1210.3252717201053,1233
1212.465807907422,1259
1214.6057751649923,1265
1216.7451737307279,1283
1218.8840038426192,1295
1221.0222657387353,1268
1223.1599596572241,1257
1225.2970858363137,1321
1227.4336445143094,1233
1229.5696359295966,1272
1231.705060320639,1214
1233.8399179259786,1288
1235.9742089842384,1266
1238.107933734118,1274
1240.2410924143974,1209
1242.373685263935,1273
1244.5057125216676,1303
1246.6371744266116,1260
1248.7680712178621,1224
1250.898403134593,1247
1253.028170416058,1240
1255.1573733015875,1189
1257.2860120305932,1186
1259.4140868425648,1241
1261.54159797707,1225
1263.6685456737569,1279
1265.7949301723515,1212
1267.9207517126597,1187
1270.046010534565,1221
1272.1707068780306,1267
1274.2948409830983,1274
1276.4184130898889,1300
1278.541423438603,1294
1280.6638722695184,1322
1282.785759822993,1245
1284.9070863394636,1261
1287.0278520594447,1225
1289.1480572235314,1249
1291.2677020723963,1253
1293.3867868467923,1259
1295.5053117875495,1306
1297.623277135579,1296
1299.740683131868,1251
1301.8575300174857,1256
1303.973818033578,1202
1306.0895474213703,1283
1308.2047184221678,1277
1310.3193312773528,1206
1312.4333862283888,1239
1314.5468835168163,1235
1316.659823384255,1247
1318.7722060724045,1232
1320.8840318230418,1272
1322.9953008780249,1280
1325.1060134792888,1258
1327.2161698688478,1331
1329.3257702887959,1272
1331.4348149813054,1315
1333.5433041886276,1303
1335.6512381530933,1343
1337.7586171171101,1251
1339.8654413231675,1266
1341.9717110138317,1265
1344.0774264317488,1295
1346.1825878196432,1298
1348.2871954203192,1298
1350.3912494766587,1272
1352.4947502316231,1346
1354.5976979282532,1321
1356.7000928096686,1269
1358.8019351190665,1284
1360.9032250997243,1318
1363.0039629949988,1311
1365.1041490483235,1238
1367.2037835032133,1251
1369.3028666032606,1322
1371.401398592137,1288
1373.4993797135926,1344
1375.5968102114575,1313
1377.6936903296396,1296
1379.7900203121262,1298
1381.8858004029835,1294
1383.9810308463561,1268
1386.075711886469,1276
1388.1698437676241,1312
1390.2634267342032,1223
1392.356461030667,1279
1394.4489469015557,1340
1396.5408845914872,1286
1398.6322743451592,1317
1400.7231164073469,1335
1402.813411022907,1346
1404.903158436773,1390
1406.9923588939578,1312
1409.0810126395531,1256
1411.1691199187303,1320
1413.2566809767386,1306
1415.343696058907,1252
1417.4301654106425,1289
1419.5160892774315,1259
1421.6014679048399,1339
1423.6863015385125,1279
1425.7705904241707,1350
1427.8543348076178,1323
1429.9375349347342,1315
1432.0201910514802,1288
1434.102303403894,1257
1436.1838722380944,1279
1438.2648978002767,1263
1440.3453803367174,1343
1442.4253200937692,1294
1444.5047173178677,1304
1446.5835722555234,1313
1448.6618851533285,1297
1450.739656257952,1315
1452.8168858161434,1314
1454.8935740747306,1348
1456.96972128062,1321
1459.045327680797,1285
1461.120393522327,1321
1463.1949190523528,1318
1465.2689045180973,1332
1467.3423501668608,1323
1469.415256246024,1356
1471.4876230030463,1286
1473.559450685465,1321
1475.6307395408976,1305
1477.7014898170391,1337
1479.771701761665,1292
1481.8413756226287,1315
1483.9105116478618,1305
1485.9791100853772,1287
1488.0471711832643,1332
1490.1146951896926,1326
1492.1816823529098,1323
1494.2481329212433,1357
1496.3140471430984,1284
1498.3794252669609,1290
1500.4442675413939,1280
1502.5085742150404,1292
1504.572345536622,1340
1506.6355817549388,1355
1508.6982831188702,1332
1510.7604498773744,1303
1512.8220822794883,1311
1514.8831805743293,1332
1516.9437450110909,1296
1519.003775839048,1269
1521.0632733075522,1304
1523.1222376660367,1327
1525.1806691640113,1335
1527.2385680510652,1333
1529.2959345768668,1347
1531.3527689911643,1314
1533.4090715437833,1300
1535.4648424846291,1312
1537.5200820636855,1288
1539.5747905310159,1383
1541.6289681367616,1260
1543.6826151311434,1250
1545.7357317644614,1368
1547.7883182870937,1293
1549.8403749494987,1300
1551.8919020022113,1342
1553.9428996958477,1282
1555.9933682811015,1341
1558.0433080087469,1314
1560.0927191296346,1348
1562.1416018946961,1380
1564.1899565549415,1321
1566.2377833614592,1290
1568.2850825654164,1291
1570.3318544180606,1332
1572.3780991707158,1335
1574.423817074788,1312
1576.4690083817595,1331
1578.5136733431923,1226
1580.5578122107272,1302
1582.601425236085,1287
1584.6445126710646,1301
1586.6870747675434,1335
1588.7291117774776,1268
1590.7706239529034,1310
1592.8116115459347,1284
1594.8520748087658,1330
1596.8920139936686,1290
1598.9314293529933,1301
1600.9703211391711,1311
1603.008689604711,1295
1605.0465350022005,1317
1607.0838575843068,1331
1609.1206576037753,1338
1611.1569353134305,1305
1613.1926909661765,1290
1615.2279248149953,1259
1617.2626371129481,1291
1619.2968281131757,1267
1621.3304980688963,1279
1623.3636472334088,1324
1625.39627586009,1268
1627.428384202396,1319
1629.459972513861,1297
1631.4910410480993,1287
1633.5215900588028,1326
1635.551619799744,1277
1637.5811305247717,1273
1639.6101224878166,1292
1641.6385959428862,1230
1643.6665511440683,1207
1645.693988345528,1269
1647.7209078015112,1285
1649.7473097663405,1285
1651.7731944944203,1250
1653.7985622402307,1306
1655.823413258333,1169
1657.847747803366,1252
1659.8715661300494,1233
1661.8948684931793,1171
1663.9176551476316,1184
1665.9399263483624,1270
1667.9616823504057,1285
1669.982923408873,1251
1672.0036497789574,1223
1674.0238617159293,1165
1676.043559475138,1248
1678.0627433120121,1250
1680.081413482059,1219
1682.0995702408654,1246
1684.117213844096,1263
1686.134344547495,1236
1688.1509626068864,1241
1690.1670682781705,1221
1692.182661817329,1241
1694.1977434804217,1244
1696.2123135235875,1222
1698.226372203043,1238
1700.2399197750851,1254
1702.2529564960905,1277
1704.2654826225112,1221
1706.277498410882,1244
1708.2890041178139,1268
1710.2999999999988,1237
1712.3104863142066,1317
1714.3204633172854,1266
1716.329931266163,1252
1718.3388904178469,1261
1720.3473410294214,1256
1722.3552833580516,1247
1724.3627176609807,1225
1726.3696441955308,1240
1728.3760632191033,1251
1730.3819749891782,1250
1732.3873797633146,1219
1734.3922777991502,1259
1736.3966693544012,1230
1738.4005546868639,1214
1740.4039340544127,1267
1742.406807715001,1214
1744.4091759266616,1314
1746.4110389475054,1254
1748.4123970357223,1232
1750.413250449582,1201
1752.4135994474318,1265
1754.4134442876993,1272
1756.4127852288902,1240
1758.4116225295893,1220
1760.4099564484595,1234
1762.407787244244,1274
1764.405115175764,1280
1766.4019405019203,1311
1768.3982634816916,1228
1770.3940843741357,1268
1772.3894034383907,1242
1774.3842209336717,1240
1776.378537119274,1196
1778.372352254571,1234
1780.3656665990156,1230
1782.3584804121397,1267
1784.3507939535534,1242
1786.3426074829463,1220
1788.3339212600863,1253
1790.3247355448211,1256
1792.3150505970766,1253
1794.3048666768573,1247
1796.2941840442477,1312
1798.2830029594106,1282
1800.2713236825884,1235
1802.2591464741004,1245
1804.2464715943465,1290
1806.2332993038058,1233
1808.2196298630352,1228
1810.2054635326708,1284
1812.190800573428,1258
1814.175641246101,1257
1816.1599858115628,1248
1818.1438345307652,1282
1820.127187664738,1311
1822.1100454745924,1320
1824.092408221516,1303
1826.0742761667766,1247
1828.055649571721,1255
1830.0365286977735,1252
1832.0169138064398,1293
1833.9968051593014,1266
1835.9762030180214,1291
1837.9551076443408,1300
1839.9335193000788,1300
1841.9114382471344,1300
1843.888864747485,1306
1845.8657990631878,1245
1847.842241456378,1252
1849.8181921892697,1297
1851.7936515241558,1204
1853.7686197234098,1234
1855.7430970494815,1286
1857.7170837649014,1193
1859.6905801322787,1219
1861.6635864143004,1283
1863.6361028737338,1273
1865.608129773424,1234
1867.5796673762961,1256
1869.5507159453537,1257
1871.521275743678,1287
1873.4913470344313,1296
1875.4609300808534,1286
1877.4300251462632,1264
1879.3986324940588,1280
1881.366752387717,1326
1883.3343850907936,1310
1885.3015308669228,1268
1887.268189979819,1269
1889.2343626932739,1252
1891.2000492711595,1268
1893.1652499774254,1299
1895.1299650761011,1293
1897.0941948312952,1305
1899.0579395071945,1260
1901.0211993680641,1298
1902.98397467825,1249
1904.9462657021745,1293
1906.9080727043415,1261
1908.869395949332,1275
1910.8302357018065,1275
1912.790592226504,1281
1914.7504657882428,1271
1916.7098566519212,1282
1918.6687650825133,1301
1920.6271913450764,1306
1922.5851357047422,1309
1924.5425984267245,1307
1926.499579776314,1313
1928.4560800188833,1336
1930.4120994198802,1267
1932.367638244833,1336
1934.32269675935,1311
1936.2772752291175,1285
1938.231373919899,1236
1940.1849930975404,1259
1942.1381330279637,1270
1944.0907939771696,1262
1946.0429762112412,1315
1947.9946799963363,1257
1949.9459055986945,1285
1951.896653284633,1288
1953.8469233205478,1250
1955.7967159729142,1235
1957.7460315082863,1282
1959.6948701932974,1305
1961.6432322946594,1284
1963.5911180791632,1244
1965.5385278136787,1224
1967.4854617651545,1210
1969.4319202006182,1216
1971.377903387176,1256
1973.3234115920136,1239
1975.268445082395,1304
1977.2130041256642,1263
1979.1570889892423,1257
1981.1006999406304,1256
1983.04383724741,1260
1984.986501177238,1277
1986.928691997853,1290
1988.8704099770712,1318
1990.811655382789,1282
1992.7524284829801,1296
1994.692729545698,1267
1996.6325588390755,1278
1998.5719166313224,1275
2000.5108031907307,1265
2002.4492187856677,1335
2004.387163684583,1292
2006.3246381560011,1280
2008.2616424685298,1266
2010.1981768908527,1296
2012.1342416917332,1336
2014.069837140014,1269
2016.0049635046162,1295
2017.9396210545406,1303
2019.8738100588666,1280
2021.8075307867502,1302
2023.740783507431,1251
2025.6735684902228,1285
2027.6058860045214,1309
2029.5377363198004,1267
2031.4691197056118,1257
2033.4000364315875,1259
2035.3304867674374,1234
2037.260470982952,1299
2039.189989347998,1277
2041.1190421325232,1317
2043.047629606554,1300
2044.9757520401945,1296
2046.9034097036288,1288
2048.8306028671195,1260
2050.7573318010086,1281
2052.683596775716,1277
2054.609398061742,1231
2056.5347359296647,1287
2058.4596106501403,1269
2060.384022493906,1264
2062.3079717317764,1254
2064.231458634646,1293
2066.1544834734873,1243
2068.077046519352,1220
2069.99914804337,1232
2071.9207883167524,1304
2073.8419676107865,1286
2075.7626861968406,1246
2077.6829443463607,1258
2079.6027423308715,1299
2081.522080421977,1256
2083.440958891362,1257
2085.359378010786,1259
2087.2773380520907,1273
2089.194839287196,1269
2091.111881988101,1247
2093.0284664268825,1239
2094.9445928756973,1243
2096.86026160678,1282
2098.775472892446,1314
2100.690227005088,1247
2102.604524217178,1262
2104.5183648012676,1251
2106.431749029985,1216
2108.34467717604,1308
2110.2571495122206,1279
2112.169166311393,1279
2114.080727846503,1250
2115.9918343905747,1248
2117.902486216711,1243
2119.8126835980956,1258
2121.722426807987,1257
2123.6317161197285,1320
2125.5405518067364,1283
2127.448934142509,1316
2129.356863400624,1296
2131.264339854737,1256
2133.1713637785815,1289
2135.077935445972,1335
2136.9840551308002,1291
2138.889723107037,1329
2140.7949396487334,1314
2142.699705030018,1307
2144.6040195250994,1298
2146.507883408264,1314
2148.4112969538774,1254
2150.3142604363848,1301
2152.2167741303097,1304
2154.1188383102535,1295
2156.0204532508997,1307
2157.9216192270064,1288
2159.822336513414,1272
2161.7226053850413,1302
2163.622426116884,1350
2165.5217989840185,1287
2167.4207242616,1283
2169.319202224862,1369
2171.2172331491165,1302
2173.1148173097563,1330
2175.0119549822507,1354
2176.90864644215,1341
2178.8048919650823,1323
2180.7006918267534,1398
2182.596046302952,1376
2184.4909556695407,1361
2186.3854202024645,1412
2188.279440177746,1353
2190.173015871487,1386
2192.066147559868,1352
2193.958835519149,1377
2195.851080025667,1378
2197.7428813558417,1344
2199.6342397861667,1296
2201.5251555932186,1368
2203.415629053651,1401
2205.3056604441986,1382
2207.19525004167,1380
2209.084398122958,1364
2210.9731049650327,1364
2212.861370844941,1368
2214.749196039812,1369
2216.636580826851,1364
2218.523525483344,1363
2220.410030286655,1392
2222.296095514226,1337
2224.1817214435805,1401
2226.066908352319,1381
2227.951656518121,1371
2229.835966218746,1312
2231.71983773203,1396
2233.6032713358913,1372
2235.486267308324,1373
2237.3688259274036,1330
2239.2509474712824,1390
2241.132632218193,1322
2243.013880446447,1357
2244.8946924344323,1391
2246.7750684606203,1364
2248.6550088035574,1370
2250.534513741871,1384
2252.413583554265,1416
2254.292218519526,1393
2256.170418916517,1357
2258.0481850241786,1354
2259.925517121534,1406
2261.8024154876825,1336
2263.678880401803,1368
2265.5549121431536,1396
2267.430510991071,1418
2269.305677224971,1321
2271.180411124348,1330
2273.0547129687766,1390
2274.9285830379076,1377
2276.8020216114737,1408
2278.6750289692845,1359
2280.5476053912294,1428
2282.4197511572766,1439
2284.2914665474727,1400
2286.162751841943,1416
2288.0336073208937,1511
2289.904033264608,1444
2291.774029953448,1439
2293.6435976678554,1389
2295.5127366883517,1347
2297.381447295534,1296
2299.2497297700825,1296
2301.1175843927526,1342
2302.9850114443825,1274
2304.852011205885,1231
2306.7185839582553,1229
2308.5847299825664,1235
2310.4504495599676,1221
2312.3157429716925,1216
2314.1806104990483,1203
2316.0450524234247,1177
2317.9090690262888,1204
2319.772660589186,1122
2321.635827393742,1171
2323.498569721661,1167
2325.3608878547248,1154
2327.2227820747967,1139
2329.0842526638157,1220
2330.945299903803,1168
2332.805924076857,1146
2334.6661254651535,1110
2336.525904350951,1173
2338.3852610165827,1115
2340.244195744464,1147
2342.102708817088,1167
2343.9608005170253,1191
2345.8184711269287,1178
2347.675720929526,1146
2349.532550207628,1192
2351.38895924412,1154
2353.24494832197,1167
2355.100517724223,1159
2356.955667734004,1197
2358.810398634514,1172
2360.664710709037,1158
2362.5186042409337,1153
2364.3720795136437,1148
2366.225136810686,1165
2368.0777764156583,1154
2369.929998612237,1128
2371.7818036841777,1139
2373.633191915315,1143
2375.484163589562,1205
2377.3347189909114,1126
2379.184858403434,1168
2381.03458211128,1170
2382.8838903986775,1139
2384.732783549936,1149
2386.5812618494406,1206
2388.4293255816588,1158
2390.2769750311327,1188
2392.1242104824883,1126
2393.971032220427,1127
2395.8174405297295,1165
2397.6634356952563,1213
2399.509018001947,1227
2401.3541877348193,1176
2403.1989451789705,1147
2405.043290619576,1202
2406.8872243418905,1214
2408.730746631247,1153
2410.5738577730594,1204
2412.4165580528183,1152
2414.258847756095,1220
2416.100727168537,1119
2417.9421965758734,1173
2419.783256263912,1117
2421.623906518538,1173
2423.4641476257157,1207
2425.303979871491,1203
2427.143403541984,1201
2428.9824189233977,1184
2430.821026302012,1192
2432.6592259641866,1131
2434.497018196361,1166
2436.33440328505,1185
2438.171381516851,1183
2440.00795317844,1138
2441.844118556569,1161
2443.6798779380724,1137
2445.5152316098606,1173
2447.3501798589255,1169
2449.1847229723357,1152
2451.0188612372403,1120
2452.8525949408663,1125
2454.6859243705203,1179
2456.518849813587,1152
2458.3513715575314,1137
2460.183489889895,1192
2462.015205098301,1137
2463.8465174704493,1139
2465.67742729412,1182
2467.5079348571717,1206
2469.338040447542,1194
2471.1677443532476,1155
2472.9970468623833,1199
2474.825948263123,1134
2476.6544488437207,1178
2478.482548892508,1144
2480.310248697896,1110
2482.137548548374,1140
2483.9644487325118,1163
2485.790949538956,1163
2487.617051256433,1135
2489.44275417375,1162
2491.26805857979,1164
2493.0929647635157,1174
2494.917473013971,1172
2496.741583620276,1176
2498.5652968716304,1151
2500.3886130573137,1109
2502.2115324666834,1181
2504.0340553891765,1167
2505.856182114308,1178
2507.6779129316733,1190
2509.499248130945,1121
2511.3201880018764,1205
2513.140732834298,1140
2514.9608829181198,1075
2516.780638543331,1173
2518.6,1146
2520.418967578273,1157
2522.237541568376,1151
2524.0557222606144,1137
2525.8735099453706,1172
2527.6909049131086,1163
2529.507907454368,1141
2531.32451785977,1140
2533.140736420014,1179
2534.9565634258774,1172
2536.771999168218,1158
2538.5870439379714,1183
2540.4016980261526,1130
2542.2159617238544,1134
2544.02983532225,1172
2545.8433191125914,1119
2547.656413386209,1137
2549.4691184345115,1114
2551.2814345489874,1154
2553.093362021204,1148
2554.904901142808,1176
2556.716052205523,1181
2558.526815501153,1176
2560.3371913215824,1173
2562.147179958771,1131
2563.956781704761,1123
2565.7659968516705,1158
2567.5748256916986,1168
2569.3832685171224,1153
2571.1913256202984,1141
2572.9989972936614,1138
2574.806283829725,1156
2576.613185521084,1154
2578.4197026604074,1169
2580.2258355404483,1178
2582.031584454035,1165
2583.836949694077,1154
2585.6419315535613,1127
2587.4465303255533,1175
2589.2507463032002,1132
2591.0545797797245,1149
2592.8580310484303,1084
2594.6611004026995,1123
2596.463788135992,1164
2598.266094541849,1162
2600.0680199138874,1151
2601.869564545807,1162
2603.670728731383,1155
2605.4715127644704,1141
2607.2719169390048,1153
2609.071941548998,1114
2610.8715868885433,1179
2612.670853251811,1220
2614.469740933052,1154
2616.268250226594,1152
2618.0663814268455,1192
2619.864134828292,1172
2621.6615107255006,1100
2623.458509413115,1158
2625.2551311858597,1160
2627.0513763385347,1109
2628.8472451660223,1124
2630.6427379632833,1179
2632.4378550253564,1110
2634.232596647359,1154
2636.026963124488,1139
2637.8209547520187,1128
2639.6145718253065,1189
2641.407814639785,1137
2643.200683490966,1167
2644.9931786744414,1157
2646.7853004858807,1165
2648.577049221034,1145
2650.3684251757277,1161
2652.1594286458712,1099
2653.9500599274484,1095
2655.740319316525,1158
2657.5302071092437,1141
2659.3197236018286,1129
2661.10886909058,1143
2662.8976438718782,1115
2664.686048242183,1151
2666.4740824980327,1134
2668.2617469360443,1149
2670.0490418529134,1168
2671.8359675454153,1071
2673.622524310403,1086
2675.408712444811,1188
2677.1945322456495,1157
2678.979984010009,1147
2680.76506803506,1120
2682.5497846180497,1149
2684.334134056306,1156
2686.1181166472343,1132
2687.9017326883213,1228
2689.6849824771293,1196
2691.4678663113013,1154
2693.2503844885596,1118
2695.032537306705,1186
2696.8143250636167,1206
2698.5957480572542,1144
2700.3768065856534,1154
2702.1575009469316,1165
2703.937831439283,1187
2705.717798360982,1123
2707.4974020103837,1122
2709.276642685917,1136
2711.055520686095,1127
2712.834036309506,1199
2714.612189854819,1148
2716.389981620782,1142
2718.1674119062204,1111
2719.944481010041,1105
2721.721189231226,1137
2723.4975368688415,1144
2725.273524222027,1151
2727.0491515900053,1115
2728.824419272075,1164
2730.5993275676146,1175
2732.3738767760838,1172
2734.148067197016,1146
2735.921899130031,1133
2737.6953728748194,1157
2739.468488731156,1115
2741.2412469988926,1155
2743.0136479779617,1094
2744.785691968372,1123
2746.5573792702116,1123
2748.3287101836504,1151
2750.099685008934,1130
2751.870304046388,1140
2753.640567596418,1137
2755.4104759595057,1136
2757.1800294362156,1121
2758.949228327187,1108
2760.7180729331412,1142
2762.486563554877,1206
2764.254700493272,1140
2766.022484049284,1116
2767.789914523947,1187
2769.5569922183786,1192
2771.3237174337705,1158
2773.090090471394,1159
2774.8561116326036,1141
2776.6217812188274,1140
2778.3870995315756,1141
2780.1520668724356,1170
2781.9166835430747,1143
2783.6809498452394,1149
2785.444866080754,1197
2787.2084325515225,1162
2788.971649559527,1185
2790.73451740683,1157
2792.4970363955713,1176
2794.2592068279705,1174
2796.0210290063264,1120
2797.7825032330147,1123
2799.543629810493,1093
2801.304409041296,1196
2803.0648412280366,1196
2804.8249266734088,1189
2806.5846656801846,1118
2808.344058551212,1150
2810.1031055894246,1156
2811.8618070978273,1193
2813.6201633795085,1122
2815.378174737636,1139
2817.1358414754536,1125
2818.893163896285,1099
2820.6501423035334,1122
2822.4067770006814,1132
2824.1630682912883,1154
2825.9190164789957,1121
2827.6746218675207,1162
2829.429884760661,1148
2831.184805462294,1172
2832.9393842763743,1173
2834.693621506936,1176
2836.4475174580916,1159
2838.201072434034,1172
2839.954286739034,1140
2841.707160677441,1139
2843.459694553685,1142
2845.2118886722724,1170
2846.96374333779,1163
2848.7152588549034,1229
2850.4664355283567,1173
2852.217273662973,1200
2853.9677735636546,1201
2855.7179355353833,1186
2857.4677598832186,1209
2859.217246912299,1185
2860.9663969278427,1122
2862.715210235146,1155
2864.4636871395846,1168
2866.211827946614,1166
2867.9596329617652,1137
2869.7071024906536,1130
2871.4542368389684,1149
2873.20103631248,1179
2874.947501217038,1200
2876.6936318585695,1146
2878.4394285430812,1195
2880.1848915766604,1160
2881.9300212654707,1132
2883.6748179157553,1169
2885.4192818338374,1170
2887.1634133261173,1143
2888.907212699077,1172
2890.6506802592744,1177
2892.393816313348,1179
2894.1366211680142,1199
2895.8790951300693,1177
2897.621238506388,1167
2899.363051603925,1171
2901.1045347297118,1151
2902.8456881908596,1131
2904.58651229456,1155
2906.327007348081,1203
2908.067173658772,1127
2909.8070115340597,1078
2911.5465212814497,1161
2913.285703208527,1129
2915.0245576229563,1165
2916.7630848324807,1210
2918.5012851449196,1235
2920.2391588681758,1154
2921.976706310227,1149
2923.7139277791334,1141
2925.4508235830313,1163
2927.187394030137,1189
2928.923639428745,1263
2930.6595600872306,1188
2932.395156314046,1155
2934.1304284177218,1169
2935.8653767068713,1151
2937.6000014901815,1147
2939.3343030764227,1156
2941.068281774442,1164
2942.8019378931644,1222
2944.5352717415976,1168
2946.2682836288236,1172
2948.0009738640065,1214
2949.7333427563885,1226
2951.465390615289,1201
2953.1971177501086,1200
2954.9285244703265,1211
2956.6596110855,1152
2958.3903779052657,1181
2960.1208252393385,1206
2961.8509533975125,1154
2963.5807626896617,1183
2965.3102534257378,1176
2967.0394259157715,1165
2968.768280469873,1151
2970.496817398232,1163
2972.2250370111146,1159
2973.952939618869,1169
2975.6805255319196,1228
2977.4077950607707,1174
2979.134748516006,1192
2980.861386208289,1210
2982.587708448359,1158
2984.313715547037,1184
2986.039407815222,1156
2987.764785563891,1165
2989.489849104102,1136
2991.2145987469908,1160
2992.9390348037705,1132
2994.6631575857346,1119
2996.3869674042576,1135
2998.1104645707887,1146
2999.83364939686,1113
3001.5565221940783,1157
3003.2790832741334,1148
3005.0013329487924,1117
3006.7232715298996,1116
3008.4448993293804,1137
3010.166216659239,1145
3011.887223831558,1130
3013.607921158498,1188
3015.3283089522993,1119
3017.0483875252826,1105
3018.7681571898443,1167
3020.4876182584626,1137
3022.2067710436927,1125
3023.9256158581707,1183
3025.644153014609,1129
3027.362382825801,1160
3029.0803056046193,1128
3030.797921664012,1136
3032.5152313170106,1131
3034.2322348767225,1162
3035.9489326563353,1142
3037.665324969115,1160
3039.3814121284063,1144
3041.097194447633,1199
3042.812672240299,1108
3044.5278458199855,1112
3046.2427155003525,1136
3047.9572815951406,1164
3049.671544418167,1126
3051.38550428333,1141
3053.0991615046073,1162
3054.812516396051,1107
3056.5255692717974,1153
3058.2383204460575,1162
3059.9507702331257,1142
3061.662918947372,1166
3063.3747669032446,1140
3065.0863144152736,1129
3066.7975617980674,1139
3068.508509366309,1157
3070.219157434767,1119
3071.9295063182844,1140
3073.639556331785,1163
3075.3493077902704,1150
3077.058761008821,1151
3078.7679163025964,1138
3080.476773986837,1162
3082.1853343768594,1180
3083.89359778806,1123
3085.6015645359153,1136
3087.3092349359786,1169
3089.016609303884,1137
3090.7236879553434,1105
3092.4304712061476,1150
3094.136959372166,1134
3095.843152769349,1170
3097.5490517137237,1144
3099.2546565213966,1147
3100.959967508554,1111
3102.66498499146,1165
3104.3697092864577,1155
3106.0741407099695,1152
3107.778279578498,1134
3109.482126208622,1160
3111.1856809170004,1136
3112.8889440203716,1164
3114.5919158355528,1150
3116.294596679439,1115
3117.996986869006,1140
3119.6990867213062,1153
3121.4008965534726,1147
3123.102416682717,1187
3124.803647426329,1130
3126.5045891016784,1185
3128.205242026213,1188
3129.90560651746,1123
3131.605682893025,1150
3133.3054714705922,1170
3135.0049725679282,1156
3136.7041865028714,1180
3138.4031135933465,1149
3140.101754157353,1133
3141.800108512971,1103
3143.498176978357,1106
3145.1959598717494,1100
3146.8934575114636,1146
3148.5906702158954,1126
3150.2875983035183,1096
3151.9842420928853,1114
3153.680601902627,1102
3155.376678051456,1147
3157.07247085816,1119
3158.767980641609,1169
3160.463207720748,1141
3162.158152414606,1144
3163.8528150422862,1100
3165.5471959229726,1153
3167.2412953759303,1148
3168.9351137204976,1125
3170.628651276098,1174
3172.3219083622307,1195
3174.014885298474,1145
3175.707582404485,1141
3177.4000000000005,1172
3179.092138404835,1112
3180.7839979388846,1160
3182.47557892212,1148
3184.166881674594,1134
3185.8579065164386,1132
3187.5486537678626,1171
3189.2391237491547,1100
3190.9293167806827,1105
3192.6192331828934,1135
3194.3088732763117,1143
3195.998237381542,1138
3197.687325819268,1113
3199.376138910251,1155
3201.064676975334,1105
3202.7529403354347,1141
3204.4409293115523,1116
3206.1286442247647,1115
3207.816085396229,1082
3209.5032531471825,1080
3211.190147798936,1064
3212.8767696728846,1199
3214.5631190905015,1113
3216.2491963733373,1148
3217.9350018430214,1127
3219.6205358212637,1107
3221.305798629851,1063
3222.990790590651,1135
3224.6755120256103,1091
3226.359963256751,1138
3228.0441446061795,1119
3229.7280563960758,1113
3231.411698948703,1109
3233.0950725863995,1168
3234.778177631587,1126
3236.461014406761,1156
3238.1435832345005,1169
3239.8258844374595,1149
3241.507918338374,1175
3243.1896852600576,1160
3244.8711855254023,1151
3246.552419457381,1158
3248.233387379042,1130
3249.914089613516,1111
3251.59452648401,1097
3253.274698313813,1161
3254.95460542629,1153
3256.6342481448855,1123
3258.313626793125,1150
3259.9927416946084,1062
3261.6715931730196,1135
3263.3501815521176,1085
3265.0285071557437,1099
3266.706570307815,1076
3268.3843713323286,1071
3270.0619105533615,1116
3271.739188295068,1111
3273.4162048816834,1139
3275.0929606375184,1126
3276.769455886966,1164
3278.445690954498,1179
3280.1216661646613,1154
3281.797381842087,1165
3283.4728383114807,1135
3285.1480358976296,1188
3286.8229749253996,1125
3288.4976557197333,1117
3290.172078605655,1182
3291.846243908266,1168
3293.5201519527463,1074
3295.193803064357,1084
3296.8671975684374,1091
3298.5403357904024,1119
3300.21321805575,1138
3301.8858446900567,1137
3303.558216018975,1148
3305.23033236824,1125
3306.9021940636603,1174
3308.57380143113,1151
3310.2451547966184,1179
3311.916254486174,1144
3313.5871008259246,1099
3315.2576941420766,1130
3316.9280347609147,1142
3318.5981230088046,1144
3320.2679592121895,1080
3321.9375436975924,1090
3323.606876791612,1122
3325.27595882093,1121
3326.944790112305,1063
3328.6133709925753,1110
3330.2817017886573,1133
3331.949782827547,1088
3333.617614436319,1132
3335.2851969421245,1122
3336.952530672199,1112
3338.619615953853,1168
3340.286453114475,1134
3341.9530424815357,1122
3343.619384382583,1171
3345.2854791452437,1110
3346.951327097224,1121
3348.6169285663073,1119
3350.2822838803577,1109
3351.947393367319,1161
3353.61225735521,1108
3355.2768761721345,1132
3356.9412501462693,1156
3358.605379605873,1151
3360.2692648792827,1096
3361.9329062949146,1162
3363.596304181263,1132
