CollectionTime,9/20/2024 11:59:48 AM
ExposureUsed,3
CalibratedSpectrum
-962.7078968117929,544
-959.9714848408522,540
-957.2358232597828,526
-954.5009119013725,579
-951.7667505983302,530
-949.0333391832855,578
-946.3006774887896,567
-943.5687653473143,566
-940.837602591253,598
-938.1071890529199,565
-935.3775245645503,563
-932.6486089583007,549
-929.9204420662485,551
-927.1930237203925,543
-924.4663537526524,573
-921.7404319948689,579
-919.0152582788041,570
-916.2908324361409,608
-913.5671542984834,543
-910.8442236973568,541
-908.1220404642074,540
-905.4006044304027,541
-902.679915427231,551
-899.959973285902,517
-897.2407778375464,540
-894.5223289132158,570
-891.8046263438832,598
-889.0876699604426,595
-886.3714595937089,581
-883.6559950744183,579
-880.9412762332282,604
-878.2273029007168,551
-875.5140749073835,563
-872.8015920836489,532
-870.0898542598545,511
-867.3788612662631,562
-864.6686129330585,573
-861.9591090903457,588
-859.2503495681506,534
-856.5423341964203,520
-853.8350628050229,536
-851.1285352237478,513
-848.4227512823054,583
-845.7177108103272,598
-843.0134136373656,570
-840.3098595928943,543
-837.6070485063082,561
-834.9049802069229,564
-832.2036545239757,565
-829.5030712866244,602
-826.8032303239481,626
-824.1041314649472,540
-821.4057745385428,530
-818.7081593735775,549
-816.0112857988148,537
-813.3151536429393,545
-810.6197627345566,564
-807.9251129021936,568
-805.2312039742981,597
-802.5380357792392,658
-799.8456081453069,619
-797.1539209007124,574
-794.462973873588,602
-791.772766891987,626
-789.083299783884,625
-786.3945723771743,575
-783.7065844996748,552
-781.0193359791231,564
-778.3328266431781,642
-775.6470563194197,613
-772.9620248353489,602
-770.2777320183878,578
-767.5941776958798,556
-764.9113616950891,601
-762.2292838432011,599
-759.5479439673222,557
-756.8673418944801,590
-754.1874774516235,680
-751.5083504656222,645
-748.8299607632671,624
-746.15230817127,674
-743.475392516264,628
-740.7992136248035,576
-738.1237713233636,610
-735.4490654383407,564
-732.7750957960521,530
-730.1018622227365,566
-727.4293645445534,594
-724.7576025875837,635
-722.0865761778291,610
-719.4162851412126,619
-716.7467293035781,643
-714.0779084906909,739
-711.409822528237,662
-708.7424712418238,605
-706.0758544569796,645
-703.4099719991541,662
-700.7448236937178,603
-698.0804093659622,589
-695.4167288411002,559
-692.7537819442656,589
-690.0915685005134,564
-687.4300883348199,632
-684.7693412720819,637
-682.1093271371178,644
-679.4500457546669,660
-676.7914969493897,615
-674.1336805458676,678
-671.4765963686034,661
-668.8202442420206,608
-666.1646239904642,608
-663.5097354382001,639
-660.8555784094151,644
-658.2021527282176,636
-655.5494582186366,622
-652.8974947046223,675
-650.2462620100463,644
-647.5957599587009,655
-644.9459883742998,663
-642.2969470804776,725
-639.6486359007902,660
-637.0010546587141,666
-634.3542031776476,699
-631.7080812809096,659
-629.0626887917401,618
-626.4180255333008,663
-623.7740913286734,707
-621.1308860008619,741
-618.4884093727904,710
-615.8466612673046,674
-613.2056415071715,682
-610.5653499150785,664
-607.9257863136347,719
-605.28695052537,732
-602.6488423727357,780
-600.0114616781036,776
-597.3748082637674,755
-594.7388819519412,796
-592.1036825647604,758
-589.4692099242818,679
-586.8354638524829,663
-584.2024441712624,667
-581.5701507024403,739
-578.9385832677575,868
-576.3077416888759,805
-573.6776257873787,705
-571.0482353847704,754
-568.4195703024757,762
-565.7916303618415,754
-563.164415384135,738
-560.5379251905453,737
-557.9121596021815,748
-555.2871184400748,730
-552.6628015251767,778
-550.0392086783606,756
-547.4163397204204,720
-544.794194472071,788
-542.1727727539491,771
-539.5520743866118,782
-536.9320991905377,824
-534.3128469861261,917
-531.6943175936979,888
-529.0765108334947,905
-526.4594265256793,1063
-523.8430644903358,1263
-521.2274245474689,1434
-518.612506517005,1633
-515.9983102187913,1866
-513.3848354725959,2066
-510.77208209810846,2266
-508.16004991493924,2380
-505.5487387426199,2365
-502.9381484006032,2119
-500.3282787082628,1802
-497.71912948489364,1549
-495.1107005497117,1264
-492.5029917218539,1119
-489.8960028203786,1049
-487.28973366426493,1049
-484.68418407241325,968
-482.07935386364494,855
-479.47524285670266,862
-476.87185087025,915
-474.2691777228715,991
-471.66722323307334,1020
-469.0659872192821,956
-466.4654694998459,1016
-463.86566989303384,895
-461.26658821703614,894
-458.66822428996414,846
-456.07057792985,1045
-453.4736489546475,976
-450.877437182231,883
-448.28194243039627,843
-445.68716451686,870
-443.09310325926003,852
-440.49975847515555,875
-437.9071299820263,908
-435.31521759727354,922
-432.72402113821954,935
-430.13354042210767,936
-427.5437752661022,940
-424.95472548728867,925
-422.36639090267386,1080
-419.7787713291855,1066
-417.1918665836721,1019
-414.60567648290385,1010
-412.0202008435715,1121
-409.4354394822874,1217
-406.8513922155845,1052
-404.26805885991723,1027
-401.685439231661,1026
-399.103533147112,1100
-396.522340422488,966
-393.9418608739278,968
-391.3620943174908,963
-388.7830405691583,941
-386.2046994448317,941
-383.6270707603344,941
-381.05015433141045,848
-378.473949973725,821
-375.8984575028645,828
-373.32367673433623,818
-370.74960748356875,870
-368.1762495659117,794
-365.60360279663576,767
-363.03166699093265,760
-360.4604419639154,717
-357.8899275306178,749
-355.32012350599507,682
-352.7510297049233,670
-350.1826459421999,639
-347.61497203254316,649
-345.04800779059235,631
-342.4817530309082,588
-339.91620756797226,688
-337.35137121618743,660
-334.7872437898774,718
-332.22382510328725,686
-329.66111497058273,699
-327.09911320585127,720
-324.53781962310075,714
-321.9772340362607,747
-319.4173562591816,772
-316.8581861056348,695
-314.2997233893127,725
-311.7419679238294,678
-309.1849195227194,727
-306.62857799943856,775
-304.0729431673641,742
-301.51801483979375,815
-298.963792829947,807
-296.41027695096386,683
-293.85746701590574,730
-291.3053628377552,777
-288.7539642294155,788
-286.2032710037115,795
-283.65328297338897,736
-281.1039999511146,774
-278.5554217494762,842
-276.007548180983,977
-273.4603790580651,900
-270.9139141930734,968
-268.3681533982807,1127
-265.8230964858798,1040
-263.27874326798565,950
-260.7350935566336,952
-258.1921471637804,1124
-255.6499039013039,1296
-253.10836358100266,1173
-250.56752601459698,1101
-248.02739101372765,972
-245.48795838995704,936
-242.94922795476816,975
-240.41119951956557,994
-237.8738728956746,941
-235.33724789434166,1015
-232.80132432673452,1014
-230.2661020039418,967
-227.73158073697357,953
-225.19776033676033,941
-222.66464061415422,1041
-220.1322213799284,1007
-217.60050244477725,1029
-215.06948361931552,1095
-212.53916471408013,1350
-210.00954553952818,1596
-207.48062590603843,1383
-204.9524056239104,1180
-202.4248845033651,1176
-199.8980623545441,1135
-197.37193898751036,1306
-194.84651421224817,1300
-192.32178783866232,1277
-189.79775967657952,1207
-187.27442953574644,1160
-184.7517972258321,1447
-182.2298625564256,1305
-179.7086253370378,1185
-177.18808537710026,1078
-174.66824248596583,1355
-172.14909647290835,1452
-169.6306471471229,1444
-167.11289431772548,1430
-164.59583779375328,1499
-162.07947738416453,1839
-159.5638128978386,1996
-157.04884414357605,1783
-154.53457093009854,1640
-152.02099306604828,1525
-149.50811035998936,1647
-146.99592262040665,1801
-144.48442965570587,1895
-141.97363127421409,1739
-139.46352728417958,1810
-136.95411749377126,1938
-134.44540171107985,2084
-131.93737974411636,1939
-129.43005140081357,1891
-126.92341648902493,2288
-124.41747481652521,2159
-121.91222619101006,2210
-119.40767042009657,2480
-116.90380731132257,3020
-114.40063667214702,3954
-111.8981583099503,4668
-109.3963720320337,6714
-106.89527764561933,9507
-104.39487495785067,11033
-101.89516377579241,11898
-99.39614390642998,15591
-96.89781515667039,20811
-94.40017733334128,24142
-91.90323024319173,26460
-89.40697369289148,23590
-86.91140748903172,14355
-84.41653143812482,9447
-81.92234534660395,10401
-79.42884902082358,15064
-76.93604226705907,18250
-74.4439248915071,20885
-71.95249670028534,22625
-69.46175749943245,19580
-66.97170709490854,16916
-64.48234529259423,15156
-61.99367189829195,15568
-59.50568671772464,17332
-57.01838955653636,16819
-54.53178022029283,21333
-52.045858514480074,24435
-49.560624244506016,28299
-47.07607721569923,30984
-44.59221723330904,32273
-42.10904410250669,37614
-39.62655762838392,39411
-37.14475761595372,42921
-34.66364387015028,52422
-32.18321619582866,50914
-29.70347439776515,49496
-27.224418280657005,56407
-24.74604764912317,60634
-22.26836230770266,65035
-19.7913620608565,65035
-17.315046712966478,65035
-14.83941606833514,65035
-12.36446993118659,65035
-9.89020810566592,65035
-7.416630395839093,65035
-4.94373660569363,65035
-2.471526539137585,65035
-6.821210263296962E-13,65035
2.47084320796705,65035
4.941003281093458,65035
7.410480415786196,65035
9.879274808531363,65035
12.347386655893956,65035
14.814816154518212,65035
17.28156350112681,65035
19.74762889252179,65035
22.21301252558385,65035
24.67771459727237,31256
27.141735304626195,12132
29.605074844762612,13726
32.06773341487792,12776
34.52971121224755,10685
36.99100843422559,8323
39.45162527824516,7200
41.91156194181792,5469
44.370818622535126,5225
46.82939551806646,6472
49.287292826160524,7666
51.74451074464503,5667
54.201049471426245,4851
56.65690920448981,4748
59.112090141899785,5182
61.56659248179983,4743
64.02041642241159,5184
66.4735621620365,5190
68.92602989905402,5098
71.37781983192338,5734
73.82893215918205,5333
76.27936707944684,4076
78.72912479141326,4220
81.17820549385567,3852
83.62660938562783,2872
86.07433666566146,2904
88.5213875329681,2927
90.96776218663751,2608
93.41346082583925,3016
95.85848364982041,3573
98.30283085790859,2535
100.7465026495089,2631
103.18949922410604,2562
105.63182078126385,2559
108.07346752062438,3238
110.51443964190923,3125
112.95473734491827,2446
115.39436082953114,1877
117.83331029570547,2088
120.27158594347827,2497
122.7091879729652,2892
125.1461165843615,3151
127.58237197794062,2686
130.01795435405518,2366
132.4528639131364,2145
134.88710085569494,2255
137.32066538231982,2210
139.75355769367923,1925
142.1857779905207,1530
144.61732647366978,1546
147.04820334403132,1686
149.47840880258934,1799
151.90794305040674,1900
154.33680628862487,1883
156.76499871846443,1820
159.19252054122433,2049
161.61937195828352,2142
164.04555317109896,2289
166.47106438120693,2179
168.89590579022217,2293
171.320077599839,2525
173.7435800118302,2764
176.16641322804742,3094
178.58857745042144,2818
181.01007288096173,2614
183.43089972175687,2597
185.85105817497413,2455
188.27054844285988,2572
190.6893707277394,2668
193.10752523201643,2816
195.5250121581745,3026
197.9418317087751,2848
200.3579840864594,2626
202.7734694939469,2806
205.18828813403627,3069
207.6024402096051,2849
210.01592592360964,2852
212.42874547908548,2943
214.84089907914665,2839
217.2523869269868,2656
219.66320922587727,2645
222.0733661791695,2679
224.48285799029293,2665
226.8916848627572,2747
229.29984700014882,2858
231.7073446061355,2859
234.11417788446204,2845
236.520347038953,2828
238.92585227351185,2746
241.33069379212054,2785
243.73487179884035,2893
246.1383864978112,2920
248.541238093252,2798
250.9434267894609,2862
253.34495279081432,2843
255.74581630176783,2803
258.1460175268563,2915
260.54555667069314,2817
262.9444339379703,2764
265.3426495334594,2778
267.7402036620107,2791
270.1370965285529,2738
272.53332833809407,2786
274.9288992957214,2780
277.32380960660055,2679
279.718059475976,2754
282.1116491091717,2666
284.5045787115897,2641
286.89684848871195,2737
289.2884586460981,2859
291.67940938938807,2856
294.0697009242996,2844
296.4593334566299,2912
298.84830719225477,2867
301.23662233712923,2766
303.6242790972866,2775
306.01127767884,2771
308.39761828798066,2802
310.78330113097934,2634
313.16832641418534,2681
315.5526943440269,2588
317.9364051270112,2620
320.3194589697242,2609
322.70185607883093,2512
325.0835966610754,2535
327.4646809232805,2421
329.8451090723478,2436
332.2248813152577,2385
334.6039978590701,2435
336.9824589109231,2364
339.36026467803447,2334
341.7374153677,2322
344.113911187295,2377
346.48975234427337,2446
348.8649390461686,2479
351.2394715005918,2434
353.61334991523415,2383
355.9865744978655,2348
358.35914545633375,2229
360.73106299856715,2390
363.10232733257146,2266
365.47293866643247,2194
367.84289720831396,2228
370.2122031664593,2167
372.5808567491905,2178
374.9488581649083,2250
377.31620762209275,2177
379.6829053293021,2295
382.0489514951745,2169
384.4143463284262,2161
386.7790900378528,2153
389.14318283232853,2165
391.50662492080653,2264
393.86941651231916,2158
396.23155781597745,2180
398.5930490409713,2206
400.9538903965696,2182
403.3140820921202,2127
405.6736243370498,2065
408.03251734086336,2111
410.3907613131465,2055
412.74835646356166,2191
415.10530300185144,2124
417.4616011378372,2175
419.81725108141893,2124
422.1722530425758,2056
424.5266072313656,2027
426.880313857925,2096
429.2333731324701,2115
431.58578526529516,2073
433.9375504667738,1980
436.2886689473588,2113
438.63914091758113,2061
440.9889665880513,2047
443.33814616945835,2012
445.68667987257015,2022
448.03456790823395,1912
450.3818104873759,1993
452.72840782100013,2017
455.07436012019105,2007
457.41966759611057,2071
459.7643304600007,2019
462.10834892318155,2012
464.4517231970525,1958
466.79445349309174,2025
469.1365400228566,1968
471.4779829979826,2039
473.81878263018564,2059
476.15893913125876,2030
478.4984527130747,2194
480.8373235875855,2290
483.17555196682144,2172
485.5131380628919,2216
487.8500820879857,2229
490.1863842543697,2238
492.52204477439034,2293
494.8570638604725,2412
497.1914417251204,2603
499.52517858091653,3001
501.85827464052306,3431
504.19073011668036,4275
506.5225452222086,4938
508.85372017000566,5437
511.18425517304956,5803
513.514150444396,6477
515.8434061971808,7785
518.1720226446176,8696
520.4999999999999,8264
522.8273384766991,7778
525.1540382881666,6921
527.480099647932,6038
529.8055227696037,4769
532.1303078668694,3457
534.454455153496,2804
536.777964843328,2360
539.1008371502907,2332
541.4230722883866,2189
543.744670471698,2194
546.0656319143858,2127
548.3859568306899,2063
550.7056454349294,2084
553.0246979415016,2077
555.3431145648834,1956
557.6608955196306,1879
559.978041020377,1987
562.2945512818363,2143
564.6104265188006,2116
566.9256669461412,1971
569.2402727788082,1960
571.5542442318302,2007
573.8675815203156,2018
576.1802848594508,2092
578.4923544645015,1979
580.8037905508126,2062
583.114593333807,2103
585.4247630289875,1987
587.7342998519354,1994
590.0432040183106,2028
592.3514757438526,1994
594.6591152443794,2048
596.9661227357875,2070
599.2724984340531,2026
601.578242555231,2010
603.8833553154542,1966
606.1878369309362,1926
608.4916876179676,2000
610.7949075929192,1976
613.0974970722403,2012
615.3994562724587,1989
617.7007854101818,1999
620.0014847020951,1969
622.3015543649641,1994
624.6009946156324,2046
626.8998056710224,2034
629.1979877481361,2019
631.4955410640538,1990
633.7924658359349,1928
636.0887622810175,1948
638.3844306166192,2075
640.6794710601358,1947
642.9738838290426,1990
645.2676691408932,1963
647.5608272133207,2026
649.853358264037,2065
652.1452625108324,2097
654.4365401715764,2100
656.7271914642178,2060
659.0172166067838,2013
661.3066158173809,2038
663.5953893141935,2007
665.8835373154867,1924
668.1710600396028,1955
670.4579577049639,2048
672.7442305300709,2045
675.0298787335033,2082
677.3149025339197,2029
679.599302150058,1996
681.8830778007342,2033
684.1662297048437,1993
686.4487580813608,2034
688.7306631493387,2090
691.0119451279091,2060
693.2926042362834,2036
695.5726406937516,2074
697.8520547196814,2074
700.1308465335215,2021
702.4090163547982,1959
704.6865644031171,2015
706.9634908981619,1971
709.2397960596965,1979
711.5154801075631,2150
713.7905432616823,2132
716.0649857420548,2060
718.3388077687592,2052
720.612009561953,2033
722.8845913418733,2062
725.1565533288352,1999
727.427895743234,2037
729.6986188055427,2019
731.9687227363137,2035
734.238207756178,2056
736.5070740858458,1955
738.7753219461066,1986
741.0429515578281,2129
743.3099631419569,1980
745.5763569195191,1987
747.8421331116193,2047
750.1072919394409,2063
752.3718336242467,2023
754.6357583873777,2049
756.8990664502545,2054
759.1617580343765,2063
761.423833361321,2127
763.6852926527457,2102
765.9461361303862,2163
768.206364016058,2054
770.4659765316536,2139
772.7249738991469,2142
774.9833563405886,2117
777.2411240781092,2079
779.4982773339183,2001
781.7548163303044,2097
784.010741289634,2137
786.2660524343538,2155
788.5207499869881,2194
790.7748341701416,2230
793.0283052064964,2111
795.2811633188143,2017
797.5334087299362,2145
799.7850416627813,2048
802.0360623403484,2138
804.2864709857143,2096
806.5362678220353,2087
808.7854530725468,2113
811.0340269605625,2028
813.2819897094754,2015
815.5293415427581,2021
817.77608268396,2012
820.0222133567116,2038
822.2677337847211,2033
824.5126441917765,2008
826.7569448017433,2026
829.0006358385675,1988
831.2437175262731,1988
833.4861900889629,2047
835.7280537508192,2074
837.9693087361026,2038
840.2099552691533,2050
842.4499935743896,2032
844.689423876309,2003
846.9282463994886,2063
849.1664613685833,2038
851.4040690083276,1961
853.6410695435349,1999
855.877463199097,2029
858.1132501999847,1994
860.3484307712487,2050
862.5830051380175,2121
864.8169735254988,2067
867.0503361589791,2048
869.2830932638243,2004
871.5152450654786,2074
873.7467917894654,2110
875.9777336613873,2069
878.2080709069252,2055
880.4378037518389,2065
882.666932421968,2090
884.8954571432301,2063
887.1233781416219,2117
889.3506956432192,2075
891.5774098741766,2050
893.803521060728,2130
896.0290294291852,2080
898.2539352059397,2030
900.4782386174619,2003
902.7019398903011,2043
904.925039251085,2107
907.147536926521,2087
909.3694331433943,2123
911.59072812857,2110
913.8114221089921,2132
916.0315153116827,2054
918.2510079637437,2080
920.4699002923547,2094
922.6881925247761,2067
924.905884888345,2015
927.1229776104793,2156
929.3394709186747,2095
931.555365040506,2127
933.7706602036275,2003
935.9853566357709,2171
938.1994545647489,2215
940.4129542184515,2128
942.6258558248488,2134
944.8381596119883,2173
947.0498658079974,2173
949.2609746410825,2191
951.4714863395287,2172
953.6814011316998,2185
955.8907192460387,2068
958.0994409110671,2112
960.3075663553858,2093
962.5150958076741,2191
964.7220294966913,2169
966.928367651274,2117
969.1341105003388,2129
971.3392582728806,2100
973.5438111979742,2032
975.747769504772,2084
977.9511334225061,2041
980.153903180487,1995
982.3560790081052,2082
984.5576611348289,1970
986.7586497902058,1950
988.9590452038618,1932
991.158847605503,1961
993.3580572249133,1949
995.5566742919558,1819
997.7546990365728,1854
999.952131688785,1895
1002.1489724786926,1804
1004.3452216364743,1747
1006.5408793923874,1729
1008.7359459767691,1687
1010.9304216200343,1718
1013.1243065526781,1715
1015.3176010052733,1698
1017.510305208472,1675
1019.7024193930064,1647
1021.8939437896848,1591
1024.0848786293977,1590
1026.2752241431122,1654
1028.4649805618747,1617
1030.6541481168115,1593
1032.842727039127,1577
1035.0307175601051,1657
1037.2181199111074,1536
1039.4049343235752,1598
1041.591161029029,1535
1043.7768002590683,1525
1045.9618522453698,1570
1048.1463172196918,1579
1050.3301954138697,1540
1052.513487059818,1578
1054.69619238953,1566
1056.8783116350783,1511
1059.0598450286152,1516
1061.2407928023704,1479
1063.4211551886528,1583
1065.6009324198508,1589
1067.780124728432,1499
1069.9587323469414,1502
1072.1367555080046,1531
1074.314194444325,1480
1076.4910493886855,1482
1078.667320573947,1492
1080.843008233051,1488
1083.0181125990161,1433
1085.1926339049414,1476
1087.3665723840027,1492
1089.5399282694575,1458
1091.7127017946405,1500
1093.8848931929647,1482
1096.0565026979243,1471
1098.2275305430899,1508
1100.3979769621128,1478
1102.567842188722,1457
1104.737126456726,1437
1106.9058300000124,1394
1109.0739530525475,1484
1111.2414958483764,1411
1113.4084586216231,1451
1115.5748416064907,1413
1117.7406450372605,1400
1119.9058691482942,1399
1122.0705141740304,1471
1124.2345803489884,1436
1126.3980679077658,1464
1128.5609770850388,1409
1130.7233081155623,1433
1132.8850612341707,1462
1135.0462366757774,1408
1137.2068346753745,1450
1139.3668554680326,1431
1141.526299288901,1456
1143.68516637321,1428
1145.8434569562655,1427
1148.001171273455,1419
1150.158309560244,1447
1152.3148720521767,1435
1154.470858984876,1423
1156.626270594044,1441
1158.7811071154629,1409
1160.9353687849912,1412
1163.089055838569,1427
1165.242168512213,1411
1167.3947070420209,1478
1169.5466716641677,1418
1171.6980626149075,1400
1173.8488801305748,1363
1175.9991244475814,1375
1178.1487958024186,1422
1180.2978944316555,1413
1182.4464205719428,1411
1184.5943744600072,1379
1186.7417563326567,1363
1188.8885664267755,1402
1191.0348049793297,1375
1193.1804722273619,1322
1195.325568407995,1316
1197.4700937584303,1337
1199.614048515948,1325
1201.7574329179074,1418
1203.900247201746,1389
1206.042491604982,1390
1208.1841663652099,1343
1210.3252717201053,1365
1212.465807907422,1404
1214.6057751649923,1475
1216.7451737307279,1373
1218.8840038426192,1398
1221.0222657387353,1407
1223.1599596572241,1387
1225.2970858363137,1362
1227.4336445143094,1363
1229.5696359295966,1381
1231.705060320639,1427
1233.8399179259786,1446
1235.9742089842384,1351
1238.107933734118,1386
1240.2410924143974,1422
1242.373685263935,1357
1244.5057125216676,1421
1246.6371744266116,1457
1248.7680712178621,1329
1250.898403134593,1304
1253.028170416058,1337
1255.1573733015875,1382
1257.2860120305932,1416
1259.4140868425648,1384
1261.54159797707,1385
1263.6685456737569,1377
1265.7949301723515,1365
1267.9207517126597,1415
1270.046010534565,1384
1272.1707068780306,1376
1274.2948409830983,1379
1276.4184130898889,1353
1278.541423438603,1391
1280.6638722695184,1391
1282.785759822993,1398
1284.9070863394636,1403
1287.0278520594447,1446
1289.1480572235314,1428
1291.2677020723963,1379
1293.3867868467923,1386
1295.5053117875495,1389
1297.623277135579,1383
1299.740683131868,1413
1301.8575300174857,1407
1303.973818033578,1451
1306.0895474213703,1418
1308.2047184221678,1398
1310.3193312773528,1430
1312.4333862283888,1451
1314.5468835168163,1383
1316.659823384255,1414
1318.7722060724045,1418
1320.8840318230418,1402
1322.9953008780249,1398
1325.1060134792888,1474
1327.2161698688478,1432
1329.3257702887959,1465
1331.4348149813054,1473
1333.5433041886276,1500
1335.6512381530933,1449
1337.7586171171101,1401
1339.8654413231675,1393
1341.9717110138317,1416
1344.0774264317488,1435
1346.1825878196432,1363
1348.2871954203192,1322
1350.3912494766587,1358
1352.4947502316231,1478
1354.5976979282532,1437
1356.7000928096686,1388
1358.8019351190665,1432
1360.9032250997243,1431
1363.0039629949988,1407
1365.1041490483235,1442
1367.2037835032133,1373
1369.3028666032606,1424
1371.401398592137,1468
1373.4993797135926,1477
1375.5968102114575,1468
1377.6936903296396,1427
1379.7900203121262,1415
1381.8858004029835,1411
1383.9810308463561,1436
1386.075711886469,1433
1388.1698437676241,1489
1390.2634267342032,1441
1392.356461030667,1448
1394.4489469015557,1440
1396.5408845914872,1438
1398.6322743451592,1434
1400.7231164073469,1426
1402.813411022907,1468
1404.903158436773,1437
1406.9923588939578,1426
1409.0810126395531,1420
1411.1691199187303,1419
1413.2566809767386,1466
1415.343696058907,1429
1417.4301654106425,1416
1419.5160892774315,1486
1421.6014679048399,1461
1423.6863015385125,1542
1425.7705904241707,1449
1427.8543348076178,1396
1429.9375349347342,1394
1432.0201910514802,1449
1434.102303403894,1419
1436.1838722380944,1415
1438.2648978002767,1406
1440.3453803367174,1436
1442.4253200937692,1550
1444.5047173178677,1486
1446.5835722555234,1399
1448.6618851533285,1494
1450.739656257952,1501
1452.8168858161434,1427
1454.8935740747306,1449
1456.96972128062,1485
1459.045327680797,1483
1461.120393522327,1470
1463.1949190523528,1429
1465.2689045180973,1501
1467.3423501668608,1464
1469.415256246024,1475
1471.4876230030463,1489
1473.559450685465,1472
1475.6307395408976,1434
1477.7014898170391,1448
1479.771701761665,1478
1481.8413756226287,1406
1483.9105116478618,1430
1485.9791100853772,1490
1488.0471711832643,1484
1490.1146951896926,1506
1492.1816823529098,1494
1494.2481329212433,1483
1496.3140471430984,1404
1498.3794252669609,1450
1500.4442675413939,1443
1502.5085742150404,1425
1504.572345536622,1489
1506.6355817549388,1509
1508.6982831188702,1482
1510.7604498773744,1459
1512.8220822794883,1434
1514.8831805743293,1435
1516.9437450110909,1460
1519.003775839048,1423
1521.0632733075522,1411
1523.1222376660367,1446
1525.1806691640113,1419
1527.2385680510652,1461
1529.2959345768668,1476
1531.3527689911643,1439
1533.4090715437833,1437
1535.4648424846291,1510
1537.5200820636855,1467
1539.5747905310159,1467
1541.6289681367616,1463
1543.6826151311434,1478
1545.7357317644614,1479
1547.7883182870937,1492
1549.8403749494987,1497
1551.8919020022113,1431
1553.9428996958477,1463
1555.9933682811015,1458
1558.0433080087469,1479
1560.0927191296346,1463
1562.1416018946961,1457
1564.1899565549415,1463
1566.2377833614592,1486
1568.2850825654164,1469
1570.3318544180606,1464
1572.3780991707158,1432
1574.423817074788,1474
1576.4690083817595,1469
1578.5136733431923,1447
1580.5578122107272,1459
1582.601425236085,1415
1584.6445126710646,1462
1586.6870747675434,1465
1588.7291117774776,1497
1590.7706239529034,1522
1592.8116115459347,1420
1594.8520748087658,1511
1596.8920139936686,1487
1598.9314293529933,1436
1600.9703211391711,1455
1603.008689604711,1533
1605.0465350022005,1489
1607.0838575843068,1498
1609.1206576037753,1486
1611.1569353134305,1413
1613.1926909661765,1497
1615.2279248149953,1456
1617.2626371129481,1430
1619.2968281131757,1440
1621.3304980688963,1433
1623.3636472334088,1398
1625.39627586009,1471
1627.428384202396,1484
1629.459972513861,1459
1631.4910410480993,1503
1633.5215900588028,1466
1635.551619799744,1413
1637.5811305247717,1475
1639.6101224878166,1481
1641.6385959428862,1430
1643.6665511440683,1460
1645.693988345528,1445
1647.7209078015112,1448
1649.7473097663405,1495
1651.7731944944203,1458
1653.7985622402307,1432
1655.823413258333,1371
1657.847747803366,1469
1659.8715661300494,1392
1661.8948684931793,1448
1663.9176551476316,1454
1665.9399263483624,1478
1667.9616823504057,1427
1669.982923408873,1385
1672.0036497789574,1402
1674.0238617159293,1417
1676.043559475138,1440
1678.0627433120121,1351
1680.081413482059,1425
1682.0995702408654,1470
1684.117213844096,1385
1686.134344547495,1450
1688.1509626068864,1458
1690.1670682781705,1459
1692.182661817329,1424
1694.1977434804217,1369
1696.2123135235875,1423
1698.226372203043,1378
1700.2399197750851,1417
1702.2529564960905,1439
1704.2654826225112,1496
1706.277498410882,1342
1708.2890041178139,1439
1710.2999999999988,1429
1712.3104863142066,1386
1714.3204633172854,1439
1716.329931266163,1384
1718.3388904178469,1440
1720.3473410294214,1452
1722.3552833580516,1400
1724.3627176609807,1410
1726.3696441955308,1414
1728.3760632191033,1418
1730.3819749891782,1449
1732.3873797633146,1395
1734.3922777991502,1399
1736.3966693544012,1414
1738.4005546868639,1480
1740.4039340544127,1412
1742.406807715001,1484
1744.4091759266616,1442
1746.4110389475054,1393
1748.4123970357223,1435
1750.413250449582,1418
1752.4135994474318,1446
1754.4134442876993,1491
1756.4127852288902,1452
1758.4116225295893,1396
1760.4099564484595,1389
1762.407787244244,1445
1764.405115175764,1515
1766.4019405019203,1425
1768.3982634816916,1382
1770.3940843741357,1359
1772.3894034383907,1453
1774.3842209336717,1447
1776.378537119274,1411
1778.372352254571,1455
1780.3656665990156,1409
1782.3584804121397,1406
1784.3507939535534,1399
1786.3426074829463,1394
1788.3339212600863,1397
1790.3247355448211,1419
1792.3150505970766,1394
1794.3048666768573,1444
1796.2941840442477,1443
1798.2830029594106,1431
1800.2713236825884,1444
1802.2591464741004,1412
1804.2464715943465,1446
1806.2332993038058,1396
1808.2196298630352,1442
1810.2054635326708,1362
1812.190800573428,1386
1814.175641246101,1423
1816.1599858115628,1430
1818.1438345307652,1402
1820.127187664738,1400
1822.1100454745924,1424
1824.092408221516,1441
1826.0742761667766,1425
1828.055649571721,1402
1830.0365286977735,1407
1832.0169138064398,1472
1833.9968051593014,1443
1835.9762030180214,1405
1837.9551076443408,1460
1839.9335193000788,1399
1841.9114382471344,1432
1843.888864747485,1410
1845.8657990631878,1417
1847.842241456378,1413
1849.8181921892697,1445
1851.7936515241558,1437
1853.7686197234098,1343
1855.7430970494815,1386
1857.7170837649014,1416
1859.6905801322787,1430
1861.6635864143004,1477
1863.6361028737338,1382
1865.608129773424,1363
1867.5796673762961,1399
1869.5507159453537,1428
1871.521275743678,1445
1873.4913470344313,1427
1875.4609300808534,1453
1877.4300251462632,1430
1879.3986324940588,1416
1881.366752387717,1424
1883.3343850907936,1469
1885.3015308669228,1424
1887.268189979819,1388
1889.2343626932739,1407
1891.2000492711595,1366
1893.1652499774254,1442
1895.1299650761011,1477
1897.0941948312952,1398
1899.0579395071945,1460
1901.0211993680641,1408
1902.98397467825,1411
1904.9462657021745,1462
1906.9080727043415,1427
1908.869395949332,1425
1910.8302357018065,1439
1912.790592226504,1420
1914.7504657882428,1404
1916.7098566519212,1419
1918.6687650825133,1427
1920.6271913450764,1431
1922.5851357047422,1396
1924.5425984267245,1380
1926.499579776314,1501
1928.4560800188833,1468
1930.4120994198802,1431
1932.367638244833,1460
1934.32269675935,1443
1936.2772752291175,1427
1938.231373919899,1460
1940.1849930975404,1458
1942.1381330279637,1446
1944.0907939771696,1415
1946.0429762112412,1411
1947.9946799963363,1368
1949.9459055986945,1395
1951.896653284633,1495
1953.8469233205478,1423
1955.7967159729142,1387
1957.7460315082863,1367
1959.6948701932974,1367
1961.6432322946594,1405
1963.5911180791632,1414
1965.5385278136787,1401
1967.4854617651545,1456
1969.4319202006182,1406
1971.377903387176,1411
1973.3234115920136,1397
1975.268445082395,1372
1977.2130041256642,1419
1979.1570889892423,1430
1981.1006999406304,1358
1983.04383724741,1434
1984.986501177238,1472
1986.928691997853,1414
1988.8704099770712,1435
1990.811655382789,1454
1992.7524284829801,1428
1994.692729545698,1431
1996.6325588390755,1408
1998.5719166313224,1468
2000.5108031907307,1471
2002.4492187856677,1431
2004.387163684583,1370
2006.3246381560011,1395
2008.2616424685298,1392
2010.1981768908527,1375
2012.1342416917332,1415
2014.069837140014,1411
2016.0049635046162,1372
2017.9396210545406,1419
2019.8738100588666,1443
2021.8075307867502,1453
2023.740783507431,1438
2025.6735684902228,1399
2027.6058860045214,1390
2029.5377363198004,1474
2031.4691197056118,1429
2033.4000364315875,1427
2035.3304867674374,1403
2037.260470982952,1439
2039.189989347998,1415
2041.1190421325232,1420
2043.047629606554,1403
2044.9757520401945,1412
2046.9034097036288,1431
2048.8306028671195,1435
2050.7573318010086,1364
2052.683596775716,1397
2054.609398061742,1362
2056.5347359296647,1438
2058.4596106501403,1385
2060.384022493906,1426
2062.3079717317764,1427
2064.231458634646,1432
2066.1544834734873,1399
2068.077046519352,1367
2069.99914804337,1416
2071.9207883167524,1395
2073.8419676107865,1423
2075.7626861968406,1443
2077.6829443463607,1383
2079.6027423308715,1388
2081.522080421977,1411
2083.440958891362,1406
2085.359378010786,1368
2087.2773380520907,1463
2089.194839287196,1391
2091.111881988101,1393
2093.0284664268825,1393
2094.9445928756973,1413
2096.86026160678,1440
2098.775472892446,1408
2100.690227005088,1389
2102.604524217178,1449
2104.5183648012676,1380
2106.431749029985,1408
2108.34467717604,1388
2110.2571495122206,1454
2112.169166311393,1453
2114.080727846503,1417
2115.9918343905747,1410
2117.902486216711,1474
2119.8126835980956,1435
2121.722426807987,1387
2123.6317161197285,1435
2125.5405518067364,1449
2127.448934142509,1375
2129.356863400624,1411
2131.264339854737,1408
2133.1713637785815,1460
2135.077935445972,1415
2136.9840551308002,1412
2138.889723107037,1467
2140.7949396487334,1426
2142.699705030018,1424
2144.6040195250994,1466
2146.507883408264,1419
2148.4112969538774,1452
2150.3142604363848,1415
2152.2167741303097,1455
2154.1188383102535,1484
2156.0204532508997,1405
2157.9216192270064,1405
2159.822336513414,1439
2161.7226053850413,1432
2163.622426116884,1432
2165.5217989840185,1490
2167.4207242616,1482
2169.319202224862,1438
2171.2172331491165,1461
2173.1148173097563,1467
2175.0119549822507,1446
2176.90864644215,1441
2178.8048919650823,1470
2180.7006918267534,1494
2182.596046302952,1496
2184.4909556695407,1452
2186.3854202024645,1408
2188.279440177746,1438
2190.173015871487,1437
2192.066147559868,1456
2193.958835519149,1472
2195.851080025667,1431
2197.7428813558417,1484
2199.6342397861667,1480
2201.5251555932186,1421
2203.415629053651,1431
2205.3056604441986,1518
2207.19525004167,1467
2209.084398122958,1472
2210.9731049650327,1464
2212.861370844941,1520
2214.749196039812,1499
2216.636580826851,1490
2218.523525483344,1457
2220.410030286655,1514
2222.296095514226,1545
2224.1817214435805,1475
2226.066908352319,1515
2227.951656518121,1559
2229.835966218746,1491
2231.71983773203,1477
2233.6032713358913,1468
2235.486267308324,1482
2237.3688259274036,1528
2239.2509474712824,1522
2241.132632218193,1482
2243.013880446447,1449
2244.8946924344323,1502
2246.7750684606203,1476
2248.6550088035574,1477
2250.534513741871,1585
2252.413583554265,1537
2254.292218519526,1486
2256.170418916517,1446
2258.0481850241786,1497
2259.925517121534,1527
2261.8024154876825,1497
2263.678880401803,1548
2265.5549121431536,1494
2267.430510991071,1531
2269.305677224971,1470
2271.180411124348,1421
2273.0547129687766,1452
2274.9285830379076,1443
2276.8020216114737,1481
2278.6750289692845,1565
2280.5476053912294,1518
2282.4197511572766,1598
2284.2914665474727,1451
2286.162751841943,1562
2288.0336073208937,1484
2289.904033264608,1572
2291.774029953448,1568
2293.6435976678554,1525
2295.5127366883517,1521
2297.381447295534,1496
2299.2497297700825,1460
2301.1175843927526,1458
2302.9850114443825,1331
2304.852011205885,1359
2306.7185839582553,1366
2308.5847299825664,1327
2310.4504495599676,1345
2312.3157429716925,1276
2314.1806104990483,1344
2316.0450524234247,1319
2317.9090690262888,1297
2319.772660589186,1248
2321.635827393742,1323
2323.498569721661,1316
2325.3608878547248,1330
2327.2227820747967,1293
2329.0842526638157,1257
2330.945299903803,1235
2332.805924076857,1325
2334.6661254651535,1354
2336.525904350951,1299
2338.3852610165827,1267
2340.244195744464,1232
2342.102708817088,1242
2343.9608005170253,1219
2345.8184711269287,1305
2347.675720929526,1239
2349.532550207628,1304
2351.38895924412,1323
2353.24494832197,1261
2355.100517724223,1279
2356.955667734004,1324
2358.810398634514,1264
2360.664710709037,1306
2362.5186042409337,1310
2364.3720795136437,1283
2366.225136810686,1296
2368.0777764156583,1239
2369.929998612237,1257
2371.7818036841777,1302
2373.633191915315,1292
2375.484163589562,1258
2377.3347189909114,1253
2379.184858403434,1277
2381.03458211128,1267
2382.8838903986775,1249
2384.732783549936,1261
2386.5812618494406,1279
2388.4293255816588,1253
2390.2769750311327,1308
2392.1242104824883,1327
2393.971032220427,1310
2395.8174405297295,1220
2397.6634356952563,1292
2399.509018001947,1294
2401.3541877348193,1224
2403.1989451789705,1299
2405.043290619576,1262
2406.8872243418905,1254
2408.730746631247,1279
2410.5738577730594,1248
2412.4165580528183,1283
2414.258847756095,1317
2416.100727168537,1273
2417.9421965758734,1263
2419.783256263912,1286
2421.623906518538,1286
2423.4641476257157,1277
2425.303979871491,1306
2427.143403541984,1318
2428.9824189233977,1304
2430.821026302012,1249
2432.6592259641866,1279
2434.497018196361,1280
2436.33440328505,1362
2438.171381516851,1322
2440.00795317844,1233
2441.844118556569,1319
2443.6798779380724,1324
2445.5152316098606,1304
2447.3501798589255,1257
2449.1847229723357,1313
2451.0188612372403,1273
2452.8525949408663,1339
2454.6859243705203,1208
2456.518849813587,1266
2458.3513715575314,1311
2460.183489889895,1251
2462.015205098301,1322
2463.8465174704493,1249
2465.67742729412,1295
2467.5079348571717,1294
2469.338040447542,1244
2471.1677443532476,1228
2472.9970468623833,1278
2474.825948263123,1276
2476.6544488437207,1298
2478.482548892508,1273
2480.310248697896,1260
2482.137548548374,1245
2483.9644487325118,1286
2485.790949538956,1287
2487.617051256433,1224
2489.44275417375,1262
2491.26805857979,1282
2493.0929647635157,1293
2494.917473013971,1292
2496.741583620276,1318
2498.5652968716304,1283
2500.3886130573137,1275
2502.2115324666834,1274
2504.0340553891765,1272
2505.856182114308,1273
2507.6779129316733,1242
2509.499248130945,1263
2511.3201880018764,1262
2513.140732834298,1258
2514.9608829181198,1277
2516.780638543331,1264
2518.6,1271
2520.418967578273,1309
2522.237541568376,1239
2524.0557222606144,1290
2525.8735099453706,1282
2527.6909049131086,1285
2529.507907454368,1316
2531.32451785977,1291
2533.140736420014,1230
2534.9565634258774,1261
2536.771999168218,1258
2538.5870439379714,1203
2540.4016980261526,1290
2542.2159617238544,1260
2544.02983532225,1259
2545.8433191125914,1275
2547.656413386209,1271
2549.4691184345115,1272
2551.2814345489874,1249
2553.093362021204,1265
2554.904901142808,1330
2556.716052205523,1245
2558.526815501153,1240
2560.3371913215824,1305
2562.147179958771,1191
2563.956781704761,1286
2565.7659968516705,1244
2567.5748256916986,1281
2569.3832685171224,1240
2571.1913256202984,1252
2572.9989972936614,1332
2574.806283829725,1240
2576.613185521084,1264
2578.4197026604074,1257
2580.2258355404483,1241
2582.031584454035,1334
2583.836949694077,1258
2585.6419315535613,1276
2587.4465303255533,1292
2589.2507463032002,1305
2591.0545797797245,1223
2592.8580310484303,1232
2594.6611004026995,1293
2596.463788135992,1260
2598.266094541849,1250
2600.0680199138874,1308
2601.869564545807,1281
2603.670728731383,1247
2605.4715127644704,1225
2607.2719169390048,1292
2609.071941548998,1317
2610.8715868885433,1286
2612.670853251811,1269
2614.469740933052,1263
2616.268250226594,1265
2618.0663814268455,1256
2619.864134828292,1323
2621.6615107255006,1305
2623.458509413115,1255
2625.2551311858597,1243
2627.0513763385347,1246
2628.8472451660223,1252
2630.6427379632833,1279
2632.4378550253564,1271
2634.232596647359,1296
2636.026963124488,1261
2637.8209547520187,1305
2639.6145718253065,1270
2641.407814639785,1268
2643.200683490966,1307
2644.9931786744414,1262
2646.7853004858807,1261
2648.577049221034,1244
2650.3684251757277,1262
2652.1594286458712,1205
2653.9500599274484,1286
2655.740319316525,1323
2657.5302071092437,1249
2659.3197236018286,1221
2661.10886909058,1276
2662.8976438718782,1279
2664.686048242183,1302
2666.4740824980327,1268
2668.2617469360443,1291
2670.0490418529134,1292
2671.8359675454153,1268
2673.622524310403,1229
2675.408712444811,1253
2677.1945322456495,1257
2678.979984010009,1256
2680.76506803506,1185
2682.5497846180497,1247
2684.334134056306,1247
2686.1181166472343,1328
2687.9017326883213,1291
2689.6849824771293,1291
2691.4678663113013,1255
2693.2503844885596,1271
2695.032537306705,1241
2696.8143250636167,1236
2698.5957480572542,1323
2700.3768065856534,1259
2702.1575009469316,1263
2703.937831439283,1198
2705.717798360982,1303
2707.4974020103837,1247
2709.276642685917,1325
2711.055520686095,1277
2712.834036309506,1284
2714.612189854819,1306
2716.389981620782,1262
2718.1674119062204,1228
2719.944481010041,1306
2721.721189231226,1315
2723.4975368688415,1266
2725.273524222027,1301
2727.0491515900053,1250
2728.824419272075,1264
2730.5993275676146,1267
2732.3738767760838,1286
2734.148067197016,1221
2735.921899130031,1277
2737.6953728748194,1249
2739.468488731156,1240
2741.2412469988926,1258
2743.0136479779617,1259
2744.785691968372,1270
2746.5573792702116,1176
2748.3287101836504,1215
2750.099685008934,1232
2751.870304046388,1249
2753.640567596418,1278
2755.4104759595057,1238
2757.1800294362156,1241
2758.949228327187,1371
2760.7180729331412,1282
2762.486563554877,1269
2764.254700493272,1262
2766.022484049284,1280
2767.789914523947,1239
2769.5569922183786,1235
2771.3237174337705,1247
2773.090090471394,1291
2774.8561116326036,1271
2776.6217812188274,1257
2778.3870995315756,1253
2780.1520668724356,1315
2781.9166835430747,1280
2783.6809498452394,1230
2785.444866080754,1312
2787.2084325515225,1323
2788.971649559527,1368
2790.73451740683,1289
2792.4970363955713,1305
2794.2592068279705,1297
2796.0210290063264,1281
2797.7825032330147,1272
2799.543629810493,1295
2801.304409041296,1260
2803.0648412280366,1289
2804.8249266734088,1319
2806.5846656801846,1294
2808.344058551212,1295
2810.1031055894246,1262
2811.8618070978273,1305
2813.6201633795085,1230
2815.378174737636,1275
2817.1358414754536,1273
2818.893163896285,1261
2820.6501423035334,1281
2822.4067770006814,1254
2824.1630682912883,1300
2825.9190164789957,1311
2827.6746218675207,1267
2829.429884760661,1305
2831.184805462294,1263
2832.9393842763743,1342
2834.693621506936,1316
2836.4475174580916,1343
2838.201072434034,1283
2839.954286739034,1238
2841.707160677441,1228
2843.459694553685,1286
2845.2118886722724,1298
2846.96374333779,1267
2848.7152588549034,1271
2850.4664355283567,1304
2852.217273662973,1282
2853.9677735636546,1229
2855.7179355353833,1243
2857.4677598832186,1295
2859.217246912299,1306
2860.9663969278427,1248
2862.715210235146,1310
2864.4636871395846,1239
2866.211827946614,1300
2867.9596329617652,1267
2869.7071024906536,1287
2871.4542368389684,1287
2873.20103631248,1308
2874.947501217038,1269
2876.6936318585695,1247
2878.4394285430812,1299
2880.1848915766604,1319
2881.9300212654707,1326
2883.6748179157553,1285
2885.4192818338374,1284
2887.1634133261173,1242
2888.907212699077,1323
2890.6506802592744,1300
2892.393816313348,1285
2894.1366211680142,1253
2895.8790951300693,1247
2897.621238506388,1261
2899.363051603925,1296
2901.1045347297118,1297
2902.8456881908596,1233
2904.58651229456,1321
2906.327007348081,1294
2908.067173658772,1255
2909.8070115340597,1306
2911.5465212814497,1277
2913.285703208527,1292
2915.0245576229563,1297
2916.7630848324807,1284
2918.5012851449196,1258
2920.2391588681758,1334
2921.976706310227,1283
2923.7139277791334,1302
2925.4508235830313,1364
2927.187394030137,1330
2928.923639428745,1322
2930.6595600872306,1314
2932.395156314046,1302
2934.1304284177218,1309
2935.8653767068713,1246
2937.6000014901815,1296
2939.3343030764227,1286
2941.068281774442,1263
2942.8019378931644,1317
2944.5352717415976,1288
2946.2682836288236,1297
2948.0009738640065,1276
2949.7333427563885,1328
2951.465390615289,1316
2953.1971177501086,1312
2954.9285244703265,1334
2956.6596110855,1223
2958.3903779052657,1276
2960.1208252393385,1293
2961.8509533975125,1315
2963.5807626896617,1266
2965.3102534257378,1229
2967.0394259157715,1273
2968.768280469873,1281
2970.496817398232,1323
2972.2250370111146,1308
2973.952939618869,1311
2975.6805255319196,1306
2977.4077950607707,1333
2979.134748516006,1306
2980.861386208289,1289
2982.587708448359,1309
2984.313715547037,1299
2986.039407815222,1287
2987.764785563891,1276
2989.489849104102,1313
2991.2145987469908,1340
2992.9390348037705,1309
2994.6631575857346,1268
2996.3869674042576,1321
2998.1104645707887,1303
2999.83364939686,1260
3001.5565221940783,1238
3003.2790832741334,1291
3005.0013329487924,1295
3006.7232715298996,1284
3008.4448993293804,1259
3010.166216659239,1270
3011.887223831558,1283
3013.607921158498,1233
3015.3283089522993,1297
3017.0483875252826,1268
3018.7681571898443,1266
3020.4876182584626,1239
3022.2067710436927,1251
3023.9256158581707,1283
3025.644153014609,1291
3027.362382825801,1275
3029.0803056046193,1284
3030.797921664012,1238
3032.5152313170106,1232
3034.2322348767225,1212
3035.9489326563353,1231
3037.665324969115,1255
3039.3814121284063,1233
3041.097194447633,1278
3042.812672240299,1173
3044.5278458199855,1270
3046.2427155003525,1215
3047.9572815951406,1277
3049.671544418167,1251
3051.38550428333,1220
3053.0991615046073,1241
3054.812516396051,1314
3056.5255692717974,1324
3058.2383204460575,1238
3059.9507702331257,1248
3061.662918947372,1268
3063.3747669032446,1274
3065.0863144152736,1239
3066.7975617980674,1307
3068.508509366309,1225
3070.219157434767,1290
3071.9295063182844,1195
3073.639556331785,1247
3075.3493077902704,1290
3077.058761008821,1307
3078.7679163025964,1247
3080.476773986837,1224
3082.1853343768594,1254
3083.89359778806,1266
3085.6015645359153,1240
3087.3092349359786,1279
3089.016609303884,1242
3090.7236879553434,1276
3092.4304712061476,1238
3094.136959372166,1280
3095.843152769349,1250
3097.5490517137237,1250
3099.2546565213966,1251
3100.959967508554,1194
3102.66498499146,1267
3104.3697092864577,1320
3106.0741407099695,1287
3107.778279578498,1245
3109.482126208622,1280
3111.1856809170004,1270
3112.8889440203716,1254
3114.5919158355528,1239
3116.294596679439,1236
3117.996986869006,1254
3119.6990867213062,1295
3121.4008965534726,1293
3123.102416682717,1241
3124.803647426329,1232
3126.5045891016784,1318
3128.205242026213,1268
3129.90560651746,1260
3131.605682893025,1282
3133.3054714705922,1270
3135.0049725679282,1230
3136.7041865028714,1256
3138.4031135933465,1243
3140.101754157353,1264
3141.800108512971,1230
3143.498176978357,1294
3145.1959598717494,1213
3146.8934575114636,1299
3148.5906702158954,1260
3150.2875983035183,1285
3151.9842420928853,1243
3153.680601902627,1213
3155.376678051456,1202
3157.07247085816,1279
3158.767980641609,1231
3160.463207720748,1193
3162.158152414606,1260
3163.8528150422862,1256
3165.5471959229726,1305
3167.2412953759303,1270
3168.9351137204976,1235
3170.628651276098,1196
3172.3219083622307,1325
3174.014885298474,1249
3175.707582404485,1231
3177.4000000000005,1183
3179.092138404835,1245
3180.7839979388846,1285
3182.47557892212,1214
3184.166881674594,1284
3185.8579065164386,1238
3187.5486537678626,1220
3189.2391237491547,1245
3190.9293167806827,1267
3192.6192331828934,1288
3194.3088732763117,1261
3195.998237381542,1250
3197.687325819268,1245
3199.376138910251,1253
3201.064676975334,1299
3202.7529403354347,1240
3204.4409293115523,1237
3206.1286442247647,1254
3207.816085396229,1281
3209.5032531471825,1220
3211.190147798936,1209
3212.8767696728846,1257
3214.5631190905015,1232
3216.2491963733373,1281
3217.9350018430214,1188
3219.6205358212637,1215
3221.305798629851,1205
3222.990790590651,1193
3224.6755120256103,1192
3226.359963256751,1259
3228.0441446061795,1236
3229.7280563960758,1211
3231.411698948703,1275
3233.0950725863995,1293
3234.778177631587,1267
3236.461014406761,1271
3238.1435832345005,1261
3239.8258844374595,1245
3241.507918338374,1219
3243.1896852600576,1298
3244.8711855254023,1246
3246.552419457381,1240
3248.233387379042,1256
3249.914089613516,1234
3251.59452648401,1283
3253.274698313813,1254
3254.95460542629,1197
3256.6342481448855,1233
3258.313626793125,1172
3259.9927416946084,1206
3261.6715931730196,1197
3263.3501815521176,1169
3265.0285071557437,1264
3266.706570307815,1196
3268.3843713323286,1286
3270.0619105533615,1226
3271.739188295068,1236
3273.4162048816834,1236
3275.0929606375184,1230
3276.769455886966,1277
3278.445690954498,1233
3280.1216661646613,1251
3281.797381842087,1243
3283.4728383114807,1337
3285.1480358976296,1248
3286.8229749253996,1219
3288.4976557197333,1264
3290.172078605655,1245
3291.846243908266,1258
3293.5201519527463,1255
3295.193803064357,1207
3296.8671975684374,1241
3298.5403357904024,1246
3300.21321805575,1182
3301.8858446900567,1195
3303.558216018975,1216
3305.23033236824,1240
3306.9021940636603,1235
3308.57380143113,1224
3310.2451547966184,1254
3311.916254486174,1252
3313.5871008259246,1253
3315.2576941420766,1231
3316.9280347609147,1284
3318.5981230088046,1251
3320.2679592121895,1211
3321.9375436975924,1254
3323.606876791612,1263
3325.27595882093,1279
3326.944790112305,1223
3328.6133709925753,1225
3330.2817017886573,1237
3331.949782827547,1241
3333.617614436319,1223
3335.2851969421245,1241
3336.952530672199,1238
3338.619615953853,1255
3340.286453114475,1243
3341.9530424815357,1241
3343.619384382583,1247
3345.2854791452437,1211
3346.951327097224,1242
3348.6169285663073,1249
3350.2822838803577,1277
3351.947393367319,1275
3353.61225735521,1270
3355.2768761721345,1278
3356.9412501462693,1267
3358.605379605873,1264
3360.2692648792827,1230
3361.9329062949146,1218
3363.596304181263,1270
