CollectionTime,9/20/2024 11:57:03 AM
ExposureUsed,3
CalibratedSpectrum
-962.7078968117929,572
-959.9714848408522,600
-957.2358232597828,625
-954.5009119013725,598
-951.7667505983302,549
-949.0333391832855,565
-946.3006774887896,580
-943.5687653473143,596
-940.837602591253,562
-938.1071890529199,587
-935.3775245645503,557
-932.6486089583007,547
-929.9204420662485,574
-927.1930237203925,581
-924.4663537526524,609
-921.7404319948689,600
-919.0152582788041,633
-916.2908324361409,630
-913.5671542984834,582
-910.8442236973568,576
-908.1220404642074,532
-905.4006044304027,585
-902.679915427231,582
-899.959973285902,574
-897.2407778375464,531
-894.5223289132158,535
-891.8046263438832,557
-889.0876699604426,568
-886.3714595937089,578
-883.6559950744183,569
-880.9412762332282,652
-878.2273029007168,600
-875.5140749073835,585
-872.8015920836489,515
-870.0898542598545,518
-867.3788612662631,584
-864.6686129330585,581
-861.9591090903457,598
-859.2503495681506,584
-856.5423341964203,552
-853.8350628050229,567
-851.1285352237478,561
-848.4227512823054,641
-845.7177108103272,593
-843.0134136373656,551
-840.3098595928943,594
-837.6070485063082,637
-834.9049802069229,667
-832.2036545239757,597
-829.5030712866244,650
-826.8032303239481,588
-824.1041314649472,547
-821.4057745385428,551
-818.7081593735775,579
-816.0112857988148,562
-813.3151536429393,540
-810.6197627345566,563
-807.9251129021936,578
-805.2312039742981,666
-802.5380357792392,742
-799.8456081453069,633
-797.1539209007124,641
-794.462973873588,659
-791.772766891987,685
-789.083299783884,680
-786.3945723771743,629
-783.7065844996748,613
-781.0193359791231,620
-778.3328266431781,638
-775.6470563194197,618
-772.9620248353489,598
-770.2777320183878,612
-767.5941776958798,642
-764.9113616950891,595
-762.2292838432011,566
-759.5479439673222,541
-756.8673418944801,592
-754.1874774516235,682
-751.5083504656222,640
-748.8299607632671,628
-746.15230817127,689
-743.475392516264,664
-740.7992136248035,630
-738.1237713233636,624
-735.4490654383407,592
-732.7750957960521,559
-730.1018622227365,568
-727.4293645445534,618
-724.7576025875837,602
-722.0865761778291,590
-719.4162851412126,641
-716.7467293035781,692
-714.0779084906909,749
-711.409822528237,650
-708.7424712418238,611
-706.0758544569796,628
-703.4099719991541,629
-700.7448236937178,644
-698.0804093659622,636
-695.4167288411002,675
-692.7537819442656,671
-690.0915685005134,602
-687.4300883348199,643
-684.7693412720819,658
-682.1093271371178,662
-679.4500457546669,699
-676.7914969493897,653
-674.1336805458676,630
-671.4765963686034,607
-668.8202442420206,592
-666.1646239904642,630
-663.5097354382001,650
-660.8555784094151,631
-658.2021527282176,676
-655.5494582186366,640
-652.8974947046223,608
-650.2462620100463,673
-647.5957599587009,655
-644.9459883742998,710
-642.2969470804776,700
-639.6486359007902,700
-637.0010546587141,695
-634.3542031776476,704
-631.7080812809096,708
-629.0626887917401,607
-626.4180255333008,611
-623.7740913286734,723
-621.1308860008619,731
-618.4884093727904,659
-615.8466612673046,646
-613.2056415071715,690
-610.5653499150785,692
-607.9257863136347,735
-605.28695052537,749
-602.6488423727357,783
-600.0114616781036,780
-597.3748082637674,828
-594.7388819519412,808
-592.1036825647604,832
-589.4692099242818,817
-586.8354638524829,810
-584.2024441712624,765
-581.5701507024403,805
-578.9385832677575,932
-576.3077416888759,843
-573.6776257873787,755
-571.0482353847704,766
-568.4195703024757,696
-565.7916303618415,785
-563.164415384135,769
-560.5379251905453,713
-557.9121596021815,705
-555.2871184400748,709
-552.6628015251767,765
-550.0392086783606,806
-547.4163397204204,823
-544.794194472071,805
-542.1727727539491,787
-539.5520743866118,831
-536.9320991905377,870
-534.3128469861261,1005
-531.6943175936979,960
-529.0765108334947,967
-526.4594265256793,1072
-523.8430644903358,1247
-521.2274245474689,1498
-518.612506517005,1617
-515.9983102187913,1856
-513.3848354725959,2204
-510.77208209810846,2451
-508.16004991493924,2488
-505.5487387426199,2404
-502.9381484006032,2189
-500.3282787082628,1882
-497.71912948489364,1511
-495.1107005497117,1227
-492.5029917218539,1162
-489.8960028203786,1101
-487.28973366426493,1083
-484.68418407241325,930
-482.07935386364494,840
-479.47524285670266,897
-476.87185087025,907
-474.2691777228715,903
-471.66722323307334,997
-469.0659872192821,972
-466.4654694998459,973
-463.86566989303384,920
-461.26658821703614,913
-458.66822428996414,957
-456.07057792985,974
-453.4736489546475,974
-450.877437182231,995
-448.28194243039627,955
-445.68716451686,904
-443.09310325926003,919
-440.49975847515555,897
-437.9071299820263,927
-435.31521759727354,1052
-432.72402113821954,1090
-430.13354042210767,991
-427.5437752661022,919
-424.95472548728867,978
-422.36639090267386,1028
-419.7787713291855,1084
-417.1918665836721,1003
-414.60567648290385,976
-412.0202008435715,1190
-409.4354394822874,1259
-406.8513922155845,1137
-404.26805885991723,1102
-401.685439231661,1156
-399.103533147112,1060
-396.522340422488,990
-393.9418608739278,953
-391.3620943174908,1013
-388.7830405691583,970
-386.2046994448317,1003
-383.6270707603344,1019
-381.05015433141045,958
-378.473949973725,962
-375.8984575028645,902
-373.32367673433623,801
-370.74960748356875,895
-368.1762495659117,886
-365.60360279663576,847
-363.03166699093265,791
-360.4604419639154,773
-357.8899275306178,772
-355.32012350599507,733
-352.7510297049233,677
-350.1826459421999,673
-347.61497203254316,683
-345.04800779059235,705
-342.4817530309082,636
-339.91620756797226,723
-337.35137121618743,683
-334.7872437898774,741
-332.22382510328725,715
-329.66111497058273,716
-327.09911320585127,754
-324.53781962310075,712
-321.9772340362607,630
-319.4173562591816,673
-316.8581861056348,706
-314.2997233893127,799
-311.7419679238294,920
-309.1849195227194,1091
-306.62857799943856,1001
-304.0729431673641,762
-301.51801483979375,917
-298.963792829947,901
-296.41027695096386,735
-293.85746701590574,822
-291.3053628377552,794
-288.7539642294155,802
-286.2032710037115,821
-283.65328297338897,824
-281.1039999511146,833
-278.5554217494762,1012
-276.007548180983,1219
-273.4603790580651,1111
-270.9139141930734,969
-268.3681533982807,1095
-265.8230964858798,1005
-263.27874326798565,999
-260.7350935566336,986
-258.1921471637804,1021
-255.6499039013039,1219
-253.10836358100266,1096
-250.56752601459698,1063
-248.02739101372765,968
-245.48795838995704,1044
-242.94922795476816,1157
-240.41119951956557,1127
-237.8738728956746,965
-235.33724789434166,1090
-232.80132432673452,1246
-230.2661020039418,1201
-227.73158073697357,1088
-225.19776033676033,1070
-222.66464061415422,1321
-220.1322213799284,1455
-217.60050244477725,1245
-215.06948361931552,1118
-212.53916471408013,1411
-210.00954553952818,1542
-207.48062590603843,1437
-204.9524056239104,1260
-202.4248845033651,1221
-199.8980623545441,1206
-197.37193898751036,1407
-194.84651421224817,1622
-192.32178783866232,1567
-189.79775967657952,1266
-187.27442953574644,1290
-184.7517972258321,1497
-182.2298625564256,1253
-179.7086253370378,1267
-177.18808537710026,1230
-174.66824248596583,1449
-172.14909647290835,1653
-169.6306471471229,1687
-167.11289431772548,1631
-164.59583779375328,1772
-162.07947738416453,2122
-159.5638128978386,2141
-157.04884414357605,1727
-154.53457093009854,1731
-152.02099306604828,1666
-149.50811035998936,1907
-146.99592262040665,2016
-144.48442965570587,1859
-141.97363127421409,1929
-139.46352728417958,1930
-136.95411749377126,2082
-134.44540171107985,2049
-131.93737974411636,1874
-129.43005140081357,1937
-126.92341648902493,2585
-124.41747481652521,2553
-121.91222619101006,2566
-119.40767042009657,2700
-116.90380731132257,3572
-114.40063667214702,4616
-111.8981583099503,5278
-109.3963720320337,6699
-106.89527764561933,9684
-104.39487495785067,10963
-101.89516377579241,11692
-99.39614390642998,15484
-96.89781515667039,21354
-94.40017733334128,25210
-91.90323024319173,25462
-89.40697369289148,22459
-86.91140748903172,14060
-84.41653143812482,8782
-81.92234534660395,10617
-79.42884902082358,14719
-76.93604226705907,17675
-74.4439248915071,20076
-71.95249670028534,20997
-69.46175749943245,18316
-66.97170709490854,15799
-64.48234529259423,13020
-61.99367189829195,12511
-59.50568671772464,16326
-57.01838955653636,18454
-54.53178022029283,22404
-52.045858514480074,31060
-49.560624244506016,32876
-47.07607721569923,33832
-44.59221723330904,41604
-42.10904410250669,44276
-39.62655762838392,47069
-37.14475761595372,48802
-34.66364387015028,60473
-32.18321619582866,65035
-29.70347439776515,65035
-27.224418280657005,65035
-24.74604764912317,65035
-22.26836230770266,65035
-19.7913620608565,65035
-17.315046712966478,65035
-14.83941606833514,65035
-12.36446993118659,65035
-9.89020810566592,65035
-7.416630395839093,65035
-4.94373660569363,65035
-2.471526539137585,65035
-6.821210263296962E-13,65035
2.47084320796705,65035
4.941003281093458,65035
7.410480415786196,65035
9.879274808531363,65035
12.347386655893956,65035
14.814816154518212,65035
17.28156350112681,65035
19.74762889252179,65035
22.21301252558385,65035
24.67771459727237,31116
27.141735304626195,12538
29.605074844762612,10298
32.06773341487792,10013
34.52971121224755,10076
36.99100843422559,8295
39.45162527824516,8334
41.91156194181792,7187
44.370818622535126,6291
46.82939551806646,6296
49.287292826160524,6907
51.74451074464503,6821
54.201049471426245,7070
56.65690920448981,6358
59.112090141899785,6148
61.56659248179983,4240
64.02041642241159,3910
66.4735621620365,5047
68.92602989905402,5401
71.37781983192338,5825
73.82893215918205,5428
76.27936707944684,3923
78.72912479141326,4197
81.17820549385567,3256
83.62660938562783,2507
86.07433666566146,2853
88.5213875329681,2983
90.96776218663751,3006
93.41346082583925,3092
95.85848364982041,3648
98.30283085790859,2879
100.7465026495089,3117
103.18949922410604,2978
105.63182078126385,2594
108.07346752062438,2789
110.51443964190923,2714
112.95473734491827,2611
115.39436082953114,2561
117.83331029570547,2944
120.27158594347827,3695
122.7091879729652,3529
125.1461165843615,3484
127.58237197794062,2848
130.01795435405518,2358
132.4528639131364,2448
134.88710085569494,2754
137.32066538231982,2396
139.75355769367923,2023
142.1857779905207,1706
144.61732647366978,1510
147.04820334403132,1600
149.47840880258934,1847
151.90794305040674,2451
154.33680628862487,2271
156.76499871846443,2137
159.19252054122433,2226
161.61937195828352,2314
164.04555317109896,2331
166.47106438120693,2438
168.89590579022217,2597
171.320077599839,2908
173.7435800118302,2904
176.16641322804742,2958
178.58857745042144,2929
181.01007288096173,2742
183.43089972175687,2591
185.85105817497413,2464
188.27054844285988,2614
190.6893707277394,2829
193.10752523201643,3071
195.5250121581745,3174
197.9418317087751,2953
200.3579840864594,2748
202.7734694939469,2943
205.18828813403627,3199
207.6024402096051,3262
210.01592592360964,2927
212.42874547908548,2749
214.84089907914665,2656
217.2523869269868,2767
219.66320922587727,3023
222.0733661791695,2908
224.48285799029293,2747
226.8916848627572,2782
229.29984700014882,2947
231.7073446061355,3069
234.11417788446204,2932
236.520347038953,2951
238.92585227351185,3043
241.33069379212054,3093
243.73487179884035,3089
246.1383864978112,2988
248.541238093252,2930
250.9434267894609,2976
253.34495279081432,2852
255.74581630176783,2877
258.1460175268563,2924
260.54555667069314,3084
262.9444339379703,3075
265.3426495334594,3097
267.7402036620107,3075
270.1370965285529,2964
272.53332833809407,3094
274.9288992957214,3019
277.32380960660055,2859
279.718059475976,2796
282.1116491091717,2772
284.5045787115897,2740
286.89684848871195,2715
289.2884586460981,2803
291.67940938938807,2988
294.0697009242996,2970
296.4593334566299,2881
298.84830719225477,3026
301.23662233712923,2919
303.6242790972866,2874
306.01127767884,2826
308.39761828798066,2822
310.78330113097934,2753
313.16832641418534,2682
315.5526943440269,2741
317.9364051270112,2701
320.3194589697242,2590
322.70185607883093,2548
325.0835966610754,2440
327.4646809232805,2408
329.8451090723478,2442
332.2248813152577,2588
334.6039978590701,2509
336.9824589109231,2512
339.36026467803447,2497
341.7374153677,2419
344.113911187295,2509
346.48975234427337,2592
348.8649390461686,2661
351.2394715005918,2559
353.61334991523415,2437
355.9865744978655,2371
358.35914545633375,2433
360.73106299856715,2419
363.10232733257146,2305
365.47293866643247,2222
367.84289720831396,2309
370.2122031664593,2266
372.5808567491905,2324
374.9488581649083,2301
377.31620762209275,2180
379.6829053293021,2264
382.0489514951745,2260
384.4143463284262,2286
386.7790900378528,2222
389.14318283232853,2366
391.50662492080653,2322
393.86941651231916,2407
396.23155781597745,2269
398.5930490409713,2194
400.9538903965696,2192
403.3140820921202,2167
405.6736243370498,2163
408.03251734086336,2142
410.3907613131465,2161
412.74835646356166,2161
415.10530300185144,2152
417.4616011378372,2120
419.81725108141893,2122
422.1722530425758,2200
424.5266072313656,2185
426.880313857925,2181
429.2333731324701,2155
431.58578526529516,2117
433.9375504667738,2052
436.2886689473588,2048
438.63914091758113,2095
440.9889665880513,2152
443.33814616945835,2036
445.68667987257015,2080
448.03456790823395,2041
450.3818104873759,2067
452.72840782100013,2047
455.07436012019105,2161
457.41966759611057,2142
459.7643304600007,1993
462.10834892318155,2051
464.4517231970525,2079
466.79445349309174,2031
469.1365400228566,2095
471.4779829979826,2050
473.81878263018564,2072
476.15893913125876,2151
478.4984527130747,2320
480.8373235875855,2369
483.17555196682144,2293
485.5131380628919,2276
487.8500820879857,2261
490.1863842543697,2244
492.52204477439034,2282
494.8570638604725,2409
497.1914417251204,2772
499.52517858091653,2902
501.85827464052306,3637
504.19073011668036,4242
506.5225452222086,5100
508.85372017000566,5524
511.18425517304956,5883
513.514150444396,6633
515.8434061971808,8040
518.1720226446176,8882
520.4999999999999,8609
522.8273384766991,8011
525.1540382881666,7208
527.480099647932,6335
529.8055227696037,4934
532.1303078668694,3725
534.454455153496,2805
536.777964843328,2537
539.1008371502907,2296
541.4230722883866,2230
543.744670471698,2170
546.0656319143858,2121
548.3859568306899,2151
550.7056454349294,2148
553.0246979415016,2117
555.3431145648834,2037
557.6608955196306,2061
559.978041020377,2127
562.2945512818363,2035
564.6104265188006,2241
566.9256669461412,2142
569.2402727788082,2020
571.5542442318302,2125
573.8675815203156,2146
576.1802848594508,2176
578.4923544645015,2196
580.8037905508126,2191
583.114593333807,2162
585.4247630289875,2154
587.7342998519354,2053
590.0432040183106,2024
592.3514757438526,2063
594.6591152443794,2017
596.9661227357875,2070
599.2724984340531,2128
601.578242555231,2036
603.8833553154542,1972
606.1878369309362,1988
608.4916876179676,2068
610.7949075929192,2009
613.0974970722403,1990
615.3994562724587,2083
617.7007854101818,2000
620.0014847020951,2020
622.3015543649641,2061
624.6009946156324,2038
626.8998056710224,2017
629.1979877481361,2038
631.4955410640538,2113
633.7924658359349,2117
636.0887622810175,2016
638.3844306166192,2120
640.6794710601358,2091
642.9738838290426,2063
645.2676691408932,2054
647.5608272133207,2055
649.853358264037,2103
652.1452625108324,2295
654.4365401715764,2153
656.7271914642178,2084
659.0172166067838,2124
661.3066158173809,2115
663.5953893141935,2093
665.8835373154867,1983
668.1710600396028,2067
670.4579577049639,2113
672.7442305300709,2084
675.0298787335033,2193
677.3149025339197,2092
679.599302150058,2016
681.8830778007342,1988
684.1662297048437,2068
686.4487580813608,2073
688.7306631493387,2104
691.0119451279091,2075
693.2926042362834,2003
695.5726406937516,2046
697.8520547196814,2103
700.1308465335215,2060
702.4090163547982,1992
704.6865644031171,2017
706.9634908981619,2045
709.2397960596965,2097
711.5154801075631,2083
713.7905432616823,2220
716.0649857420548,2144
718.3388077687592,2094
720.612009561953,2089
722.8845913418733,2008
725.1565533288352,2082
727.427895743234,2072
729.6986188055427,2045
731.9687227363137,2038
734.238207756178,2080
736.5070740858458,2125
738.7753219461066,2195
741.0429515578281,2192
743.3099631419569,2203
745.5763569195191,2082
747.8421331116193,2078
750.1072919394409,2050
752.3718336242467,2122
754.6357583873777,2146
756.8990664502545,2080
759.1617580343765,2109
761.423833361321,2117
763.6852926527457,2134
765.9461361303862,2144
768.206364016058,2133
770.4659765316536,2189
772.7249738991469,2282
774.9833563405886,2167
777.2411240781092,2264
779.4982773339183,2124
781.7548163303044,2034
784.010741289634,2031
786.2660524343538,2207
788.5207499869881,2313
790.7748341701416,2327
793.0283052064964,2247
795.2811633188143,2218
797.5334087299362,2247
799.7850416627813,2165
802.0360623403484,2152
804.2864709857143,2185
806.5362678220353,2159
808.7854530725468,2162
811.0340269605625,2136
813.2819897094754,2081
815.5293415427581,2111
817.77608268396,2149
820.0222133567116,2169
822.2677337847211,2027
824.5126441917765,2045
826.7569448017433,2049
829.0006358385675,2119
831.2437175262731,2087
833.4861900889629,2210
835.7280537508192,2102
837.9693087361026,2093
840.2099552691533,2127
842.4499935743896,2040
844.689423876309,2071
846.9282463994886,2145
849.1664613685833,2083
851.4040690083276,2108
853.6410695435349,2105
855.877463199097,2100
858.1132501999847,2115
860.3484307712487,2173
862.5830051380175,2171
864.8169735254988,2167
867.0503361589791,2090
869.2830932638243,2128
871.5152450654786,2149
873.7467917894654,2104
875.9777336613873,2185
878.2080709069252,2150
880.4378037518389,2111
882.666932421968,2142
884.8954571432301,2163
887.1233781416219,2134
889.3506956432192,2115
891.5774098741766,2084
893.803521060728,2132
896.0290294291852,2104
898.2539352059397,2138
900.4782386174619,2102
902.7019398903011,2090
904.925039251085,2068
907.147536926521,2095
909.3694331433943,2034
911.59072812857,2182
913.8114221089921,2166
916.0315153116827,2195
918.2510079637437,2154
920.4699002923547,2154
922.6881925247761,2117
924.905884888345,2120
927.1229776104793,2150
929.3394709186747,2150
931.555365040506,2060
933.7706602036275,2162
935.9853566357709,2180
938.1994545647489,2162
940.4129542184515,2174
942.6258558248488,2235
944.8381596119883,2121
947.0498658079974,2219
949.2609746410825,2166
951.4714863395287,2215
953.6814011316998,2236
955.8907192460387,2113
958.0994409110671,2191
960.3075663553858,2235
962.5150958076741,2184
964.7220294966913,2189
966.928367651274,2082
969.1341105003388,2079
971.3392582728806,2051
973.5438111979742,2106
975.747769504772,2057
977.9511334225061,2172
980.153903180487,2037
982.3560790081052,2004
984.5576611348289,2050
986.7586497902058,2036
988.9590452038618,2002
991.158847605503,1994
993.3580572249133,2016
995.5566742919558,1930
997.7546990365728,1823
999.952131688785,1907
1002.1489724786926,1869
1004.3452216364743,1858
1006.5408793923874,1744
1008.7359459767691,1755
1010.9304216200343,1705
1013.1243065526781,1730
1015.3176010052733,1715
1017.510305208472,1646
1019.7024193930064,1654
1021.8939437896848,1636
1024.0848786293977,1639
1026.2752241431122,1636
1028.4649805618747,1648
1030.6541481168115,1626
1032.842727039127,1615
1035.0307175601051,1580
1037.2181199111074,1588
1039.4049343235752,1592
1041.591161029029,1575
1043.7768002590683,1598
1045.9618522453698,1602
1048.1463172196918,1545
1050.3301954138697,1555
1052.513487059818,1611
1054.69619238953,1634
1056.8783116350783,1578
1059.0598450286152,1536
1061.2407928023704,1575
1063.4211551886528,1635
1065.6009324198508,1640
1067.780124728432,1669
1069.9587323469414,1569
1072.1367555080046,1536
1074.314194444325,1501
1076.4910493886855,1555
1078.667320573947,1464
1080.843008233051,1410
1083.0181125990161,1518
1085.1926339049414,1449
1087.3665723840027,1487
1089.5399282694575,1486
1091.7127017946405,1509
1093.8848931929647,1481
1096.0565026979243,1505
1098.2275305430899,1473
1100.3979769621128,1438
1102.567842188722,1517
1104.737126456726,1454
1106.9058300000124,1459
1109.0739530525475,1513
1111.2414958483764,1516
1113.4084586216231,1513
1115.5748416064907,1439
1117.7406450372605,1442
1119.9058691482942,1486
1122.0705141740304,1485
1124.2345803489884,1437
1126.3980679077658,1427
1128.5609770850388,1495
1130.7233081155623,1475
1132.8850612341707,1457
1135.0462366757774,1453
1137.2068346753745,1435
1139.3668554680326,1452
1141.526299288901,1471
1143.68516637321,1446
1145.8434569562655,1444
1148.001171273455,1457
1150.158309560244,1403
1152.3148720521767,1449
1154.470858984876,1413
1156.626270594044,1431
1158.7811071154629,1479
1160.9353687849912,1451
1163.089055838569,1447
1165.242168512213,1446
1167.3947070420209,1507
1169.5466716641677,1475
1171.6980626149075,1378
1173.8488801305748,1361
1175.9991244475814,1364
1178.1487958024186,1370
1180.2978944316555,1427
1182.4464205719428,1440
1184.5943744600072,1469
1186.7417563326567,1354
1188.8885664267755,1373
1191.0348049793297,1362
1193.1804722273619,1383
1195.325568407995,1390
1197.4700937584303,1397
1199.614048515948,1435
1201.7574329179074,1434
1203.900247201746,1401
1206.042491604982,1459
1208.1841663652099,1419
1210.3252717201053,1427
1212.465807907422,1458
1214.6057751649923,1524
1216.7451737307279,1414
1218.8840038426192,1401
1221.0222657387353,1444
1223.1599596572241,1466
1225.2970858363137,1348
1227.4336445143094,1419
1229.5696359295966,1426
1231.705060320639,1456
1233.8399179259786,1407
1235.9742089842384,1544
1238.107933734118,1400
1240.2410924143974,1414
1242.373685263935,1469
1244.5057125216676,1402
1246.6371744266116,1400
1248.7680712178621,1345
1250.898403134593,1385
1253.028170416058,1446
1255.1573733015875,1362
1257.2860120305932,1363
1259.4140868425648,1338
1261.54159797707,1422
1263.6685456737569,1391
1265.7949301723515,1361
1267.9207517126597,1418
1270.046010534565,1411
1272.1707068780306,1409
1274.2948409830983,1420
1276.4184130898889,1473
1278.541423438603,1474
1280.6638722695184,1499
1282.785759822993,1438
1284.9070863394636,1394
1287.0278520594447,1441
1289.1480572235314,1448
1291.2677020723963,1412
1293.3867868467923,1425
1295.5053117875495,1446
1297.623277135579,1457
1299.740683131868,1483
1301.8575300174857,1382
1303.973818033578,1362
1306.0895474213703,1453
1308.2047184221678,1488
1310.3193312773528,1419
1312.4333862283888,1369
1314.5468835168163,1412
1316.659823384255,1436
1318.7722060724045,1451
1320.8840318230418,1432
1322.9953008780249,1383
1325.1060134792888,1433
1327.2161698688478,1460
1329.3257702887959,1475
1331.4348149813054,1436
1333.5433041886276,1484
1335.6512381530933,1451
1337.7586171171101,1407
1339.8654413231675,1418
1341.9717110138317,1402
1344.0774264317488,1450
1346.1825878196432,1451
1348.2871954203192,1426
1350.3912494766587,1441
1352.4947502316231,1541
1354.5976979282532,1498
1356.7000928096686,1445
1358.8019351190665,1488
1360.9032250997243,1405
1363.0039629949988,1440
1365.1041490483235,1397
1367.2037835032133,1472
1369.3028666032606,1447
1371.401398592137,1494
1373.4993797135926,1498
1375.5968102114575,1465
1377.6936903296396,1515
1379.7900203121262,1484
1381.8858004029835,1465
1383.9810308463561,1434
1386.075711886469,1419
1388.1698437676241,1506
1390.2634267342032,1464
1392.356461030667,1494
1394.4489469015557,1509
1396.5408845914872,1477
1398.6322743451592,1437
1400.7231164073469,1464
1402.813411022907,1496
1404.903158436773,1449
1406.9923588939578,1471
1409.0810126395531,1462
1411.1691199187303,1446
1413.2566809767386,1424
1415.343696058907,1454
1417.4301654106425,1477
1419.5160892774315,1522
1421.6014679048399,1442
1423.6863015385125,1495
1425.7705904241707,1449
1427.8543348076178,1521
1429.9375349347342,1468
1432.0201910514802,1463
1434.102303403894,1498
1436.1838722380944,1446
1438.2648978002767,1471
1440.3453803367174,1551
1442.4253200937692,1510
1444.5047173178677,1545
1446.5835722555234,1464
1448.6618851533285,1471
1450.739656257952,1461
1452.8168858161434,1523
1454.8935740747306,1499
1456.96972128062,1460
1459.045327680797,1451
1461.120393522327,1468
1463.1949190523528,1469
1465.2689045180973,1563
1467.3423501668608,1438
1469.415256246024,1500
1471.4876230030463,1454
1473.559450685465,1453
1475.6307395408976,1472
1477.7014898170391,1510
1479.771701761665,1488
1481.8413756226287,1462
1483.9105116478618,1495
1485.9791100853772,1469
1488.0471711832643,1529
1490.1146951896926,1519
1492.1816823529098,1494
1494.2481329212433,1479
1496.3140471430984,1555
1498.3794252669609,1501
1500.4442675413939,1436
1502.5085742150404,1519
1504.572345536622,1489
1506.6355817549388,1547
1508.6982831188702,1548
1510.7604498773744,1504
1512.8220822794883,1423
1514.8831805743293,1482
1516.9437450110909,1486
1519.003775839048,1448
1521.0632733075522,1512
1523.1222376660367,1446
1525.1806691640113,1525
1527.2385680510652,1457
1529.2959345768668,1468
1531.3527689911643,1510
1533.4090715437833,1430
1535.4648424846291,1507
1537.5200820636855,1490
1539.5747905310159,1478
1541.6289681367616,1437
1543.6826151311434,1431
1545.7357317644614,1495
1547.7883182870937,1528
1549.8403749494987,1483
1551.8919020022113,1459
1553.9428996958477,1435
1555.9933682811015,1539
1558.0433080087469,1515
1560.0927191296346,1505
1562.1416018946961,1537
1564.1899565549415,1479
1566.2377833614592,1503
1568.2850825654164,1515
1570.3318544180606,1520
1572.3780991707158,1476
1574.423817074788,1516
1576.4690083817595,1467
1578.5136733431923,1463
1580.5578122107272,1478
1582.601425236085,1476
1584.6445126710646,1451
1586.6870747675434,1396
1588.7291117774776,1426
1590.7706239529034,1466
1592.8116115459347,1439
1594.8520748087658,1504
1596.8920139936686,1450
1598.9314293529933,1483
1600.9703211391711,1464
1603.008689604711,1490
1605.0465350022005,1485
1607.0838575843068,1412
1609.1206576037753,1474
1611.1569353134305,1455
1613.1926909661765,1480
1615.2279248149953,1451
1617.2626371129481,1518
1619.2968281131757,1417
1621.3304980688963,1430
1623.3636472334088,1414
1625.39627586009,1463
1627.428384202396,1439
1629.459972513861,1472
1631.4910410480993,1494
1633.5215900588028,1386
1635.551619799744,1406
1637.5811305247717,1428
1639.6101224878166,1480
1641.6385959428862,1432
1643.6665511440683,1407
1645.693988345528,1456
1647.7209078015112,1436
1649.7473097663405,1416
1651.7731944944203,1446
1653.7985622402307,1453
1655.823413258333,1431
1657.847747803366,1395
1659.8715661300494,1415
1661.8948684931793,1408
1663.9176551476316,1443
1665.9399263483624,1425
1667.9616823504057,1439
1669.982923408873,1372
1672.0036497789574,1392
1674.0238617159293,1385
1676.043559475138,1407
1678.0627433120121,1412
1680.081413482059,1363
1682.0995702408654,1434
1684.117213844096,1450
1686.134344547495,1358
1688.1509626068864,1395
1690.1670682781705,1380
1692.182661817329,1386
1694.1977434804217,1372
1696.2123135235875,1357
1698.226372203043,1408
1700.2399197750851,1464
1702.2529564960905,1471
1704.2654826225112,1479
1706.277498410882,1348
1708.2890041178139,1390
1710.2999999999988,1420
1712.3104863142066,1404
1714.3204633172854,1454
1716.329931266163,1375
1718.3388904178469,1438
1720.3473410294214,1433
1722.3552833580516,1437
1724.3627176609807,1436
1726.3696441955308,1418
1728.3760632191033,1425
1730.3819749891782,1447
1732.3873797633146,1456
1734.3922777991502,1434
1736.3966693544012,1379
1738.4005546868639,1387
1740.4039340544127,1402
1742.406807715001,1390
1744.4091759266616,1365
1746.4110389475054,1391
1748.4123970357223,1452
1750.413250449582,1376
1752.4135994474318,1440
1754.4134442876993,1433
1756.4127852288902,1424
1758.4116225295893,1422
1760.4099564484595,1410
1762.407787244244,1450
1764.405115175764,1504
1766.4019405019203,1454
1768.3982634816916,1423
1770.3940843741357,1397
1772.3894034383907,1396
1774.3842209336717,1408
1776.378537119274,1412
1778.372352254571,1480
1780.3656665990156,1444
1782.3584804121397,1388
1784.3507939535534,1455
1786.3426074829463,1411
1788.3339212600863,1414
1790.3247355448211,1450
1792.3150505970766,1393
1794.3048666768573,1406
1796.2941840442477,1419
1798.2830029594106,1471
1800.2713236825884,1434
1802.2591464741004,1448
1804.2464715943465,1426
1806.2332993038058,1450
1808.2196298630352,1395
1810.2054635326708,1453
1812.190800573428,1469
1814.175641246101,1448
1816.1599858115628,1455
1818.1438345307652,1469
1820.127187664738,1358
1822.1100454745924,1393
1824.092408221516,1518
1826.0742761667766,1432
1828.055649571721,1398
1830.0365286977735,1519
1832.0169138064398,1440
1833.9968051593014,1501
1835.9762030180214,1509
1837.9551076443408,1500
1839.9335193000788,1435
1841.9114382471344,1452
1843.888864747485,1410
1845.8657990631878,1478
1847.842241456378,1446
1849.8181921892697,1463
1851.7936515241558,1460
1853.7686197234098,1474
1855.7430970494815,1442
1857.7170837649014,1454
1859.6905801322787,1477
1861.6635864143004,1514
1863.6361028737338,1487
1865.608129773424,1454
1867.5796673762961,1412
1869.5507159453537,1430
1871.521275743678,1450
1873.4913470344313,1555
1875.4609300808534,1417
1877.4300251462632,1455
1879.3986324940588,1497
1881.366752387717,1522
1883.3343850907936,1418
1885.3015308669228,1421
1887.268189979819,1465
1889.2343626932739,1445
1891.2000492711595,1460
1893.1652499774254,1463
1895.1299650761011,1485
1897.0941948312952,1437
1899.0579395071945,1467
1901.0211993680641,1483
1902.98397467825,1426
1904.9462657021745,1404
1906.9080727043415,1503
1908.869395949332,1470
1910.8302357018065,1442
1912.790592226504,1437
1914.7504657882428,1388
1916.7098566519212,1453
1918.6687650825133,1387
1920.6271913450764,1488
1922.5851357047422,1433
1924.5425984267245,1415
1926.499579776314,1472
1928.4560800188833,1507
1930.4120994198802,1429
1932.367638244833,1505
1934.32269675935,1418
1936.2772752291175,1375
1938.231373919899,1444
1940.1849930975404,1422
1942.1381330279637,1452
1944.0907939771696,1375
1946.0429762112412,1444
1947.9946799963363,1482
1949.9459055986945,1455
1951.896653284633,1470
1953.8469233205478,1448
1955.7967159729142,1436
1957.7460315082863,1445
1959.6948701932974,1397
1961.6432322946594,1400
1963.5911180791632,1457
1965.5385278136787,1454
1967.4854617651545,1444
1969.4319202006182,1445
1971.377903387176,1422
1973.3234115920136,1420
1975.268445082395,1458
1977.2130041256642,1450
1979.1570889892423,1454
1981.1006999406304,1504
1983.04383724741,1437
1984.986501177238,1470
1986.928691997853,1423
1988.8704099770712,1496
1990.811655382789,1540
1992.7524284829801,1497
1994.692729545698,1435
1996.6325588390755,1427
1998.5719166313224,1490
2000.5108031907307,1519
2002.4492187856677,1511
2004.387163684583,1470
2006.3246381560011,1502
2008.2616424685298,1429
2010.1981768908527,1423
2012.1342416917332,1422
2014.069837140014,1475
2016.0049635046162,1443
2017.9396210545406,1420
2019.8738100588666,1400
2021.8075307867502,1447
2023.740783507431,1451
2025.6735684902228,1416
2027.6058860045214,1461
2029.5377363198004,1457
2031.4691197056118,1482
2033.4000364315875,1481
2035.3304867674374,1393
2037.260470982952,1427
2039.189989347998,1413
2041.1190421325232,1473
2043.047629606554,1477
2044.9757520401945,1403
2046.9034097036288,1460
2048.8306028671195,1468
2050.7573318010086,1394
2052.683596775716,1426
2054.609398061742,1430
2056.5347359296647,1459
2058.4596106501403,1437
2060.384022493906,1464
2062.3079717317764,1478
2064.231458634646,1393
2066.1544834734873,1380
2068.077046519352,1446
2069.99914804337,1395
2071.9207883167524,1488
2073.8419676107865,1463
2075.7626861968406,1448
2077.6829443463607,1460
2079.6027423308715,1506
2081.522080421977,1532
2083.440958891362,1486
2085.359378010786,1419
2087.2773380520907,1415
2089.194839287196,1420
2091.111881988101,1416
2093.0284664268825,1480
2094.9445928756973,1456
2096.86026160678,1491
2098.775472892446,1457
2100.690227005088,1437
2102.604524217178,1423
2104.5183648012676,1456
2106.431749029985,1426
2108.34467717604,1439
2110.2571495122206,1419
2112.169166311393,1466
2114.080727846503,1475
2115.9918343905747,1499
2117.902486216711,1472
2119.8126835980956,1500
2121.722426807987,1437
2123.6317161197285,1458
2125.5405518067364,1477
2127.448934142509,1516
2129.356863400624,1472
2131.264339854737,1457
2133.1713637785815,1485
2135.077935445972,1512
2136.9840551308002,1522
2138.889723107037,1441
2140.7949396487334,1505
2142.699705030018,1448
2144.6040195250994,1429
2146.507883408264,1484
2148.4112969538774,1524
2150.3142604363848,1521
2152.2167741303097,1485
2154.1188383102535,1500
2156.0204532508997,1491
2157.9216192270064,1489
2159.822336513414,1505
2161.7226053850413,1457
2163.622426116884,1440
2165.5217989840185,1496
2167.4207242616,1461
2169.319202224862,1524
2171.2172331491165,1508
2173.1148173097563,1466
2175.0119549822507,1478
2176.90864644215,1507
2178.8048919650823,1547
2180.7006918267534,1518
2182.596046302952,1539
2184.4909556695407,1545
2186.3854202024645,1535
2188.279440177746,1507
2190.173015871487,1548
2192.066147559868,1524
2193.958835519149,1500
2195.851080025667,1491
2197.7428813558417,1509
2199.6342397861667,1482
2201.5251555932186,1579
2203.415629053651,1508
2205.3056604441986,1600
2207.19525004167,1529
2209.084398122958,1517
2210.9731049650327,1543
2212.861370844941,1550
2214.749196039812,1575
2216.636580826851,1618
2218.523525483344,1539
2220.410030286655,1538
2222.296095514226,1622
2224.1817214435805,1575
2226.066908352319,1581
2227.951656518121,1553
2229.835966218746,1575
2231.71983773203,1613
2233.6032713358913,1519
2235.486267308324,1551
2237.3688259274036,1594
2239.2509474712824,1543
2241.132632218193,1528
2243.013880446447,1607
2244.8946924344323,1555
2246.7750684606203,1525
2248.6550088035574,1529
2250.534513741871,1593
2252.413583554265,1583
2254.292218519526,1629
2256.170418916517,1558
2258.0481850241786,1523
2259.925517121534,1447
2261.8024154876825,1550
2263.678880401803,1559
2265.5549121431536,1601
2267.430510991071,1578
2269.305677224971,1598
2271.180411124348,1562
2273.0547129687766,1518
2274.9285830379076,1581
2276.8020216114737,1543
2278.6750289692845,1559
2280.5476053912294,1551
2282.4197511572766,1647
2284.2914665474727,1555
2286.162751841943,1651
2288.0336073208937,1675
2289.904033264608,1590
2291.774029953448,1668
2293.6435976678554,1568
2295.5127366883517,1567
2297.381447295534,1577
2299.2497297700825,1438
2301.1175843927526,1457
2302.9850114443825,1461
2304.852011205885,1356
2306.7185839582553,1334
2308.5847299825664,1347
2310.4504495599676,1335
2312.3157429716925,1348
2314.1806104990483,1313
2316.0450524234247,1379
2317.9090690262888,1320
2319.772660589186,1309
2321.635827393742,1335
2323.498569721661,1314
2325.3608878547248,1320
2327.2227820747967,1332
2329.0842526638157,1272
2330.945299903803,1301
2332.805924076857,1313
2334.6661254651535,1308
2336.525904350951,1358
2338.3852610165827,1340
2340.244195744464,1328
2342.102708817088,1299
2343.9608005170253,1299
2345.8184711269287,1341
2347.675720929526,1309
2349.532550207628,1324
2351.38895924412,1307
2353.24494832197,1288
2355.100517724223,1311
2356.955667734004,1297
2358.810398634514,1333
2360.664710709037,1300
2362.5186042409337,1277
2364.3720795136437,1272
2366.225136810686,1292
2368.0777764156583,1344
2369.929998612237,1318
2371.7818036841777,1314
2373.633191915315,1329
2375.484163589562,1349
2377.3347189909114,1302
2379.184858403434,1339
2381.03458211128,1347
2382.8838903986775,1319
2384.732783549936,1370
2386.5812618494406,1384
2388.4293255816588,1305
2390.2769750311327,1330
2392.1242104824883,1323
2393.971032220427,1325
2395.8174405297295,1260
2397.6634356952563,1281
2399.509018001947,1305
2401.3541877348193,1290
2403.1989451789705,1294
2405.043290619576,1336
2406.8872243418905,1320
2408.730746631247,1287
2410.5738577730594,1328
2412.4165580528183,1279
2414.258847756095,1285
2416.100727168537,1324
2417.9421965758734,1336
2419.783256263912,1287
2421.623906518538,1333
2423.4641476257157,1362
2425.303979871491,1276
2427.143403541984,1309
2428.9824189233977,1303
2430.821026302012,1327
2432.6592259641866,1377
2434.497018196361,1327
2436.33440328505,1304
2438.171381516851,1297
2440.00795317844,1266
2441.844118556569,1287
2443.6798779380724,1310
2445.5152316098606,1282
2447.3501798589255,1300
2449.1847229723357,1309
2451.0188612372403,1276
2452.8525949408663,1288
2454.6859243705203,1321
2456.518849813587,1282
2458.3513715575314,1295
2460.183489889895,1294
2462.015205098301,1275
2463.8465174704493,1334
2465.67742729412,1312
2467.5079348571717,1360
2469.338040447542,1314
2471.1677443532476,1300
2472.9970468623833,1264
2474.825948263123,1286
2476.6544488437207,1321
2478.482548892508,1265
2480.310248697896,1294
2482.137548548374,1292
2483.9644487325118,1284
2485.790949538956,1329
2487.617051256433,1277
2489.44275417375,1316
2491.26805857979,1265
2493.0929647635157,1257
2494.917473013971,1286
2496.741583620276,1281
2498.5652968716304,1300
2500.3886130573137,1323
2502.2115324666834,1297
2504.0340553891765,1288
2505.856182114308,1276
2507.6779129316733,1244
2509.499248130945,1307
2511.3201880018764,1287
2513.140732834298,1248
2514.9608829181198,1320
2516.780638543331,1235
2518.6,1290
2520.418967578273,1315
2522.237541568376,1287
2524.0557222606144,1301
2525.8735099453706,1281
2527.6909049131086,1304
2529.507907454368,1348
2531.32451785977,1305
2533.140736420014,1321
2534.9565634258774,1302
2536.771999168218,1294
2538.5870439379714,1341
2540.4016980261526,1325
2542.2159617238544,1343
2544.02983532225,1359
2545.8433191125914,1302
2547.656413386209,1250
2549.4691184345115,1341
2551.2814345489874,1308
2553.093362021204,1325
2554.904901142808,1292
2556.716052205523,1304
2558.526815501153,1280
2560.3371913215824,1224
2562.147179958771,1294
2563.956781704761,1310
2565.7659968516705,1272
2567.5748256916986,1336
2569.3832685171224,1282
2571.1913256202984,1211
2572.9989972936614,1272
2574.806283829725,1258
2576.613185521084,1253
2578.4197026604074,1292
2580.2258355404483,1287
2582.031584454035,1270
2583.836949694077,1249
2585.6419315535613,1267
2587.4465303255533,1316
2589.2507463032002,1328
2591.0545797797245,1308
2592.8580310484303,1333
2594.6611004026995,1278
2596.463788135992,1311
2598.266094541849,1273
2600.0680199138874,1258
2601.869564545807,1312
2603.670728731383,1288
2605.4715127644704,1261
2607.2719169390048,1303
2609.071941548998,1248
2610.8715868885433,1291
2612.670853251811,1254
2614.469740933052,1317
2616.268250226594,1315
2618.0663814268455,1278
2619.864134828292,1281
2621.6615107255006,1279
2623.458509413115,1303
2625.2551311858597,1292
2627.0513763385347,1298
2628.8472451660223,1222
2630.6427379632833,1341
2632.4378550253564,1318
2634.232596647359,1291
2636.026963124488,1312
2637.8209547520187,1322
2639.6145718253065,1290
2641.407814639785,1289
2643.200683490966,1285
2644.9931786744414,1322
2646.7853004858807,1285
2648.577049221034,1341
2650.3684251757277,1295
2652.1594286458712,1258
2653.9500599274484,1230
2655.740319316525,1295
2657.5302071092437,1255
2659.3197236018286,1308
2661.10886909058,1258
2662.8976438718782,1227
2664.686048242183,1274
2666.4740824980327,1321
2668.2617469360443,1323
2670.0490418529134,1303
2671.8359675454153,1279
2673.622524310403,1306
2675.408712444811,1302
2677.1945322456495,1338
2678.979984010009,1296
2680.76506803506,1303
2682.5497846180497,1255
2684.334134056306,1236
2686.1181166472343,1305
2687.9017326883213,1304
2689.6849824771293,1284
2691.4678663113013,1283
2693.2503844885596,1327
2695.032537306705,1226
2696.8143250636167,1295
2698.5957480572542,1343
2700.3768065856534,1308
2702.1575009469316,1296
2703.937831439283,1288
2705.717798360982,1271
2707.4974020103837,1320
2709.276642685917,1249
2711.055520686095,1234
2712.834036309506,1271
2714.612189854819,1281
2716.389981620782,1240
2718.1674119062204,1296
2719.944481010041,1275
2721.721189231226,1323
2723.4975368688415,1300
2725.273524222027,1326
2727.0491515900053,1296
2728.824419272075,1353
2730.5993275676146,1282
2732.3738767760838,1285
2734.148067197016,1277
2735.921899130031,1239
2737.6953728748194,1240
2739.468488731156,1246
2741.2412469988926,1341
2743.0136479779617,1268
2744.785691968372,1258
2746.5573792702116,1328
2748.3287101836504,1269
2750.099685008934,1276
2751.870304046388,1294
2753.640567596418,1259
2755.4104759595057,1253
2757.1800294362156,1271
2758.949228327187,1246
2760.7180729331412,1288
2762.486563554877,1277
2764.254700493272,1269
2766.022484049284,1228
2767.789914523947,1264
2769.5569922183786,1307
2771.3237174337705,1272
2773.090090471394,1302
2774.8561116326036,1324
2776.6217812188274,1306
2778.3870995315756,1302
2780.1520668724356,1283
2781.9166835430747,1310
2783.6809498452394,1259
2785.444866080754,1303
2787.2084325515225,1267
2788.971649559527,1294
2790.73451740683,1287
2792.4970363955713,1305
2794.2592068279705,1297
2796.0210290063264,1271
2797.7825032330147,1288
2799.543629810493,1340
2801.304409041296,1320
2803.0648412280366,1261
2804.8249266734088,1325
2806.5846656801846,1324
2808.344058551212,1276
2810.1031055894246,1291
2811.8618070978273,1309
2813.6201633795085,1283
2815.378174737636,1282
2817.1358414754536,1272
2818.893163896285,1288
2820.6501423035334,1281
2822.4067770006814,1289
2824.1630682912883,1278
2825.9190164789957,1337
2827.6746218675207,1304
2829.429884760661,1310
2831.184805462294,1306
2832.9393842763743,1299
2834.693621506936,1302
2836.4475174580916,1335
2838.201072434034,1301
2839.954286739034,1288
2841.707160677441,1312
2843.459694553685,1323
2845.2118886722724,1256
2846.96374333779,1334
2848.7152588549034,1295
2850.4664355283567,1264
2852.217273662973,1304
2853.9677735636546,1325
2855.7179355353833,1313
2857.4677598832186,1355
2859.217246912299,1306
2860.9663969278427,1271
2862.715210235146,1287
2864.4636871395846,1281
2866.211827946614,1317
2867.9596329617652,1271
2869.7071024906536,1272
2871.4542368389684,1269
2873.20103631248,1354
2874.947501217038,1298
2876.6936318585695,1291
2878.4394285430812,1283
2880.1848915766604,1304
2881.9300212654707,1323
2883.6748179157553,1327
2885.4192818338374,1310
2887.1634133261173,1250
2888.907212699077,1351
2890.6506802592744,1322
2892.393816313348,1302
2894.1366211680142,1331
2895.8790951300693,1371
2897.621238506388,1300
2899.363051603925,1289
2901.1045347297118,1311
2902.8456881908596,1333
2904.58651229456,1311
2906.327007348081,1321
2908.067173658772,1328
2909.8070115340597,1333
2911.5465212814497,1246
2913.285703208527,1336
2915.0245576229563,1324
2916.7630848324807,1311
2918.5012851449196,1301
2920.2391588681758,1310
2921.976706310227,1295
2923.7139277791334,1270
2925.4508235830313,1355
2927.187394030137,1264
2928.923639428745,1275
2930.6595600872306,1365
2932.395156314046,1342
2934.1304284177218,1382
2935.8653767068713,1401
2937.6000014901815,1368
2939.3343030764227,1314
2941.068281774442,1308
2942.8019378931644,1316
2944.5352717415976,1329
2946.2682836288236,1327
2948.0009738640065,1360
2949.7333427563885,1350
2951.465390615289,1316
2953.1971177501086,1297
2954.9285244703265,1338
2956.6596110855,1318
2958.3903779052657,1324
2960.1208252393385,1264
2961.8509533975125,1297
2963.5807626896617,1399
2965.3102534257378,1335
2967.0394259157715,1280
2968.768280469873,1288
2970.496817398232,1253
2972.2250370111146,1340
2973.952939618869,1318
2975.6805255319196,1371
2977.4077950607707,1312
2979.134748516006,1370
2980.861386208289,1339
2982.587708448359,1351
2984.313715547037,1306
2986.039407815222,1327
2987.764785563891,1319
2989.489849104102,1314
2991.2145987469908,1246
2992.9390348037705,1294
2994.6631575857346,1317
2996.3869674042576,1322
2998.1104645707887,1315
2999.83364939686,1350
3001.5565221940783,1310
3003.2790832741334,1209
3005.0013329487924,1270
3006.7232715298996,1279
3008.4448993293804,1300
3010.166216659239,1314
3011.887223831558,1252
3013.607921158498,1297
3015.3283089522993,1285
3017.0483875252826,1294
3018.7681571898443,1313
3020.4876182584626,1380
3022.2067710436927,1324
3023.9256158581707,1313
3025.644153014609,1274
3027.362382825801,1346
3029.0803056046193,1253
3030.797921664012,1278
3032.5152313170106,1253
3034.2322348767225,1287
3035.9489326563353,1335
3037.665324969115,1306
3039.3814121284063,1293
3041.097194447633,1282
3042.812672240299,1281
3044.5278458199855,1270
3046.2427155003525,1333
3047.9572815951406,1282
3049.671544418167,1287
3051.38550428333,1312
3053.0991615046073,1333
3054.812516396051,1255
3056.5255692717974,1284
3058.2383204460575,1324
3059.9507702331257,1250
3061.662918947372,1402
3063.3747669032446,1299
3065.0863144152736,1300
3066.7975617980674,1282
3068.508509366309,1255
3070.219157434767,1279
3071.9295063182844,1256
3073.639556331785,1270
3075.3493077902704,1269
3077.058761008821,1282
3078.7679163025964,1266
3080.476773986837,1332
3082.1853343768594,1330
3083.89359778806,1282
3085.6015645359153,1287
3087.3092349359786,1292
3089.016609303884,1270
3090.7236879553434,1228
3092.4304712061476,1256
3094.136959372166,1271
3095.843152769349,1305
3097.5490517137237,1257
3099.2546565213966,1244
3100.959967508554,1308
3102.66498499146,1274
3104.3697092864577,1287
3106.0741407099695,1299
3107.778279578498,1314
3109.482126208622,1234
3111.1856809170004,1321
3112.8889440203716,1283
3114.5919158355528,1269
3116.294596679439,1313
3117.996986869006,1307
3119.6990867213062,1314
3121.4008965534726,1286
3123.102416682717,1295
3124.803647426329,1345
3126.5045891016784,1296
3128.205242026213,1345
3129.90560651746,1281
3131.605682893025,1309
3133.3054714705922,1269
3135.0049725679282,1281
3136.7041865028714,1341
3138.4031135933465,1210
3140.101754157353,1270
3141.800108512971,1286
3143.498176978357,1232
3145.1959598717494,1256
3146.8934575114636,1292
3148.5906702158954,1287
3150.2875983035183,1269
3151.9842420928853,1287
3153.680601902627,1263
3155.376678051456,1172
3157.07247085816,1271
3158.767980641609,1282
3160.463207720748,1266
3162.158152414606,1318
3163.8528150422862,1291
3165.5471959229726,1320
3167.2412953759303,1311
3168.9351137204976,1350
3170.628651276098,1317
3172.3219083622307,1303
3174.014885298474,1270
3175.707582404485,1273
3177.4000000000005,1289
3179.092138404835,1266
3180.7839979388846,1326
3182.47557892212,1287
3184.166881674594,1283
3185.8579065164386,1325
3187.5486537678626,1252
3189.2391237491547,1282
3190.9293167806827,1249
3192.6192331828934,1281
3194.3088732763117,1257
3195.998237381542,1273
3197.687325819268,1268
3199.376138910251,1233
3201.064676975334,1240
3202.7529403354347,1286
3204.4409293115523,1242
3206.1286442247647,1280
3207.816085396229,1284
3209.5032531471825,1271
3211.190147798936,1251
3212.8767696728846,1338
3214.5631190905015,1230
3216.2491963733373,1324
3217.9350018430214,1270
3219.6205358212637,1293
3221.305798629851,1268
3222.990790590651,1311
3224.6755120256103,1265
3226.359963256751,1262
3228.0441446061795,1295
3229.7280563960758,1262
3231.411698948703,1308
3233.0950725863995,1293
3234.778177631587,1313
3236.461014406761,1310
3238.1435832345005,1306
3239.8258844374595,1329
3241.507918338374,1341
3243.1896852600576,1232
3244.8711855254023,1356
3246.552419457381,1303
3248.233387379042,1289
3249.914089613516,1312
3251.59452648401,1273
3253.274698313813,1287
3254.95460542629,1278
3256.6342481448855,1326
3258.313626793125,1239
3259.9927416946084,1255
3261.6715931730196,1219
3263.3501815521176,1346
3265.0285071557437,1270
3266.706570307815,1238
3268.3843713323286,1281
3270.0619105533615,1251
3271.739188295068,1310
3273.4162048816834,1277
3275.0929606375184,1318
3276.769455886966,1284
3278.445690954498,1286
3280.1216661646613,1276
3281.797381842087,1323
3283.4728383114807,1293
3285.1480358976296,1301
3286.8229749253996,1259
3288.4976557197333,1259
3290.172078605655,1257
3291.846243908266,1273
3293.5201519527463,1241
3295.193803064357,1242
3296.8671975684374,1241
3298.5403357904024,1259
3300.21321805575,1269
3301.8858446900567,1269
3303.558216018975,1275
3305.23033236824,1256
3306.9021940636603,1271
3308.57380143113,1269
3310.2451547966184,1240
3311.916254486174,1283
3313.5871008259246,1199
3315.2576941420766,1276
3316.9280347609147,1312
3318.5981230088046,1283
3320.2679592121895,1255
3321.9375436975924,1253
3323.606876791612,1276
3325.27595882093,1258
3326.944790112305,1271
3328.6133709925753,1299
3330.2817017886573,1260
3331.949782827547,1262
3333.617614436319,1318
3335.2851969421245,1271
3336.952530672199,1255
3338.619615953853,1290
3340.286453114475,1278
3341.9530424815357,1251
3343.619384382583,1287
3345.2854791452437,1230
3346.951327097224,1229
3348.6169285663073,1300
3350.2822838803577,1278
3351.947393367319,1251
3353.61225735521,1287
3355.2768761721345,1275
3356.9412501462693,1208
3358.605379605873,1265
3360.2692648792827,1292
3361.9329062949146,1234
3363.596304181263,1270
