CollectionTime,9/20/2024 11:58:22 AM
ExposureUsed,3
CalibratedSpectrum
-962.7078968117929,504
-959.9714848408522,491
-957.2358232597828,524
-954.5009119013725,511
-951.7667505983302,503
-949.0333391832855,493
-946.3006774887896,530
-943.5687653473143,545
-940.837602591253,521
-938.1071890529199,514
-935.3775245645503,492
-932.6486089583007,487
-929.9204420662485,500
-927.1930237203925,528
-924.4663537526524,510
-921.7404319948689,522
-919.0152582788041,536
-916.2908324361409,535
-913.5671542984834,534
-910.8442236973568,480
-908.1220404642074,499
-905.4006044304027,501
-902.679915427231,488
-899.959973285902,468
-897.2407778375464,464
-894.5223289132158,514
-891.8046263438832,534
-889.0876699604426,531
-886.3714595937089,484
-883.6559950744183,485
-880.9412762332282,545
-878.2273029007168,491
-875.5140749073835,487
-872.8015920836489,502
-870.0898542598545,480
-867.3788612662631,519
-864.6686129330585,540
-861.9591090903457,514
-859.2503495681506,515
-856.5423341964203,478
-853.8350628050229,457
-851.1285352237478,515
-848.4227512823054,534
-845.7177108103272,516
-843.0134136373656,482
-840.3098595928943,496
-837.6070485063082,497
-834.9049802069229,527
-832.2036545239757,528
-829.5030712866244,581
-826.8032303239481,530
-824.1041314649472,499
-821.4057745385428,490
-818.7081593735775,519
-816.0112857988148,525
-813.3151536429393,514
-810.6197627345566,533
-807.9251129021936,513
-805.2312039742981,540
-802.5380357792392,589
-799.8456081453069,554
-797.1539209007124,543
-794.462973873588,556
-791.772766891987,582
-789.083299783884,568
-786.3945723771743,560
-783.7065844996748,550
-781.0193359791231,529
-778.3328266431781,558
-775.6470563194197,568
-772.9620248353489,532
-770.2777320183878,528
-767.5941776958798,518
-764.9113616950891,502
-762.2292838432011,517
-759.5479439673222,504
-756.8673418944801,542
-754.1874774516235,606
-751.5083504656222,593
-748.8299607632671,561
-746.15230817127,567
-743.475392516264,572
-740.7992136248035,523
-738.1237713233636,525
-735.4490654383407,532
-732.7750957960521,488
-730.1018622227365,511
-727.4293645445534,548
-724.7576025875837,537
-722.0865761778291,555
-719.4162851412126,570
-716.7467293035781,575
-714.0779084906909,604
-711.409822528237,580
-708.7424712418238,553
-706.0758544569796,592
-703.4099719991541,612
-700.7448236937178,522
-698.0804093659622,528
-695.4167288411002,521
-692.7537819442656,559
-690.0915685005134,507
-687.4300883348199,577
-684.7693412720819,588
-682.1093271371178,560
-679.4500457546669,612
-676.7914969493897,601
-674.1336805458676,579
-671.4765963686034,542
-668.8202442420206,561
-666.1646239904642,581
-663.5097354382001,578
-660.8555784094151,578
-658.2021527282176,568
-655.5494582186366,604
-652.8974947046223,570
-650.2462620100463,582
-647.5957599587009,576
-644.9459883742998,579
-642.2969470804776,580
-639.6486359007902,612
-637.0010546587141,553
-634.3542031776476,586
-631.7080812809096,584
-629.0626887917401,570
-626.4180255333008,587
-623.7740913286734,632
-621.1308860008619,616
-618.4884093727904,631
-615.8466612673046,607
-613.2056415071715,635
-610.5653499150785,622
-607.9257863136347,653
-605.28695052537,676
-602.6488423727357,685
-600.0114616781036,646
-597.3748082637674,678
-594.7388819519412,672
-592.1036825647604,659
-589.4692099242818,622
-586.8354638524829,575
-584.2024441712624,613
-581.5701507024403,642
-578.9385832677575,734
-576.3077416888759,702
-573.6776257873787,642
-571.0482353847704,615
-568.4195703024757,707
-565.7916303618415,669
-563.164415384135,646
-560.5379251905453,624
-557.9121596021815,669
-555.2871184400748,658
-552.6628015251767,695
-550.0392086783606,660
-547.4163397204204,683
-544.794194472071,714
-542.1727727539491,693
-539.5520743866118,695
-536.9320991905377,727
-534.3128469861261,792
-531.6943175936979,763
-529.0765108334947,814
-526.4594265256793,885
-523.8430644903358,1101
-521.2274245474689,1285
-518.612506517005,1524
-515.9983102187913,1765
-513.3848354725959,2020
-510.77208209810846,2088
-508.16004991493924,1997
-505.5487387426199,1867
-502.9381484006032,1665
-500.3282787082628,1450
-497.71912948489364,1092
-495.1107005497117,934
-492.5029917218539,883
-489.8960028203786,908
-487.28973366426493,883
-484.68418407241325,778
-482.07935386364494,773
-479.47524285670266,705
-476.87185087025,730
-474.2691777228715,821
-471.66722323307334,834
-469.0659872192821,800
-466.4654694998459,755
-463.86566989303384,768
-461.26658821703614,767
-458.66822428996414,767
-456.07057792985,853
-453.4736489546475,844
-450.877437182231,778
-448.28194243039627,748
-445.68716451686,782
-443.09310325926003,789
-440.49975847515555,771
-437.9071299820263,769
-435.31521759727354,831
-432.72402113821954,885
-430.13354042210767,785
-427.5437752661022,841
-424.95472548728867,844
-422.36639090267386,882
-419.7787713291855,916
-417.1918665836721,867
-414.60567648290385,839
-412.0202008435715,977
-409.4354394822874,1062
-406.8513922155845,935
-404.26805885991723,914
-401.685439231661,885
-399.103533147112,873
-396.522340422488,816
-393.9418608739278,844
-391.3620943174908,812
-388.7830405691583,784
-386.2046994448317,799
-383.6270707603344,822
-381.05015433141045,737
-378.473949973725,698
-375.8984575028645,756
-373.32367673433623,696
-370.74960748356875,726
-368.1762495659117,702
-365.60360279663576,660
-363.03166699093265,691
-360.4604419639154,639
-357.8899275306178,635
-355.32012350599507,612
-352.7510297049233,587
-350.1826459421999,565
-347.61497203254316,573
-345.04800779059235,555
-342.4817530309082,517
-339.91620756797226,568
-337.35137121618743,602
-334.7872437898774,611
-332.22382510328725,593
-329.66111497058273,599
-327.09911320585127,666
-324.53781962310075,643
-321.9772340362607,657
-319.4173562591816,665
-316.8581861056348,605
-314.2997233893127,603
-311.7419679238294,593
-309.1849195227194,675
-306.62857799943856,704
-304.0729431673641,652
-301.51801483979375,701
-298.963792829947,704
-296.41027695096386,619
-293.85746701590574,666
-291.3053628377552,666
-288.7539642294155,685
-286.2032710037115,695
-283.65328297338897,684
-281.1039999511146,670
-278.5554217494762,721
-276.007548180983,837
-273.4603790580651,763
-270.9139141930734,774
-268.3681533982807,969
-265.8230964858798,874
-263.27874326798565,772
-260.7350935566336,812
-258.1921471637804,916
-255.6499039013039,994
-253.10836358100266,993
-250.56752601459698,940
-248.02739101372765,795
-245.48795838995704,763
-242.94922795476816,833
-240.41119951956557,922
-237.8738728956746,809
-235.33724789434166,854
-232.80132432673452,932
-230.2661020039418,844
-227.73158073697357,820
-225.19776033676033,753
-222.66464061415422,884
-220.1322213799284,850
-217.60050244477725,908
-215.06948361931552,919
-212.53916471408013,1110
-210.00954553952818,1296
-207.48062590603843,1088
-204.9524056239104,926
-202.4248845033651,1012
-199.8980623545441,989
-197.37193898751036,1050
-194.84651421224817,1184
-192.32178783866232,1148
-189.79775967657952,999
-187.27442953574644,1004
-184.7517972258321,1249
-182.2298625564256,1064
-179.7086253370378,984
-177.18808537710026,937
-174.66824248596583,1050
-172.14909647290835,1169
-169.6306471471229,1162
-167.11289431772548,1177
-164.59583779375328,1219
-162.07947738416453,1468
-159.5638128978386,1643
-157.04884414357605,1417
-154.53457093009854,1356
-152.02099306604828,1214
-149.50811035998936,1395
-146.99592262040665,1520
-144.48442965570587,1524
-141.97363127421409,1391
-139.46352728417958,1434
-136.95411749377126,1639
-134.44540171107985,1659
-131.93737974411636,1520
-129.43005140081357,1488
-126.92341648902493,1846
-124.41747481652521,1726
-121.91222619101006,1879
-119.40767042009657,1972
-116.90380731132257,2537
-114.40063667214702,3137
-111.8981583099503,3851
-109.3963720320337,5652
-106.89527764561933,7878
-104.39487495785067,8869
-101.89516377579241,9743
-99.39614390642998,13237
-96.89781515667039,17947
-94.40017733334128,21368
-91.90323024319173,22537
-89.40697369289148,20825
-86.91140748903172,13183
-84.41653143812482,8122
-81.92234534660395,8736
-79.42884902082358,12354
-76.93604226705907,15510
-74.4439248915071,18024
-71.95249670028534,19242
-69.46175749943245,16471
-66.97170709490854,13834
-64.48234529259423,11787
-61.99367189829195,12258
-59.50568671772464,14429
-57.01838955653636,14094
-54.53178022029283,17096
-52.045858514480074,20386
-49.560624244506016,23505
-47.07607721569923,27058
-44.59221723330904,29297
-42.10904410250669,32799
-39.62655762838392,33564
-37.14475761595372,34792
-34.66364387015028,40928
-32.18321619582866,38944
-29.70347439776515,36415
-27.224418280657005,39923
-24.74604764912317,42756
-22.26836230770266,53201
-19.7913620608565,65036
-17.315046712966478,65036
-14.83941606833514,65036
-12.36446993118659,65036
-9.89020810566592,65036
-7.416630395839093,65036
-4.94373660569363,65036
-2.471526539137585,65036
-6.821210263296962E-13,65036
2.47084320796705,65036
4.941003281093458,65036
7.410480415786196,65036
9.879274808531363,65036
12.347386655893956,65036
14.814816154518212,65036
17.28156350112681,65036
19.74762889252179,65036
22.21301252558385,65036
24.67771459727237,27821
27.141735304626195,9249
29.605074844762612,9971
32.06773341487792,9483
34.52971121224755,8427
36.99100843422559,6765
39.45162527824516,5487
41.91156194181792,4183
44.370818622535126,4180
46.82939551806646,5097
49.287292826160524,6299
51.74451074464503,4779
54.201049471426245,3903
56.65690920448981,3877
59.112090141899785,4170
61.56659248179983,3687
64.02041642241159,3903
66.4735621620365,4121
68.92602989905402,4195
71.37781983192338,4484
73.82893215918205,4108
76.27936707944684,3078
78.72912479141326,3332
81.17820549385567,3040
83.62660938562783,2348
86.07433666566146,2443
88.5213875329681,2359
90.96776218663751,2276
93.41346082583925,2465
95.85848364982041,2927
98.30283085790859,2150
100.7465026495089,2292
103.18949922410604,2173
105.63182078126385,2066
108.07346752062438,2591
110.51443964190923,2476
112.95473734491827,2055
115.39436082953114,1638
117.83331029570547,1738
120.27158594347827,2130
122.7091879729652,2391
125.1461165843615,2498
127.58237197794062,2173
130.01795435405518,1925
132.4528639131364,1753
134.88710085569494,1717
137.32066538231982,1711
139.75355769367923,1627
142.1857779905207,1268
144.61732647366978,1241
147.04820334403132,1385
149.47840880258934,1426
151.90794305040674,1616
154.33680628862487,1523
156.76499871846443,1510
159.19252054122433,1692
161.61937195828352,1844
164.04555317109896,1984
166.47106438120693,1815
168.89590579022217,1879
171.320077599839,2136
173.7435800118302,2308
176.16641322804742,2455
178.58857745042144,2302
181.01007288096173,2134
183.43089972175687,2122
185.85105817497413,2120
188.27054844285988,2173
190.6893707277394,2281
193.10752523201643,2300
195.5250121581745,2461
197.9418317087751,2351
200.3579840864594,2235
202.7734694939469,2256
205.18828813403627,2488
207.6024402096051,2442
210.01592592360964,2395
212.42874547908548,2462
214.84089907914665,2351
217.2523869269868,2355
219.66320922587727,2229
222.0733661791695,2141
224.48285799029293,2197
226.8916848627572,2300
229.29984700014882,2330
231.7073446061355,2369
234.11417788446204,2418
236.520347038953,2436
238.92585227351185,2307
241.33069379212054,2389
243.73487179884035,2399
246.1383864978112,2399
248.541238093252,2385
250.9434267894609,2414
253.34495279081432,2361
255.74581630176783,2323
258.1460175268563,2342
260.54555667069314,2322
262.9444339379703,2393
265.3426495334594,2326
267.7402036620107,2411
270.1370965285529,2312
272.53332833809407,2352
274.9288992957214,2320
277.32380960660055,2328
279.718059475976,2332
282.1116491091717,2307
284.5045787115897,2216
286.89684848871195,2221
289.2884586460981,2279
291.67940938938807,2344
294.0697009242996,2371
296.4593334566299,2414
298.84830719225477,2359
301.23662233712923,2321
303.6242790972866,2312
306.01127767884,2333
308.39761828798066,2260
310.78330113097934,2331
313.16832641418534,2183
315.5526943440269,2171
317.9364051270112,2242
320.3194589697242,2220
322.70185607883093,2171
325.0835966610754,2120
327.4646809232805,2052
329.8451090723478,2066
332.2248813152577,2082
334.6039978590701,2040
336.9824589109231,2023
339.36026467803447,2096
341.7374153677,1943
344.113911187295,2031
346.48975234427337,2123
348.8649390461686,2047
351.2394715005918,1984
353.61334991523415,1920
355.9865744978655,1914
358.35914545633375,2030
360.73106299856715,2051
363.10232733257146,2022
365.47293866643247,1871
367.84289720831396,1914
370.2122031664593,1896
372.5808567491905,1888
374.9488581649083,1928
377.31620762209275,1877
379.6829053293021,1828
382.0489514951745,1895
384.4143463284262,1789
386.7790900378528,1842
389.14318283232853,1854
391.50662492080653,1869
393.86941651231916,1919
396.23155781597745,1864
398.5930490409713,1894
400.9538903965696,1901
403.3140820921202,1878
405.6736243370498,1843
408.03251734086336,1750
410.3907613131465,1776
412.74835646356166,1826
415.10530300185144,1829
417.4616011378372,1820
419.81725108141893,1764
422.1722530425758,1781
424.5266072313656,1730
426.880313857925,1845
429.2333731324701,1768
431.58578526529516,1693
433.9375504667738,1773
436.2886689473588,1752
438.63914091758113,1786
440.9889665880513,1779
443.33814616945835,1716
445.68667987257015,1783
448.03456790823395,1666
450.3818104873759,1689
452.72840782100013,1693
455.07436012019105,1782
457.41966759611057,1773
459.7643304600007,1772
462.10834892318155,1687
464.4517231970525,1736
466.79445349309174,1694
469.1365400228566,1681
471.4779829979826,1695
473.81878263018564,1748
476.15893913125876,1800
478.4984527130747,1887
480.8373235875855,1900
483.17555196682144,1768
485.5131380628919,1767
487.8500820879857,1850
490.1863842543697,1818
492.52204477439034,1840
494.8570638604725,1941
497.1914417251204,2041
499.52517858091653,2353
501.85827464052306,2580
504.19073011668036,3088
506.5225452222086,3838
508.85372017000566,4585
511.18425517304956,5106
513.514150444396,5830
515.8434061971808,7116
518.1720226446176,7923
520.4999999999999,7361
522.8273384766991,6616
525.1540382881666,6010
527.480099647932,5289
529.8055227696037,4048
532.1303078668694,2940
534.454455153496,2364
536.777964843328,2024
539.1008371502907,1944
541.4230722883866,1849
543.744670471698,1844
546.0656319143858,1809
548.3859568306899,1791
550.7056454349294,1843
553.0246979415016,1777
555.3431145648834,1701
557.6608955196306,1632
559.978041020377,1650
562.2945512818363,1712
564.6104265188006,1824
566.9256669461412,1769
569.2402727788082,1718
571.5542442318302,1810
573.8675815203156,1751
576.1802848594508,1746
578.4923544645015,1783
580.8037905508126,1808
583.114593333807,1837
585.4247630289875,1762
587.7342998519354,1673
590.0432040183106,1678
592.3514757438526,1686
594.6591152443794,1768
596.9661227357875,1755
599.2724984340531,1797
601.578242555231,1737
603.8833553154542,1711
606.1878369309362,1691
608.4916876179676,1736
610.7949075929192,1725
613.0974970722403,1718
615.3994562724587,1630
617.7007854101818,1773
620.0014847020951,1680
622.3015543649641,1668
624.6009946156324,1719
626.8998056710224,1658
629.1979877481361,1732
631.4955410640538,1694
633.7924658359349,1740
636.0887622810175,1741
638.3844306166192,1747
640.6794710601358,1768
642.9738838290426,1679
645.2676691408932,1683
647.5608272133207,1737
649.853358264037,1810
652.1452625108324,1784
654.4365401715764,1726
656.7271914642178,1688
659.0172166067838,1762
661.3066158173809,1789
663.5953893141935,1731
665.8835373154867,1714
668.1710600396028,1709
670.4579577049639,1803
672.7442305300709,1796
675.0298787335033,1770
677.3149025339197,1799
679.599302150058,1730
681.8830778007342,1744
684.1662297048437,1746
686.4487580813608,1775
688.7306631493387,1781
691.0119451279091,1751
693.2926042362834,1792
695.5726406937516,1781
697.8520547196814,1795
700.1308465335215,1714
702.4090163547982,1626
704.6865644031171,1695
706.9634908981619,1752
709.2397960596965,1751
711.5154801075631,1725
713.7905432616823,1783
716.0649857420548,1716
718.3388077687592,1758
720.612009561953,1757
722.8845913418733,1686
725.1565533288352,1695
727.427895743234,1737
729.6986188055427,1670
731.9687227363137,1742
734.238207756178,1773
736.5070740858458,1698
738.7753219461066,1781
741.0429515578281,1743
743.3099631419569,1757
745.5763569195191,1703
747.8421331116193,1749
750.1072919394409,1768
752.3718336242467,1721
754.6357583873777,1751
756.8990664502545,1742
759.1617580343765,1722
761.423833361321,1676
763.6852926527457,1858
765.9461361303862,1840
768.206364016058,1812
770.4659765316536,1810
772.7249738991469,1783
774.9833563405886,1787
777.2411240781092,1745
779.4982773339183,1744
781.7548163303044,1741
784.010741289634,1823
786.2660524343538,1906
788.5207499869881,1898
790.7748341701416,1815
793.0283052064964,1747
795.2811633188143,1834
797.5334087299362,1869
799.7850416627813,1797
802.0360623403484,1737
804.2864709857143,1815
806.5362678220353,1777
808.7854530725468,1766
811.0340269605625,1725
813.2819897094754,1715
815.5293415427581,1806
817.77608268396,1732
820.0222133567116,1788
822.2677337847211,1731
824.5126441917765,1749
826.7569448017433,1745
829.0006358385675,1755
831.2437175262731,1744
833.4861900889629,1798
835.7280537508192,1775
837.9693087361026,1794
840.2099552691533,1755
842.4499935743896,1769
844.689423876309,1803
846.9282463994886,1711
849.1664613685833,1796
851.4040690083276,1788
853.6410695435349,1692
855.877463199097,1794
858.1132501999847,1838
860.3484307712487,1768
862.5830051380175,1782
864.8169735254988,1745
867.0503361589791,1737
869.2830932638243,1758
871.5152450654786,1737
873.7467917894654,1805
875.9777336613873,1746
878.2080709069252,1697
880.4378037518389,1780
882.666932421968,1704
884.8954571432301,1753
887.1233781416219,1831
889.3506956432192,1742
891.5774098741766,1798
893.803521060728,1800
896.0290294291852,1747
898.2539352059397,1764
900.4782386174619,1722
902.7019398903011,1638
904.925039251085,1746
907.147536926521,1732
909.3694331433943,1728
911.59072812857,1807
913.8114221089921,1772
916.0315153116827,1748
918.2510079637437,1799
920.4699002923547,1793
922.6881925247761,1824
924.905884888345,1810
927.1229776104793,1780
929.3394709186747,1801
931.555365040506,1805
933.7706602036275,1868
935.9853566357709,1894
938.1994545647489,1851
940.4129542184515,1862
942.6258558248488,1853
944.8381596119883,1860
947.0498658079974,1825
949.2609746410825,1828
951.4714863395287,1881
953.6814011316998,1952
955.8907192460387,1874
958.0994409110671,1841
960.3075663553858,1817
962.5150958076741,1919
964.7220294966913,1860
966.928367651274,1844
969.1341105003388,1847
971.3392582728806,1772
973.5438111979742,1819
975.747769504772,1825
977.9511334225061,1788
980.153903180487,1698
982.3560790081052,1712
984.5576611348289,1697
986.7586497902058,1702
988.9590452038618,1688
991.158847605503,1663
993.3580572249133,1567
995.5566742919558,1636
997.7546990365728,1592
999.952131688785,1627
1002.1489724786926,1574
1004.3452216364743,1533
1006.5408793923874,1513
1008.7359459767691,1546
1010.9304216200343,1502
1013.1243065526781,1490
1015.3176010052733,1462
1017.510305208472,1401
1019.7024193930064,1393
1021.8939437896848,1389
1024.0848786293977,1451
1026.2752241431122,1400
1028.4649805618747,1376
1030.6541481168115,1365
1032.842727039127,1400
1035.0307175601051,1391
1037.2181199111074,1329
1039.4049343235752,1344
1041.591161029029,1344
1043.7768002590683,1356
1045.9618522453698,1393
1048.1463172196918,1285
1050.3301954138697,1383
1052.513487059818,1376
1054.69619238953,1388
1056.8783116350783,1394
1059.0598450286152,1337
1061.2407928023704,1299
1063.4211551886528,1354
1065.6009324198508,1360
1067.780124728432,1281
1069.9587323469414,1353
1072.1367555080046,1320
1074.314194444325,1300
1076.4910493886855,1317
1078.667320573947,1288
1080.843008233051,1284
1083.0181125990161,1350
1085.1926339049414,1293
1087.3665723840027,1300
1089.5399282694575,1346
1091.7127017946405,1312
1093.8848931929647,1292
1096.0565026979243,1323
1098.2275305430899,1260
1100.3979769621128,1278
1102.567842188722,1223
1104.737126456726,1278
1106.9058300000124,1182
1109.0739530525475,1222
1111.2414958483764,1252
1113.4084586216231,1210
1115.5748416064907,1270
1117.7406450372605,1252
1119.9058691482942,1269
1122.0705141740304,1284
1124.2345803489884,1260
1126.3980679077658,1187
1128.5609770850388,1229
1130.7233081155623,1241
1132.8850612341707,1276
1135.0462366757774,1273
1137.2068346753745,1233
1139.3668554680326,1257
1141.526299288901,1236
1143.68516637321,1231
1145.8434569562655,1191
1148.001171273455,1281
1150.158309560244,1252
1152.3148720521767,1214
1154.470858984876,1189
1156.626270594044,1252
1158.7811071154629,1228
1160.9353687849912,1273
1163.089055838569,1287
1165.242168512213,1241
1167.3947070420209,1307
1169.5466716641677,1238
1171.6980626149075,1193
1173.8488801305748,1173
1175.9991244475814,1246
1178.1487958024186,1189
1180.2978944316555,1172
1182.4464205719428,1201
1184.5943744600072,1260
1186.7417563326567,1228
1188.8885664267755,1182
1191.0348049793297,1187
1193.1804722273619,1156
1195.325568407995,1202
1197.4700937584303,1246
1199.614048515948,1251
1201.7574329179074,1222
1203.900247201746,1217
1206.042491604982,1216
1208.1841663652099,1174
1210.3252717201053,1188
1212.465807907422,1178
1214.6057751649923,1268
1216.7451737307279,1292
1218.8840038426192,1238
1221.0222657387353,1236
1223.1599596572241,1237
1225.2970858363137,1213
1227.4336445143094,1256
1229.5696359295966,1208
1231.705060320639,1243
1233.8399179259786,1273
1235.9742089842384,1228
1238.107933734118,1262
1240.2410924143974,1208
1242.373685263935,1234
1244.5057125216676,1289
1246.6371744266116,1241
1248.7680712178621,1252
1250.898403134593,1203
1253.028170416058,1276
1255.1573733015875,1224
1257.2860120305932,1175
1259.4140868425648,1181
1261.54159797707,1216
1263.6685456737569,1183
1265.7949301723515,1206
1267.9207517126597,1218
1270.046010534565,1229
1272.1707068780306,1275
1274.2948409830983,1200
1276.4184130898889,1244
1278.541423438603,1243
1280.6638722695184,1278
1282.785759822993,1275
1284.9070863394636,1186
1287.0278520594447,1262
1289.1480572235314,1242
1291.2677020723963,1249
1293.3867868467923,1201
1295.5053117875495,1260
1297.623277135579,1267
1299.740683131868,1255
1301.8575300174857,1187
1303.973818033578,1253
1306.0895474213703,1271
1308.2047184221678,1282
1310.3193312773528,1256
1312.4333862283888,1216
1314.5468835168163,1232
1316.659823384255,1250
1318.7722060724045,1282
1320.8840318230418,1291
1322.9953008780249,1260
1325.1060134792888,1219
1327.2161698688478,1245
1329.3257702887959,1275
1331.4348149813054,1256
1333.5433041886276,1327
1335.6512381530933,1248
1337.7586171171101,1268
1339.8654413231675,1265
1341.9717110138317,1245
1344.0774264317488,1241
1346.1825878196432,1251
1348.2871954203192,1246
1350.3912494766587,1293
1352.4947502316231,1235
1354.5976979282532,1310
1356.7000928096686,1214
1358.8019351190665,1257
1360.9032250997243,1240
1363.0039629949988,1213
1365.1041490483235,1278
1367.2037835032133,1298
1369.3028666032606,1252
1371.401398592137,1285
1373.4993797135926,1283
1375.5968102114575,1286
1377.6936903296396,1238
1379.7900203121262,1287
1381.8858004029835,1226
1383.9810308463561,1249
1386.075711886469,1261
1388.1698437676241,1275
1390.2634267342032,1292
1392.356461030667,1271
1394.4489469015557,1313
1396.5408845914872,1249
1398.6322743451592,1244
1400.7231164073469,1239
1402.813411022907,1270
1404.903158436773,1281
1406.9923588939578,1312
1409.0810126395531,1307
1411.1691199187303,1275
1413.2566809767386,1300
1415.343696058907,1301
1417.4301654106425,1270
1419.5160892774315,1301
1421.6014679048399,1291
1423.6863015385125,1280
1425.7705904241707,1257
1427.8543348076178,1300
1429.9375349347342,1289
1432.0201910514802,1284
1434.102303403894,1281
1436.1838722380944,1240
1438.2648978002767,1297
1440.3453803367174,1277
1442.4253200937692,1239
1444.5047173178677,1284
1446.5835722555234,1270
1448.6618851533285,1302
1450.739656257952,1265
1452.8168858161434,1236
1454.8935740747306,1329
1456.96972128062,1348
1459.045327680797,1275
1461.120393522327,1296
1463.1949190523528,1290
1465.2689045180973,1331
1467.3423501668608,1263
1469.415256246024,1312
1471.4876230030463,1225
1473.559450685465,1299
1475.6307395408976,1301
1477.7014898170391,1302
1479.771701761665,1390
1481.8413756226287,1264
1483.9105116478618,1276
1485.9791100853772,1284
1488.0471711832643,1368
1490.1146951896926,1293
1492.1816823529098,1266
1494.2481329212433,1274
1496.3140471430984,1267
1498.3794252669609,1282
1500.4442675413939,1264
1502.5085742150404,1292
1504.572345536622,1271
1506.6355817549388,1357
1508.6982831188702,1311
1510.7604498773744,1284
1512.8220822794883,1262
1514.8831805743293,1304
1516.9437450110909,1270
1519.003775839048,1388
1521.0632733075522,1325
1523.1222376660367,1309
1525.1806691640113,1285
1527.2385680510652,1319
1529.2959345768668,1311
1531.3527689911643,1344
1533.4090715437833,1303
1535.4648424846291,1348
1537.5200820636855,1275
1539.5747905310159,1318
1541.6289681367616,1313
1543.6826151311434,1310
1545.7357317644614,1382
1547.7883182870937,1342
1549.8403749494987,1339
1551.8919020022113,1344
1553.9428996958477,1273
1555.9933682811015,1290
1558.0433080087469,1316
1560.0927191296346,1362
1562.1416018946961,1329
1564.1899565549415,1327
1566.2377833614592,1344
1568.2850825654164,1302
1570.3318544180606,1297
1572.3780991707158,1353
1574.423817074788,1305
1576.4690083817595,1295
1578.5136733431923,1335
1580.5578122107272,1312
1582.601425236085,1285
1584.6445126710646,1311
1586.6870747675434,1244
1588.7291117774776,1292
1590.7706239529034,1228
1592.8116115459347,1294
1594.8520748087658,1237
1596.8920139936686,1237
1598.9314293529933,1267
1600.9703211391711,1313
1603.008689604711,1230
1605.0465350022005,1313
1607.0838575843068,1288
1609.1206576037753,1318
1611.1569353134305,1247
1613.1926909661765,1287
1615.2279248149953,1313
1617.2626371129481,1325
1619.2968281131757,1293
1621.3304980688963,1312
1623.3636472334088,1258
1625.39627586009,1218
1627.428384202396,1284
1629.459972513861,1225
1631.4910410480993,1271
1633.5215900588028,1303
1635.551619799744,1278
1637.5811305247717,1255
1639.6101224878166,1248
1641.6385959428862,1229
1643.6665511440683,1263
1645.693988345528,1268
1647.7209078015112,1258
1649.7473097663405,1224
1651.7731944944203,1225
1653.7985622402307,1273
1655.823413258333,1220
1657.847747803366,1287
1659.8715661300494,1229
1661.8948684931793,1285
1663.9176551476316,1300
1665.9399263483624,1323
1667.9616823504057,1244
1669.982923408873,1236
1672.0036497789574,1224
1674.0238617159293,1212
1676.043559475138,1257
1678.0627433120121,1238
1680.081413482059,1235
1682.0995702408654,1291
1684.117213844096,1266
1686.134344547495,1256
1688.1509626068864,1247
1690.1670682781705,1227
1692.182661817329,1251
1694.1977434804217,1253
1696.2123135235875,1230
1698.226372203043,1226
1700.2399197750851,1295
1702.2529564960905,1277
1704.2654826225112,1270
1706.277498410882,1265
1708.2890041178139,1260
1710.2999999999988,1213
1712.3104863142066,1210
1714.3204633172854,1267
1716.329931266163,1321
1718.3388904178469,1290
1720.3473410294214,1277
1722.3552833580516,1279
1724.3627176609807,1230
1726.3696441955308,1290
1728.3760632191033,1299
1730.3819749891782,1311
1732.3873797633146,1315
1734.3922777991502,1279
1736.3966693544012,1290
1738.4005546868639,1232
1740.4039340544127,1267
1742.406807715001,1305
1744.4091759266616,1291
1746.4110389475054,1249
1748.4123970357223,1284
1750.413250449582,1241
1752.4135994474318,1274
1754.4134442876993,1239
1756.4127852288902,1287
1758.4116225295893,1281
1760.4099564484595,1316
1762.407787244244,1239
1764.405115175764,1288
1766.4019405019203,1284
1768.3982634816916,1227
1770.3940843741357,1256
1772.3894034383907,1201
1774.3842209336717,1279
1776.378537119274,1270
1778.372352254571,1267
1780.3656665990156,1292
1782.3584804121397,1264
1784.3507939535534,1231
1786.3426074829463,1278
1788.3339212600863,1258
1790.3247355448211,1237
1792.3150505970766,1237
1794.3048666768573,1244
1796.2941840442477,1252
1798.2830029594106,1231
1800.2713236825884,1253
1802.2591464741004,1233
1804.2464715943465,1287
1806.2332993038058,1287
1808.2196298630352,1237
1810.2054635326708,1307
1812.190800573428,1264
1814.175641246101,1278
1816.1599858115628,1304
1818.1438345307652,1281
1820.127187664738,1270
1822.1100454745924,1296
1824.092408221516,1302
1826.0742761667766,1229
1828.055649571721,1286
1830.0365286977735,1251
1832.0169138064398,1296
1833.9968051593014,1276
1835.9762030180214,1285
1837.9551076443408,1297
1839.9335193000788,1238
1841.9114382471344,1256
1843.888864747485,1286
1845.8657990631878,1253
1847.842241456378,1266
1849.8181921892697,1245
1851.7936515241558,1262
1853.7686197234098,1254
1855.7430970494815,1222
1857.7170837649014,1177
1859.6905801322787,1261
1861.6635864143004,1305
1863.6361028737338,1259
1865.608129773424,1303
1867.5796673762961,1226
1869.5507159453537,1246
1871.521275743678,1239
1873.4913470344313,1311
1875.4609300808534,1287
1877.4300251462632,1306
1879.3986324940588,1298
1881.366752387717,1260
1883.3343850907936,1225
1885.3015308669228,1308
1887.268189979819,1268
1889.2343626932739,1288
1891.2000492711595,1307
1893.1652499774254,1227
1895.1299650761011,1200
1897.0941948312952,1310
1899.0579395071945,1268
1901.0211993680641,1283
1902.98397467825,1255
1904.9462657021745,1306
1906.9080727043415,1290
1908.869395949332,1270
1910.8302357018065,1253
1912.790592226504,1344
1914.7504657882428,1277
1916.7098566519212,1275
1918.6687650825133,1223
1920.6271913450764,1260
1922.5851357047422,1216
1924.5425984267245,1266
1926.499579776314,1300
1928.4560800188833,1331
1930.4120994198802,1298
1932.367638244833,1255
1934.32269675935,1246
1936.2772752291175,1262
1938.231373919899,1263
1940.1849930975404,1279
1942.1381330279637,1251
1944.0907939771696,1221
1946.0429762112412,1304
1947.9946799963363,1281
1949.9459055986945,1251
1951.896653284633,1263
1953.8469233205478,1263
1955.7967159729142,1272
1957.7460315082863,1256
1959.6948701932974,1299
1961.6432322946594,1225
1963.5911180791632,1191
1965.5385278136787,1250
1967.4854617651545,1331
1969.4319202006182,1299
1971.377903387176,1278
1973.3234115920136,1243
1975.268445082395,1283
1977.2130041256642,1317
1979.1570889892423,1285
1981.1006999406304,1294
1983.04383724741,1318
1984.986501177238,1328
1986.928691997853,1282
1988.8704099770712,1282
1990.811655382789,1286
1992.7524284829801,1238
1994.692729545698,1242
1996.6325588390755,1234
1998.5719166313224,1237
2000.5108031907307,1310
2002.4492187856677,1280
2004.387163684583,1296
2006.3246381560011,1259
2008.2616424685298,1260
2010.1981768908527,1222
2012.1342416917332,1260
2014.069837140014,1229
2016.0049635046162,1295
2017.9396210545406,1253
2019.8738100588666,1247
2021.8075307867502,1221
2023.740783507431,1259
2025.6735684902228,1261
2027.6058860045214,1238
2029.5377363198004,1251
2031.4691197056118,1277
2033.4000364315875,1247
2035.3304867674374,1266
2037.260470982952,1240
2039.189989347998,1299
2041.1190421325232,1254
2043.047629606554,1273
2044.9757520401945,1217
2046.9034097036288,1318
2048.8306028671195,1243
2050.7573318010086,1253
2052.683596775716,1266
2054.609398061742,1231
2056.5347359296647,1208
2058.4596106501403,1219
2060.384022493906,1268
2062.3079717317764,1251
2064.231458634646,1236
2066.1544834734873,1230
2068.077046519352,1240
2069.99914804337,1234
2071.9207883167524,1219
2073.8419676107865,1275
2075.7626861968406,1231
2077.6829443463607,1242
2079.6027423308715,1231
2081.522080421977,1300
2083.440958891362,1212
2085.359378010786,1251
2087.2773380520907,1269
2089.194839287196,1285
2091.111881988101,1231
2093.0284664268825,1235
2094.9445928756973,1220
2096.86026160678,1290
2098.775472892446,1225
2100.690227005088,1265
2102.604524217178,1263
2104.5183648012676,1211
2106.431749029985,1326
2108.34467717604,1304
2110.2571495122206,1261
2112.169166311393,1250
2114.080727846503,1280
2115.9918343905747,1283
2117.902486216711,1271
2119.8126835980956,1266
2121.722426807987,1305
2123.6317161197285,1311
2125.5405518067364,1279
2127.448934142509,1242
2129.356863400624,1328
2131.264339854737,1219
2133.1713637785815,1262
2135.077935445972,1330
2136.9840551308002,1260
2138.889723107037,1251
2140.7949396487334,1293
2142.699705030018,1248
2144.6040195250994,1270
2146.507883408264,1263
2148.4112969538774,1281
2150.3142604363848,1290
2152.2167741303097,1252
2154.1188383102535,1289
2156.0204532508997,1300
2157.9216192270064,1209
2159.822336513414,1322
2161.7226053850413,1202
2163.622426116884,1337
2165.5217989840185,1349
2167.4207242616,1259
2169.319202224862,1281
2171.2172331491165,1304
2173.1148173097563,1267
2175.0119549822507,1263
2176.90864644215,1323
2178.8048919650823,1327
2180.7006918267534,1371
2182.596046302952,1296
2184.4909556695407,1213
2186.3854202024645,1280
2188.279440177746,1292
2190.173015871487,1357
2192.066147559868,1222
2193.958835519149,1335
2195.851080025667,1282
2197.7428813558417,1319
2199.6342397861667,1309
2201.5251555932186,1329
2203.415629053651,1326
2205.3056604441986,1296
2207.19525004167,1373
2209.084398122958,1332
2210.9731049650327,1293
2212.861370844941,1343
2214.749196039812,1302
2216.636580826851,1290
2218.523525483344,1341
2220.410030286655,1363
2222.296095514226,1290
2224.1817214435805,1297
2226.066908352319,1288
2227.951656518121,1300
2229.835966218746,1294
2231.71983773203,1327
2233.6032713358913,1296
2235.486267308324,1287
2237.3688259274036,1288
2239.2509474712824,1288
2241.132632218193,1316
2243.013880446447,1258
2244.8946924344323,1287
2246.7750684606203,1296
2248.6550088035574,1326
2250.534513741871,1385
2252.413583554265,1344
2254.292218519526,1343
2256.170418916517,1364
2258.0481850241786,1335
2259.925517121534,1326
2261.8024154876825,1278
2263.678880401803,1339
2265.5549121431536,1310
2267.430510991071,1340
2269.305677224971,1321
2271.180411124348,1268
2273.0547129687766,1294
2274.9285830379076,1322
2276.8020216114737,1332
2278.6750289692845,1307
2280.5476053912294,1339
2282.4197511572766,1306
2284.2914665474727,1388
2286.162751841943,1298
2288.0336073208937,1347
2289.904033264608,1323
2291.774029953448,1407
2293.6435976678554,1414
2295.5127366883517,1353
2297.381447295534,1270
2299.2497297700825,1295
2301.1175843927526,1254
2302.9850114443825,1229
2304.852011205885,1195
2306.7185839582553,1172
2308.5847299825664,1217
2310.4504495599676,1181
2312.3157429716925,1162
2314.1806104990483,1169
2316.0450524234247,1144
2317.9090690262888,1097
2319.772660589186,1124
2321.635827393742,1112
2323.498569721661,1137
2325.3608878547248,1139
2327.2227820747967,1122
2329.0842526638157,1200
2330.945299903803,1127
2332.805924076857,1130
2334.6661254651535,1086
2336.525904350951,1123
2338.3852610165827,1108
2340.244195744464,1123
2342.102708817088,1139
2343.9608005170253,1161
2345.8184711269287,1108
2347.675720929526,1158
2349.532550207628,1173
2351.38895924412,1139
2353.24494832197,1168
2355.100517724223,1126
2356.955667734004,1157
2358.810398634514,1170
2360.664710709037,1163
2362.5186042409337,1183
2364.3720795136437,1179
2366.225136810686,1139
2368.0777764156583,1173
2369.929998612237,1157
2371.7818036841777,1146
2373.633191915315,1125
2375.484163589562,1156
2377.3347189909114,1109
2379.184858403434,1128
2381.03458211128,1128
2382.8838903986775,1091
2384.732783549936,1172
2386.5812618494406,1138
2388.4293255816588,1095
2390.2769750311327,1189
2392.1242104824883,1152
2393.971032220427,1165
2395.8174405297295,1156
2397.6634356952563,1168
2399.509018001947,1130
2401.3541877348193,1154
2403.1989451789705,1146
2405.043290619576,1132
2406.8872243418905,1152
2408.730746631247,1135
2410.5738577730594,1172
2412.4165580528183,1179
2414.258847756095,1079
2416.100727168537,1157
2417.9421965758734,1072
2419.783256263912,1151
2421.623906518538,1106
2423.4641476257157,1152
2425.303979871491,1178
2427.143403541984,1120
2428.9824189233977,1142
2430.821026302012,1167
2432.6592259641866,1174
2434.497018196361,1118
2436.33440328505,1133
2438.171381516851,1166
2440.00795317844,1127
2441.844118556569,1142
2443.6798779380724,1087
2445.5152316098606,1128
2447.3501798589255,1133
2449.1847229723357,1181
2451.0188612372403,1182
2452.8525949408663,1120
2454.6859243705203,1116
2456.518849813587,1139
2458.3513715575314,1156
2460.183489889895,1121
2462.015205098301,1107
2463.8465174704493,1117
2465.67742729412,1147
2467.5079348571717,1153
2469.338040447542,1131
2471.1677443532476,1112
2472.9970468623833,1150
2474.825948263123,1133
2476.6544488437207,1146
2478.482548892508,1158
2480.310248697896,1133
2482.137548548374,1143
2483.9644487325118,1122
2485.790949538956,1152
2487.617051256433,1114
2489.44275417375,1141
2491.26805857979,1124
2493.0929647635157,1157
2494.917473013971,1136
2496.741583620276,1146
2498.5652968716304,1190
2500.3886130573137,1151
2502.2115324666834,1096
2504.0340553891765,1122
2505.856182114308,1131
2507.6779129316733,1101
2509.499248130945,1109
2511.3201880018764,1147
2513.140732834298,1139
2514.9608829181198,1131
2516.780638543331,1180
2518.6,1110
2520.418967578273,1168
2522.237541568376,1137
2524.0557222606144,1141
2525.8735099453706,1150
2527.6909049131086,1112
2529.507907454368,1110
2531.32451785977,1145
2533.140736420014,1131
2534.9565634258774,1124
2536.771999168218,1154
2538.5870439379714,1163
2540.4016980261526,1158
2542.2159617238544,1153
2544.02983532225,1134
2545.8433191125914,1108
2547.656413386209,1083
2549.4691184345115,1143
2551.2814345489874,1075
2553.093362021204,1196
2554.904901142808,1137
2556.716052205523,1168
2558.526815501153,1092
2560.3371913215824,1160
2562.147179958771,1135
2563.956781704761,1160
2565.7659968516705,1150
2567.5748256916986,1104
2569.3832685171224,1094
2571.1913256202984,1162
2572.9989972936614,1132
2574.806283829725,1190
2576.613185521084,1103
2578.4197026604074,1123
2580.2258355404483,1148
2582.031584454035,1123
2583.836949694077,1134
2585.6419315535613,1116
2587.4465303255533,1115
2589.2507463032002,1139
2591.0545797797245,1145
2592.8580310484303,1166
2594.6611004026995,1152
2596.463788135992,1146
2598.266094541849,1118
2600.0680199138874,1137
2601.869564545807,1130
2603.670728731383,1107
2605.4715127644704,1099
2607.2719169390048,1161
2609.071941548998,1105
2610.8715868885433,1170
2612.670853251811,1082
2614.469740933052,1134
2616.268250226594,1162
2618.0663814268455,1153
2619.864134828292,1087
2621.6615107255006,1106
2623.458509413115,1124
2625.2551311858597,1095
2627.0513763385347,1111
2628.8472451660223,1167
2630.6427379632833,1159
2632.4378550253564,1123
2634.232596647359,1157
2636.026963124488,1167
2637.8209547520187,1109
2639.6145718253065,1122
2641.407814639785,1101
2643.200683490966,1153
2644.9931786744414,1140
2646.7853004858807,1110
2648.577049221034,1127
2650.3684251757277,1121
2652.1594286458712,1133
2653.9500599274484,1133
2655.740319316525,1137
2657.5302071092437,1135
2659.3197236018286,1151
2661.10886909058,1123
2662.8976438718782,1115
2664.686048242183,1139
2666.4740824980327,1153
2668.2617469360443,1131
2670.0490418529134,1105
2671.8359675454153,1156
2673.622524310403,1158
2675.408712444811,1137
2677.1945322456495,1102
2678.979984010009,1145
2680.76506803506,1102
2682.5497846180497,1148
2684.334134056306,1158
2686.1181166472343,1119
2687.9017326883213,1138
2689.6849824771293,1110
2691.4678663113013,1109
2693.2503844885596,1120
2695.032537306705,1103
2696.8143250636167,1172
2698.5957480572542,1160
2700.3768065856534,1119
2702.1575009469316,1116
2703.937831439283,1103
2705.717798360982,1061
2707.4974020103837,1073
2709.276642685917,1077
2711.055520686095,1173
2712.834036309506,1102
2714.612189854819,1116
2716.389981620782,1177
2718.1674119062204,1104
2719.944481010041,1152
2721.721189231226,1149
2723.4975368688415,1138
2725.273524222027,1129
2727.0491515900053,1077
2728.824419272075,1084
2730.5993275676146,1128
2732.3738767760838,1088
2734.148067197016,1137
2735.921899130031,1135
2737.6953728748194,1162
2739.468488731156,1132
2741.2412469988926,1147
2743.0136479779617,1131
2744.785691968372,1098
2746.5573792702116,1141
2748.3287101836504,1165
2750.099685008934,1139
2751.870304046388,1167
2753.640567596418,1142
2755.4104759595057,1145
2757.1800294362156,1136
2758.949228327187,1068
2760.7180729331412,1116
2762.486563554877,1146
2764.254700493272,1100
2766.022484049284,1103
2767.789914523947,1167
2769.5569922183786,1136
2771.3237174337705,1136
2773.090090471394,1142
2774.8561116326036,1089
2776.6217812188274,1131
2778.3870995315756,1107
2780.1520668724356,1124
2781.9166835430747,1147
2783.6809498452394,1179
2785.444866080754,1161
2787.2084325515225,1132
2788.971649559527,1141
2790.73451740683,1137
2792.4970363955713,1147
2794.2592068279705,1164
2796.0210290063264,1170
2797.7825032330147,1071
2799.543629810493,1117
2801.304409041296,1177
2803.0648412280366,1177
2804.8249266734088,1124
2806.5846656801846,1163
2808.344058551212,1085
2810.1031055894246,1173
2811.8618070978273,1140
2813.6201633795085,1172
2815.378174737636,1094
2817.1358414754536,1152
2818.893163896285,1131
2820.6501423035334,1091
2822.4067770006814,1162
2824.1630682912883,1164
2825.9190164789957,1137
2827.6746218675207,1136
2829.429884760661,1145
2831.184805462294,1149
2832.9393842763743,1149
2834.693621506936,1120
2836.4475174580916,1170
2838.201072434034,1170
2839.954286739034,1171
2841.707160677441,1112
2843.459694553685,1139
2845.2118886722724,1140
2846.96374333779,1177
2848.7152588549034,1178
2850.4664355283567,1160
2852.217273662973,1127
2853.9677735636546,1137
2855.7179355353833,1196
2857.4677598832186,1143
2859.217246912299,1124
2860.9663969278427,1137
2862.715210235146,1089
2864.4636871395846,1152
2866.211827946614,1152
2867.9596329617652,1180
2869.7071024906536,1127
2871.4542368389684,1134
2873.20103631248,1168
2874.947501217038,1142
2876.6936318585695,1153
2878.4394285430812,1094
2880.1848915766604,1145
2881.9300212654707,1125
2883.6748179157553,1125
2885.4192818338374,1127
2887.1634133261173,1115
2888.907212699077,1120
2890.6506802592744,1163
2892.393816313348,1185
2894.1366211680142,1128
2895.8790951300693,1121
2897.621238506388,1145
2899.363051603925,1117
2901.1045347297118,1176
2902.8456881908596,1189
2904.58651229456,1182
2906.327007348081,1121
2908.067173658772,1158
2909.8070115340597,1107
2911.5465212814497,1150
2913.285703208527,1150
2915.0245576229563,1150
2916.7630848324807,1121
2918.5012851449196,1160
2920.2391588681758,1107
2921.976706310227,1100
2923.7139277791334,1142
2925.4508235830313,1136
2927.187394030137,1170
2928.923639428745,1132
2930.6595600872306,1149
2932.395156314046,1172
2934.1304284177218,1133
2935.8653767068713,1113
2937.6000014901815,1143
2939.3343030764227,1154
2941.068281774442,1127
2942.8019378931644,1168
2944.5352717415976,1194
2946.2682836288236,1157
2948.0009738640065,1144
2949.7333427563885,1117
2951.465390615289,1161
2953.1971177501086,1203
2954.9285244703265,1180
2956.6596110855,1138
2958.3903779052657,1136
2960.1208252393385,1117
2961.8509533975125,1144
2963.5807626896617,1109
2965.3102534257378,1160
2967.0394259157715,1066
2968.768280469873,1137
2970.496817398232,1161
2972.2250370111146,1136
2973.952939618869,1122
2975.6805255319196,1174
2977.4077950607707,1176
2979.134748516006,1148
2980.861386208289,1177
2982.587708448359,1154
2984.313715547037,1155
2986.039407815222,1138
2987.764785563891,1090
2989.489849104102,1129
2991.2145987469908,1138
2992.9390348037705,1119
2994.6631575857346,1168
2996.3869674042576,1142
2998.1104645707887,1189
2999.83364939686,1098
3001.5565221940783,1131
3003.2790832741334,1212
3005.0013329487924,1194
3006.7232715298996,1155
3008.4448993293804,1130
3010.166216659239,1089
3011.887223831558,1141
3013.607921158498,1089
3015.3283089522993,1147
3017.0483875252826,1164
3018.7681571898443,1153
3020.4876182584626,1144
3022.2067710436927,1164
3023.9256158581707,1145
3025.644153014609,1107
3027.362382825801,1131
3029.0803056046193,1147
3030.797921664012,1145
3032.5152313170106,1151
3034.2322348767225,1127
3035.9489326563353,1123
3037.665324969115,1103
3039.3814121284063,1152
3041.097194447633,1180
3042.812672240299,1112
3044.5278458199855,1116
3046.2427155003525,1128
3047.9572815951406,1102
3049.671544418167,1138
3051.38550428333,1093
3053.0991615046073,1114
3054.812516396051,1133
3056.5255692717974,1153
3058.2383204460575,1133
3059.9507702331257,1137
3061.662918947372,1136
3063.3747669032446,1164
3065.0863144152736,1119
3066.7975617980674,1143
3068.508509366309,1084
3070.219157434767,1077
3071.9295063182844,1153
3073.639556331785,1124
3075.3493077902704,1134
3077.058761008821,1193
3078.7679163025964,1109
3080.476773986837,1107
3082.1853343768594,1150
3083.89359778806,1135
3085.6015645359153,1138
3087.3092349359786,1121
3089.016609303884,1137
3090.7236879553434,1083
3092.4304712061476,1080
3094.136959372166,1108
3095.843152769349,1141
3097.5490517137237,1148
3099.2546565213966,1091
3100.959967508554,1136
3102.66498499146,1172
3104.3697092864577,1108
3106.0741407099695,1064
3107.778279578498,1115
3109.482126208622,1122
3111.1856809170004,1128
3112.8889440203716,1128
3114.5919158355528,1126
3116.294596679439,1114
3117.996986869006,1132
3119.6990867213062,1103
3121.4008965534726,1140
3123.102416682717,1161
3124.803647426329,1110
3126.5045891016784,1139
3128.205242026213,1120
3129.90560651746,1105
3131.605682893025,1093
3133.3054714705922,1092
3135.0049725679282,1126
3136.7041865028714,1104
3138.4031135933465,1109
3140.101754157353,1085
3141.800108512971,1143
3143.498176978357,1143
3145.1959598717494,1121
3146.8934575114636,1138
3148.5906702158954,1067
3150.2875983035183,1145
3151.9842420928853,1116
3153.680601902627,1115
3155.376678051456,1069
3157.07247085816,1113
3158.767980641609,1097
3160.463207720748,1115
3162.158152414606,1076
3163.8528150422862,1092
3165.5471959229726,1157
3167.2412953759303,1129
3168.9351137204976,1148
3170.628651276098,1141
3172.3219083622307,1145
3174.014885298474,1127
3175.707582404485,1110
3177.4000000000005,1091
3179.092138404835,1138
3180.7839979388846,1083
3182.47557892212,1103
3184.166881674594,1166
3185.8579065164386,1093
3187.5486537678626,1156
3189.2391237491547,1108
3190.9293167806827,1095
3192.6192331828934,1087
3194.3088732763117,1122
3195.998237381542,1091
3197.687325819268,1138
3199.376138910251,1049
3201.064676975334,1113
3202.7529403354347,1119
3204.4409293115523,1114
3206.1286442247647,1130
3207.816085396229,1108
3209.5032531471825,1034
3211.190147798936,1070
3212.8767696728846,1063
3214.5631190905015,1131
3216.2491963733373,1089
3217.9350018430214,1065
3219.6205358212637,1087
3221.305798629851,1037
3222.990790590651,1106
3224.6755120256103,1116
3226.359963256751,1146
3228.0441446061795,1114
3229.7280563960758,1112
3231.411698948703,1147
3233.0950725863995,1110
3234.778177631587,1114
3236.461014406761,1064
3238.1435832345005,1088
3239.8258844374595,1113
3241.507918338374,1137
3243.1896852600576,1128
3244.8711855254023,1072
3246.552419457381,1077
3248.233387379042,1121
3249.914089613516,1196
3251.59452648401,1101
3253.274698313813,1132
3254.95460542629,1101
3256.6342481448855,1105
3258.313626793125,1091
3259.9927416946084,1059
3261.6715931730196,1105
3263.3501815521176,1086
3265.0285071557437,1080
3266.706570307815,1097
3268.3843713323286,1157
3270.0619105533615,1092
3271.739188295068,1089
3273.4162048816834,1112
3275.0929606375184,1109
3276.769455886966,1068
3278.445690954498,1138
3280.1216661646613,1106
3281.797381842087,1097
3283.4728383114807,1081
3285.1480358976296,1107
3286.8229749253996,1142
3288.4976557197333,1105
3290.172078605655,1157
3291.846243908266,1103
3293.5201519527463,1066
3295.193803064357,1157
3296.8671975684374,1062
3298.5403357904024,1129
3300.21321805575,1110
3301.8858446900567,1111
3303.558216018975,1074
3305.23033236824,1100
3306.9021940636603,1137
3308.57380143113,1138
3310.2451547966184,1068
3311.916254486174,1122
3313.5871008259246,1114
3315.2576941420766,1125
3316.9280347609147,1138
3318.5981230088046,1123
3320.2679592121895,1122
3321.9375436975924,1082
3323.606876791612,1064
3325.27595882093,1079
3326.944790112305,1149
3328.6133709925753,1138
3330.2817017886573,1097
3331.949782827547,1065
3333.617614436319,1082
3335.2851969421245,1097
3336.952530672199,1146
3338.619615953853,1116
3340.286453114475,1084
3341.9530424815357,1152
3343.619384382583,1101
3345.2854791452437,1121
3346.951327097224,1133
3348.6169285663073,1113
3350.2822838803577,1156
3351.947393367319,1123
3353.61225735521,1098
3355.2768761721345,1138
3356.9412501462693,1088
3358.605379605873,1144
3360.2692648792827,1075
3361.9329062949146,1146
3363.596304181263,1071
