CollectionTime,7/11/2024 11:43:37 AM
ExposureUsed,3
CalibratedSpectrum
-962.7078968117929,696
-959.9714848408522,669
-957.2358232597828,734
-954.5009119013725,728
-951.7667505983302,751
-949.0333391832855,766
-946.3006774887896,754
-943.5687653473143,728
-940.837602591253,738
-938.1071890529199,718
-935.3775245645503,722
-932.6486089583007,752
-929.9204420662485,762
-927.1930237203925,788
-924.4663537526524,756
-921.7404319948689,744
-919.0152582788041,794
-916.2908324361409,845
-913.5671542984834,770
-910.8442236973568,765
-908.1220404642074,769
-905.4006044304027,783
-902.679915427231,740
-899.959973285902,756
-897.2407778375464,742
-894.5223289132158,725
-891.8046263438832,765
-889.0876699604426,739
-886.3714595937089,767
-883.6559950744183,738
-880.9412762332282,741
-878.2273029007168,743
-875.5140749073835,757
-872.8015920836489,752
-870.0898542598545,753
-867.3788612662631,762
-864.6686129330585,774
-861.9591090903457,795
-859.2503495681506,736
-856.5423341964203,769
-853.8350628050229,740
-851.1285352237478,756
-848.4227512823054,762
-845.7177108103272,762
-843.0134136373656,747
-840.3098595928943,771
-837.6070485063082,800
-834.9049802069229,750
-832.2036545239757,804
-829.5030712866244,829
-826.8032303239481,819
-824.1041314649472,764
-821.4057745385428,752
-818.7081593735775,763
-816.0112857988148,833
-813.3151536429393,785
-810.6197627345566,757
-807.9251129021936,776
-805.2312039742981,786
-802.5380357792392,784
-799.8456081453069,816
-797.1539209007124,802
-794.462973873588,841
-791.772766891987,808
-789.083299783884,802
-786.3945723771743,787
-783.7065844996748,788
-781.0193359791231,777
-778.3328266431781,794
-775.6470563194197,816
-772.9620248353489,730
-770.2777320183878,791
-767.5941776958798,861
-764.9113616950891,860
-762.2292838432011,800
-759.5479439673222,804
-756.8673418944801,796
-754.1874774516235,864
-751.5083504656222,799
-748.8299607632671,825
-746.15230817127,861
-743.475392516264,863
-740.7992136248035,867
-738.1237713233636,846
-735.4490654383407,838
-732.7750957960521,856
-730.1018622227365,895
-727.4293645445534,850
-724.7576025875837,869
-722.0865761778291,858
-719.4162851412126,846
-716.7467293035781,902
-714.0779084906909,820
-711.409822528237,869
-708.7424712418238,867
-706.0758544569796,900
-703.4099719991541,923
-700.7448236937178,912
-698.0804093659622,862
-695.4167288411002,882
-692.7537819442656,872
-690.0915685005134,913
-687.4300883348199,853
-684.7693412720819,920
-682.1093271371178,840
-679.4500457546669,906
-676.7914969493897,885
-674.1336805458676,907
-671.4765963686034,896
-668.8202442420206,918
-666.1646239904642,899
-663.5097354382001,928
-660.8555784094151,926
-658.2021527282176,954
-655.5494582186366,895
-652.8974947046223,951
-650.2462620100463,896
-647.5957599587009,936
-644.9459883742998,991
-642.2969470804776,958
-639.6486359007902,981
-637.0010546587141,934
-634.3542031776476,914
-631.7080812809096,969
-629.0626887917401,936
-626.4180255333008,969
-623.7740913286734,1014
-621.1308860008619,968
-618.4884093727904,942
-615.8466612673046,944
-613.2056415071715,938
-610.5653499150785,932
-607.9257863136347,959
-605.28695052537,984
-602.6488423727357,948
-600.0114616781036,974
-597.3748082637674,979
-594.7388819519412,1020
-592.1036825647604,1000
-589.4692099242818,1048
-586.8354638524829,1014
-584.2024441712624,1014
-581.5701507024403,1005
-578.9385832677575,1024
-576.3077416888759,979
-573.6776257873787,975
-571.0482353847704,945
-568.4195703024757,997
-565.7916303618415,994
-563.164415384135,987
-560.5379251905453,975
-557.9121596021815,968
-555.2871184400748,992
-552.6628015251767,1040
-550.0392086783606,1058
-547.4163397204204,969
-544.794194472071,952
-542.1727727539491,997
-539.5520743866118,1080
-536.9320991905377,1092
-534.3128469861261,1123
-531.6943175936979,1112
-529.0765108334947,1085
-526.4594265256793,1116
-523.8430644903358,1240
-521.2274245474689,1284
-518.612506517005,1359
-515.9983102187913,1362
-513.3848354725959,1311
-510.77208209810846,1436
-508.16004991493924,1621
-505.5487387426199,1738
-502.9381484006032,1762
-500.3282787082628,1800
-497.71912948489364,1662
-495.1107005497117,1659
-492.5029917218539,1492
-489.8960028203786,1384
-487.28973366426493,1260
-484.68418407241325,1241
-482.07935386364494,1227
-479.47524285670266,1167
-476.87185087025,1195
-474.2691777228715,1200
-471.66722323307334,1263
-469.0659872192821,1204
-466.4654694998459,1208
-463.86566989303384,1181
-461.26658821703614,1203
-458.66822428996414,1254
-456.07057792985,1251
-453.4736489546475,1232
-450.877437182231,1172
-448.28194243039627,1182
-445.68716451686,1216
-443.09310325926003,1137
-440.49975847515555,1167
-437.9071299820263,1146
-435.31521759727354,1145
-432.72402113821954,1180
-430.13354042210767,1195
-427.5437752661022,1206
-424.95472548728867,1170
-422.36639090267386,1244
-419.7787713291855,1314
-417.1918665836721,1251
-414.60567648290385,1252
-412.0202008435715,1238
-409.4354394822874,1297
-406.8513922155845,1325
-404.26805885991723,1301
-401.685439231661,1275
-399.103533147112,1248
-396.522340422488,1230
-393.9418608739278,1272
-391.3620943174908,1263
-388.7830405691583,1169
-386.2046994448317,1144
-383.6270707603344,1131
-381.05015433141045,996
-378.473949973725,969
-375.8984575028645,873
-373.32367673433623,809
-370.74960748356875,797
-368.1762495659117,776
-365.60360279663576,664
-363.03166699093265,624
-360.4604419639154,627
-357.8899275306178,582
-355.32012350599507,544
-352.7510297049233,504
-350.1826459421999,497
-347.61497203254316,510
-345.04800779059235,512
-342.4817530309082,549
-339.91620756797226,538
-337.35137121618743,546
-334.7872437898774,599
-332.22382510328725,547
-329.66111497058273,479
-327.09911320585127,461
-324.53781962310075,505
-321.9772340362607,551
-319.4173562591816,528
-316.8581861056348,528
-314.2997233893127,561
-311.7419679238294,549
-309.1849195227194,613
-306.62857799943856,627
-304.0729431673641,581
-301.51801483979375,555
-298.963792829947,539
-296.41027695096386,570
-293.85746701590574,612
-291.3053628377552,588
-288.7539642294155,618
-286.2032710037115,572
-283.65328297338897,552
-281.1039999511146,619
-278.5554217494762,595
-276.007548180983,590
-273.4603790580651,573
-270.9139141930734,548
-268.3681533982807,554
-265.8230964858798,585
-263.27874326798565,624
-260.7350935566336,686
-258.1921471637804,639
-255.6499039013039,653
-253.10836358100266,596
-250.56752601459698,594
-248.02739101372765,675
-245.48795838995704,771
-242.94922795476816,706
-240.41119951956557,633
-237.8738728956746,667
-235.33724789434166,673
-232.80132432673452,658
-230.2661020039418,707
-227.73158073697357,687
-225.19776033676033,767
-222.66464061415422,739
-220.1322213799284,704
-217.60050244477725,599
-215.06948361931552,689
-212.53916471408013,757
-210.00954553952818,766
-207.48062590603843,688
-204.9524056239104,771
-202.4248845033651,792
-199.8980623545441,725
-197.37193898751036,693
-194.84651421224817,682
-192.32178783866232,696
-189.79775967657952,744
-187.27442953574644,807
-184.7517972258321,849
-182.2298625564256,827
-179.7086253370378,779
-177.18808537710026,774
-174.66824248596583,817
-172.14909647290835,782
-169.6306471471229,852
-167.11289431772548,907
-164.59583779375328,841
-162.07947738416453,779
-159.5638128978386,899
-157.04884414357605,1035
-154.53457093009854,943
-152.02099306604828,924
-149.50811035998936,983
-146.99592262040665,1045
-144.48442965570587,957
-141.97363127421409,1060
-139.46352728417958,1084
-136.95411749377126,1213
-134.44540171107985,1214
-131.93737974411636,978
-129.43005140081357,985
-126.92341648902493,1198
-124.41747481652521,1704
-121.91222619101006,2374
-119.40767042009657,2825
-116.90380731132257,2867
-114.40063667214702,3582
-111.8981583099503,5063
-109.3963720320337,6359
-106.89527764561933,5928
-104.39487495785067,4177
-101.89516377579241,3570
-99.39614390642998,5184
-96.89781515667039,8210
-94.40017733334128,10708
-91.90323024319173,11455
-89.40697369289148,12533
-86.91140748903172,12733
-84.41653143812482,10921
-81.92234534660395,7260
-79.42884902082358,4627
-76.93604226705907,6336
-74.4439248915071,12244
-71.95249670028534,18494
-69.46175749943245,22141
-66.97170709490854,20833
-64.48234529259423,18239
-61.99367189829195,15840
-59.50568671772464,14735
-57.01838955653636,12044
-54.53178022029283,8953
-52.045858514480074,9322
-49.560624244506016,9380
-47.07607721569923,8201
-44.59221723330904,8255
-42.10904410250669,8949
-39.62655762838392,9380
-37.14475761595372,8317
-34.66364387015028,9215
-32.18321619582866,11121
-29.70347439776515,11025
-27.224418280657005,12590
-24.74604764912317,16141
-22.26836230770266,25375
-19.7913620608565,46005
-17.315046712966478,65036
-14.83941606833514,65036
-12.36446993118659,65036
-9.89020810566592,65036
-7.416630395839093,65036
-4.94373660569363,65036
-2.471526539137585,65036
-6.821210263296962E-13,65036
2.47084320796705,65036
4.941003281093458,65036
7.410480415786196,65036
9.879274808531363,65036
12.347386655893956,65036
14.814816154518212,65036
17.28156350112681,65036
19.74762889252179,65036
22.21301252558385,65036
24.67771459727237,21648
27.141735304626195,4679
29.605074844762612,3955
32.06773341487792,3378
34.52971121224755,2814
36.99100843422559,3534
39.45162527824516,2695
41.91156194181792,2032
44.370818622535126,1781
46.82939551806646,1787
49.287292826160524,1998
51.74451074464503,2503
54.201049471426245,2409
56.65690920448981,1913
59.112090141899785,1966
61.56659248179983,1906
64.02041642241159,1698
66.4735621620365,1658
68.92602989905402,1466
71.37781983192338,1669
73.82893215918205,1582
76.27936707944684,1499
78.72912479141326,1593
81.17820549385567,1481
83.62660938562783,1794
86.07433666566146,1451
88.5213875329681,1102
90.96776218663751,1194
93.41346082583925,1240
95.85848364982041,1441
98.30283085790859,1409
100.7465026495089,1405
103.18949922410604,1323
105.63182078126385,1379
108.07346752062438,1397
110.51443964190923,1119
112.95473734491827,1059
115.39436082953114,1034
117.83331029570547,1037
120.27158594347827,1104
122.7091879729652,1298
125.1461165843615,1110
127.58237197794062,986
130.01795435405518,1121
132.4528639131364,1213
134.88710085569494,1116
137.32066538231982,1095
139.75355769367923,1011
142.1857779905207,976
144.61732647366978,906
147.04820334403132,1064
149.47840880258934,1094
151.90794305040674,1111
154.33680628862487,1305
156.76499871846443,1470
159.19252054122433,1592
161.61937195828352,1743
164.04555317109896,1999
166.47106438120693,2036
168.89590579022217,2151
171.320077599839,2326
173.7435800118302,2566
176.16641322804742,2540
178.58857745042144,2686
181.01007288096173,2842
183.43089972175687,2951
185.85105817497413,2893
188.27054844285988,2809
190.6893707277394,2798
193.10752523201643,2885
195.5250121581745,2955
197.9418317087751,2988
200.3579840864594,2993
202.7734694939469,2987
205.18828813403627,3087
207.6024402096051,3082
210.01592592360964,2981
212.42874547908548,3049
214.84089907914665,2990
217.2523869269868,2898
219.66320922587727,2935
222.0733661791695,2958
224.48285799029293,2832
226.8916848627572,2935
229.29984700014882,2947
231.7073446061355,2909
234.11417788446204,2804
236.520347038953,3034
238.92585227351185,3042
241.33069379212054,3077
243.73487179884035,3039
246.1383864978112,3147
248.541238093252,3136
250.9434267894609,3094
253.34495279081432,3153
255.74581630176783,2977
258.1460175268563,2981
260.54555667069314,3008
262.9444339379703,3002
265.3426495334594,2987
267.7402036620107,2922
270.1370965285529,2892
272.53332833809407,2838
274.9288992957214,2809
277.32380960660055,2746
279.718059475976,2728
282.1116491091717,2662
284.5045787115897,2634
286.89684848871195,2642
289.2884586460981,2660
291.67940938938807,2705
294.0697009242996,2669
296.4593334566299,2659
298.84830719225477,2578
301.23662233712923,2520
303.6242790972866,2553
306.01127767884,2588
308.39761828798066,2523
310.78330113097934,2542
313.16832641418534,2476
315.5526943440269,2436
317.9364051270112,2382
320.3194589697242,2475
322.70185607883093,2591
325.0835966610754,2487
327.4646809232805,2331
329.8451090723478,2358
332.2248813152577,2426
334.6039978590701,2405
336.9824589109231,2379
339.36026467803447,2319
341.7374153677,2299
344.113911187295,2358
346.48975234427337,2397
348.8649390461686,2371
351.2394715005918,2305
353.61334991523415,2271
355.9865744978655,2329
358.35914545633375,2237
360.73106299856715,2257
363.10232733257146,2279
365.47293866643247,2249
367.84289720831396,2212
370.2122031664593,2192
372.5808567491905,2224
374.9488581649083,2217
377.31620762209275,2219
379.6829053293021,2238
382.0489514951745,2197
384.4143463284262,2128
386.7790900378528,2187
389.14318283232853,2215
391.50662492080653,2236
393.86941651231916,2191
396.23155781597745,2193
398.5930490409713,2215
400.9538903965696,2221
403.3140820921202,2165
405.6736243370498,2241
408.03251734086336,2244
410.3907613131465,2089
412.74835646356166,2224
415.10530300185144,2175
417.4616011378372,2157
419.81725108141893,2162
422.1722530425758,2104
424.5266072313656,2152
426.880313857925,2244
429.2333731324701,2180
431.58578526529516,2121
433.9375504667738,2034
436.2886689473588,2140
438.63914091758113,2128
440.9889665880513,2134
443.33814616945835,2066
445.68667987257015,2121
448.03456790823395,2095
450.3818104873759,2156
452.72840782100013,2096
455.07436012019105,2053
457.41966759611057,2041
459.7643304600007,2094
462.10834892318155,2120
464.4517231970525,2063
466.79445349309174,2088
469.1365400228566,2061
471.4779829979826,2031
473.81878263018564,2190
476.15893913125876,2155
478.4984527130747,2094
480.8373235875855,2152
483.17555196682144,2153
485.5131380628919,2232
487.8500820879857,2310
490.1863842543697,2359
492.52204477439034,2538
494.8570638604725,2788
497.1914417251204,2995
499.52517858091653,3155
501.85827464052306,3411
504.19073011668036,3351
506.5225452222086,3406
508.85372017000566,3404
511.18425517304956,3288
513.514150444396,3352
515.8434061971808,4036
518.1720226446176,4563
520.4999999999999,4591
522.8273384766991,4406
525.1540382881666,4119
527.480099647932,3579
529.8055227696037,3010
532.1303078668694,2673
534.454455153496,2436
536.777964843328,2332
539.1008371502907,2267
541.4230722883866,2122
543.744670471698,2243
546.0656319143858,2257
548.3859568306899,2318
550.7056454349294,2241
553.0246979415016,2249
555.3431145648834,2189
557.6608955196306,2177
559.978041020377,2144
562.2945512818363,2207
564.6104265188006,2261
566.9256669461412,2292
569.2402727788082,2271
571.5542442318302,2232
573.8675815203156,2266
576.1802848594508,2270
578.4923544645015,2209
580.8037905508126,2338
583.114593333807,2315
585.4247630289875,2283
587.7342998519354,2198
590.0432040183106,2199
592.3514757438526,2302
594.6591152443794,2249
596.9661227357875,2222
599.2724984340531,2241
601.578242555231,2257
603.8833553154542,2246
606.1878369309362,2283
608.4916876179676,2161
610.7949075929192,2188
613.0974970722403,2175
615.3994562724587,2230
617.7007854101818,2195
620.0014847020951,2214
622.3015543649641,2207
624.6009946156324,2291
626.8998056710224,2272
629.1979877481361,2279
631.4955410640538,2158
633.7924658359349,2192
636.0887622810175,2268
638.3844306166192,2242
640.6794710601358,2168
642.9738838290426,2302
645.2676691408932,2283
647.5608272133207,2214
649.853358264037,2291
652.1452625108324,2337
654.4365401715764,2309
656.7271914642178,2345
659.0172166067838,2300
661.3066158173809,2342
663.5953893141935,2291
665.8835373154867,2385
668.1710600396028,2308
670.4579577049639,2313
672.7442305300709,2259
675.0298787335033,2178
677.3149025339197,2249
679.599302150058,2280
681.8830778007342,2307
684.1662297048437,2309
686.4487580813608,2350
688.7306631493387,2337
691.0119451279091,2375
693.2926042362834,2364
695.5726406937516,2322
697.8520547196814,2398
700.1308465335215,2280
702.4090163547982,2311
704.6865644031171,2319
706.9634908981619,2320
709.2397960596965,2297
711.5154801075631,2323
713.7905432616823,2337
716.0649857420548,2266
718.3388077687592,2336
720.612009561953,2205
722.8845913418733,2173
725.1565533288352,2309
727.427895743234,2276
729.6986188055427,2354
731.9687227363137,2280
734.238207756178,2269
736.5070740858458,2279
738.7753219461066,2198
741.0429515578281,2423
743.3099631419569,2328
745.5763569195191,2287
747.8421331116193,2287
750.1072919394409,2316
752.3718336242467,2319
754.6357583873777,2312
756.8990664502545,2275
759.1617580343765,2265
761.423833361321,2257
763.6852926527457,2326
765.9461361303862,2214
768.206364016058,2323
770.4659765316536,2370
772.7249738991469,2411
774.9833563405886,2277
777.2411240781092,2350
779.4982773339183,2270
781.7548163303044,2315
784.010741289634,2311
786.2660524343538,2325
788.5207499869881,2309
790.7748341701416,2368
793.0283052064964,2301
795.2811633188143,2324
797.5334087299362,2383
799.7850416627813,2395
802.0360623403484,2320
804.2864709857143,2312
806.5362678220353,2340
808.7854530725468,2379
811.0340269605625,2373
813.2819897094754,2387
815.5293415427581,2379
817.77608268396,2350
820.0222133567116,2339
822.2677337847211,2352
824.5126441917765,2330
826.7569448017433,2320
829.0006358385675,2358
831.2437175262731,2273
833.4861900889629,2307
835.7280537508192,2319
837.9693087361026,2428
840.2099552691533,2328
842.4499935743896,2368
844.689423876309,2358
846.9282463994886,2371
849.1664613685833,2369
851.4040690083276,2253
853.6410695435349,2188
855.877463199097,2348
858.1132501999847,2391
860.3484307712487,2391
862.5830051380175,2405
864.8169735254988,2363
867.0503361589791,2469
869.2830932638243,2451
871.5152450654786,2332
873.7467917894654,2366
875.9777336613873,2461
878.2080709069252,2390
880.4378037518389,2443
882.666932421968,2383
884.8954571432301,2378
887.1233781416219,2420
889.3506956432192,2329
891.5774098741766,2348
893.803521060728,2370
896.0290294291852,2343
898.2539352059397,2345
900.4782386174619,2400
902.7019398903011,2418
904.925039251085,2364
907.147536926521,2401
909.3694331433943,2311
911.59072812857,2375
913.8114221089921,2306
916.0315153116827,2397
918.2510079637437,2334
920.4699002923547,2382
922.6881925247761,2430
924.905884888345,2293
927.1229776104793,2387
929.3394709186747,2337
931.555365040506,2358
933.7706602036275,2352
935.9853566357709,2325
938.1994545647489,2340
940.4129542184515,2393
942.6258558248488,2312
944.8381596119883,2355
947.0498658079974,2287
949.2609746410825,2383
951.4714863395287,2305
953.6814011316998,2370
955.8907192460387,2324
958.0994409110671,2280
960.3075663553858,2288
962.5150958076741,2269
964.7220294966913,2245
966.928367651274,2278
969.1341105003388,2231
971.3392582728806,2279
973.5438111979742,2292
975.747769504772,2250
977.9511334225061,2218
980.153903180487,2181
982.3560790081052,2168
984.5576611348289,2199
986.7586497902058,2257
988.9590452038618,2259
991.158847605503,2214
993.3580572249133,2182
995.5566742919558,2112
997.7546990365728,2068
999.952131688785,2120
1002.1489724786926,2115
1004.3452216364743,2086
1006.5408793923874,2160
1008.7359459767691,2120
1010.9304216200343,2131
1013.1243065526781,2052
1015.3176010052733,2057
1017.510305208472,2030
1019.7024193930064,2058
1021.8939437896848,2028
1024.0848786293977,2090
1026.2752241431122,2020
1028.4649805618747,1987
1030.6541481168115,1994
1032.842727039127,2078
1035.0307175601051,2022
1037.2181199111074,2069
1039.4049343235752,1956
1041.591161029029,2000
1043.7768002590683,2002
1045.9618522453698,1970
1048.1463172196918,1945
1050.3301954138697,1939
1052.513487059818,1964
1054.69619238953,1905
1056.8783116350783,1969
1059.0598450286152,2016
1061.2407928023704,2000
1063.4211551886528,2067
1065.6009324198508,1949
1067.780124728432,1983
1069.9587323469414,1963
1072.1367555080046,1948
1074.314194444325,1935
1076.4910493886855,1951
1078.667320573947,1968
1080.843008233051,1910
1083.0181125990161,1960
1085.1926339049414,1952
1087.3665723840027,1905
1089.5399282694575,1917
1091.7127017946405,1891
1093.8848931929647,1923
1096.0565026979243,1908
1098.2275305430899,1870
1100.3979769621128,1857
1102.567842188722,1804
1104.737126456726,1940
1106.9058300000124,1928
1109.0739530525475,1878
1111.2414958483764,1917
1113.4084586216231,1903
1115.5748416064907,1877
1117.7406450372605,1882
1119.9058691482942,1894
1122.0705141740304,1849
1124.2345803489884,1911
1126.3980679077658,1922
1128.5609770850388,1881
1130.7233081155623,1801
1132.8850612341707,1877
1135.0462366757774,1805
1137.2068346753745,1822
1139.3668554680326,1821
1141.526299288901,1912
1143.68516637321,1890
1145.8434569562655,1888
1148.001171273455,1882
1150.158309560244,1826
1152.3148720521767,1849
1154.470858984876,1788
1156.626270594044,1796
1158.7811071154629,1832
1160.9353687849912,1800
1163.089055838569,1772
1165.242168512213,1846
1167.3947070420209,1830
1169.5466716641677,1839
1171.6980626149075,1773
1173.8488801305748,1793
1175.9991244475814,1864
1178.1487958024186,1788
1180.2978944316555,1803
1182.4464205719428,1801
1184.5943744600072,1764
1186.7417563326567,1756
1188.8885664267755,1757
1191.0348049793297,1773
1193.1804722273619,1779
1195.325568407995,1776
1197.4700937584303,1762
1199.614048515948,1795
1201.7574329179074,1818
1203.900247201746,1767
1206.042491604982,1744
1208.1841663652099,1796
1210.3252717201053,1836
1212.465807907422,1745
1214.6057751649923,1794
1216.7451737307279,1778
1218.8840038426192,1814
1221.0222657387353,1784
1223.1599596572241,1847
1225.2970858363137,1829
1227.4336445143094,1814
1229.5696359295966,1820
1231.705060320639,1853
1233.8399179259786,1840
1235.9742089842384,1872
1238.107933734118,1838
1240.2410924143974,1830
1242.373685263935,1763
1244.5057125216676,1788
1246.6371744266116,1788
1248.7680712178621,1886
1250.898403134593,1870
1253.028170416058,1815
1255.1573733015875,1765
1257.2860120305932,1822
1259.4140868425648,1879
1261.54159797707,1907
1263.6685456737569,1872
1265.7949301723515,1839
1267.9207517126597,1813
1270.046010534565,1836
1272.1707068780306,1819
1274.2948409830983,1839
1276.4184130898889,1887
1278.541423438603,1839
1280.6638722695184,1839
1282.785759822993,1840
1284.9070863394636,1916
1287.0278520594447,1827
1289.1480572235314,1917
1291.2677020723963,1886
1293.3867868467923,1916
1295.5053117875495,1876
1297.623277135579,1973
1299.740683131868,1944
1301.8575300174857,1927
1303.973818033578,1957
1306.0895474213703,1956
1308.2047184221678,1909
1310.3193312773528,1981
1312.4333862283888,1927
1314.5468835168163,1935
1316.659823384255,1902
1318.7722060724045,1993
1320.8840318230418,1960
1322.9953008780249,1979
1325.1060134792888,1986
1327.2161698688478,1945
1329.3257702887959,1885
1331.4348149813054,1950
1333.5433041886276,1918
1335.6512381530933,1944
1337.7586171171101,1929
1339.8654413231675,1936
1341.9717110138317,1932
1344.0774264317488,1971
1346.1825878196432,1946
1348.2871954203192,2004
1350.3912494766587,1905
1352.4947502316231,1933
1354.5976979282532,1930
1356.7000928096686,1926
1358.8019351190665,1877
1360.9032250997243,1930
1363.0039629949988,1937
1365.1041490483235,1883
1367.2037835032133,1887
1369.3028666032606,1953
1371.401398592137,1872
1373.4993797135926,1944
1375.5968102114575,1974
1377.6936903296396,1925
1379.7900203121262,1927
1381.8858004029835,1894
1383.9810308463561,1921
1386.075711886469,1987
1388.1698437676241,1975
1390.2634267342032,1872
1392.356461030667,1874
1394.4489469015557,1981
1396.5408845914872,1948
1398.6322743451592,1873
1400.7231164073469,1930
1402.813411022907,1990
1404.903158436773,1986
1406.9923588939578,2032
1409.0810126395531,1987
1411.1691199187303,2003
1413.2566809767386,1931
1415.343696058907,1985
1417.4301654106425,2004
1419.5160892774315,2029
1421.6014679048399,1988
1423.6863015385125,2042
1425.7705904241707,2028
1427.8543348076178,2036
1429.9375349347342,2018
1432.0201910514802,2012
1434.102303403894,2143
1436.1838722380944,2124
1438.2648978002767,2136
1440.3453803367174,2132
1442.4253200937692,2128
1444.5047173178677,2163
1446.5835722555234,2186
1448.6618851533285,2229
1450.739656257952,2248
1452.8168858161434,2227
1454.8935740747306,2236
1456.96972128062,2363
1459.045327680797,2360
1461.120393522327,2428
1463.1949190523528,2397
1465.2689045180973,2453
1467.3423501668608,2453
1469.415256246024,2557
1471.4876230030463,2529
1473.559450685465,2585
1475.6307395408976,2624
1477.7014898170391,2565
1479.771701761665,2657
1481.8413756226287,2786
1483.9105116478618,2721
1485.9791100853772,2826
1488.0471711832643,2802
1490.1146951896926,2836
1492.1816823529098,2791
1494.2481329212433,2930
1496.3140471430984,2932
1498.3794252669609,2963
1500.4442675413939,2884
1502.5085742150404,2958
1504.572345536622,3114
1506.6355817549388,3089
1508.6982831188702,3144
1510.7604498773744,3130
1512.8220822794883,3318
1514.8831805743293,3273
1516.9437450110909,3249
1519.003775839048,3338
1521.0632733075522,3353
1523.1222376660367,3440
1525.1806691640113,3475
1527.2385680510652,3527
1529.2959345768668,3485
1531.3527689911643,3587
1533.4090715437833,3767
1535.4648424846291,3795
1537.5200820636855,3854
1539.5747905310159,3886
1541.6289681367616,3920
1543.6826151311434,3909
1545.7357317644614,3913
1547.7883182870937,4091
1549.8403749494987,4003
1551.8919020022113,4181
1553.9428996958477,4288
1555.9933682811015,4443
1558.0433080087469,4334
1560.0927191296346,4499
1562.1416018946961,4483
1564.1899565549415,4478
1566.2377833614592,4411
1568.2850825654164,4463
1570.3318544180606,4320
1572.3780991707158,4161
1574.423817074788,4121
1576.4690083817595,3811
1578.5136733431923,3621
1580.5578122107272,3418
1582.601425236085,3455
1584.6445126710646,3247
1586.6870747675434,3084
1588.7291117774776,2970
1590.7706239529034,2796
1592.8116115459347,2745
1594.8520748087658,2651
1596.8920139936686,2621
1598.9314293529933,2481
1600.9703211391711,2460
1603.008689604711,2380
1605.0465350022005,2338
1607.0838575843068,2337
1609.1206576037753,2269
1611.1569353134305,2207
1613.1926909661765,2137
1615.2279248149953,2160
1617.2626371129481,2177
1619.2968281131757,2086
1621.3304980688963,2072
1623.3636472334088,1987
1625.39627586009,2007
1627.428384202396,1995
1629.459972513861,2001
1631.4910410480993,1993
1633.5215900588028,2031
1635.551619799744,2052
1637.5811305247717,1904
1639.6101224878166,1908
1641.6385959428862,1973
1643.6665511440683,1919
1645.693988345528,1890
1647.7209078015112,1861
1649.7473097663405,1858
1651.7731944944203,1920
1653.7985622402307,1893
1655.823413258333,1817
1657.847747803366,1873
1659.8715661300494,1871
1661.8948684931793,1847
1663.9176551476316,1877
1665.9399263483624,1857
1667.9616823504057,1856
1669.982923408873,1841
1672.0036497789574,1899
1674.0238617159293,1794
1676.043559475138,1813
1678.0627433120121,1892
1680.081413482059,1885
1682.0995702408654,1874
1684.117213844096,1836
1686.134344547495,1891
1688.1509626068864,1921
1690.1670682781705,1868
1692.182661817329,1909
1694.1977434804217,1893
1696.2123135235875,1904
1698.226372203043,1892
1700.2399197750851,1899
1702.2529564960905,1897
1704.2654826225112,1957
1706.277498410882,1853
1708.2890041178139,1851
1710.2999999999988,1828
1712.3104863142066,1879
1714.3204633172854,1842
1716.329931266163,1884
1718.3388904178469,1884
1720.3473410294214,1872
1722.3552833580516,1879
1724.3627176609807,1834
1726.3696441955308,1879
1728.3760632191033,1839
1730.3819749891782,1815
1732.3873797633146,1820
1734.3922777991502,1842
1736.3966693544012,1836
1738.4005546868639,1815
1740.4039340544127,1767
1742.406807715001,1865
1744.4091759266616,1836
1746.4110389475054,1807
1748.4123970357223,1834
1750.413250449582,1778
1752.4135994474318,1818
1754.4134442876993,1800
1756.4127852288902,1807
1758.4116225295893,1823
1760.4099564484595,1731
1762.407787244244,1773
1764.405115175764,1745
1766.4019405019203,1788
1768.3982634816916,1749
1770.3940843741357,1732
1772.3894034383907,1826
1774.3842209336717,1746
1776.378537119274,1764
1778.372352254571,1758
1780.3656665990156,1753
1782.3584804121397,1759
1784.3507939535534,1747
1786.3426074829463,1735
1788.3339212600863,1776
1790.3247355448211,1807
1792.3150505970766,1763
1794.3048666768573,1807
1796.2941840442477,1830
1798.2830029594106,1770
1800.2713236825884,1776
1802.2591464741004,1752
1804.2464715943465,1761
1806.2332993038058,1709
1808.2196298630352,1718
1810.2054635326708,1792
1812.190800573428,1787
1814.175641246101,1805
1816.1599858115628,1744
1818.1438345307652,1740
1820.127187664738,1742
1822.1100454745924,1803
1824.092408221516,1726
1826.0742761667766,1722
1828.055649571721,1761
1830.0365286977735,1760
1832.0169138064398,1835
1833.9968051593014,1805
1835.9762030180214,1729
1837.9551076443408,1800
1839.9335193000788,1719
1841.9114382471344,1771
1843.888864747485,1720
1845.8657990631878,1786
1847.842241456378,1732
1849.8181921892697,1739
1851.7936515241558,1778
1853.7686197234098,1751
1855.7430970494815,1718
1857.7170837649014,1766
1859.6905801322787,1758
1861.6635864143004,1742
1863.6361028737338,1748
1865.608129773424,1791
1867.5796673762961,1797
1869.5507159453537,1766
1871.521275743678,1774
1873.4913470344313,1766
1875.4609300808534,1744
1877.4300251462632,1781
1879.3986324940588,1789
1881.366752387717,1773
1883.3343850907936,1802
1885.3015308669228,1800
1887.268189979819,1850
1889.2343626932739,1801
1891.2000492711595,1857
1893.1652499774254,1824
1895.1299650761011,1816
1897.0941948312952,1789
1899.0579395071945,1835
1901.0211993680641,1837
1902.98397467825,1797
1904.9462657021745,1825
1906.9080727043415,1867
1908.869395949332,1773
1910.8302357018065,1767
1912.790592226504,1775
1914.7504657882428,1843
1916.7098566519212,1819
1918.6687650825133,1773
1920.6271913450764,1809
1922.5851357047422,1760
1924.5425984267245,1740
1926.499579776314,1777
1928.4560800188833,1785
1930.4120994198802,1828
1932.367638244833,1760
1934.32269675935,1866
1936.2772752291175,1820
1938.231373919899,1789
1940.1849930975404,1874
1942.1381330279637,1810
1944.0907939771696,1828
1946.0429762112412,1862
1947.9946799963363,1812
1949.9459055986945,1808
1951.896653284633,1868
1953.8469233205478,1793
1955.7967159729142,1821
1957.7460315082863,1845
1959.6948701932974,1836
1961.6432322946594,1814
1963.5911180791632,1831
1965.5385278136787,1815
1967.4854617651545,1737
1969.4319202006182,1861
1971.377903387176,1853
1973.3234115920136,1851
1975.268445082395,1812
1977.2130041256642,1823
1979.1570889892423,1756
1981.1006999406304,1753
1983.04383724741,1823
1984.986501177238,1787
1986.928691997853,1761
1988.8704099770712,1838
1990.811655382789,1825
1992.7524284829801,1777
1994.692729545698,1791
1996.6325588390755,1794
1998.5719166313224,1784
2000.5108031907307,1790
2002.4492187856677,1791
2004.387163684583,1811
2006.3246381560011,1754
2008.2616424685298,1762
2010.1981768908527,1826
2012.1342416917332,1754
2014.069837140014,1708
2016.0049635046162,1766
2017.9396210545406,1804
2019.8738100588666,1781
2021.8075307867502,1830
2023.740783507431,1794
2025.6735684902228,1822
2027.6058860045214,1708
2029.5377363198004,1743
2031.4691197056118,1716
2033.4000364315875,1788
2035.3304867674374,1746
2037.260470982952,1737
2039.189989347998,1767
2041.1190421325232,1793
2043.047629606554,1746
2044.9757520401945,1797
2046.9034097036288,1812
2048.8306028671195,1743
2050.7573318010086,1760
2052.683596775716,1764
2054.609398061742,1782
2056.5347359296647,1769
2058.4596106501403,1727
2060.384022493906,1838
2062.3079717317764,1802
2064.231458634646,1781
2066.1544834734873,1741
2068.077046519352,1770
2069.99914804337,1728
2071.9207883167524,1758
2073.8419676107865,1800
2075.7626861968406,1766
2077.6829443463607,1846
2079.6027423308715,1781
2081.522080421977,1779
2083.440958891362,1778
2085.359378010786,1786
2087.2773380520907,1779
2089.194839287196,1719
2091.111881988101,1753
2093.0284664268825,1814
2094.9445928756973,1788
2096.86026160678,1757
2098.775472892446,1780
2100.690227005088,1796
2102.604524217178,1793
2104.5183648012676,1726
2106.431749029985,1805
2108.34467717604,1816
2110.2571495122206,1821
2112.169166311393,1717
2114.080727846503,1794
2115.9918343905747,1790
2117.902486216711,1778
2119.8126835980956,1866
2121.722426807987,1704
2123.6317161197285,1808
2125.5405518067364,1842
2127.448934142509,1863
2129.356863400624,1750
2131.264339854737,1830
2133.1713637785815,1810
2135.077935445972,1804
2136.9840551308002,1805
2138.889723107037,1875
2140.7949396487334,1782
2142.699705030018,1815
2144.6040195250994,1832
2146.507883408264,1821
2148.4112969538774,1835
2150.3142604363848,1872
2152.2167741303097,1793
2154.1188383102535,1808
2156.0204532508997,1822
2157.9216192270064,1819
2159.822336513414,1767
2161.7226053850413,1745
2163.622426116884,1770
2165.5217989840185,1846
2167.4207242616,1765
2169.319202224862,1868
2171.2172331491165,1848
2173.1148173097563,1801
2175.0119549822507,1871
2176.90864644215,1800
2178.8048919650823,1828
2180.7006918267534,1915
2182.596046302952,1823
2184.4909556695407,1834
2186.3854202024645,1910
2188.279440177746,1761
2190.173015871487,1888
2192.066147559868,1825
2193.958835519149,1873
2195.851080025667,1774
2197.7428813558417,1858
2199.6342397861667,1912
2201.5251555932186,1858
2203.415629053651,1951
2205.3056604441986,1872
2207.19525004167,1872
2209.084398122958,1975
2210.9731049650327,1927
2212.861370844941,1914
2214.749196039812,1891
2216.636580826851,1896
2218.523525483344,1941
2220.410030286655,1863
2222.296095514226,1918
2224.1817214435805,1836
2226.066908352319,1909
2227.951656518121,1897
2229.835966218746,1970
2231.71983773203,1935
2233.6032713358913,1927
2235.486267308324,1898
2237.3688259274036,1877
2239.2509474712824,1886
2241.132632218193,1960
2243.013880446447,1842
2244.8946924344323,1841
2246.7750684606203,1841
2248.6550088035574,1847
2250.534513741871,1914
2252.413583554265,1835
2254.292218519526,1890
2256.170418916517,1848
2258.0481850241786,1841
2259.925517121534,1860
2261.8024154876825,1816
2263.678880401803,1846
2265.5549121431536,1877
2267.430510991071,1815
2269.305677224971,1892
2271.180411124348,1912
2273.0547129687766,1871
2274.9285830379076,1850
2276.8020216114737,1834
2278.6750289692845,1870
2280.5476053912294,1935
2282.4197511572766,1918
2284.2914665474727,1859
2286.162751841943,1848
2288.0336073208937,1879
2289.904033264608,1929
2291.774029953448,1923
2293.6435976678554,1827
2295.5127366883517,1900
2297.381447295534,1847
2299.2497297700825,1829
2301.1175843927526,1814
2302.9850114443825,1801
2304.852011205885,1778
2306.7185839582553,1738
2308.5847299825664,1751
2310.4504495599676,1727
2312.3157429716925,1733
2314.1806104990483,1718
2316.0450524234247,1752
2317.9090690262888,1687
2319.772660589186,1722
2321.635827393742,1666
2323.498569721661,1741
2325.3608878547248,1746
2327.2227820747967,1692
2329.0842526638157,1703
2330.945299903803,1661
2332.805924076857,1740
2334.6661254651535,1682
2336.525904350951,1718
2338.3852610165827,1721
2340.244195744464,1697
2342.102708817088,1693
2343.9608005170253,1708
2345.8184711269287,1694
2347.675720929526,1678
2349.532550207628,1731
2351.38895924412,1717
2353.24494832197,1689
2355.100517724223,1695
2356.955667734004,1717
2358.810398634514,1657
2360.664710709037,1744
2362.5186042409337,1739
2364.3720795136437,1733
2366.225136810686,1700
2368.0777764156583,1768
2369.929998612237,1746
2371.7818036841777,1731
2373.633191915315,1716
2375.484163589562,1727
2377.3347189909114,1721
2379.184858403434,1779
2381.03458211128,1763
2382.8838903986775,1778
2384.732783549936,1747
2386.5812618494406,1730
2388.4293255816588,1775
2390.2769750311327,1717
2392.1242104824883,1817
2393.971032220427,1795
2395.8174405297295,1732
2397.6634356952563,1773
2399.509018001947,1715
2401.3541877348193,1748
2403.1989451789705,1704
2405.043290619576,1765
2406.8872243418905,1717
2408.730746631247,1743
2410.5738577730594,1757
2412.4165580528183,1750
2414.258847756095,1718
2416.100727168537,1703
2417.9421965758734,1720
2419.783256263912,1748
2421.623906518538,1723
2423.4641476257157,1711
2425.303979871491,1764
2427.143403541984,1728
2428.9824189233977,1701
2430.821026302012,1733
2432.6592259641866,1682
2434.497018196361,1703
2436.33440328505,1685
2438.171381516851,1755
2440.00795317844,1755
2441.844118556569,1726
2443.6798779380724,1757
2445.5152316098606,1805
2447.3501798589255,1768
2449.1847229723357,1767
2451.0188612372403,1796
2452.8525949408663,1705
2454.6859243705203,1736
2456.518849813587,1711
2458.3513715575314,1759
2460.183489889895,1786
2462.015205098301,1712
2463.8465174704493,1698
2465.67742729412,1755
2467.5079348571717,1740
2469.338040447542,1734
2471.1677443532476,1759
2472.9970468623833,1723
2474.825948263123,1766
2476.6544488437207,1697
2478.482548892508,1740
2480.310248697896,1755
2482.137548548374,1785
2483.9644487325118,1816
2485.790949538956,1741
2487.617051256433,1756
2489.44275417375,1759
2491.26805857979,1802
2493.0929647635157,1813
2494.917473013971,1796
2496.741583620276,1796
2498.5652968716304,1730
2500.3886130573137,1778
2502.2115324666834,1736
2504.0340553891765,1812
2505.856182114308,1805
2507.6779129316733,1791
2509.499248130945,1775
2511.3201880018764,1786
2513.140732834298,1773
2514.9608829181198,1822
2516.780638543331,1865
2518.6,1753
2520.418967578273,1808
2522.237541568376,1781
2524.0557222606144,1828
2525.8735099453706,1894
2527.6909049131086,1865
2529.507907454368,1823
2531.32451785977,1838
2533.140736420014,1837
2534.9565634258774,1804
2536.771999168218,1835
2538.5870439379714,1896
2540.4016980261526,1908
2542.2159617238544,1853
2544.02983532225,1894
2545.8433191125914,1894
2547.656413386209,1895
2549.4691184345115,1884
2551.2814345489874,1868
2553.093362021204,1848
2554.904901142808,1908
2556.716052205523,1922
2558.526815501153,1990
2560.3371913215824,1921
2562.147179958771,1947
2563.956781704761,1996
2565.7659968516705,1928
2567.5748256916986,1968
2569.3832685171224,1892
2571.1913256202984,2027
2572.9989972936614,1944
2574.806283829725,1971
2576.613185521084,1974
2578.4197026604074,2019
2580.2258355404483,2006
2582.031584454035,2087
2583.836949694077,2077
2585.6419315535613,1990
2587.4465303255533,2051
2589.2507463032002,2184
2591.0545797797245,2075
2592.8580310484303,2185
2594.6611004026995,2146
2596.463788135992,2145
2598.266094541849,2093
2600.0680199138874,2082
2601.869564545807,2164
2603.670728731383,2088
2605.4715127644704,2144
2607.2719169390048,2135
2609.071941548998,2107
2610.8715868885433,2230
2612.670853251811,2196
2614.469740933052,2152
2616.268250226594,2144
2618.0663814268455,2097
2619.864134828292,2177
2621.6615107255006,2121
2623.458509413115,2157
2625.2551311858597,2068
2627.0513763385347,2119
2628.8472451660223,2150
2630.6427379632833,2140
2632.4378550253564,2121
2634.232596647359,2100
2636.026963124488,2017
2637.8209547520187,2010
2639.6145718253065,2056
2641.407814639785,2003
2643.200683490966,2040
2644.9931786744414,1992
2646.7853004858807,1981
2648.577049221034,1963
2650.3684251757277,1993
2652.1594286458712,1986
2653.9500599274484,1966
2655.740319316525,1945
2657.5302071092437,1970
2659.3197236018286,1936
2661.10886909058,1907
2662.8976438718782,1945
2664.686048242183,1928
2666.4740824980327,1897
2668.2617469360443,1806
2670.0490418529134,1907
2671.8359675454153,1877
2673.622524310403,1866
2675.408712444811,1869
2677.1945322456495,1898
2678.979984010009,1786
2680.76506803506,1901
2682.5497846180497,1824
2684.334134056306,1827
2686.1181166472343,1774
2687.9017326883213,1805
2689.6849824771293,1817
2691.4678663113013,1787
2693.2503844885596,1843
2695.032537306705,1811
2696.8143250636167,1796
2698.5957480572542,1792
2700.3768065856534,1689
2702.1575009469316,1796
2703.937831439283,1770
2705.717798360982,1780
2707.4974020103837,1772
2709.276642685917,1763
2711.055520686095,1730
2712.834036309506,1731
2714.612189854819,1724
2716.389981620782,1739
2718.1674119062204,1720
2719.944481010041,1676
2721.721189231226,1711
2723.4975368688415,1749
2725.273524222027,1714
2727.0491515900053,1712
2728.824419272075,1730
2730.5993275676146,1753
2732.3738767760838,1720
2734.148067197016,1664
2735.921899130031,1694
2737.6953728748194,1663
2739.468488731156,1677
2741.2412469988926,1658
2743.0136479779617,1714
2744.785691968372,1699
2746.5573792702116,1702
2748.3287101836504,1664
2750.099685008934,1684
2751.870304046388,1725
2753.640567596418,1712
2755.4104759595057,1729
2757.1800294362156,1707
2758.949228327187,1687
2760.7180729331412,1698
2762.486563554877,1687
2764.254700493272,1694
2766.022484049284,1683
2767.789914523947,1647
2769.5569922183786,1688
2771.3237174337705,1653
2773.090090471394,1642
2774.8561116326036,1674
2776.6217812188274,1675
2778.3870995315756,1639
2780.1520668724356,1672
2781.9166835430747,1715
2783.6809498452394,1722
2785.444866080754,1772
2787.2084325515225,1717
2788.971649559527,1700
2790.73451740683,1711
2792.4970363955713,1725
2794.2592068279705,1669
2796.0210290063264,1658
2797.7825032330147,1660
2799.543629810493,1638
2801.304409041296,1659
2803.0648412280366,1746
2804.8249266734088,1714
2806.5846656801846,1674
2808.344058551212,1750
2810.1031055894246,1661
2811.8618070978273,1744
2813.6201633795085,1701
2815.378174737636,1693
2817.1358414754536,1728
2818.893163896285,1657
2820.6501423035334,1665
2822.4067770006814,1741
2824.1630682912883,1710
2825.9190164789957,1737
2827.6746218675207,1731
2829.429884760661,1696
2831.184805462294,1734
2832.9393842763743,1764
2834.693621506936,1759
2836.4475174580916,1682
2838.201072434034,1697
2839.954286739034,1754
2841.707160677441,1745
2843.459694553685,1678
2845.2118886722724,1708
2846.96374333779,1729
2848.7152588549034,1717
2850.4664355283567,1686
2852.217273662973,1731
2853.9677735636546,1734
2855.7179355353833,1680
2857.4677598832186,1796
2859.217246912299,1726
2860.9663969278427,1700
2862.715210235146,1694
2864.4636871395846,1710
2866.211827946614,1706
2867.9596329617652,1777
2869.7071024906536,1732
2871.4542368389684,1715
2873.20103631248,1744
2874.947501217038,1722
2876.6936318585695,1703
2878.4394285430812,1715
2880.1848915766604,1710
2881.9300212654707,1700
2883.6748179157553,1669
2885.4192818338374,1759
2887.1634133261173,1684
2888.907212699077,1711
2890.6506802592744,1668
2892.393816313348,1756
2894.1366211680142,1754
2895.8790951300693,1709
2897.621238506388,1710
2899.363051603925,1675
2901.1045347297118,1652
2902.8456881908596,1701
2904.58651229456,1771
2906.327007348081,1747
2908.067173658772,1755
2909.8070115340597,1697
2911.5465212814497,1743
2913.285703208527,1691
2915.0245576229563,1737
2916.7630848324807,1656
2918.5012851449196,1639
2920.2391588681758,1657
2921.976706310227,1727
2923.7139277791334,1746
2925.4508235830313,1668
2927.187394030137,1637
2928.923639428745,1714
2930.6595600872306,1719
2932.395156314046,1655
2934.1304284177218,1723
2935.8653767068713,1743
2937.6000014901815,1754
2939.3343030764227,1723
2941.068281774442,1737
2942.8019378931644,1803
2944.5352717415976,1759
2946.2682836288236,1752
2948.0009738640065,1778
2949.7333427563885,1729
2951.465390615289,1759
2953.1971177501086,1770
2954.9285244703265,1673
2956.6596110855,1751
2958.3903779052657,1729
2960.1208252393385,1659
2961.8509533975125,1636
2963.5807626896617,1642
2965.3102534257378,1725
2967.0394259157715,1810
2968.768280469873,1806
2970.496817398232,1797
2972.2250370111146,1733
2973.952939618869,1739
2975.6805255319196,1728
2977.4077950607707,1769
2979.134748516006,1723
2980.861386208289,1807
2982.587708448359,1775
2984.313715547037,1707
2986.039407815222,1782
2987.764785563891,1782
2989.489849104102,1761
2991.2145987469908,1716
2992.9390348037705,1765
2994.6631575857346,1724
2996.3869674042576,1775
2998.1104645707887,1756
2999.83364939686,1772
3001.5565221940783,1715
3003.2790832741334,1678
3005.0013329487924,1727
3006.7232715298996,1729
3008.4448993293804,1711
3010.166216659239,1717
3011.887223831558,1679
3013.607921158498,1722
3015.3283089522993,1784
3017.0483875252826,1737
3018.7681571898443,1690
3020.4876182584626,1755
3022.2067710436927,1809
3023.9256158581707,1724
3025.644153014609,1733
3027.362382825801,1738
3029.0803056046193,1811
3030.797921664012,1725
3032.5152313170106,1743
3034.2322348767225,1734
3035.9489326563353,1746
3037.665324969115,1764
3039.3814121284063,1739
3041.097194447633,1766
3042.812672240299,1815
3044.5278458199855,1725
3046.2427155003525,1735
3047.9572815951406,1759
3049.671544418167,1733
3051.38550428333,1749
3053.0991615046073,1747
3054.812516396051,1805
3056.5255692717974,1745
3058.2383204460575,1734
3059.9507702331257,1655
3061.662918947372,1748
3063.3747669032446,1780
3065.0863144152736,1750
3066.7975617980674,1776
3068.508509366309,1820
3070.219157434767,1820
3071.9295063182844,1749
3073.639556331785,1719
3075.3493077902704,1785
3077.058761008821,1805
3078.7679163025964,1789
3080.476773986837,1808
3082.1853343768594,1799
3083.89359778806,1761
3085.6015645359153,1825
3087.3092349359786,1808
3089.016609303884,1801
3090.7236879553434,1763
3092.4304712061476,1798
3094.136959372166,1757
3095.843152769349,1814
3097.5490517137237,1794
3099.2546565213966,1815
3100.959967508554,1754
3102.66498499146,1835
3104.3697092864577,1862
3106.0741407099695,1767
3107.778279578498,1815
3109.482126208622,1865
3111.1856809170004,1824
3112.8889440203716,1747
3114.5919158355528,1804
3116.294596679439,1790
3117.996986869006,1708
3119.6990867213062,1740
3121.4008965534726,1821
3123.102416682717,1829
3124.803647426329,1829
3126.5045891016784,1838
3128.205242026213,1765
3129.90560651746,1775
3131.605682893025,1852
3133.3054714705922,1763
3135.0049725679282,1837
3136.7041865028714,1808
3138.4031135933465,1775
3140.101754157353,1806
3141.800108512971,1869
3143.498176978357,1785
3145.1959598717494,1798
3146.8934575114636,1764
3148.5906702158954,1812
3150.2875983035183,1772
3151.9842420928853,1763
3153.680601902627,1839
3155.376678051456,1804
3157.07247085816,1786
3158.767980641609,1733
3160.463207720748,1797
3162.158152414606,1798
3163.8528150422862,1774
3165.5471959229726,1774
3167.2412953759303,1801
3168.9351137204976,1733
3170.628651276098,1815
3172.3219083622307,1879
3174.014885298474,1811
3175.707582404485,1792
3177.4000000000005,1767
3179.092138404835,1769
3180.7839979388846,1804
3182.47557892212,1821
3184.166881674594,1797
3185.8579065164386,1760
3187.5486537678626,1793
3189.2391237491547,1763
3190.9293167806827,1863
3192.6192331828934,1823
3194.3088732763117,1770
3195.998237381542,1807
3197.687325819268,1804
3199.376138910251,1818
3201.064676975334,1790
3202.7529403354347,1793
3204.4409293115523,1771
3206.1286442247647,1733
3207.816085396229,1737
3209.5032531471825,1755
3211.190147798936,1725
3212.8767696728846,1803
3214.5631190905015,1753
3216.2491963733373,1775
3217.9350018430214,1757
3219.6205358212637,1723
3221.305798629851,1747
3222.990790590651,1707
3224.6755120256103,1731
3226.359963256751,1816
3228.0441446061795,1703
3229.7280563960758,1731
3231.411698948703,1710
3233.0950725863995,1804
3234.778177631587,1764
3236.461014406761,1823
3238.1435832345005,1830
3239.8258844374595,1811
3241.507918338374,1800
3243.1896852600576,1766
3244.8711855254023,1813
3246.552419457381,1710
3248.233387379042,1830
3249.914089613516,1853
3251.59452648401,1778
3253.274698313813,1725
3254.95460542629,1816
3256.6342481448855,1793
3258.313626793125,1741
3259.9927416946084,1778
3261.6715931730196,1754
3263.3501815521176,1708
3265.0285071557437,1738
3266.706570307815,1689
3268.3843713323286,1697
3270.0619105533615,1760
3271.739188295068,1752
3273.4162048816834,1757
3275.0929606375184,1816
3276.769455886966,1736
3278.445690954498,1799
3280.1216661646613,1750
3281.797381842087,1805
3283.4728383114807,1779
3285.1480358976296,1770
3286.8229749253996,1750
3288.4976557197333,1766
3290.172078605655,1710
3291.846243908266,1784
3293.5201519527463,1761
3295.193803064357,1777
3296.8671975684374,1786
3298.5403357904024,1719
3300.21321805575,1733
3301.8858446900567,1757
3303.558216018975,1771
3305.23033236824,1719
3306.9021940636603,1756
3308.57380143113,1787
3310.2451547966184,1743
3311.916254486174,1905
3313.5871008259246,1744
3315.2576941420766,1767
3316.9280347609147,1756
3318.5981230088046,1790
3320.2679592121895,1821
3321.9375436975924,1675
3323.606876791612,1745
3325.27595882093,1803
3326.944790112305,1823
3328.6133709925753,1731
3330.2817017886573,1760
3331.949782827547,1755
3333.617614436319,1730
3335.2851969421245,1759
3336.952530672199,1777
3338.619615953853,1831
3340.286453114475,1747
3341.9530424815357,1808
3343.619384382583,1770
3345.2854791452437,1764
3346.951327097224,1824
3348.6169285663073,1816
3350.2822838803577,1838
3351.947393367319,1732
3353.61225735521,1788
3355.2768761721345,1807
3356.9412501462693,1816
3358.605379605873,1814
3360.2692648792827,1768
3361.9329062949146,1799
3363.596304181263,1744
