CollectionTime,7/11/2024 11:41:35 AM
ExposureUsed,3
CalibratedSpectrum
-962.7078968117929,559
-959.9714848408522,563
-957.2358232597828,598
-954.5009119013725,589
-951.7667505983302,593
-949.0333391832855,614
-946.3006774887896,565
-943.5687653473143,570
-940.837602591253,587
-938.1071890529199,567
-935.3775245645503,598
-932.6486089583007,656
-929.9204420662485,644
-927.1930237203925,622
-924.4663537526524,626
-921.7404319948689,582
-919.0152582788041,639
-916.2908324361409,649
-913.5671542984834,614
-910.8442236973568,595
-908.1220404642074,609
-905.4006044304027,623
-902.679915427231,618
-899.959973285902,615
-897.2407778375464,592
-894.5223289132158,592
-891.8046263438832,574
-889.0876699604426,592
-886.3714595937089,603
-883.6559950744183,615
-880.9412762332282,585
-878.2273029007168,554
-875.5140749073835,584
-872.8015920836489,572
-870.0898542598545,553
-867.3788612662631,582
-864.6686129330585,602
-861.9591090903457,558
-859.2503495681506,537
-856.5423341964203,603
-853.8350628050229,600
-851.1285352237478,593
-848.4227512823054,592
-845.7177108103272,597
-843.0134136373656,571
-840.3098595928943,574
-837.6070485063082,594
-834.9049802069229,603
-832.2036545239757,568
-829.5030712866244,609
-826.8032303239481,611
-824.1041314649472,602
-821.4057745385428,603
-818.7081593735775,642
-816.0112857988148,617
-813.3151536429393,600
-810.6197627345566,577
-807.9251129021936,583
-805.2312039742981,589
-802.5380357792392,558
-799.8456081453069,590
-797.1539209007124,574
-794.462973873588,610
-791.772766891987,579
-789.083299783884,589
-786.3945723771743,580
-783.7065844996748,587
-781.0193359791231,611
-778.3328266431781,587
-775.6470563194197,627
-772.9620248353489,592
-770.2777320183878,612
-767.5941776958798,612
-764.9113616950891,644
-762.2292838432011,608
-759.5479439673222,615
-756.8673418944801,631
-754.1874774516235,598
-751.5083504656222,598
-748.8299607632671,650
-746.15230817127,610
-743.475392516264,633
-740.7992136248035,623
-738.1237713233636,652
-735.4490654383407,652
-732.7750957960521,637
-730.1018622227365,616
-727.4293645445534,626
-724.7576025875837,625
-722.0865761778291,626
-719.4162851412126,655
-716.7467293035781,657
-714.0779084906909,639
-711.409822528237,620
-708.7424712418238,606
-706.0758544569796,655
-703.4099719991541,677
-700.7448236937178,706
-698.0804093659622,670
-695.4167288411002,672
-692.7537819442656,629
-690.0915685005134,639
-687.4300883348199,630
-684.7693412720819,654
-682.1093271371178,636
-679.4500457546669,619
-676.7914969493897,637
-674.1336805458676,648
-671.4765963686034,684
-668.8202442420206,682
-666.1646239904642,649
-663.5097354382001,661
-660.8555784094151,654
-658.2021527282176,659
-655.5494582186366,645
-652.8974947046223,675
-650.2462620100463,694
-647.5957599587009,694
-644.9459883742998,689
-642.2969470804776,701
-639.6486359007902,723
-637.0010546587141,705
-634.3542031776476,709
-631.7080812809096,728
-629.0626887917401,686
-626.4180255333008,694
-623.7740913286734,723
-621.1308860008619,726
-618.4884093727904,693
-615.8466612673046,738
-613.2056415071715,711
-610.5653499150785,694
-607.9257863136347,689
-605.28695052537,710
-602.6488423727357,676
-600.0114616781036,689
-597.3748082637674,704
-594.7388819519412,779
-592.1036825647604,909
-589.4692099242818,816
-586.8354638524829,774
-584.2024441712624,762
-581.5701507024403,801
-578.9385832677575,812
-576.3077416888759,756
-573.6776257873787,722
-571.0482353847704,746
-568.4195703024757,807
-565.7916303618415,802
-563.164415384135,790
-560.5379251905453,779
-557.9121596021815,780
-555.2871184400748,734
-552.6628015251767,747
-550.0392086783606,796
-547.4163397204204,758
-544.794194472071,738
-542.1727727539491,801
-539.5520743866118,844
-536.9320991905377,868
-534.3128469861261,858
-531.6943175936979,885
-529.0765108334947,866
-526.4594265256793,899
-523.8430644903358,1033
-521.2274245474689,1141
-518.612506517005,1182
-515.9983102187913,1152
-513.3848354725959,1187
-510.77208209810846,1283
-508.16004991493924,1408
-505.5487387426199,1509
-502.9381484006032,1680
-500.3282787082628,1774
-497.71912948489364,1666
-495.1107005497117,1581
-492.5029917218539,1425
-489.8960028203786,1276
-487.28973366426493,1157
-484.68418407241325,1053
-482.07935386364494,973
-479.47524285670266,1000
-476.87185087025,981
-474.2691777228715,990
-471.66722323307334,926
-469.0659872192821,935
-466.4654694998459,937
-463.86566989303384,940
-461.26658821703614,957
-458.66822428996414,987
-456.07057792985,1012
-453.4736489546475,935
-450.877437182231,882
-448.28194243039627,931
-445.68716451686,900
-443.09310325926003,907
-440.49975847515555,872
-437.9071299820263,880
-435.31521759727354,965
-432.72402113821954,944
-430.13354042210767,1054
-427.5437752661022,990
-424.95472548728867,985
-422.36639090267386,1019
-419.7787713291855,1015
-417.1918665836721,1029
-414.60567648290385,1052
-412.0202008435715,1057
-409.4354394822874,1001
-406.8513922155845,1007
-404.26805885991723,1065
-401.685439231661,1081
-399.103533147112,1060
-396.522340422488,1051
-393.9418608739278,946
-391.3620943174908,982
-388.7830405691583,935
-386.2046994448317,908
-383.6270707603344,854
-381.05015433141045,846
-378.473949973725,803
-375.8984575028645,789
-373.32367673433623,699
-370.74960748356875,756
-368.1762495659117,715
-365.60360279663576,614
-363.03166699093265,597
-360.4604419639154,599
-357.8899275306178,578
-355.32012350599507,561
-352.7510297049233,540
-350.1826459421999,523
-347.61497203254316,520
-345.04800779059235,582
-342.4817530309082,574
-339.91620756797226,576
-337.35137121618743,646
-334.7872437898774,705
-332.22382510328725,695
-329.66111497058273,562
-327.09911320585127,527
-324.53781962310075,575
-321.9772340362607,583
-319.4173562591816,510
-316.8581861056348,524
-314.2997233893127,541
-311.7419679238294,571
-309.1849195227194,588
-306.62857799943856,596
-304.0729431673641,690
-301.51801483979375,654
-298.963792829947,638
-296.41027695096386,634
-293.85746701590574,638
-291.3053628377552,655
-288.7539642294155,680
-286.2032710037115,636
-283.65328297338897,676
-281.1039999511146,771
-278.5554217494762,698
-276.007548180983,630
-273.4603790580651,613
-270.9139141930734,605
-268.3681533982807,615
-265.8230964858798,621
-263.27874326798565,663
-260.7350935566336,692
-258.1921471637804,704
-255.6499039013039,697
-253.10836358100266,680
-250.56752601459698,661
-248.02739101372765,801
-245.48795838995704,821
-242.94922795476816,766
-240.41119951956557,790
-237.8738728956746,803
-235.33724789434166,745
-232.80132432673452,682
-230.2661020039418,674
-227.73158073697357,716
-225.19776033676033,784
-222.66464061415422,837
-220.1322213799284,794
-217.60050244477725,703
-215.06948361931552,768
-212.53916471408013,883
-210.00954553952818,850
-207.48062590603843,801
-204.9524056239104,814
-202.4248845033651,921
-199.8980623545441,976
-197.37193898751036,979
-194.84651421224817,937
-192.32178783866232,849
-189.79775967657952,888
-187.27442953574644,975
-184.7517972258321,1062
-182.2298625564256,1000
-179.7086253370378,977
-177.18808537710026,890
-174.66824248596583,1006
-172.14909647290835,1131
-169.6306471471229,934
-167.11289431772548,987
-164.59583779375328,1107
-162.07947738416453,1173
-159.5638128978386,1211
-157.04884414357605,1278
-154.53457093009854,1301
-152.02099306604828,1090
-149.50811035998936,969
-146.99592262040665,997
-144.48442965570587,1131
-141.97363127421409,1158
-139.46352728417958,1166
-136.95411749377126,1300
-134.44540171107985,1186
-131.93737974411636,1168
-129.43005140081357,1403
-126.92341648902493,1809
-124.41747481652521,2208
-121.91222619101006,2862
-119.40767042009657,2969
-116.90380731132257,3053
-114.40063667214702,3054
-111.8981583099503,2632
-109.3963720320337,1933
-106.89527764561933,2019
-104.39487495785067,2867
-101.89516377579241,5085
-99.39614390642998,6039
-96.89781515667039,5375
-94.40017733334128,4423
-91.90323024319173,6617
-89.40697369289148,10321
-86.91140748903172,11727
-84.41653143812482,10143
-81.92234534660395,7334
-79.42884902082358,8625
-76.93604226705907,18764
-74.4439248915071,31625
-71.95249670028534,39720
-69.46175749943245,39784
-66.97170709490854,35783
-64.48234529259423,29153
-61.99367189829195,21305
-59.50568671772464,15172
-57.01838955653636,14976
-54.53178022029283,14315
-52.045858514480074,12829
-49.560624244506016,13096
-47.07607721569923,14111
-44.59221723330904,12464
-42.10904410250669,11123
-39.62655762838392,10206
-37.14475761595372,11235
-34.66364387015028,12206
-32.18321619582866,14180
-29.70347439776515,16458
-27.224418280657005,17379
-24.74604764912317,20205
-22.26836230770266,31182
-19.7913620608565,59395
-17.315046712966478,65034
-14.83941606833514,65034
-12.36446993118659,65034
-9.89020810566592,65034
-7.416630395839093,65034
-4.94373660569363,65034
-2.471526539137585,65034
-6.821210263296962E-13,65034
2.47084320796705,65034
4.941003281093458,65034
7.410480415786196,65034
9.879274808531363,65034
12.347386655893956,65034
14.814816154518212,65034
17.28156350112681,65034
19.74762889252179,65034
22.21301252558385,32718
24.67771459727237,5746
27.141735304626195,4384
29.605074844762612,4596
32.06773341487792,3864
34.52971121224755,4098
36.99100843422559,4018
39.45162527824516,2750
41.91156194181792,2541
44.370818622535126,2414
46.82939551806646,2032
49.287292826160524,2639
51.74451074464503,3286
54.201049471426245,2834
56.65690920448981,2542
59.112090141899785,2381
61.56659248179983,1877
64.02041642241159,1761
66.4735621620365,1650
68.92602989905402,1734
71.37781983192338,1937
73.82893215918205,1942
76.27936707944684,2000
78.72912479141326,1710
81.17820549385567,2087
83.62660938562783,2317
86.07433666566146,1593
88.5213875329681,1248
90.96776218663751,1446
93.41346082583925,1341
95.85848364982041,1519
98.30283085790859,1554
100.7465026495089,1389
103.18949922410604,1528
105.63182078126385,1699
108.07346752062438,1506
110.51443964190923,995
112.95473734491827,1075
115.39436082953114,1254
117.83331029570547,1116
120.27158594347827,1188
122.7091879729652,1363
125.1461165843615,1381
127.58237197794062,1249
130.01795435405518,1069
132.4528639131364,1097
134.88710085569494,1325
137.32066538231982,1214
139.75355769367923,1148
142.1857779905207,1140
144.61732647366978,1089
147.04820334403132,1017
149.47840880258934,1121
151.90794305040674,1220
154.33680628862487,1506
156.76499871846443,1516
159.19252054122433,1602
161.61937195828352,1702
164.04555317109896,1791
166.47106438120693,2036
168.89590579022217,2131
171.320077599839,2417
173.7435800118302,2586
176.16641322804742,2661
178.58857745042144,2751
181.01007288096173,2879
183.43089972175687,2639
185.85105817497413,2648
188.27054844285988,2764
190.6893707277394,2686
193.10752523201643,2747
195.5250121581745,2640
197.9418317087751,2719
200.3579840864594,2873
202.7734694939469,2831
205.18828813403627,2818
207.6024402096051,3006
210.01592592360964,3008
212.42874547908548,2958
214.84089907914665,2873
217.2523869269868,2805
219.66320922587727,2897
222.0733661791695,2808
224.48285799029293,2824
226.8916848627572,2801
229.29984700014882,2781
231.7073446061355,2721
234.11417788446204,2757
236.520347038953,2844
238.92585227351185,2915
241.33069379212054,3010
243.73487179884035,3028
246.1383864978112,3004
248.541238093252,2923
250.9434267894609,2995
253.34495279081432,2922
255.74581630176783,2892
258.1460175268563,2925
260.54555667069314,2880
262.9444339379703,2747
265.3426495334594,2809
267.7402036620107,2879
270.1370965285529,2822
272.53332833809407,2819
274.9288992957214,2715
277.32380960660055,2641
279.718059475976,2667
282.1116491091717,2635
284.5045787115897,2620
286.89684848871195,2624
289.2884586460981,2618
291.67940938938807,2635
294.0697009242996,2713
296.4593334566299,2649
298.84830719225477,2602
301.23662233712923,2540
303.6242790972866,2575
306.01127767884,2508
308.39761828798066,2472
310.78330113097934,2469
313.16832641418534,2393
315.5526943440269,2309
317.9364051270112,2389
320.3194589697242,2403
322.70185607883093,2417
325.0835966610754,2364
327.4646809232805,2402
329.8451090723478,2318
332.2248813152577,2336
334.6039978590701,2297
336.9824589109231,2254
339.36026467803447,2229
341.7374153677,2262
344.113911187295,2206
346.48975234427337,2150
348.8649390461686,2233
351.2394715005918,2270
353.61334991523415,2246
355.9865744978655,2257
358.35914545633375,2214
360.73106299856715,2273
363.10232733257146,2238
365.47293866643247,2166
367.84289720831396,2070
370.2122031664593,2085
372.5808567491905,2145
374.9488581649083,2109
377.31620762209275,2087
379.6829053293021,2088
382.0489514951745,2026
384.4143463284262,2045
386.7790900378528,2159
389.14318283232853,2154
391.50662492080653,2062
393.86941651231916,2023
396.23155781597745,2090
398.5930490409713,2083
400.9538903965696,2135
403.3140820921202,2159
405.6736243370498,2090
408.03251734086336,2095
410.3907613131465,1993
412.74835646356166,2024
415.10530300185144,2040
417.4616011378372,1985
419.81725108141893,2015
422.1722530425758,1944
424.5266072313656,1902
426.880313857925,1946
429.2333731324701,2012
431.58578526529516,1993
433.9375504667738,1958
436.2886689473588,2009
438.63914091758113,1946
440.9889665880513,1944
443.33814616945835,1988
445.68667987257015,1993
448.03456790823395,1902
450.3818104873759,1944
452.72840782100013,1946
455.07436012019105,1856
457.41966759611057,1900
459.7643304600007,1963
462.10834892318155,1969
464.4517231970525,1944
466.79445349309174,1882
469.1365400228566,1995
471.4779829979826,1979
473.81878263018564,1984
476.15893913125876,1969
478.4984527130747,1964
480.8373235875855,2036
483.17555196682144,2093
485.5131380628919,2219
487.8500820879857,2383
490.1863842543697,2406
492.52204477439034,2722
494.8570638604725,3063
497.1914417251204,3399
499.52517858091653,3595
501.85827464052306,3620
504.19073011668036,3639
506.5225452222086,3496
508.85372017000566,3377
511.18425517304956,3364
513.514150444396,3537
515.8434061971808,4363
518.1720226446176,4948
520.4999999999999,4915
522.8273384766991,4510
525.1540382881666,4141
527.480099647932,3798
529.8055227696037,3172
532.1303078668694,2533
534.454455153496,2269
536.777964843328,2284
539.1008371502907,2075
541.4230722883866,2107
543.744670471698,2080
546.0656319143858,2100
548.3859568306899,2108
550.7056454349294,2067
553.0246979415016,2057
555.3431145648834,1947
557.6608955196306,1978
559.978041020377,1977
562.2945512818363,1940
564.6104265188006,1984
566.9256669461412,2003
569.2402727788082,2040
571.5542442318302,1964
573.8675815203156,1990
576.1802848594508,2040
578.4923544645015,2065
580.8037905508126,2090
583.114593333807,2056
585.4247630289875,2002
587.7342998519354,2039
590.0432040183106,2056
592.3514757438526,2015
594.6591152443794,2042
596.9661227357875,2067
599.2724984340531,2026
601.578242555231,2053
603.8833553154542,1983
606.1878369309362,1994
608.4916876179676,1986
610.7949075929192,2085
613.0974970722403,2026
615.3994562724587,2016
617.7007854101818,1943
620.0014847020951,2042
622.3015543649641,2020
624.6009946156324,2055
626.8998056710224,2031
629.1979877481361,2041
631.4955410640538,1961
633.7924658359349,1937
636.0887622810175,2020
638.3844306166192,2026
640.6794710601358,2052
642.9738838290426,2073
645.2676691408932,1994
647.5608272133207,2027
649.853358264037,2091
652.1452625108324,2069
654.4365401715764,2071
656.7271914642178,2093
659.0172166067838,2049
661.3066158173809,2112
663.5953893141935,2046
665.8835373154867,2077
668.1710600396028,2017
670.4579577049639,2004
672.7442305300709,2022
675.0298787335033,2130
677.3149025339197,2034
679.599302150058,1991
681.8830778007342,2002
684.1662297048437,2063
686.4487580813608,2091
688.7306631493387,2048
691.0119451279091,2087
693.2926042362834,2049
695.5726406937516,2079
697.8520547196814,2060
700.1308465335215,2028
702.4090163547982,2006
704.6865644031171,2041
706.9634908981619,2084
709.2397960596965,2132
711.5154801075631,2101
713.7905432616823,2088
716.0649857420548,2144
718.3388077687592,2041
720.612009561953,2021
722.8845913418733,2034
725.1565533288352,2006
727.427895743234,2025
729.6986188055427,2040
731.9687227363137,2086
734.238207756178,1997
736.5070740858458,2045
738.7753219461066,1977
741.0429515578281,2016
743.3099631419569,2027
745.5763569195191,2038
747.8421331116193,2031
750.1072919394409,1977
752.3718336242467,1980
754.6357583873777,2062
756.8990664502545,2005
759.1617580343765,2107
761.423833361321,2034
763.6852926527457,2083
765.9461361303862,2080
768.206364016058,2036
770.4659765316536,2027
772.7249738991469,2079
774.9833563405886,2026
777.2411240781092,2032
779.4982773339183,2069
781.7548163303044,2117
784.010741289634,2033
786.2660524343538,2168
788.5207499869881,2136
790.7748341701416,2077
793.0283052064964,2140
795.2811633188143,2026
797.5334087299362,2108
799.7850416627813,2022
802.0360623403484,2134
804.2864709857143,2084
806.5362678220353,2100
808.7854530725468,2121
811.0340269605625,2069
813.2819897094754,2007
815.5293415427581,2046
817.77608268396,2176
820.0222133567116,2182
822.2677337847211,2071
824.5126441917765,2124
826.7569448017433,2138
829.0006358385675,1990
831.2437175262731,2106
833.4861900889629,2011
835.7280537508192,2077
837.9693087361026,2070
840.2099552691533,2098
842.4499935743896,2055
844.689423876309,2073
846.9282463994886,2049
849.1664613685833,2115
851.4040690083276,2073
853.6410695435349,2066
855.877463199097,2066
858.1132501999847,2104
860.3484307712487,2051
862.5830051380175,2026
864.8169735254988,2082
867.0503361589791,2108
869.2830932638243,2131
871.5152450654786,2102
873.7467917894654,2099
875.9777336613873,2101
878.2080709069252,2048
880.4378037518389,2039
882.666932421968,2155
884.8954571432301,2150
887.1233781416219,2175
889.3506956432192,2192
891.5774098741766,2172
893.803521060728,2058
896.0290294291852,2100
898.2539352059397,2083
900.4782386174619,2186
902.7019398903011,2215
904.925039251085,2182
907.147536926521,2178
909.3694331433943,2105
911.59072812857,2097
913.8114221089921,2145
916.0315153116827,2117
918.2510079637437,2093
920.4699002923547,2143
922.6881925247761,2050
924.905884888345,2058
927.1229776104793,2005
929.3394709186747,2061
931.555365040506,2069
933.7706602036275,2013
935.9853566357709,2029
938.1994545647489,2127
940.4129542184515,2130
942.6258558248488,1978
944.8381596119883,2041
947.0498658079974,1997
949.2609746410825,2016
951.4714863395287,1992
953.6814011316998,2043
955.8907192460387,1966
958.0994409110671,1998
960.3075663553858,2038
962.5150958076741,2036
964.7220294966913,1989
966.928367651274,2034
969.1341105003388,1994
971.3392582728806,1941
973.5438111979742,2004
975.747769504772,1959
977.9511334225061,1941
980.153903180487,1936
982.3560790081052,1916
984.5576611348289,1964
986.7586497902058,1935
988.9590452038618,1901
991.158847605503,1900
993.3580572249133,1920
995.5566742919558,1837
997.7546990365728,1843
999.952131688785,1849
1002.1489724786926,1809
1004.3452216364743,1803
1006.5408793923874,1764
1008.7359459767691,1732
1010.9304216200343,1740
1013.1243065526781,1732
1015.3176010052733,1698
1017.510305208472,1677
1019.7024193930064,1672
1021.8939437896848,1708
1024.0848786293977,1698
1026.2752241431122,1715
1028.4649805618747,1730
1030.6541481168115,1716
1032.842727039127,1665
1035.0307175601051,1597
1037.2181199111074,1756
1039.4049343235752,1670
1041.591161029029,1708
1043.7768002590683,1640
1045.9618522453698,1668
1048.1463172196918,1571
1050.3301954138697,1647
1052.513487059818,1705
1054.69619238953,1629
1056.8783116350783,1666
1059.0598450286152,1687
1061.2407928023704,1678
1063.4211551886528,1671
1065.6009324198508,1674
1067.780124728432,1684
1069.9587323469414,1607
1072.1367555080046,1612
1074.314194444325,1653
1076.4910493886855,1686
1078.667320573947,1570
1080.843008233051,1550
1083.0181125990161,1581
1085.1926339049414,1579
1087.3665723840027,1593
1089.5399282694575,1472
1091.7127017946405,1547
1093.8848931929647,1556
1096.0565026979243,1595
1098.2275305430899,1597
1100.3979769621128,1564
1102.567842188722,1510
1104.737126456726,1522
1106.9058300000124,1496
1109.0739530525475,1509
1111.2414958483764,1485
1113.4084586216231,1515
1115.5748416064907,1531
1117.7406450372605,1488
1119.9058691482942,1547
1122.0705141740304,1542
1124.2345803489884,1537
1126.3980679077658,1511
1128.5609770850388,1574
1130.7233081155623,1533
1132.8850612341707,1532
1135.0462366757774,1495
1137.2068346753745,1507
1139.3668554680326,1476
1141.526299288901,1536
1143.68516637321,1541
1145.8434569562655,1452
1148.001171273455,1572
1150.158309560244,1512
1152.3148720521767,1533
1154.470858984876,1501
1156.626270594044,1513
1158.7811071154629,1464
1160.9353687849912,1494
1163.089055838569,1465
1165.242168512213,1421
1167.3947070420209,1454
1169.5466716641677,1486
1171.6980626149075,1438
1173.8488801305748,1448
1175.9991244475814,1535
1178.1487958024186,1500
1180.2978944316555,1413
1182.4464205719428,1456
1184.5943744600072,1480
1186.7417563326567,1490
1188.8885664267755,1444
1191.0348049793297,1449
1193.1804722273619,1449
1195.325568407995,1472
1197.4700937584303,1475
1199.614048515948,1493
1201.7574329179074,1416
1203.900247201746,1492
1206.042491604982,1485
1208.1841663652099,1491
1210.3252717201053,1497
1212.465807907422,1515
1214.6057751649923,1515
1216.7451737307279,1548
1218.8840038426192,1524
1221.0222657387353,1486
1223.1599596572241,1457
1225.2970858363137,1500
1227.4336445143094,1477
1229.5696359295966,1476
1231.705060320639,1562
1233.8399179259786,1477
1235.9742089842384,1479
1238.107933734118,1550
1240.2410924143974,1472
1242.373685263935,1563
1244.5057125216676,1486
1246.6371744266116,1483
1248.7680712178621,1524
1250.898403134593,1483
1253.028170416058,1503
1255.1573733015875,1453
1257.2860120305932,1518
1259.4140868425648,1544
1261.54159797707,1497
1263.6685456737569,1514
1265.7949301723515,1549
1267.9207517126597,1548
1270.046010534565,1551
1272.1707068780306,1588
1274.2948409830983,1624
1276.4184130898889,1550
1278.541423438603,1592
1280.6638722695184,1579
1282.785759822993,1523
1284.9070863394636,1518
1287.0278520594447,1570
1289.1480572235314,1560
1291.2677020723963,1557
1293.3867868467923,1582
1295.5053117875495,1521
1297.623277135579,1516
1299.740683131868,1592
1301.8575300174857,1640
1303.973818033578,1637
1306.0895474213703,1672
1308.2047184221678,1638
1310.3193312773528,1605
1312.4333862283888,1580
1314.5468835168163,1575
1316.659823384255,1667
1318.7722060724045,1622
1320.8840318230418,1540
1322.9953008780249,1585
1325.1060134792888,1603
1327.2161698688478,1554
1329.3257702887959,1618
1331.4348149813054,1529
1333.5433041886276,1613
1335.6512381530933,1545
1337.7586171171101,1565
1339.8654413231675,1528
1341.9717110138317,1633
1344.0774264317488,1592
1346.1825878196432,1582
1348.2871954203192,1573
1350.3912494766587,1598
1352.4947502316231,1549
1354.5976979282532,1611
1356.7000928096686,1572
1358.8019351190665,1561
1360.9032250997243,1586
1363.0039629949988,1579
1365.1041490483235,1549
1367.2037835032133,1553
1369.3028666032606,1583
1371.401398592137,1567
1373.4993797135926,1614
1375.5968102114575,1587
1377.6936903296396,1598
1379.7900203121262,1530
1381.8858004029835,1565
1383.9810308463561,1570
1386.075711886469,1553
1388.1698437676241,1669
1390.2634267342032,1620
1392.356461030667,1640
1394.4489469015557,1581
1396.5408845914872,1606
1398.6322743451592,1655
1400.7231164073469,1636
1402.813411022907,1662
1404.903158436773,1678
1406.9923588939578,1723
1409.0810126395531,1670
1411.1691199187303,1665
1413.2566809767386,1622
1415.343696058907,1657
1417.4301654106425,1658
1419.5160892774315,1734
1421.6014679048399,1764
1423.6863015385125,1728
1425.7705904241707,1713
1427.8543348076178,1737
1429.9375349347342,1815
1432.0201910514802,1724
1434.102303403894,1724
1436.1838722380944,1694
1438.2648978002767,1733
1440.3453803367174,1837
1442.4253200937692,1780
1444.5047173178677,1781
1446.5835722555234,1810
1448.6618851533285,1857
1450.739656257952,1862
1452.8168858161434,1903
1454.8935740747306,1851
1456.96972128062,1913
1459.045327680797,1890
1461.120393522327,1904
1463.1949190523528,1930
1465.2689045180973,1988
1467.3423501668608,2018
1469.415256246024,2084
1471.4876230030463,2033
1473.559450685465,2134
1475.6307395408976,2120
1477.7014898170391,2122
1479.771701761665,2178
1481.8413756226287,2109
1483.9105116478618,2216
1485.9791100853772,2209
1488.0471711832643,2212
1490.1146951896926,2301
1492.1816823529098,2313
1494.2481329212433,2355
1496.3140471430984,2353
1498.3794252669609,2355
1500.4442675413939,2402
1502.5085742150404,2391
1504.572345536622,2532
1506.6355817549388,2382
1508.6982831188702,2521
1510.7604498773744,2526
1512.8220822794883,2537
1514.8831805743293,2588
1516.9437450110909,2632
1519.003775839048,2644
1521.0632733075522,2587
1523.1222376660367,2699
1525.1806691640113,2766
1527.2385680510652,2764
1529.2959345768668,2799
1531.3527689911643,2847
1533.4090715437833,2901
1535.4648424846291,2908
1537.5200820636855,2954
1539.5747905310159,2934
1541.6289681367616,2986
1543.6826151311434,3026
1545.7357317644614,3070
1547.7883182870937,3062
1549.8403749494987,3107
1551.8919020022113,3316
1553.9428996958477,3273
1555.9933682811015,3288
1558.0433080087469,3300
1560.0927191296346,3383
1562.1416018946961,3451
1564.1899565549415,3399
1566.2377833614592,3358
1568.2850825654164,3212
1570.3318544180606,3162
1572.3780991707158,3099
1574.423817074788,2961
1576.4690083817595,2876
1578.5136733431923,2770
1580.5578122107272,2684
1582.601425236085,2538
1584.6445126710646,2468
1586.6870747675434,2351
1588.7291117774776,2297
1590.7706239529034,2212
1592.8116115459347,2212
1594.8520748087658,2174
1596.8920139936686,1950
1598.9314293529933,1974
1600.9703211391711,1992
1603.008689604711,1936
1605.0465350022005,1905
1607.0838575843068,1850
1609.1206576037753,1866
1611.1569353134305,1843
1613.1926909661765,1767
1615.2279248149953,1744
1617.2626371129481,1706
1619.2968281131757,1721
1621.3304980688963,1705
1623.3636472334088,1687
1625.39627586009,1669
1627.428384202396,1675
1629.459972513861,1725
1631.4910410480993,1666
1633.5215900588028,1658
1635.551619799744,1622
1637.5811305247717,1617
1639.6101224878166,1704
1641.6385959428862,1649
1643.6665511440683,1531
1645.693988345528,1535
1647.7209078015112,1551
1649.7473097663405,1620
1651.7731944944203,1568
1653.7985622402307,1556
1655.823413258333,1545
1657.847747803366,1527
1659.8715661300494,1550
1661.8948684931793,1544
1663.9176551476316,1561
1665.9399263483624,1597
1667.9616823504057,1591
1669.982923408873,1577
1672.0036497789574,1605
1674.0238617159293,1529
1676.043559475138,1537
1678.0627433120121,1545
1680.081413482059,1569
1682.0995702408654,1513
1684.117213844096,1584
1686.134344547495,1531
1688.1509626068864,1559
1690.1670682781705,1608
1692.182661817329,1574
1694.1977434804217,1523
1696.2123135235875,1599
1698.226372203043,1587
1700.2399197750851,1574
1702.2529564960905,1597
1704.2654826225112,1593
1706.277498410882,1595
1708.2890041178139,1519
1710.2999999999988,1539
1712.3104863142066,1514
1714.3204633172854,1574
1716.329931266163,1542
1718.3388904178469,1522
1720.3473410294214,1592
1722.3552833580516,1509
1724.3627176609807,1533
1726.3696441955308,1607
1728.3760632191033,1538
1730.3819749891782,1464
1732.3873797633146,1478
1734.3922777991502,1546
1736.3966693544012,1464
1738.4005546868639,1478
1740.4039340544127,1533
1742.406807715001,1440
1744.4091759266616,1520
1746.4110389475054,1527
1748.4123970357223,1488
1750.413250449582,1495
1752.4135994474318,1523
1754.4134442876993,1519
1756.4127852288902,1434
1758.4116225295893,1475
1760.4099564484595,1437
1762.407787244244,1455
1764.405115175764,1476
1766.4019405019203,1418
1768.3982634816916,1468
1770.3940843741357,1510
1772.3894034383907,1458
1774.3842209336717,1444
1776.378537119274,1458
1778.372352254571,1489
1780.3656665990156,1449
1782.3584804121397,1402
1784.3507939535534,1416
1786.3426074829463,1489
1788.3339212600863,1441
1790.3247355448211,1463
1792.3150505970766,1518
1794.3048666768573,1492
1796.2941840442477,1533
1798.2830029594106,1482
1800.2713236825884,1425
1802.2591464741004,1451
1804.2464715943465,1493
1806.2332993038058,1405
1808.2196298630352,1430
1810.2054635326708,1447
1812.190800573428,1434
1814.175641246101,1442
1816.1599858115628,1451
1818.1438345307652,1465
1820.127187664738,1435
1822.1100454745924,1425
1824.092408221516,1413
1826.0742761667766,1477
1828.055649571721,1444
1830.0365286977735,1474
1832.0169138064398,1453
1833.9968051593014,1439
1835.9762030180214,1476
1837.9551076443408,1524
1839.9335193000788,1493
1841.9114382471344,1466
1843.888864747485,1484
1845.8657990631878,1414
1847.842241456378,1429
1849.8181921892697,1407
1851.7936515241558,1444
1853.7686197234098,1418
1855.7430970494815,1469
1857.7170837649014,1401
1859.6905801322787,1405
1861.6635864143004,1446
1863.6361028737338,1449
1865.608129773424,1486
1867.5796673762961,1456
1869.5507159453537,1440
1871.521275743678,1451
1873.4913470344313,1402
1875.4609300808534,1479
1877.4300251462632,1444
1879.3986324940588,1489
1881.366752387717,1422
1883.3343850907936,1480
1885.3015308669228,1461
1887.268189979819,1417
1889.2343626932739,1441
1891.2000492711595,1461
1893.1652499774254,1446
1895.1299650761011,1485
1897.0941948312952,1428
1899.0579395071945,1455
1901.0211993680641,1474
1902.98397467825,1444
1904.9462657021745,1476
1906.9080727043415,1437
1908.869395949332,1475
1910.8302357018065,1473
1912.790592226504,1454
1914.7504657882428,1458
1916.7098566519212,1433
1918.6687650825133,1466
1920.6271913450764,1375
1922.5851357047422,1447
1924.5425984267245,1465
1926.499579776314,1507
1928.4560800188833,1478
1930.4120994198802,1535
1932.367638244833,1553
1934.32269675935,1461
1936.2772752291175,1465
1938.231373919899,1481
1940.1849930975404,1502
1942.1381330279637,1468
1944.0907939771696,1532
1946.0429762112412,1423
1947.9946799963363,1464
1949.9459055986945,1447
1951.896653284633,1487
1953.8469233205478,1423
1955.7967159729142,1412
1957.7460315082863,1473
1959.6948701932974,1503
1961.6432322946594,1476
1963.5911180791632,1437
1965.5385278136787,1454
1967.4854617651545,1474
1969.4319202006182,1435
1971.377903387176,1530
1973.3234115920136,1457
1975.268445082395,1430
1977.2130041256642,1432
1979.1570889892423,1468
1981.1006999406304,1448
1983.04383724741,1439
1984.986501177238,1530
1986.928691997853,1446
1988.8704099770712,1464
1990.811655382789,1449
1992.7524284829801,1432
1994.692729545698,1455
1996.6325588390755,1486
1998.5719166313224,1459
2000.5108031907307,1482
2002.4492187856677,1468
2004.387163684583,1490
2006.3246381560011,1447
2008.2616424685298,1462
2010.1981768908527,1451
2012.1342416917332,1519
2014.069837140014,1503
2016.0049635046162,1432
2017.9396210545406,1405
2019.8738100588666,1410
2021.8075307867502,1421
2023.740783507431,1468
2025.6735684902228,1420
2027.6058860045214,1460
2029.5377363198004,1362
2031.4691197056118,1469
2033.4000364315875,1426
2035.3304867674374,1433
2037.260470982952,1414
2039.189989347998,1473
2041.1190421325232,1427
2043.047629606554,1416
2044.9757520401945,1455
2046.9034097036288,1458
2048.8306028671195,1462
2050.7573318010086,1418
2052.683596775716,1477
2054.609398061742,1424
2056.5347359296647,1458
2058.4596106501403,1452
2060.384022493906,1445
2062.3079717317764,1432
2064.231458634646,1446
2066.1544834734873,1401
2068.077046519352,1437
2069.99914804337,1421
2071.9207883167524,1443
2073.8419676107865,1432
2075.7626861968406,1421
2077.6829443463607,1405
2079.6027423308715,1448
2081.522080421977,1448
2083.440958891362,1409
2085.359378010786,1442
2087.2773380520907,1462
2089.194839287196,1434
2091.111881988101,1392
2093.0284664268825,1406
2094.9445928756973,1368
2096.86026160678,1426
2098.775472892446,1370
2100.690227005088,1433
2102.604524217178,1408
2104.5183648012676,1425
2106.431749029985,1379
2108.34467717604,1389
2110.2571495122206,1370
2112.169166311393,1446
2114.080727846503,1348
2115.9918343905747,1408
2117.902486216711,1452
2119.8126835980956,1483
2121.722426807987,1414
2123.6317161197285,1394
2125.5405518067364,1413
2127.448934142509,1407
2129.356863400624,1381
2131.264339854737,1458
2133.1713637785815,1485
2135.077935445972,1448
2136.9840551308002,1492
2138.889723107037,1462
2140.7949396487334,1495
2142.699705030018,1517
2144.6040195250994,1448
2146.507883408264,1466
2148.4112969538774,1462
2150.3142604363848,1442
2152.2167741303097,1440
2154.1188383102535,1430
2156.0204532508997,1469
2157.9216192270064,1458
2159.822336513414,1460
2161.7226053850413,1501
2163.622426116884,1544
2165.5217989840185,1446
2167.4207242616,1479
2169.319202224862,1471
2171.2172331491165,1525
2173.1148173097563,1496
2175.0119549822507,1479
2176.90864644215,1493
2178.8048919650823,1480
2180.7006918267534,1500
2182.596046302952,1458
2184.4909556695407,1441
2186.3854202024645,1471
2188.279440177746,1516
2190.173015871487,1538
2192.066147559868,1539
2193.958835519149,1499
2195.851080025667,1467
2197.7428813558417,1490
2199.6342397861667,1525
2201.5251555932186,1532
2203.415629053651,1539
2205.3056604441986,1557
2207.19525004167,1547
2209.084398122958,1516
2210.9731049650327,1501
2212.861370844941,1554
2214.749196039812,1607
2216.636580826851,1561
2218.523525483344,1567
2220.410030286655,1551
2222.296095514226,1518
2224.1817214435805,1573
2226.066908352319,1540
2227.951656518121,1503
2229.835966218746,1528
2231.71983773203,1523
2233.6032713358913,1600
2235.486267308324,1518
2237.3688259274036,1550
2239.2509474712824,1533
2241.132632218193,1598
2243.013880446447,1564
2244.8946924344323,1567
2246.7750684606203,1556
2248.6550088035574,1565
2250.534513741871,1552
2252.413583554265,1550
2254.292218519526,1544
2256.170418916517,1564
2258.0481850241786,1599
2259.925517121534,1550
2261.8024154876825,1511
2263.678880401803,1521
2265.5549121431536,1573
2267.430510991071,1522
2269.305677224971,1457
2271.180411124348,1513
2273.0547129687766,1514
2274.9285830379076,1483
2276.8020216114737,1562
2278.6750289692845,1552
2280.5476053912294,1559
2282.4197511572766,1575
2284.2914665474727,1547
2286.162751841943,1645
2288.0336073208937,1579
2289.904033264608,1588
2291.774029953448,1530
2293.6435976678554,1607
2295.5127366883517,1513
2297.381447295534,1461
2299.2497297700825,1485
2301.1175843927526,1451
2302.9850114443825,1450
2304.852011205885,1376
2306.7185839582553,1394
2308.5847299825664,1347
2310.4504495599676,1391
2312.3157429716925,1356
2314.1806104990483,1326
2316.0450524234247,1333
2317.9090690262888,1311
2319.772660589186,1271
2321.635827393742,1331
2323.498569721661,1357
2325.3608878547248,1252
2327.2227820747967,1350
2329.0842526638157,1344
2330.945299903803,1311
2332.805924076857,1301
2334.6661254651535,1238
2336.525904350951,1287
2338.3852610165827,1323
2340.244195744464,1287
2342.102708817088,1305
2343.9608005170253,1324
2345.8184711269287,1285
2347.675720929526,1258
2349.532550207628,1288
2351.38895924412,1326
2353.24494832197,1370
2355.100517724223,1326
2356.955667734004,1313
2358.810398634514,1327
2360.664710709037,1261
2362.5186042409337,1318
2364.3720795136437,1306
2366.225136810686,1316
2368.0777764156583,1286
2369.929998612237,1343
2371.7818036841777,1302
2373.633191915315,1327
2375.484163589562,1297
2377.3347189909114,1387
2379.184858403434,1350
2381.03458211128,1356
2382.8838903986775,1298
2384.732783549936,1345
2386.5812618494406,1351
2388.4293255816588,1385
2390.2769750311327,1342
2392.1242104824883,1289
2393.971032220427,1350
2395.8174405297295,1365
2397.6634356952563,1341
2399.509018001947,1327
2401.3541877348193,1349
2403.1989451789705,1390
2405.043290619576,1338
2406.8872243418905,1320
2408.730746631247,1340
2410.5738577730594,1284
2412.4165580528183,1335
2414.258847756095,1330
2416.100727168537,1340
2417.9421965758734,1347
2419.783256263912,1357
2421.623906518538,1327
2423.4641476257157,1333
2425.303979871491,1404
2427.143403541984,1349
2428.9824189233977,1328
2430.821026302012,1338
2432.6592259641866,1310
2434.497018196361,1269
2436.33440328505,1316
2438.171381516851,1358
2440.00795317844,1350
2441.844118556569,1388
2443.6798779380724,1330
2445.5152316098606,1361
2447.3501798589255,1309
2449.1847229723357,1364
2451.0188612372403,1300
2452.8525949408663,1320
2454.6859243705203,1300
2456.518849813587,1319
2458.3513715575314,1374
2460.183489889895,1337
2462.015205098301,1353
2463.8465174704493,1326
2465.67742729412,1339
2467.5079348571717,1319
2469.338040447542,1344
2471.1677443532476,1374
2472.9970468623833,1367
2474.825948263123,1319
2476.6544488437207,1351
2478.482548892508,1334
2480.310248697896,1362
2482.137548548374,1283
2483.9644487325118,1384
2485.790949538956,1398
2487.617051256433,1326
2489.44275417375,1373
2491.26805857979,1360
2493.0929647635157,1333
2494.917473013971,1364
2496.741583620276,1376
2498.5652968716304,1366
2500.3886130573137,1366
2502.2115324666834,1366
2504.0340553891765,1347
2505.856182114308,1454
2507.6779129316733,1445
2509.499248130945,1391
2511.3201880018764,1399
2513.140732834298,1368
2514.9608829181198,1376
2516.780638543331,1453
2518.6,1386
2520.418967578273,1390
2522.237541568376,1374
2524.0557222606144,1398
2525.8735099453706,1388
2527.6909049131086,1396
2529.507907454368,1411
2531.32451785977,1376
2533.140736420014,1440
2534.9565634258774,1482
2536.771999168218,1469
2538.5870439379714,1444
2540.4016980261526,1472
2542.2159617238544,1398
2544.02983532225,1445
2545.8433191125914,1504
2547.656413386209,1485
2549.4691184345115,1477
2551.2814345489874,1519
2553.093362021204,1511
2554.904901142808,1541
2556.716052205523,1514
2558.526815501153,1523
2560.3371913215824,1574
2562.147179958771,1549
2563.956781704761,1592
2565.7659968516705,1623
2567.5748256916986,1564
2569.3832685171224,1565
2571.1913256202984,1635
2572.9989972936614,1618
2574.806283829725,1522
2576.613185521084,1572
2578.4197026604074,1538
2580.2258355404483,1567
2582.031584454035,1606
2583.836949694077,1616
2585.6419315535613,1642
2587.4465303255533,1594
2589.2507463032002,1671
2591.0545797797245,1701
2592.8580310484303,1641
2594.6611004026995,1681
2596.463788135992,1744
2598.266094541849,1636
2600.0680199138874,1619
2601.869564545807,1638
2603.670728731383,1686
2605.4715127644704,1651
2607.2719169390048,1679
2609.071941548998,1705
2610.8715868885433,1643
2612.670853251811,1628
2614.469740933052,1675
2616.268250226594,1668
2618.0663814268455,1631
2619.864134828292,1666
2621.6615107255006,1661
2623.458509413115,1673
2625.2551311858597,1631
2627.0513763385347,1603
2628.8472451660223,1591
2630.6427379632833,1620
2632.4378550253564,1568
2634.232596647359,1660
2636.026963124488,1598
2637.8209547520187,1574
2639.6145718253065,1531
2641.407814639785,1509
2643.200683490966,1565
2644.9931786744414,1525
2646.7853004858807,1533
2648.577049221034,1552
2650.3684251757277,1518
2652.1594286458712,1509
2653.9500599274484,1552
2655.740319316525,1466
2657.5302071092437,1488
2659.3197236018286,1484
2661.10886909058,1511
2662.8976438718782,1524
2664.686048242183,1452
2666.4740824980327,1449
2668.2617469360443,1462
2670.0490418529134,1386
2671.8359675454153,1502
2673.622524310403,1443
2675.408712444811,1420
2677.1945322456495,1404
2678.979984010009,1414
2680.76506803506,1408
2682.5497846180497,1412
2684.334134056306,1393
2686.1181166472343,1374
2687.9017326883213,1379
2689.6849824771293,1389
2691.4678663113013,1370
2693.2503844885596,1374
2695.032537306705,1374
2696.8143250636167,1410
2698.5957480572542,1410
2700.3768065856534,1407
2702.1575009469316,1390
2703.937831439283,1351
2705.717798360982,1383
2707.4974020103837,1364
2709.276642685917,1288
2711.055520686095,1348
2712.834036309506,1388
2714.612189854819,1310
2716.389981620782,1307
2718.1674119062204,1302
2719.944481010041,1311
2721.721189231226,1343
2723.4975368688415,1374
2725.273524222027,1358
2727.0491515900053,1365
2728.824419272075,1370
2730.5993275676146,1355
2732.3738767760838,1329
2734.148067197016,1270
2735.921899130031,1306
2737.6953728748194,1322
2739.468488731156,1342
2741.2412469988926,1310
2743.0136479779617,1339
2744.785691968372,1353
2746.5573792702116,1315
2748.3287101836504,1285
2750.099685008934,1317
2751.870304046388,1293
2753.640567596418,1310
2755.4104759595057,1324
2757.1800294362156,1320
2758.949228327187,1299
2760.7180729331412,1310
2762.486563554877,1299
2764.254700493272,1311
2766.022484049284,1304
2767.789914523947,1321
2769.5569922183786,1328
2771.3237174337705,1276
2773.090090471394,1291
2774.8561116326036,1273
2776.6217812188274,1361
2778.3870995315756,1347
2780.1520668724356,1322
2781.9166835430747,1251
2783.6809498452394,1270
2785.444866080754,1335
2787.2084325515225,1285
2788.971649559527,1349
2790.73451740683,1277
2792.4970363955713,1299
2794.2592068279705,1288
2796.0210290063264,1356
2797.7825032330147,1363
2799.543629810493,1321
2801.304409041296,1282
2803.0648412280366,1301
2804.8249266734088,1325
2806.5846656801846,1301
2808.344058551212,1272
2810.1031055894246,1323
2811.8618070978273,1330
2813.6201633795085,1371
2815.378174737636,1315
2817.1358414754536,1358
2818.893163896285,1336
2820.6501423035334,1326
2822.4067770006814,1330
2824.1630682912883,1299
2825.9190164789957,1286
2827.6746218675207,1310
2829.429884760661,1381
2831.184805462294,1313
2832.9393842763743,1296
2834.693621506936,1336
2836.4475174580916,1316
2838.201072434034,1325
2839.954286739034,1269
2841.707160677441,1334
2843.459694553685,1385
2845.2118886722724,1300
2846.96374333779,1366
2848.7152588549034,1348
2850.4664355283567,1320
2852.217273662973,1304
2853.9677735636546,1361
2855.7179355353833,1270
2857.4677598832186,1364
2859.217246912299,1338
2860.9663969278427,1354
2862.715210235146,1298
2864.4636871395846,1312
2866.211827946614,1296
2867.9596329617652,1299
2869.7071024906536,1275
2871.4542368389684,1304
2873.20103631248,1253
2874.947501217038,1274
2876.6936318585695,1312
2878.4394285430812,1383
2880.1848915766604,1298
2881.9300212654707,1320
2883.6748179157553,1303
2885.4192818338374,1279
2887.1634133261173,1352
2888.907212699077,1320
2890.6506802592744,1297
2892.393816313348,1326
2894.1366211680142,1309
2895.8790951300693,1305
2897.621238506388,1299
2899.363051603925,1334
2901.1045347297118,1317
2902.8456881908596,1320
2904.58651229456,1317
2906.327007348081,1310
2908.067173658772,1344
2909.8070115340597,1291
2911.5465212814497,1286
2913.285703208527,1255
2915.0245576229563,1312
2916.7630848324807,1248
2918.5012851449196,1307
2920.2391588681758,1330
2921.976706310227,1300
2923.7139277791334,1315
2925.4508235830313,1335
2927.187394030137,1290
2928.923639428745,1281
2930.6595600872306,1311
2932.395156314046,1262
2934.1304284177218,1295
2935.8653767068713,1307
2937.6000014901815,1338
2939.3343030764227,1251
2941.068281774442,1280
2942.8019378931644,1286
2944.5352717415976,1276
2946.2682836288236,1288
2948.0009738640065,1342
2949.7333427563885,1296
2951.465390615289,1334
2953.1971177501086,1348
2954.9285244703265,1343
2956.6596110855,1350
2958.3903779052657,1303
2960.1208252393385,1296
2961.8509533975125,1286
2963.5807626896617,1356
2965.3102534257378,1325
2967.0394259157715,1285
2968.768280469873,1298
2970.496817398232,1315
2972.2250370111146,1334
2973.952939618869,1325
2975.6805255319196,1313
2977.4077950607707,1322
2979.134748516006,1379
2980.861386208289,1277
2982.587708448359,1328
2984.313715547037,1300
2986.039407815222,1380
2987.764785563891,1300
2989.489849104102,1309
2991.2145987469908,1301
2992.9390348037705,1283
2994.6631575857346,1239
2996.3869674042576,1296
2998.1104645707887,1314
2999.83364939686,1323
3001.5565221940783,1306
3003.2790832741334,1306
3005.0013329487924,1293
3006.7232715298996,1311
3008.4448993293804,1322
3010.166216659239,1246
3011.887223831558,1310
3013.607921158498,1346
3015.3283089522993,1269
3017.0483875252826,1249
3018.7681571898443,1297
3020.4876182584626,1349
3022.2067710436927,1306
3023.9256158581707,1283
3025.644153014609,1283
3027.362382825801,1270
3029.0803056046193,1253
3030.797921664012,1309
3032.5152313170106,1340
3034.2322348767225,1293
3035.9489326563353,1278
3037.665324969115,1313
3039.3814121284063,1325
3041.097194447633,1258
3042.812672240299,1328
3044.5278458199855,1308
3046.2427155003525,1249
3047.9572815951406,1280
3049.671544418167,1311
3051.38550428333,1340
3053.0991615046073,1313
3054.812516396051,1313
3056.5255692717974,1295
3058.2383204460575,1271
3059.9507702331257,1302
3061.662918947372,1281
3063.3747669032446,1287
3065.0863144152736,1341
3066.7975617980674,1311
3068.508509366309,1274
3070.219157434767,1277
3071.9295063182844,1299
3073.639556331785,1299
3075.3493077902704,1314
3077.058761008821,1305
3078.7679163025964,1325
3080.476773986837,1329
3082.1853343768594,1272
3083.89359778806,1315
3085.6015645359153,1318
3087.3092349359786,1285
3089.016609303884,1269
3090.7236879553434,1387
3092.4304712061476,1277
3094.136959372166,1289
3095.843152769349,1343
3097.5490517137237,1336
3099.2546565213966,1333
3100.959967508554,1303
3102.66498499146,1279
3104.3697092864577,1321
3106.0741407099695,1344
3107.778279578498,1383
3109.482126208622,1310
3111.1856809170004,1264
3112.8889440203716,1331
3114.5919158355528,1320
3116.294596679439,1337
3117.996986869006,1327
3119.6990867213062,1338
3121.4008965534726,1334
3123.102416682717,1331
3124.803647426329,1316
3126.5045891016784,1337
3128.205242026213,1322
3129.90560651746,1334
3131.605682893025,1327
3133.3054714705922,1289
3135.0049725679282,1389
3136.7041865028714,1288
3138.4031135933465,1363
3140.101754157353,1289
3141.800108512971,1350
3143.498176978357,1322
3145.1959598717494,1324
3146.8934575114636,1285
3148.5906702158954,1285
3150.2875983035183,1267
3151.9842420928853,1308
3153.680601902627,1324
3155.376678051456,1226
3157.07247085816,1308
3158.767980641609,1339
3160.463207720748,1301
3162.158152414606,1297
3163.8528150422862,1335
3165.5471959229726,1312
3167.2412953759303,1253
3168.9351137204976,1320
3170.628651276098,1379
3172.3219083622307,1274
3174.014885298474,1312
3175.707582404485,1318
3177.4000000000005,1298
3179.092138404835,1319
3180.7839979388846,1327
3182.47557892212,1315
3184.166881674594,1287
3185.8579065164386,1299
3187.5486537678626,1278
3189.2391237491547,1349
3190.9293167806827,1285
3192.6192331828934,1286
3194.3088732763117,1248
3195.998237381542,1309
3197.687325819268,1263
3199.376138910251,1279
3201.064676975334,1277
3202.7529403354347,1276
3204.4409293115523,1289
3206.1286442247647,1277
3207.816085396229,1303
3209.5032531471825,1284
3211.190147798936,1289
3212.8767696728846,1265
3214.5631190905015,1260
3216.2491963733373,1260
3217.9350018430214,1262
3219.6205358212637,1269
3221.305798629851,1214
3222.990790590651,1217
3224.6755120256103,1224
3226.359963256751,1255
3228.0441446061795,1269
3229.7280563960758,1307
3231.411698948703,1229
3233.0950725863995,1262
3234.778177631587,1252
3236.461014406761,1218
3238.1435832345005,1278
3239.8258844374595,1277
3241.507918338374,1263
3243.1896852600576,1318
3244.8711855254023,1319
3246.552419457381,1292
3248.233387379042,1264
3249.914089613516,1265
3251.59452648401,1302
3253.274698313813,1336
3254.95460542629,1264
3256.6342481448855,1264
3258.313626793125,1283
3259.9927416946084,1267
3261.6715931730196,1244
3263.3501815521176,1265
3265.0285071557437,1216
3266.706570307815,1246
3268.3843713323286,1257
3270.0619105533615,1284
3271.739188295068,1266
3273.4162048816834,1220
3275.0929606375184,1304
3276.769455886966,1274
3278.445690954498,1301
3280.1216661646613,1337
3281.797381842087,1275
3283.4728383114807,1301
3285.1480358976296,1232
3286.8229749253996,1245
3288.4976557197333,1285
3290.172078605655,1269
3291.846243908266,1280
3293.5201519527463,1272
3295.193803064357,1286
3296.8671975684374,1310
3298.5403357904024,1261
3300.21321805575,1267
3301.8858446900567,1219
3303.558216018975,1285
3305.23033236824,1293
3306.9021940636603,1250
3308.57380143113,1236
3310.2451547966184,1302
3311.916254486174,1318
3313.5871008259246,1310
3315.2576941420766,1270
3316.9280347609147,1283
3318.5981230088046,1280
3320.2679592121895,1258
3321.9375436975924,1291
3323.606876791612,1240
3325.27595882093,1259
3326.944790112305,1205
3328.6133709925753,1269
3330.2817017886573,1207
3331.949782827547,1308
3333.617614436319,1250
3335.2851969421245,1262
3336.952530672199,1229
3338.619615953853,1229
3340.286453114475,1270
3341.9530424815357,1230
3343.619384382583,1239
3345.2854791452437,1275
3346.951327097224,1222
3348.6169285663073,1287
3350.2822838803577,1238
3351.947393367319,1250
3353.61225735521,1272
3355.2768761721345,1252
3356.9412501462693,1292
3358.605379605873,1260
3360.2692648792827,1250
3361.9329062949146,1296
3363.596304181263,1259
