CollectionTime,7/11/2024 11:43:53 AM
ExposureUsed,3
CalibratedSpectrum
-962.7078968117929,731
-959.9714848408522,773
-957.2358232597828,811
-954.5009119013725,751
-951.7667505983302,775
-949.0333391832855,792
-946.3006774887896,806
-943.5687653473143,783
-940.837602591253,781
-938.1071890529199,765
-935.3775245645503,765
-932.6486089583007,811
-929.9204420662485,826
-927.1930237203925,830
-924.4663537526524,754
-921.7404319948689,773
-919.0152582788041,836
-916.2908324361409,813
-913.5671542984834,851
-910.8442236973568,820
-908.1220404642074,826
-905.4006044304027,827
-902.679915427231,828
-899.959973285902,783
-897.2407778375464,821
-894.5223289132158,790
-891.8046263438832,780
-889.0876699604426,800
-886.3714595937089,797
-883.6559950744183,802
-880.9412762332282,819
-878.2273029007168,785
-875.5140749073835,812
-872.8015920836489,788
-870.0898542598545,791
-867.3788612662631,788
-864.6686129330585,811
-861.9591090903457,815
-859.2503495681506,792
-856.5423341964203,782
-853.8350628050229,804
-851.1285352237478,786
-848.4227512823054,798
-845.7177108103272,810
-843.0134136373656,756
-840.3098595928943,804
-837.6070485063082,776
-834.9049802069229,819
-832.2036545239757,810
-829.5030712866244,850
-826.8032303239481,831
-824.1041314649472,826
-821.4057745385428,830
-818.7081593735775,789
-816.0112857988148,892
-813.3151536429393,851
-810.6197627345566,832
-807.9251129021936,848
-805.2312039742981,807
-802.5380357792392,837
-799.8456081453069,839
-797.1539209007124,834
-794.462973873588,847
-791.772766891987,847
-789.083299783884,846
-786.3945723771743,855
-783.7065844996748,847
-781.0193359791231,863
-778.3328266431781,919
-775.6470563194197,855
-772.9620248353489,849
-770.2777320183878,826
-767.5941776958798,901
-764.9113616950891,886
-762.2292838432011,867
-759.5479439673222,894
-756.8673418944801,883
-754.1874774516235,899
-751.5083504656222,863
-748.8299607632671,897
-746.15230817127,896
-743.475392516264,883
-740.7992136248035,953
-738.1237713233636,888
-735.4490654383407,911
-732.7750957960521,933
-730.1018622227365,921
-727.4293645445534,898
-724.7576025875837,904
-722.0865761778291,921
-719.4162851412126,909
-716.7467293035781,925
-714.0779084906909,992
-711.409822528237,931
-708.7424712418238,913
-706.0758544569796,923
-703.4099719991541,994
-700.7448236937178,979
-698.0804093659622,947
-695.4167288411002,895
-692.7537819442656,948
-690.0915685005134,937
-687.4300883348199,945
-684.7693412720819,964
-682.1093271371178,975
-679.4500457546669,981
-676.7914969493897,917
-674.1336805458676,900
-671.4765963686034,935
-668.8202442420206,937
-666.1646239904642,952
-663.5097354382001,1005
-660.8555784094151,1002
-658.2021527282176,947
-655.5494582186366,1020
-652.8974947046223,961
-650.2462620100463,976
-647.5957599587009,1001
-644.9459883742998,1052
-642.2969470804776,978
-639.6486359007902,996
-637.0010546587141,995
-634.3542031776476,1008
-631.7080812809096,1005
-629.0626887917401,983
-626.4180255333008,1048
-623.7740913286734,1034
-621.1308860008619,974
-618.4884093727904,1043
-615.8466612673046,1007
-613.2056415071715,1026
-610.5653499150785,1035
-607.9257863136347,1053
-605.28695052537,1038
-602.6488423727357,1022
-600.0114616781036,1032
-597.3748082637674,968
-594.7388819519412,1078
-592.1036825647604,1081
-589.4692099242818,1076
-586.8354638524829,1007
-584.2024441712624,1022
-581.5701507024403,1080
-578.9385832677575,1075
-576.3077416888759,1079
-573.6776257873787,1057
-571.0482353847704,1094
-568.4195703024757,1058
-565.7916303618415,1015
-563.164415384135,1037
-560.5379251905453,1069
-557.9121596021815,1078
-555.2871184400748,1039
-552.6628015251767,1040
-550.0392086783606,1078
-547.4163397204204,1055
-544.794194472071,1049
-542.1727727539491,1103
-539.5520743866118,1113
-536.9320991905377,1128
-534.3128469861261,1122
-531.6943175936979,1115
-529.0765108334947,1168
-526.4594265256793,1199
-523.8430644903358,1302
-521.2274245474689,1338
-518.612506517005,1439
-515.9983102187913,1357
-513.3848354725959,1376
-510.77208209810846,1492
-508.16004991493924,1576
-505.5487387426199,1701
-502.9381484006032,1794
-500.3282787082628,1817
-497.71912948489364,1735
-495.1107005497117,1685
-492.5029917218539,1525
-489.8960028203786,1437
-487.28973366426493,1322
-484.68418407241325,1278
-482.07935386364494,1210
-479.47524285670266,1224
-476.87185087025,1295
-474.2691777228715,1263
-471.66722323307334,1319
-469.0659872192821,1232
-466.4654694998459,1233
-463.86566989303384,1196
-461.26658821703614,1193
-458.66822428996414,1227
-456.07057792985,1208
-453.4736489546475,1270
-450.877437182231,1152
-448.28194243039627,1207
-445.68716451686,1200
-443.09310325926003,1205
-440.49975847515555,1172
-437.9071299820263,1177
-435.31521759727354,1213
-432.72402113821954,1235
-430.13354042210767,1220
-427.5437752661022,1270
-424.95472548728867,1218
-422.36639090267386,1229
-419.7787713291855,1271
-417.1918665836721,1363
-414.60567648290385,1321
-412.0202008435715,1324
-409.4354394822874,1295
-406.8513922155845,1273
-404.26805885991723,1308
-401.685439231661,1329
-399.103533147112,1297
-396.522340422488,1311
-393.9418608739278,1210
-391.3620943174908,1272
-388.7830405691583,1187
-386.2046994448317,1121
-383.6270707603344,1079
-381.05015433141045,1025
-378.473949973725,1001
-375.8984575028645,914
-373.32367673433623,816
-370.74960748356875,790
-368.1762495659117,683
-365.60360279663576,672
-363.03166699093265,636
-360.4604419639154,559
-357.8899275306178,567
-355.32012350599507,526
-352.7510297049233,523
-350.1826459421999,509
-347.61497203254316,527
-345.04800779059235,535
-342.4817530309082,503
-339.91620756797226,507
-337.35137121618743,496
-334.7872437898774,544
-332.22382510328725,565
-329.66111497058273,537
-327.09911320585127,504
-324.53781962310075,511
-321.9772340362607,518
-319.4173562591816,509
-316.8581861056348,505
-314.2997233893127,521
-311.7419679238294,517
-309.1849195227194,559
-306.62857799943856,549
-304.0729431673641,588
-301.51801483979375,584
-298.963792829947,561
-296.41027695096386,594
-293.85746701590574,601
-291.3053628377552,579
-288.7539642294155,565
-286.2032710037115,593
-283.65328297338897,628
-281.1039999511146,682
-278.5554217494762,660
-276.007548180983,591
-273.4603790580651,580
-270.9139141930734,630
-268.3681533982807,613
-265.8230964858798,571
-263.27874326798565,538
-260.7350935566336,594
-258.1921471637804,640
-255.6499039013039,651
-253.10836358100266,602
-250.56752601459698,589
-248.02739101372765,702
-245.48795838995704,731
-242.94922795476816,714
-240.41119951956557,699
-237.8738728956746,661
-235.33724789434166,675
-232.80132432673452,660
-230.2661020039418,672
-227.73158073697357,781
-225.19776033676033,780
-222.66464061415422,777
-220.1322213799284,758
-217.60050244477725,669
-215.06948361931552,646
-212.53916471408013,784
-210.00954553952818,718
-207.48062590603843,683
-204.9524056239104,759
-202.4248845033651,848
-199.8980623545441,771
-197.37193898751036,765
-194.84651421224817,736
-192.32178783866232,712
-189.79775967657952,772
-187.27442953574644,891
-184.7517972258321,808
-182.2298625564256,803
-179.7086253370378,811
-177.18808537710026,805
-174.66824248596583,899
-172.14909647290835,869
-169.6306471471229,853
-167.11289431772548,938
-164.59583779375328,1016
-162.07947738416453,924
-159.5638128978386,949
-157.04884414357605,963
-154.53457093009854,1032
-152.02099306604828,978
-149.50811035998936,970
-146.99592262040665,1002
-144.48442965570587,1005
-141.97363127421409,1122
-139.46352728417958,1167
-136.95411749377126,1334
-134.44540171107985,1155
-131.93737974411636,970
-129.43005140081357,1055
-126.92341648902493,1218
-124.41747481652521,1665
-121.91222619101006,2370
-119.40767042009657,2998
-116.90380731132257,2784
-114.40063667214702,3510
-111.8981583099503,4965
-109.3963720320337,6347
-106.89527764561933,6010
-104.39487495785067,4000
-101.89516377579241,3508
-99.39614390642998,4836
-96.89781515667039,8109
-94.40017733334128,10626
-91.90323024319173,11623
-89.40697369289148,12869
-86.91140748903172,13522
-84.41653143812482,11324
-81.92234534660395,6820
-79.42884902082358,4597
-76.93604226705907,6778
-74.4439248915071,13335
-71.95249670028534,20271
-69.46175749943245,23076
-66.97170709490854,21871
-64.48234529259423,18816
-61.99367189829195,16567
-59.50568671772464,15450
-57.01838955653636,12929
-54.53178022029283,10744
-52.045858514480074,10247
-49.560624244506016,11408
-47.07607721569923,11504
-44.59221723330904,10004
-42.10904410250669,9410
-39.62655762838392,9899
-37.14475761595372,9253
-34.66364387015028,10599
-32.18321619582866,11346
-29.70347439776515,11441
-27.224418280657005,13314
-24.74604764912317,16438
-22.26836230770266,25421
-19.7913620608565,47611
-17.315046712966478,65036
-14.83941606833514,65036
-12.36446993118659,65036
-9.89020810566592,65036
-7.416630395839093,65036
-4.94373660569363,65036
-2.471526539137585,65036
-6.821210263296962E-13,65036
2.47084320796705,65036
4.941003281093458,65036
7.410480415786196,65036
9.879274808531363,65036
12.347386655893956,65036
14.814816154518212,65036
17.28156350112681,65036
19.74762889252179,65036
22.21301252558385,65036
24.67771459727237,19704
27.141735304626195,5242
29.605074844762612,4104
32.06773341487792,3071
34.52971121224755,3528
36.99100843422559,3707
39.45162527824516,2512
41.91156194181792,2176
44.370818622535126,1837
46.82939551806646,1751
49.287292826160524,2024
51.74451074464503,2176
54.201049471426245,1911
56.65690920448981,2014
59.112090141899785,2031
61.56659248179983,1764
64.02041642241159,1728
66.4735621620365,1605
68.92602989905402,1431
71.37781983192338,1677
73.82893215918205,1544
76.27936707944684,1590
78.72912479141326,1483
81.17820549385567,1597
83.62660938562783,1784
86.07433666566146,1356
88.5213875329681,1193
90.96776218663751,1477
93.41346082583925,1366
95.85848364982041,1252
98.30283085790859,1303
100.7465026495089,1370
103.18949922410604,1427
105.63182078126385,1472
108.07346752062438,1391
110.51443964190923,1104
112.95473734491827,1103
115.39436082953114,1174
117.83331029570547,1101
120.27158594347827,1123
122.7091879729652,1124
125.1461165843615,1054
127.58237197794062,1048
130.01795435405518,984
132.4528639131364,1047
134.88710085569494,1193
137.32066538231982,1111
139.75355769367923,959
142.1857779905207,888
144.61732647366978,955
147.04820334403132,1090
149.47840880258934,1074
151.90794305040674,1152
154.33680628862487,1345
156.76499871846443,1439
159.19252054122433,1512
161.61937195828352,1602
164.04555317109896,1791
166.47106438120693,1989
168.89590579022217,2238
171.320077599839,2362
173.7435800118302,2607
176.16641322804742,2682
178.58857745042144,2728
181.01007288096173,2949
183.43089972175687,2843
185.85105817497413,2828
188.27054844285988,2818
190.6893707277394,2853
193.10752523201643,2874
195.5250121581745,3028
197.9418317087751,2947
200.3579840864594,3143
202.7734694939469,2973
205.18828813403627,3009
207.6024402096051,3140
210.01592592360964,3135
212.42874547908548,3128
214.84089907914665,3054
217.2523869269868,2988
219.66320922587727,2936
222.0733661791695,2992
224.48285799029293,3025
226.8916848627572,3001
229.29984700014882,3092
231.7073446061355,2914
234.11417788446204,2966
236.520347038953,3111
238.92585227351185,3178
241.33069379212054,3188
243.73487179884035,3147
246.1383864978112,3078
248.541238093252,3096
250.9434267894609,3104
253.34495279081432,3085
255.74581630176783,3052
258.1460175268563,3108
260.54555667069314,3110
262.9444339379703,2985
265.3426495334594,2995
267.7402036620107,3065
270.1370965285529,2964
272.53332833809407,2783
274.9288992957214,2802
277.32380960660055,2794
279.718059475976,2870
282.1116491091717,2788
284.5045787115897,2706
286.89684848871195,2688
289.2884586460981,2773
291.67940938938807,2703
294.0697009242996,2804
296.4593334566299,2731
298.84830719225477,2683
301.23662233712923,2581
303.6242790972866,2640
306.01127767884,2578
308.39761828798066,2628
310.78330113097934,2588
313.16832641418534,2629
315.5526943440269,2476
317.9364051270112,2579
320.3194589697242,2555
322.70185607883093,2494
325.0835966610754,2566
327.4646809232805,2489
329.8451090723478,2448
332.2248813152577,2481
334.6039978590701,2406
336.9824589109231,2366
339.36026467803447,2421
341.7374153677,2451
344.113911187295,2378
346.48975234427337,2388
348.8649390461686,2371
351.2394715005918,2367
353.61334991523415,2385
355.9865744978655,2404
358.35914545633375,2415
360.73106299856715,2427
363.10232733257146,2349
365.47293866643247,2387
367.84289720831396,2341
370.2122031664593,2281
372.5808567491905,2246
374.9488581649083,2312
377.31620762209275,2275
379.6829053293021,2320
382.0489514951745,2314
384.4143463284262,2278
386.7790900378528,2237
389.14318283232853,2360
391.50662492080653,2299
393.86941651231916,2279
396.23155781597745,2272
398.5930490409713,2291
400.9538903965696,2360
403.3140820921202,2298
405.6736243370498,2283
408.03251734086336,2280
410.3907613131465,2288
412.74835646356166,2261
415.10530300185144,2347
417.4616011378372,2245
419.81725108141893,2195
422.1722530425758,2305
424.5266072313656,2283
426.880313857925,2258
429.2333731324701,2255
431.58578526529516,2246
433.9375504667738,2186
436.2886689473588,2226
438.63914091758113,2252
440.9889665880513,2175
443.33814616945835,2211
445.68667987257015,2149
448.03456790823395,2139
450.3818104873759,2194
452.72840782100013,2155
455.07436012019105,2260
457.41966759611057,2214
459.7643304600007,2280
462.10834892318155,2214
464.4517231970525,2247
466.79445349309174,2209
469.1365400228566,2250
471.4779829979826,2230
473.81878263018564,2249
476.15893913125876,2285
478.4984527130747,2205
480.8373235875855,2258
483.17555196682144,2300
485.5131380628919,2415
487.8500820879857,2435
490.1863842543697,2503
492.52204477439034,2657
494.8570638604725,2867
497.1914417251204,3077
499.52517858091653,3256
501.85827464052306,3532
504.19073011668036,3494
506.5225452222086,3470
508.85372017000566,3365
511.18425517304956,3215
513.514150444396,3497
515.8434061971808,4155
518.1720226446176,4685
520.4999999999999,4657
522.8273384766991,4459
525.1540382881666,4083
527.480099647932,3641
529.8055227696037,3256
532.1303078668694,2693
534.454455153496,2458
536.777964843328,2464
539.1008371502907,2324
541.4230722883866,2309
543.744670471698,2219
546.0656319143858,2278
548.3859568306899,2343
550.7056454349294,2320
553.0246979415016,2310
555.3431145648834,2345
557.6608955196306,2184
559.978041020377,2218
562.2945512818363,2284
564.6104265188006,2264
566.9256669461412,2312
569.2402727788082,2277
571.5542442318302,2295
573.8675815203156,2311
576.1802848594508,2320
578.4923544645015,2360
580.8037905508126,2259
583.114593333807,2337
585.4247630289875,2307
587.7342998519354,2309
590.0432040183106,2320
592.3514757438526,2350
594.6591152443794,2296
596.9661227357875,2347
599.2724984340531,2280
601.578242555231,2371
603.8833553154542,2278
606.1878369309362,2379
608.4916876179676,2281
610.7949075929192,2335
613.0974970722403,2264
615.3994562724587,2274
617.7007854101818,2324
620.0014847020951,2314
622.3015543649641,2353
624.6009946156324,2372
626.8998056710224,2281
629.1979877481361,2277
631.4955410640538,2316
633.7924658359349,2305
636.0887622810175,2256
638.3844306166192,2324
640.6794710601358,2375
642.9738838290426,2382
645.2676691408932,2395
647.5608272133207,2358
649.853358264037,2379
652.1452625108324,2383
654.4365401715764,2313
656.7271914642178,2420
659.0172166067838,2409
661.3066158173809,2344
663.5953893141935,2335
665.8835373154867,2438
668.1710600396028,2407
670.4579577049639,2350
672.7442305300709,2419
675.0298787335033,2336
677.3149025339197,2360
679.599302150058,2406
681.8830778007342,2373
684.1662297048437,2349
686.4487580813608,2402
688.7306631493387,2458
691.0119451279091,2313
693.2926042362834,2415
695.5726406937516,2461
697.8520547196814,2363
700.1308465335215,2439
702.4090163547982,2380
704.6865644031171,2291
706.9634908981619,2308
709.2397960596965,2443
711.5154801075631,2374
713.7905432616823,2332
716.0649857420548,2370
718.3388077687592,2411
720.612009561953,2298
722.8845913418733,2372
725.1565533288352,2411
727.427895743234,2379
729.6986188055427,2367
731.9687227363137,2388
734.238207756178,2365
736.5070740858458,2362
738.7753219461066,2305
741.0429515578281,2298
743.3099631419569,2299
745.5763569195191,2442
747.8421331116193,2326
750.1072919394409,2345
752.3718336242467,2395
754.6357583873777,2317
756.8990664502545,2426
759.1617580343765,2404
761.423833361321,2355
763.6852926527457,2397
765.9461361303862,2380
768.206364016058,2419
770.4659765316536,2347
772.7249738991469,2326
774.9833563405886,2412
777.2411240781092,2367
779.4982773339183,2444
781.7548163303044,2419
784.010741289634,2415
786.2660524343538,2471
788.5207499869881,2436
790.7748341701416,2380
793.0283052064964,2399
795.2811633188143,2394
797.5334087299362,2396
799.7850416627813,2298
802.0360623403484,2350
804.2864709857143,2452
806.5362678220353,2367
808.7854530725468,2446
811.0340269605625,2407
813.2819897094754,2490
815.5293415427581,2423
817.77608268396,2435
820.0222133567116,2334
822.2677337847211,2352
824.5126441917765,2463
826.7569448017433,2394
829.0006358385675,2335
831.2437175262731,2347
833.4861900889629,2443
835.7280537508192,2342
837.9693087361026,2393
840.2099552691533,2361
842.4499935743896,2373
844.689423876309,2480
846.9282463994886,2349
849.1664613685833,2398
851.4040690083276,2458
853.6410695435349,2364
855.877463199097,2372
858.1132501999847,2339
860.3484307712487,2404
862.5830051380175,2389
864.8169735254988,2410
867.0503361589791,2436
869.2830932638243,2423
871.5152450654786,2418
873.7467917894654,2430
875.9777336613873,2454
878.2080709069252,2408
880.4378037518389,2395
882.666932421968,2448
884.8954571432301,2389
887.1233781416219,2420
889.3506956432192,2507
891.5774098741766,2411
893.803521060728,2498
896.0290294291852,2417
898.2539352059397,2483
900.4782386174619,2455
902.7019398903011,2429
904.925039251085,2498
907.147536926521,2476
909.3694331433943,2452
911.59072812857,2401
913.8114221089921,2305
916.0315153116827,2415
918.2510079637437,2384
920.4699002923547,2428
922.6881925247761,2444
924.905884888345,2465
927.1229776104793,2425
929.3394709186747,2388
931.555365040506,2377
933.7706602036275,2372
935.9853566357709,2343
938.1994545647489,2382
940.4129542184515,2379
942.6258558248488,2368
944.8381596119883,2351
947.0498658079974,2374
949.2609746410825,2361
951.4714863395287,2311
953.6814011316998,2405
955.8907192460387,2360
958.0994409110671,2321
960.3075663553858,2431
962.5150958076741,2335
964.7220294966913,2355
966.928367651274,2295
969.1341105003388,2276
971.3392582728806,2321
973.5438111979742,2278
975.747769504772,2310
977.9511334225061,2264
980.153903180487,2248
982.3560790081052,2262
984.5576611348289,2287
986.7586497902058,2271
988.9590452038618,2180
991.158847605503,2187
993.3580572249133,2278
995.5566742919558,2233
997.7546990365728,2069
999.952131688785,2083
1002.1489724786926,2117
1004.3452216364743,2135
1006.5408793923874,2052
1008.7359459767691,2066
1010.9304216200343,2043
1013.1243065526781,2048
1015.3176010052733,2071
1017.510305208472,2057
1019.7024193930064,2062
1021.8939437896848,2069
1024.0848786293977,2001
1026.2752241431122,2059
1028.4649805618747,2038
1030.6541481168115,2036
1032.842727039127,2080
1035.0307175601051,2010
1037.2181199111074,1976
1039.4049343235752,1958
1041.591161029029,1976
1043.7768002590683,1937
1045.9618522453698,2029
1048.1463172196918,1976
1050.3301954138697,2004
1052.513487059818,1984
1054.69619238953,1990
1056.8783116350783,1996
1059.0598450286152,2020
1061.2407928023704,2001
1063.4211551886528,1977
1065.6009324198508,1981
1067.780124728432,1923
1069.9587323469414,2012
1072.1367555080046,2033
1074.314194444325,2020
1076.4910493886855,1989
1078.667320573947,1977
1080.843008233051,2008
1083.0181125990161,1964
1085.1926339049414,1906
1087.3665723840027,1957
1089.5399282694575,2000
1091.7127017946405,1965
1093.8848931929647,1905
1096.0565026979243,1937
1098.2275305430899,1892
1100.3979769621128,1900
1102.567842188722,1839
1104.737126456726,1870
1106.9058300000124,1841
1109.0739530525475,1917
1111.2414958483764,1821
1113.4084586216231,1894
1115.5748416064907,1850
1117.7406450372605,1885
1119.9058691482942,1922
1122.0705141740304,1841
1124.2345803489884,1858
1126.3980679077658,1851
1128.5609770850388,1851
1130.7233081155623,1828
1132.8850612341707,1781
1135.0462366757774,1853
1137.2068346753745,1863
1139.3668554680326,1785
1141.526299288901,1788
1143.68516637321,1792
1145.8434569562655,1801
1148.001171273455,1799
1150.158309560244,1784
1152.3148720521767,1820
1154.470858984876,1784
1156.626270594044,1763
1158.7811071154629,1827
1160.9353687849912,1805
1163.089055838569,1750
1165.242168512213,1844
1167.3947070420209,1853
1169.5466716641677,1851
1171.6980626149075,1789
1173.8488801305748,1802
1175.9991244475814,1811
1178.1487958024186,1757
1180.2978944316555,1824
1182.4464205719428,1796
1184.5943744600072,1835
1186.7417563326567,1761
1188.8885664267755,1753
1191.0348049793297,1782
1193.1804722273619,1803
1195.325568407995,1793
1197.4700937584303,1791
1199.614048515948,1805
1201.7574329179074,1838
1203.900247201746,1750
1206.042491604982,1753
1208.1841663652099,1759
1210.3252717201053,1788
1212.465807907422,1788
1214.6057751649923,1819
1216.7451737307279,1823
1218.8840038426192,1789
1221.0222657387353,1832
1223.1599596572241,1807
1225.2970858363137,1774
1227.4336445143094,1798
1229.5696359295966,1828
1231.705060320639,1795
1233.8399179259786,1806
1235.9742089842384,1907
1238.107933734118,1809
1240.2410924143974,1790
1242.373685263935,1803
1244.5057125216676,1783
1246.6371744266116,1922
1248.7680712178621,1817
1250.898403134593,1810
1253.028170416058,1836
1255.1573733015875,1835
1257.2860120305932,1854
1259.4140868425648,1850
1261.54159797707,1867
1263.6685456737569,1864
1265.7949301723515,1832
1267.9207517126597,1841
1270.046010534565,1816
1272.1707068780306,1853
1274.2948409830983,1830
1276.4184130898889,1852
1278.541423438603,1854
1280.6638722695184,1858
1282.785759822993,1817
1284.9070863394636,1804
1287.0278520594447,1831
1289.1480572235314,1859
1291.2677020723963,1881
1293.3867868467923,1886
1295.5053117875495,1879
1297.623277135579,1861
1299.740683131868,1888
1301.8575300174857,1866
1303.973818033578,1937
1306.0895474213703,1936
1308.2047184221678,1945
1310.3193312773528,1910
1312.4333862283888,1979
1314.5468835168163,1944
1316.659823384255,1979
1318.7722060724045,1979
1320.8840318230418,1928
1322.9953008780249,2013
1325.1060134792888,1919
1327.2161698688478,1927
1329.3257702887959,1891
1331.4348149813054,1885
1333.5433041886276,1932
1335.6512381530933,1989
1337.7586171171101,1870
1339.8654413231675,1905
1341.9717110138317,1892
1344.0774264317488,1950
1346.1825878196432,1961
1348.2871954203192,1921
1350.3912494766587,1935
1352.4947502316231,1985
1354.5976979282532,1896
1356.7000928096686,1945
1358.8019351190665,1924
1360.9032250997243,1885
1363.0039629949988,1921
1365.1041490483235,1921
1367.2037835032133,1886
1369.3028666032606,1895
1371.401398592137,1958
1373.4993797135926,1961
1375.5968102114575,1951
1377.6936903296396,1921
1379.7900203121262,1885
1381.8858004029835,1955
1383.9810308463561,2011
1386.075711886469,1899
1388.1698437676241,1933
1390.2634267342032,1933
1392.356461030667,1988
1394.4489469015557,1971
1396.5408845914872,2004
1398.6322743451592,2050
1400.7231164073469,1996
1402.813411022907,2029
1404.903158436773,2005
1406.9923588939578,1991
1409.0810126395531,2028
1411.1691199187303,2060
1413.2566809767386,2067
1415.343696058907,2121
1417.4301654106425,2023
1419.5160892774315,2085
1421.6014679048399,2097
1423.6863015385125,2041
1425.7705904241707,2162
1427.8543348076178,2067
1429.9375349347342,2126
1432.0201910514802,2061
1434.102303403894,2173
1436.1838722380944,2182
1438.2648978002767,2144
1440.3453803367174,2150
1442.4253200937692,2188
1444.5047173178677,2102
1446.5835722555234,2239
1448.6618851533285,2236
1450.739656257952,2256
1452.8168858161434,2224
1454.8935740747306,2316
1456.96972128062,2336
1459.045327680797,2448
1461.120393522327,2402
1463.1949190523528,2412
1465.2689045180973,2357
1467.3423501668608,2480
1469.415256246024,2586
1471.4876230030463,2536
1473.559450685465,2616
1475.6307395408976,2633
1477.7014898170391,2655
1479.771701761665,2656
1481.8413756226287,2761
1483.9105116478618,2790
1485.9791100853772,2850
1488.0471711832643,2886
1490.1146951896926,2789
1492.1816823529098,2959
1494.2481329212433,2941
1496.3140471430984,2968
1498.3794252669609,3080
1500.4442675413939,3077
1502.5085742150404,3046
1504.572345536622,3149
1506.6355817549388,3136
1508.6982831188702,3266
1510.7604498773744,3200
1512.8220822794883,3251
1514.8831805743293,3357
1516.9437450110909,3316
1519.003775839048,3386
1521.0632733075522,3397
1523.1222376660367,3467
1525.1806691640113,3473
1527.2385680510652,3488
1529.2959345768668,3645
1531.3527689911643,3634
1533.4090715437833,3806
1535.4648424846291,3835
1537.5200820636855,3873
1539.5747905310159,3909
1541.6289681367616,4032
1543.6826151311434,4023
1545.7357317644614,4176
1547.7883182870937,4146
1549.8403749494987,4189
1551.8919020022113,4303
1553.9428996958477,4321
1555.9933682811015,4370
1558.0433080087469,4354
1560.0927191296346,4520
1562.1416018946961,4563
1564.1899565549415,4569
1566.2377833614592,4513
1568.2850825654164,4408
1570.3318544180606,4229
1572.3780991707158,4082
1574.423817074788,3926
1576.4690083817595,3788
1578.5136733431923,3667
1580.5578122107272,3479
1582.601425236085,3321
1584.6445126710646,3250
1586.6870747675434,3061
1588.7291117774776,2994
1590.7706239529034,2925
1592.8116115459347,2857
1594.8520748087658,2769
1596.8920139936686,2641
1598.9314293529933,2552
1600.9703211391711,2538
1603.008689604711,2437
1605.0465350022005,2427
1607.0838575843068,2377
1609.1206576037753,2286
1611.1569353134305,2366
1613.1926909661765,2271
1615.2279248149953,2215
1617.2626371129481,2198
1619.2968281131757,2176
1621.3304980688963,2158
1623.3636472334088,2146
1625.39627586009,2130
1627.428384202396,2062
1629.459972513861,2066
1631.4910410480993,2058
1633.5215900588028,2025
1635.551619799744,2042
1637.5811305247717,2033
1639.6101224878166,2072
1641.6385959428862,2039
1643.6665511440683,2033
1645.693988345528,1990
1647.7209078015112,2079
1649.7473097663405,1971
1651.7731944944203,2051
1653.7985622402307,1938
1655.823413258333,2008
1657.847747803366,2011
1659.8715661300494,1925
1661.8948684931793,1935
1663.9176551476316,1963
1665.9399263483624,1878
1667.9616823504057,2023
1669.982923408873,1928
1672.0036497789574,1882
1674.0238617159293,1921
1676.043559475138,1956
1678.0627433120121,1923
1680.081413482059,2007
1682.0995702408654,1994
1684.117213844096,1884
1686.134344547495,1861
1688.1509626068864,1921
1690.1670682781705,1911
1692.182661817329,1975
1694.1977434804217,2016
1696.2123135235875,2022
1698.226372203043,1988
1700.2399197750851,1950
1702.2529564960905,1989
1704.2654826225112,1888
1706.277498410882,1967
1708.2890041178139,1905
1710.2999999999988,1907
1712.3104863142066,1938
1714.3204633172854,1907
1716.329931266163,1946
1718.3388904178469,1902
1720.3473410294214,1922
1722.3552833580516,1935
1724.3627176609807,1925
1726.3696441955308,1910
1728.3760632191033,1914
1730.3819749891782,1898
1732.3873797633146,1855
1734.3922777991502,1861
1736.3966693544012,1886
1738.4005546868639,1934
1740.4039340544127,1914
1742.406807715001,1873
1744.4091759266616,1946
1746.4110389475054,1945
1748.4123970357223,1898
1750.413250449582,1869
1752.4135994474318,1900
1754.4134442876993,1919
1756.4127852288902,1891
1758.4116225295893,1860
1760.4099564484595,1835
1762.407787244244,1838
1764.405115175764,1823
1766.4019405019203,1832
1768.3982634816916,1847
1770.3940843741357,1853
1772.3894034383907,1828
1774.3842209336717,1889
1776.378537119274,1840
1778.372352254571,1809
1780.3656665990156,1802
1782.3584804121397,1802
1784.3507939535534,1828
1786.3426074829463,1860
1788.3339212600863,1808
1790.3247355448211,1838
1792.3150505970766,1870
1794.3048666768573,1848
1796.2941840442477,1837
1798.2830029594106,1853
1800.2713236825884,1861
1802.2591464741004,1829
1804.2464715943465,1810
1806.2332993038058,1807
1808.2196298630352,1849
1810.2054635326708,1847
1812.190800573428,1776
1814.175641246101,1840
1816.1599858115628,1816
1818.1438345307652,1811
1820.127187664738,1824
1822.1100454745924,1815
1824.092408221516,1806
1826.0742761667766,1892
1828.055649571721,1885
1830.0365286977735,1850
1832.0169138064398,1819
1833.9968051593014,1798
1835.9762030180214,1914
1837.9551076443408,1832
1839.9335193000788,1824
1841.9114382471344,1805
1843.888864747485,1815
1845.8657990631878,1812
1847.842241456378,1780
1849.8181921892697,1798
1851.7936515241558,1911
1853.7686197234098,1877
1855.7430970494815,1807
1857.7170837649014,1858
1859.6905801322787,1818
1861.6635864143004,1863
1863.6361028737338,1868
1865.608129773424,1818
1867.5796673762961,1832
1869.5507159453537,1938
1871.521275743678,1898
1873.4913470344313,1817
1875.4609300808534,1798
1877.4300251462632,1897
1879.3986324940588,1838
1881.366752387717,1847
1883.3343850907936,1860
1885.3015308669228,1929
1887.268189979819,1895
1889.2343626932739,1833
1891.2000492711595,1822
1893.1652499774254,1866
1895.1299650761011,1842
1897.0941948312952,1932
1899.0579395071945,1820
1901.0211993680641,1907
1902.98397467825,1927
1904.9462657021745,1874
1906.9080727043415,1942
1908.869395949332,1937
1910.8302357018065,1909
1912.790592226504,1833
1914.7504657882428,1877
1916.7098566519212,1794
1918.6687650825133,1813
1920.6271913450764,1842
1922.5851357047422,1855
1924.5425984267245,1863
1926.499579776314,1914
1928.4560800188833,1893
1930.4120994198802,1912
1932.367638244833,1881
1934.32269675935,1871
1936.2772752291175,1897
1938.231373919899,1896
1940.1849930975404,1862
1942.1381330279637,1862
1944.0907939771696,1841
1946.0429762112412,1865
1947.9946799963363,1838
1949.9459055986945,1879
1951.896653284633,1848
1953.8469233205478,1856
1955.7967159729142,1861
1957.7460315082863,1911
1959.6948701932974,1921
1961.6432322946594,1913
1963.5911180791632,1879
1965.5385278136787,1891
1967.4854617651545,1866
1969.4319202006182,1910
1971.377903387176,1867
1973.3234115920136,1914
1975.268445082395,1911
1977.2130041256642,1886
1979.1570889892423,1843
1981.1006999406304,1828
1983.04383724741,1860
1984.986501177238,1916
1986.928691997853,1887
1988.8704099770712,1874
1990.811655382789,1950
1992.7524284829801,1951
1994.692729545698,1860
1996.6325588390755,1871
1998.5719166313224,1839
2000.5108031907307,1834
2002.4492187856677,1886
2004.387163684583,1881
2006.3246381560011,1935
2008.2616424685298,1871
2010.1981768908527,1872
2012.1342416917332,1893
2014.069837140014,1814
2016.0049635046162,1881
2017.9396210545406,1867
2019.8738100588666,1788
2021.8075307867502,1897
2023.740783507431,1885
2025.6735684902228,1857
2027.6058860045214,1854
2029.5377363198004,1805
2031.4691197056118,1818
2033.4000364315875,1791
2035.3304867674374,1892
2037.260470982952,1947
2039.189989347998,1874
2041.1190421325232,1890
2043.047629606554,1896
2044.9757520401945,1927
2046.9034097036288,1928
2048.8306028671195,1857
2050.7573318010086,1836
2052.683596775716,1866
2054.609398061742,1844
2056.5347359296647,1817
2058.4596106501403,1836
2060.384022493906,1778
2062.3079717317764,1847
2064.231458634646,1857
2066.1544834734873,1845
2068.077046519352,1890
2069.99914804337,1901
2071.9207883167524,1908
2073.8419676107865,1876
2075.7626861968406,1819
2077.6829443463607,1885
2079.6027423308715,1858
2081.522080421977,1874
2083.440958891362,1848
2085.359378010786,1871
2087.2773380520907,1851
2089.194839287196,1835
2091.111881988101,1851
2093.0284664268825,1832
2094.9445928756973,1879
2096.86026160678,1862
2098.775472892446,1893
2100.690227005088,1855
2102.604524217178,1809
2104.5183648012676,1843
2106.431749029985,1862
2108.34467717604,1799
2110.2571495122206,1800
2112.169166311393,1827
2114.080727846503,1772
2115.9918343905747,1870
2117.902486216711,1791
2119.8126835980956,1831
2121.722426807987,1825
2123.6317161197285,1818
2125.5405518067364,1832
2127.448934142509,1896
2129.356863400624,1879
2131.264339854737,1855
2133.1713637785815,1795
2135.077935445972,1807
2136.9840551308002,1787
2138.889723107037,1863
2140.7949396487334,1838
2142.699705030018,1846
2144.6040195250994,1850
2146.507883408264,1852
2148.4112969538774,1879
2150.3142604363848,1846
2152.2167741303097,1909
2154.1188383102535,1839
2156.0204532508997,1906
2157.9216192270064,1819
2159.822336513414,1821
2161.7226053850413,1836
2163.622426116884,1878
2165.5217989840185,1845
2167.4207242616,1901
2169.319202224862,1934
2171.2172331491165,1867
2173.1148173097563,1882
2175.0119549822507,1871
2176.90864644215,1918
2178.8048919650823,1937
2180.7006918267534,1872
2182.596046302952,1859
2184.4909556695407,1900
2186.3854202024645,1919
2188.279440177746,1861
2190.173015871487,1942
2192.066147559868,1846
2193.958835519149,1851
2195.851080025667,1919
2197.7428813558417,1882
2199.6342397861667,1919
2201.5251555932186,1932
2203.415629053651,1886
2205.3056604441986,1918
2207.19525004167,1930
2209.084398122958,1864
2210.9731049650327,1898
2212.861370844941,1910
2214.749196039812,1904
2216.636580826851,1976
2218.523525483344,1937
2220.410030286655,1902
2222.296095514226,2005
2224.1817214435805,1950
2226.066908352319,1859
2227.951656518121,1841
2229.835966218746,1901
2231.71983773203,1965
2233.6032713358913,1965
2235.486267308324,1912
2237.3688259274036,1884
2239.2509474712824,1935
2241.132632218193,1974
2243.013880446447,1935
2244.8946924344323,1948
2246.7750684606203,1912
2248.6550088035574,1961
2250.534513741871,1949
2252.413583554265,1886
2254.292218519526,1864
2256.170418916517,1867
2258.0481850241786,1886
2259.925517121534,1877
2261.8024154876825,1867
2263.678880401803,1923
2265.5549121431536,1894
2267.430510991071,1932
2269.305677224971,1929
2271.180411124348,1907
2273.0547129687766,1869
2274.9285830379076,1899
2276.8020216114737,1895
2278.6750289692845,1878
2280.5476053912294,1857
2282.4197511572766,1931
2284.2914665474727,1883
2286.162751841943,1958
2288.0336073208937,1964
2289.904033264608,1969
2291.774029953448,1947
2293.6435976678554,1922
2295.5127366883517,1897
2297.381447295534,1888
2299.2497297700825,1849
2301.1175843927526,1861
2302.9850114443825,1790
2304.852011205885,1851
2306.7185839582553,1760
2308.5847299825664,1764
2310.4504495599676,1773
2312.3157429716925,1774
2314.1806104990483,1675
2316.0450524234247,1734
2317.9090690262888,1776
2319.772660589186,1792
2321.635827393742,1730
2323.498569721661,1707
2325.3608878547248,1769
2327.2227820747967,1702
2329.0842526638157,1708
2330.945299903803,1680
2332.805924076857,1702
2334.6661254651535,1695
2336.525904350951,1670
2338.3852610165827,1728
2340.244195744464,1711
2342.102708817088,1716
2343.9608005170253,1754
2345.8184711269287,1744
2347.675720929526,1775
2349.532550207628,1727
2351.38895924412,1747
2353.24494832197,1722
2355.100517724223,1727
2356.955667734004,1717
2358.810398634514,1696
2360.664710709037,1799
2362.5186042409337,1799
2364.3720795136437,1779
2366.225136810686,1772
2368.0777764156583,1762
2369.929998612237,1705
2371.7818036841777,1743
2373.633191915315,1752
2375.484163589562,1740
2377.3347189909114,1783
2379.184858403434,1776
2381.03458211128,1748
2382.8838903986775,1696
2384.732783549936,1742
2386.5812618494406,1793
2388.4293255816588,1803
2390.2769750311327,1786
2392.1242104824883,1819
2393.971032220427,1757
2395.8174405297295,1746
2397.6634356952563,1710
2399.509018001947,1750
2401.3541877348193,1734
2403.1989451789705,1803
2405.043290619576,1741
2406.8872243418905,1801
2408.730746631247,1754
2410.5738577730594,1711
2412.4165580528183,1731
2414.258847756095,1785
2416.100727168537,1806
2417.9421965758734,1731
2419.783256263912,1741
2421.623906518538,1843
2423.4641476257157,1759
2425.303979871491,1816
2427.143403541984,1795
2428.9824189233977,1762
2430.821026302012,1721
2432.6592259641866,1765
2434.497018196361,1731
2436.33440328505,1685
2438.171381516851,1773
2440.00795317844,1772
2441.844118556569,1810
2443.6798779380724,1717
2445.5152316098606,1799
2447.3501798589255,1700
2449.1847229723357,1733
2451.0188612372403,1764
2452.8525949408663,1731
2454.6859243705203,1741
2456.518849813587,1789
2458.3513715575314,1770
2460.183489889895,1762
2462.015205098301,1709
2463.8465174704493,1762
2465.67742729412,1763
2467.5079348571717,1792
2469.338040447542,1836
2471.1677443532476,1794
2472.9970468623833,1785
2474.825948263123,1772
2476.6544488437207,1769
2478.482548892508,1807
2480.310248697896,1753
2482.137548548374,1814
2483.9644487325118,1816
2485.790949538956,1724
2487.617051256433,1777
2489.44275417375,1780
2491.26805857979,1810
2493.0929647635157,1771
2494.917473013971,1812
2496.741583620276,1806
2498.5652968716304,1842
2500.3886130573137,1819
2502.2115324666834,1869
2504.0340553891765,1809
2505.856182114308,1868
2507.6779129316733,1847
2509.499248130945,1829
2511.3201880018764,1893
2513.140732834298,1869
2514.9608829181198,1865
2516.780638543331,1803
2518.6,1828
2520.418967578273,1831
2522.237541568376,1765
2524.0557222606144,1860
2525.8735099453706,1847
2527.6909049131086,1827
2529.507907454368,1824
2531.32451785977,1827
2533.140736420014,1840
2534.9565634258774,1921
2536.771999168218,1868
2538.5870439379714,1862
2540.4016980261526,1885
2542.2159617238544,1924
2544.02983532225,1901
2545.8433191125914,1953
2547.656413386209,1872
2549.4691184345115,1992
2551.2814345489874,1934
2553.093362021204,1960
2554.904901142808,1997
2556.716052205523,1967
2558.526815501153,2040
2560.3371913215824,1954
2562.147179958771,1976
2563.956781704761,1960
2565.7659968516705,2036
2567.5748256916986,2029
2569.3832685171224,2025
2571.1913256202984,2041
2572.9989972936614,2096
2574.806283829725,2034
2576.613185521084,2122
2578.4197026604074,1992
2580.2258355404483,2050
2582.031584454035,2055
2583.836949694077,2105
2585.6419315535613,2120
2587.4465303255533,2165
2589.2507463032002,2152
2591.0545797797245,2224
2592.8580310484303,2171
2594.6611004026995,2118
2596.463788135992,2116
2598.266094541849,2156
2600.0680199138874,2146
2601.869564545807,2121
2603.670728731383,2198
2605.4715127644704,2153
2607.2719169390048,2176
2609.071941548998,2136
2610.8715868885433,2127
2612.670853251811,2219
2614.469740933052,2178
2616.268250226594,2225
2618.0663814268455,2180
2619.864134828292,2079
2621.6615107255006,2114
2623.458509413115,2220
2625.2551311858597,2125
2627.0513763385347,2109
2628.8472451660223,2120
2630.6427379632833,2049
2632.4378550253564,2143
2634.232596647359,2069
2636.026963124488,2190
2637.8209547520187,2129
2639.6145718253065,2071
2641.407814639785,2046
2643.200683490966,2021
2644.9931786744414,2050
2646.7853004858807,2037
2648.577049221034,2038
2650.3684251757277,2047
2652.1594286458712,2026
2653.9500599274484,1937
2655.740319316525,1941
2657.5302071092437,1976
2659.3197236018286,2052
2661.10886909058,1971
2662.8976438718782,1990
2664.686048242183,1998
2666.4740824980327,1950
2668.2617469360443,1950
2670.0490418529134,1891
2671.8359675454153,1910
2673.622524310403,1918
2675.408712444811,1901
2677.1945322456495,1921
2678.979984010009,1861
2680.76506803506,1960
2682.5497846180497,1936
2684.334134056306,1936
2686.1181166472343,1870
2687.9017326883213,1925
2689.6849824771293,1927
2691.4678663113013,1878
2693.2503844885596,1906
2695.032537306705,1814
2696.8143250636167,1842
2698.5957480572542,1827
2700.3768065856534,1783
2702.1575009469316,1941
2703.937831439283,1865
2705.717798360982,1816
2707.4974020103837,1845
2709.276642685917,1831
2711.055520686095,1817
2712.834036309506,1778
2714.612189854819,1843
2716.389981620782,1740
2718.1674119062204,1839
2719.944481010041,1759
2721.721189231226,1717
2723.4975368688415,1708
2725.273524222027,1760
2727.0491515900053,1759
2728.824419272075,1804
2730.5993275676146,1822
2732.3738767760838,1794
2734.148067197016,1773
2735.921899130031,1787
2737.6953728748194,1851
2739.468488731156,1761
2741.2412469988926,1771
2743.0136479779617,1732
2744.785691968372,1779
2746.5573792702116,1729
2748.3287101836504,1737
2750.099685008934,1752
2751.870304046388,1751
2753.640567596418,1734
2755.4104759595057,1781
2757.1800294362156,1762
2758.949228327187,1727
2760.7180729331412,1742
2762.486563554877,1772
2764.254700493272,1777
2766.022484049284,1736
2767.789914523947,1775
2769.5569922183786,1686
2771.3237174337705,1838
2773.090090471394,1647
2774.8561116326036,1708
2776.6217812188274,1765
2778.3870995315756,1790
2780.1520668724356,1761
2781.9166835430747,1698
2783.6809498452394,1743
2785.444866080754,1763
2787.2084325515225,1777
2788.971649559527,1742
2790.73451740683,1729
2792.4970363955713,1787
2794.2592068279705,1785
2796.0210290063264,1763
2797.7825032330147,1770
2799.543629810493,1749
2801.304409041296,1716
2803.0648412280366,1817
2804.8249266734088,1769
2806.5846656801846,1699
2808.344058551212,1759
2810.1031055894246,1802
2811.8618070978273,1824
2813.6201633795085,1741
2815.378174737636,1751
2817.1358414754536,1664
2818.893163896285,1782
2820.6501423035334,1748
2822.4067770006814,1785
2824.1630682912883,1771
2825.9190164789957,1775
2827.6746218675207,1820
2829.429884760661,1781
2831.184805462294,1739
2832.9393842763743,1846
2834.693621506936,1754
2836.4475174580916,1803
2838.201072434034,1822
2839.954286739034,1814
2841.707160677441,1790
2843.459694553685,1810
2845.2118886722724,1791
2846.96374333779,1783
2848.7152588549034,1806
2850.4664355283567,1778
2852.217273662973,1789
2853.9677735636546,1810
2855.7179355353833,1721
2857.4677598832186,1740
2859.217246912299,1859
2860.9663969278427,1750
2862.715210235146,1775
2864.4636871395846,1797
2866.211827946614,1785
2867.9596329617652,1723
2869.7071024906536,1716
2871.4542368389684,1791
2873.20103631248,1798
2874.947501217038,1748
2876.6936318585695,1739
2878.4394285430812,1748
2880.1848915766604,1766
2881.9300212654707,1799
2883.6748179157553,1731
2885.4192818338374,1744
2887.1634133261173,1809
2888.907212699077,1814
2890.6506802592744,1818
2892.393816313348,1866
2894.1366211680142,1803
2895.8790951300693,1753
2897.621238506388,1812
2899.363051603925,1780
2901.1045347297118,1760
2902.8456881908596,1871
2904.58651229456,1795
2906.327007348081,1780
2908.067173658772,1779
2909.8070115340597,1799
2911.5465212814497,1823
2913.285703208527,1809
2915.0245576229563,1797
2916.7630848324807,1777
2918.5012851449196,1674
2920.2391588681758,1800
2921.976706310227,1761
2923.7139277791334,1759
2925.4508235830313,1822
2927.187394030137,1823
2928.923639428745,1792
2930.6595600872306,1770
2932.395156314046,1824
2934.1304284177218,1791
2935.8653767068713,1746
2937.6000014901815,1799
2939.3343030764227,1813
2941.068281774442,1820
2942.8019378931644,1871
2944.5352717415976,1830
2946.2682836288236,1819
2948.0009738640065,1888
2949.7333427563885,1854
2951.465390615289,1832
2953.1971177501086,1868
2954.9285244703265,1806
2956.6596110855,1846
2958.3903779052657,1853
2960.1208252393385,1858
2961.8509533975125,1898
2963.5807626896617,1779
2965.3102534257378,1794
2967.0394259157715,1834
2968.768280469873,1791
2970.496817398232,1846
2972.2250370111146,1838
2973.952939618869,1844
2975.6805255319196,1808
2977.4077950607707,1826
2979.134748516006,1837
2980.861386208289,1868
2982.587708448359,1856
2984.313715547037,1881
2986.039407815222,1872
2987.764785563891,1882
2989.489849104102,1794
2991.2145987469908,1755
2992.9390348037705,1898
2994.6631575857346,1765
2996.3869674042576,1873
2998.1104645707887,1794
2999.83364939686,1840
3001.5565221940783,1886
3003.2790832741334,1826
3005.0013329487924,1785
3006.7232715298996,1811
3008.4448993293804,1816
3010.166216659239,1763
3011.887223831558,1787
3013.607921158498,1853
3015.3283089522993,1799
3017.0483875252826,1822
3018.7681571898443,1811
3020.4876182584626,1829
3022.2067710436927,1832
3023.9256158581707,1821
3025.644153014609,1879
3027.362382825801,1772
3029.0803056046193,1833
3030.797921664012,1834
3032.5152313170106,1838
3034.2322348767225,1894
3035.9489326563353,1853
3037.665324969115,1805
3039.3814121284063,1831
3041.097194447633,1776
3042.812672240299,1892
3044.5278458199855,1893
3046.2427155003525,1874
3047.9572815951406,1863
3049.671544418167,1835
3051.38550428333,1838
3053.0991615046073,1783
3054.812516396051,1884
3056.5255692717974,1826
3058.2383204460575,1828
3059.9507702331257,1807
3061.662918947372,1853
3063.3747669032446,1784
3065.0863144152736,1885
3066.7975617980674,1838
3068.508509366309,1832
3070.219157434767,1840
3071.9295063182844,1829
3073.639556331785,1802
3075.3493077902704,1915
3077.058761008821,1970
3078.7679163025964,1944
3080.476773986837,1900
3082.1853343768594,1846
3083.89359778806,1838
3085.6015645359153,1917
3087.3092349359786,1832
3089.016609303884,1870
3090.7236879553434,1817
3092.4304712061476,1885
3094.136959372166,1904
3095.843152769349,1850
3097.5490517137237,1854
3099.2546565213966,1853
3100.959967508554,1805
3102.66498499146,1829
3104.3697092864577,1773
3106.0741407099695,1809
3107.778279578498,1872
3109.482126208622,1881
3111.1856809170004,1947
3112.8889440203716,1847
3114.5919158355528,1859
3116.294596679439,1908
3117.996986869006,1899
3119.6990867213062,1880
3121.4008965534726,1851
3123.102416682717,1886
3124.803647426329,1896
3126.5045891016784,1869
3128.205242026213,1892
3129.90560651746,1912
3131.605682893025,1909
3133.3054714705922,1878
3135.0049725679282,1942
3136.7041865028714,1889
3138.4031135933465,1917
3140.101754157353,1889
3141.800108512971,1859
3143.498176978357,1876
3145.1959598717494,1832
3146.8934575114636,1787
3148.5906702158954,1839
3150.2875983035183,1826
3151.9842420928853,1881
3153.680601902627,1887
3155.376678051456,1837
3157.07247085816,1794
3158.767980641609,1829
3160.463207720748,1833
3162.158152414606,1785
3163.8528150422862,1846
3165.5471959229726,1898
3167.2412953759303,1843
3168.9351137204976,1856
3170.628651276098,1876
3172.3219083622307,1905
3174.014885298474,1905
3175.707582404485,1784
3177.4000000000005,1869
3179.092138404835,1960
3180.7839979388846,1944
3182.47557892212,1875
3184.166881674594,1903
3185.8579065164386,1848
3187.5486537678626,1854
3189.2391237491547,1840
3190.9293167806827,1875
3192.6192331828934,1903
3194.3088732763117,1814
3195.998237381542,1868
3197.687325819268,1863
3199.376138910251,1842
3201.064676975334,1808
3202.7529403354347,1844
3204.4409293115523,1813
3206.1286442247647,1900
3207.816085396229,1795
3209.5032531471825,1812
3211.190147798936,1892
3212.8767696728846,1877
3214.5631190905015,1815
3216.2491963733373,1821
3217.9350018430214,1825
3219.6205358212637,1741
3221.305798629851,1729
3222.990790590651,1793
3224.6755120256103,1782
3226.359963256751,1776
3228.0441446061795,1840
3229.7280563960758,1918
3231.411698948703,1810
3233.0950725863995,1829
3234.778177631587,1837
3236.461014406761,1837
3238.1435832345005,1883
3239.8258844374595,1834
3241.507918338374,1840
3243.1896852600576,1866
3244.8711855254023,1881
3246.552419457381,1840
3248.233387379042,1878
3249.914089613516,1821
3251.59452648401,1786
3253.274698313813,1835
3254.95460542629,1797
3256.6342481448855,1812
3258.313626793125,1830
3259.9927416946084,1822
3261.6715931730196,1789
3263.3501815521176,1723
3265.0285071557437,1791
3266.706570307815,1834
3268.3843713323286,1820
3270.0619105533615,1755
3271.739188295068,1847
3273.4162048816834,1875
3275.0929606375184,1855
3276.769455886966,1865
3278.445690954498,1851
3280.1216661646613,1898
3281.797381842087,1851
3283.4728383114807,1840
3285.1480358976296,1861
3286.8229749253996,1829
3288.4976557197333,1837
3290.172078605655,1853
3291.846243908266,1897
3293.5201519527463,1806
3295.193803064357,1762
3296.8671975684374,1793
3298.5403357904024,1815
3300.21321805575,1862
3301.8858446900567,1799
3303.558216018975,1808
3305.23033236824,1826
3306.9021940636603,1805
3308.57380143113,1903
3310.2451547966184,1897
3311.916254486174,1860
3313.5871008259246,1763
3315.2576941420766,1888
3316.9280347609147,1795
3318.5981230088046,1767
3320.2679592121895,1762
3321.9375436975924,1793
3323.606876791612,1794
3325.27595882093,1822
3326.944790112305,1829
3328.6133709925753,1799
3330.2817017886573,1835
3331.949782827547,1791
3333.617614436319,1814
3335.2851969421245,1824
3336.952530672199,1876
3338.619615953853,1810
3340.286453114475,1874
3341.9530424815357,1853
3343.619384382583,1836
3345.2854791452437,1801
3346.951327097224,1871
3348.6169285663073,1765
3350.2822838803577,1794
3351.947393367319,1862
3353.61225735521,1896
3355.2768761721345,1841
3356.9412501462693,1779
3358.605379605873,1798
3360.2692648792827,1817
3361.9329062949146,1786
3363.596304181263,1766
