CollectionTime,7/11/2024 11:44:03 AM
ExposureUsed,3
CalibratedSpectrum
-962.7078968117929,764
-959.9714848408522,808
-957.2358232597828,814
-954.5009119013725,834
-951.7667505983302,833
-949.0333391832855,860
-946.3006774887896,821
-943.5687653473143,819
-940.837602591253,811
-938.1071890529199,790
-935.3775245645503,841
-932.6486089583007,856
-929.9204420662485,876
-927.1930237203925,850
-924.4663537526524,839
-921.7404319948689,794
-919.0152582788041,873
-916.2908324361409,951
-913.5671542984834,873
-910.8442236973568,832
-908.1220404642074,862
-905.4006044304027,819
-902.679915427231,849
-899.959973285902,848
-897.2407778375464,868
-894.5223289132158,870
-891.8046263438832,840
-889.0876699604426,841
-886.3714595937089,830
-883.6559950744183,856
-880.9412762332282,810
-878.2273029007168,830
-875.5140749073835,829
-872.8015920836489,840
-870.0898542598545,845
-867.3788612662631,873
-864.6686129330585,850
-861.9591090903457,819
-859.2503495681506,819
-856.5423341964203,829
-853.8350628050229,860
-851.1285352237478,835
-848.4227512823054,928
-845.7177108103272,880
-843.0134136373656,822
-840.3098595928943,883
-837.6070485063082,916
-834.9049802069229,871
-832.2036545239757,901
-829.5030712866244,871
-826.8032303239481,883
-824.1041314649472,868
-821.4057745385428,850
-818.7081593735775,919
-816.0112857988148,879
-813.3151536429393,865
-810.6197627345566,883
-807.9251129021936,905
-805.2312039742981,813
-802.5380357792392,894
-799.8456081453069,905
-797.1539209007124,896
-794.462973873588,911
-791.772766891987,958
-789.083299783884,913
-786.3945723771743,921
-783.7065844996748,929
-781.0193359791231,892
-778.3328266431781,952
-775.6470563194197,928
-772.9620248353489,909
-770.2777320183878,915
-767.5941776958798,951
-764.9113616950891,948
-762.2292838432011,929
-759.5479439673222,869
-756.8673418944801,905
-754.1874774516235,941
-751.5083504656222,917
-748.8299607632671,880
-746.15230817127,899
-743.475392516264,926
-740.7992136248035,936
-738.1237713233636,945
-735.4490654383407,985
-732.7750957960521,967
-730.1018622227365,962
-727.4293645445534,927
-724.7576025875837,998
-722.0865761778291,972
-719.4162851412126,930
-716.7467293035781,1002
-714.0779084906909,1026
-711.409822528237,954
-708.7424712418238,987
-706.0758544569796,1012
-703.4099719991541,1019
-700.7448236937178,1058
-698.0804093659622,1072
-695.4167288411002,999
-692.7537819442656,981
-690.0915685005134,1012
-687.4300883348199,1017
-684.7693412720819,989
-682.1093271371178,984
-679.4500457546669,1027
-676.7914969493897,1035
-674.1336805458676,1010
-671.4765963686034,1073
-668.8202442420206,1008
-666.1646239904642,1081
-663.5097354382001,999
-660.8555784094151,1040
-658.2021527282176,1015
-655.5494582186366,1043
-652.8974947046223,1061
-650.2462620100463,1079
-647.5957599587009,1053
-644.9459883742998,1084
-642.2969470804776,1028
-639.6486359007902,1094
-637.0010546587141,1076
-634.3542031776476,1074
-631.7080812809096,1106
-629.0626887917401,1075
-626.4180255333008,1107
-623.7740913286734,1091
-621.1308860008619,1112
-618.4884093727904,1059
-615.8466612673046,1080
-613.2056415071715,1048
-610.5653499150785,1090
-607.9257863136347,1076
-605.28695052537,1120
-602.6488423727357,1070
-600.0114616781036,1070
-597.3748082637674,1098
-594.7388819519412,1152
-592.1036825647604,1170
-589.4692099242818,1152
-586.8354638524829,1110
-584.2024441712624,1138
-581.5701507024403,1160
-578.9385832677575,1164
-576.3077416888759,1135
-573.6776257873787,1106
-571.0482353847704,1100
-568.4195703024757,1151
-565.7916303618415,1156
-563.164415384135,1131
-560.5379251905453,1135
-557.9121596021815,1149
-555.2871184400748,1083
-552.6628015251767,1150
-550.0392086783606,1155
-547.4163397204204,1124
-544.794194472071,1111
-542.1727727539491,1129
-539.5520743866118,1217
-536.9320991905377,1182
-534.3128469861261,1229
-531.6943175936979,1248
-529.0765108334947,1225
-526.4594265256793,1256
-523.8430644903358,1350
-521.2274245474689,1487
-518.612506517005,1446
-515.9983102187913,1464
-513.3848354725959,1452
-510.77208209810846,1536
-508.16004991493924,1576
-505.5487387426199,1773
-502.9381484006032,1860
-500.3282787082628,1949
-497.71912948489364,1894
-495.1107005497117,1846
-492.5029917218539,1649
-489.8960028203786,1570
-487.28973366426493,1418
-484.68418407241325,1440
-482.07935386364494,1301
-479.47524285670266,1305
-476.87185087025,1390
-474.2691777228715,1353
-471.66722323307334,1404
-469.0659872192821,1346
-466.4654694998459,1274
-463.86566989303384,1244
-461.26658821703614,1300
-458.66822428996414,1293
-456.07057792985,1323
-453.4736489546475,1338
-450.877437182231,1284
-448.28194243039627,1326
-445.68716451686,1339
-443.09310325926003,1344
-440.49975847515555,1302
-437.9071299820263,1303
-435.31521759727354,1211
-432.72402113821954,1293
-430.13354042210767,1348
-427.5437752661022,1293
-424.95472548728867,1293
-422.36639090267386,1388
-419.7787713291855,1414
-417.1918665836721,1463
-414.60567648290385,1459
-412.0202008435715,1415
-409.4354394822874,1372
-406.8513922155845,1428
-404.26805885991723,1444
-401.685439231661,1458
-399.103533147112,1383
-396.522340422488,1368
-393.9418608739278,1246
-391.3620943174908,1371
-388.7830405691583,1257
-386.2046994448317,1218
-383.6270707603344,1175
-381.05015433141045,1073
-378.473949973725,1064
-375.8984575028645,971
-373.32367673433623,884
-370.74960748356875,825
-368.1762495659117,739
-365.60360279663576,667
-363.03166699093265,604
-360.4604419639154,569
-357.8899275306178,524
-355.32012350599507,518
-352.7510297049233,484
-350.1826459421999,510
-347.61497203254316,473
-345.04800779059235,510
-342.4817530309082,464
-339.91620756797226,495
-337.35137121618743,536
-334.7872437898774,579
-332.22382510328725,561
-329.66111497058273,553
-327.09911320585127,513
-324.53781962310075,534
-321.9772340362607,554
-319.4173562591816,517
-316.8581861056348,531
-314.2997233893127,517
-311.7419679238294,547
-309.1849195227194,560
-306.62857799943856,562
-304.0729431673641,639
-301.51801483979375,544
-298.963792829947,539
-296.41027695096386,632
-293.85746701590574,603
-291.3053628377552,595
-288.7539642294155,600
-286.2032710037115,609
-283.65328297338897,601
-281.1039999511146,623
-278.5554217494762,626
-276.007548180983,581
-273.4603790580651,611
-270.9139141930734,623
-268.3681533982807,614
-265.8230964858798,621
-263.27874326798565,612
-260.7350935566336,678
-258.1921471637804,629
-255.6499039013039,608
-253.10836358100266,591
-250.56752601459698,599
-248.02739101372765,648
-245.48795838995704,725
-242.94922795476816,689
-240.41119951956557,678
-237.8738728956746,695
-235.33724789434166,660
-232.80132432673452,648
-230.2661020039418,699
-227.73158073697357,781
-225.19776033676033,812
-222.66464061415422,782
-220.1322213799284,754
-217.60050244477725,685
-215.06948361931552,731
-212.53916471408013,780
-210.00954553952818,711
-207.48062590603843,713
-204.9524056239104,726
-202.4248845033651,827
-199.8980623545441,785
-197.37193898751036,824
-194.84651421224817,811
-192.32178783866232,795
-189.79775967657952,815
-187.27442953574644,836
-184.7517972258321,821
-182.2298625564256,799
-179.7086253370378,774
-177.18808537710026,816
-174.66824248596583,932
-172.14909647290835,920
-169.6306471471229,873
-167.11289431772548,934
-164.59583779375328,985
-162.07947738416453,881
-159.5638128978386,950
-157.04884414357605,1040
-154.53457093009854,1112
-152.02099306604828,1066
-149.50811035998936,961
-146.99592262040665,974
-144.48442965570587,1040
-141.97363127421409,1118
-139.46352728417958,1226
-136.95411749377126,1339
-134.44540171107985,1165
-131.93737974411636,1001
-129.43005140081357,1006
-126.92341648902493,1136
-124.41747481652521,1721
-121.91222619101006,2632
-119.40767042009657,3167
-116.90380731132257,2982
-114.40063667214702,3620
-111.8981583099503,5401
-109.3963720320337,6907
-106.89527764561933,6374
-104.39487495785067,4326
-101.89516377579241,3593
-99.39614390642998,5683
-96.89781515667039,9353
-94.40017733334128,11786
-91.90323024319173,12643
-89.40697369289148,13422
-86.91140748903172,13302
-84.41653143812482,10998
-81.92234534660395,6853
-79.42884902082358,4692
-76.93604226705907,6774
-74.4439248915071,13082
-71.95249670028534,18829
-69.46175749943245,21323
-66.97170709490854,20371
-64.48234529259423,17398
-61.99367189829195,15870
-59.50568671772464,14544
-57.01838955653636,12142
-54.53178022029283,10391
-52.045858514480074,10789
-49.560624244506016,11780
-47.07607721569923,11785
-44.59221723330904,10321
-42.10904410250669,9649
-39.62655762838392,9109
-37.14475761595372,8439
-34.66364387015028,10145
-32.18321619582866,10993
-29.70347439776515,10790
-27.224418280657005,12748
-24.74604764912317,14929
-22.26836230770266,21774
-19.7913620608565,39551
-17.315046712966478,65036
-14.83941606833514,65036
-12.36446993118659,65036
-9.89020810566592,65036
-7.416630395839093,65036
-4.94373660569363,65036
-2.471526539137585,65036
-6.821210263296962E-13,65036
2.47084320796705,65036
4.941003281093458,65036
7.410480415786196,65036
9.879274808531363,65036
12.347386655893956,65036
14.814816154518212,65036
17.28156350112681,65036
19.74762889252179,65036
22.21301252558385,65036
24.67771459727237,19526
27.141735304626195,4657
29.605074844762612,3384
32.06773341487792,2873
34.52971121224755,3064
36.99100843422559,3141
39.45162527824516,2312
41.91156194181792,2256
44.370818622535126,1932
46.82939551806646,1924
49.287292826160524,2211
51.74451074464503,2129
54.201049471426245,2229
56.65690920448981,2179
59.112090141899785,1983
61.56659248179983,1719
64.02041642241159,1734
66.4735621620365,1583
68.92602989905402,1431
71.37781983192338,1550
73.82893215918205,1594
76.27936707944684,1657
78.72912479141326,1375
81.17820549385567,1642
83.62660938562783,1674
86.07433666566146,1315
88.5213875329681,1226
90.96776218663751,1409
93.41346082583925,1301
95.85848364982041,1082
98.30283085790859,1176
100.7465026495089,1373
103.18949922410604,1492
105.63182078126385,1395
108.07346752062438,1369
110.51443964190923,1131
112.95473734491827,1150
115.39436082953114,1208
117.83331029570547,1163
120.27158594347827,1151
122.7091879729652,1190
125.1461165843615,1228
127.58237197794062,1143
130.01795435405518,1053
132.4528639131364,1167
134.88710085569494,1250
137.32066538231982,1128
139.75355769367923,965
142.1857779905207,930
144.61732647366978,971
147.04820334403132,990
149.47840880258934,1034
151.90794305040674,1101
154.33680628862487,1325
156.76499871846443,1473
159.19252054122433,1620
161.61937195828352,1706
164.04555317109896,1857
166.47106438120693,2044
168.89590579022217,2293
171.320077599839,2452
173.7435800118302,2691
176.16641322804742,2855
178.58857745042144,2951
181.01007288096173,3015
183.43089972175687,2899
185.85105817497413,2994
188.27054844285988,2918
190.6893707277394,3032
193.10752523201643,3009
195.5250121581745,3160
197.9418317087751,3135
200.3579840864594,3209
202.7734694939469,3099
205.18828813403627,3289
207.6024402096051,3287
210.01592592360964,3292
212.42874547908548,3273
214.84089907914665,3116
217.2523869269868,3121
219.66320922587727,3105
222.0733661791695,3212
224.48285799029293,3182
226.8916848627572,3187
229.29984700014882,3223
231.7073446061355,3077
234.11417788446204,3152
236.520347038953,3186
238.92585227351185,3299
241.33069379212054,3363
243.73487179884035,3367
246.1383864978112,3378
248.541238093252,3429
250.9434267894609,3241
253.34495279081432,3233
255.74581630176783,3217
258.1460175268563,3205
260.54555667069314,3188
262.9444339379703,3102
265.3426495334594,3237
267.7402036620107,3096
270.1370965285529,3093
272.53332833809407,3166
274.9288992957214,2933
277.32380960660055,2962
279.718059475976,2952
282.1116491091717,2915
284.5045787115897,2905
286.89684848871195,2844
289.2884586460981,2917
291.67940938938807,2879
294.0697009242996,2909
296.4593334566299,2961
298.84830719225477,2864
301.23662233712923,2802
303.6242790972866,2905
306.01127767884,2903
308.39761828798066,2755
310.78330113097934,2744
313.16832641418534,2712
315.5526943440269,2674
317.9364051270112,2711
320.3194589697242,2688
322.70185607883093,2685
325.0835966610754,2682
327.4646809232805,2632
329.8451090723478,2669
332.2248813152577,2639
334.6039978590701,2612
336.9824589109231,2605
339.36026467803447,2547
341.7374153677,2516
344.113911187295,2554
346.48975234427337,2598
348.8649390461686,2553
351.2394715005918,2615
353.61334991523415,2564
355.9865744978655,2554
358.35914545633375,2495
360.73106299856715,2593
363.10232733257146,2583
365.47293866643247,2563
367.84289720831396,2423
370.2122031664593,2445
372.5808567491905,2575
374.9488581649083,2508
377.31620762209275,2519
379.6829053293021,2502
382.0489514951745,2465
384.4143463284262,2477
386.7790900378528,2401
389.14318283232853,2509
391.50662492080653,2463
393.86941651231916,2473
396.23155781597745,2523
398.5930490409713,2460
400.9538903965696,2467
403.3140820921202,2530
405.6736243370498,2426
408.03251734086336,2460
410.3907613131465,2483
412.74835646356166,2460
415.10530300185144,2396
417.4616011378372,2384
419.81725108141893,2441
422.1722530425758,2385
424.5266072313656,2418
426.880313857925,2350
429.2333731324701,2362
431.58578526529516,2452
433.9375504667738,2429
436.2886689473588,2384
438.63914091758113,2464
440.9889665880513,2374
443.33814616945835,2381
445.68667987257015,2334
448.03456790823395,2383
450.3818104873759,2293
452.72840782100013,2376
455.07436012019105,2330
457.41966759611057,2369
459.7643304600007,2389
462.10834892318155,2378
464.4517231970525,2319
466.79445349309174,2392
469.1365400228566,2441
471.4779829979826,2453
473.81878263018564,2394
476.15893913125876,2444
478.4984527130747,2337
480.8373235875855,2498
483.17555196682144,2509
485.5131380628919,2531
487.8500820879857,2656
490.1863842543697,2798
492.52204477439034,2989
494.8570638604725,3150
497.1914417251204,3329
499.52517858091653,3633
501.85827464052306,3695
504.19073011668036,3579
506.5225452222086,3595
508.85372017000566,3432
511.18425517304956,3427
513.514150444396,3702
515.8434061971808,4326
518.1720226446176,4870
520.4999999999999,4832
522.8273384766991,4599
525.1540382881666,4393
527.480099647932,3894
529.8055227696037,3367
532.1303078668694,2943
534.454455153496,2558
536.777964843328,2593
539.1008371502907,2413
541.4230722883866,2418
543.744670471698,2443
546.0656319143858,2532
548.3859568306899,2434
550.7056454349294,2519
553.0246979415016,2400
555.3431145648834,2471
557.6608955196306,2494
559.978041020377,2462
562.2945512818363,2381
564.6104265188006,2383
566.9256669461412,2397
569.2402727788082,2430
571.5542442318302,2493
573.8675815203156,2528
576.1802848594508,2440
578.4923544645015,2475
580.8037905508126,2536
583.114593333807,2470
585.4247630289875,2417
587.7342998519354,2473
590.0432040183106,2506
592.3514757438526,2460
594.6591152443794,2452
596.9661227357875,2608
599.2724984340531,2563
601.578242555231,2472
603.8833553154542,2528
606.1878369309362,2498
608.4916876179676,2499
610.7949075929192,2460
613.0974970722403,2502
615.3994562724587,2507
617.7007854101818,2527
620.0014847020951,2501
622.3015543649641,2462
624.6009946156324,2471
626.8998056710224,2511
629.1979877481361,2527
631.4955410640538,2521
633.7924658359349,2433
636.0887622810175,2506
638.3844306166192,2539
640.6794710601358,2513
642.9738838290426,2611
645.2676691408932,2516
647.5608272133207,2518
649.853358264037,2531
652.1452625108324,2537
654.4365401715764,2548
656.7271914642178,2518
659.0172166067838,2538
661.3066158173809,2612
663.5953893141935,2576
665.8835373154867,2563
668.1710600396028,2470
670.4579577049639,2583
672.7442305300709,2614
675.0298787335033,2549
677.3149025339197,2567
679.599302150058,2557
681.8830778007342,2635
684.1662297048437,2619
686.4487580813608,2583
688.7306631493387,2493
691.0119451279091,2575
693.2926042362834,2627
695.5726406937516,2451
697.8520547196814,2485
700.1308465335215,2494
702.4090163547982,2582
704.6865644031171,2534
706.9634908981619,2518
709.2397960596965,2628
711.5154801075631,2620
713.7905432616823,2536
716.0649857420548,2585
718.3388077687592,2560
720.612009561953,2622
722.8845913418733,2516
725.1565533288352,2650
727.427895743234,2521
729.6986188055427,2573
731.9687227363137,2566
734.238207756178,2505
736.5070740858458,2440
738.7753219461066,2498
741.0429515578281,2543
743.3099631419569,2581
745.5763569195191,2542
747.8421331116193,2614
750.1072919394409,2448
752.3718336242467,2612
754.6357583873777,2562
756.8990664502545,2513
759.1617580343765,2546
761.423833361321,2553
763.6852926527457,2572
765.9461361303862,2638
768.206364016058,2490
770.4659765316536,2542
772.7249738991469,2603
774.9833563405886,2660
777.2411240781092,2690
779.4982773339183,2644
781.7548163303044,2594
784.010741289634,2669
786.2660524343538,2639
788.5207499869881,2627
790.7748341701416,2578
793.0283052064964,2591
795.2811633188143,2603
797.5334087299362,2591
799.7850416627813,2584
802.0360623403484,2587
804.2864709857143,2590
806.5362678220353,2613
808.7854530725468,2654
811.0340269605625,2602
813.2819897094754,2569
815.5293415427581,2604
817.77608268396,2659
820.0222133567116,2536
822.2677337847211,2568
824.5126441917765,2536
826.7569448017433,2596
829.0006358385675,2549
831.2437175262731,2636
833.4861900889629,2608
835.7280537508192,2677
837.9693087361026,2599
840.2099552691533,2540
842.4499935743896,2589
844.689423876309,2613
846.9282463994886,2606
849.1664613685833,2596
851.4040690083276,2600
853.6410695435349,2617
855.877463199097,2572
858.1132501999847,2673
860.3484307712487,2609
862.5830051380175,2606
864.8169735254988,2611
867.0503361589791,2646
869.2830932638243,2739
871.5152450654786,2709
873.7467917894654,2633
875.9777336613873,2587
878.2080709069252,2616
880.4378037518389,2657
882.666932421968,2658
884.8954571432301,2674
887.1233781416219,2584
889.3506956432192,2701
891.5774098741766,2713
893.803521060728,2681
896.0290294291852,2680
898.2539352059397,2649
900.4782386174619,2654
902.7019398903011,2665
904.925039251085,2705
907.147536926521,2685
909.3694331433943,2670
911.59072812857,2661
913.8114221089921,2662
916.0315153116827,2616
918.2510079637437,2601
920.4699002923547,2586
922.6881925247761,2602
924.905884888345,2556
927.1229776104793,2695
929.3394709186747,2661
931.555365040506,2499
933.7706602036275,2611
935.9853566357709,2605
938.1994545647489,2591
940.4129542184515,2649
942.6258558248488,2612
944.8381596119883,2589
947.0498658079974,2554
949.2609746410825,2511
951.4714863395287,2645
953.6814011316998,2529
955.8907192460387,2574
958.0994409110671,2528
960.3075663553858,2537
962.5150958076741,2585
964.7220294966913,2509
966.928367651274,2520
969.1341105003388,2496
971.3392582728806,2470
973.5438111979742,2513
975.747769504772,2572
977.9511334225061,2530
980.153903180487,2506
982.3560790081052,2419
984.5576611348289,2505
986.7586497902058,2488
988.9590452038618,2480
991.158847605503,2493
993.3580572249133,2375
995.5566742919558,2360
997.7546990365728,2361
999.952131688785,2320
1002.1489724786926,2280
1004.3452216364743,2387
1006.5408793923874,2365
1008.7359459767691,2291
1010.9304216200343,2315
1013.1243065526781,2241
1015.3176010052733,2219
1017.510305208472,2192
1019.7024193930064,2254
1021.8939437896848,2284
1024.0848786293977,2258
1026.2752241431122,2267
1028.4649805618747,2264
1030.6541481168115,2271
1032.842727039127,2298
1035.0307175601051,2216
1037.2181199111074,2226
1039.4049343235752,2192
1041.591161029029,2216
1043.7768002590683,2265
1045.9618522453698,2260
1048.1463172196918,2240
1050.3301954138697,2179
1052.513487059818,2204
1054.69619238953,2140
1056.8783116350783,2273
1059.0598450286152,2189
1061.2407928023704,2247
1063.4211551886528,2286
1065.6009324198508,2243
1067.780124728432,2222
1069.9587323469414,2122
1072.1367555080046,2187
1074.314194444325,2187
1076.4910493886855,2193
1078.667320573947,2219
1080.843008233051,2137
1083.0181125990161,2183
1085.1926339049414,2089
1087.3665723840027,2162
1089.5399282694575,2086
1091.7127017946405,2177
1093.8848931929647,2080
1096.0565026979243,2057
1098.2275305430899,2121
1100.3979769621128,2125
1102.567842188722,2078
1104.737126456726,2093
1106.9058300000124,2121
1109.0739530525475,2132
1111.2414958483764,2158
1113.4084586216231,2117
1115.5748416064907,2007
1117.7406450372605,2135
1119.9058691482942,2118
1122.0705141740304,2036
1124.2345803489884,2093
1126.3980679077658,2117
1128.5609770850388,2112
1130.7233081155623,2096
1132.8850612341707,2134
1135.0462366757774,2071
1137.2068346753745,2052
1139.3668554680326,2072
1141.526299288901,2101
1143.68516637321,2059
1145.8434569562655,2068
1148.001171273455,2048
1150.158309560244,2123
1152.3148720521767,2068
1154.470858984876,2039
1156.626270594044,2035
1158.7811071154629,2009
1160.9353687849912,2043
1163.089055838569,2057
1165.242168512213,2066
1167.3947070420209,2056
1169.5466716641677,1954
1171.6980626149075,2054
1173.8488801305748,1997
1175.9991244475814,2086
1178.1487958024186,2028
1180.2978944316555,2042
1182.4464205719428,2057
1184.5943744600072,2019
1186.7417563326567,1985
1188.8885664267755,2056
1191.0348049793297,2010
1193.1804722273619,2064
1195.325568407995,2012
1197.4700937584303,2042
1199.614048515948,2015
1201.7574329179074,2027
1203.900247201746,1983
1206.042491604982,2013
1208.1841663652099,1969
1210.3252717201053,2032
1212.465807907422,2056
1214.6057751649923,2024
1216.7451737307279,2016
1218.8840038426192,1988
1221.0222657387353,1956
1223.1599596572241,1990
1225.2970858363137,2065
1227.4336445143094,2138
1229.5696359295966,2085
1231.705060320639,1988
1233.8399179259786,2080
1235.9742089842384,2105
1238.107933734118,2088
1240.2410924143974,2035
1242.373685263935,2032
1244.5057125216676,2015
1246.6371744266116,2032
1248.7680712178621,2032
1250.898403134593,2016
1253.028170416058,2061
1255.1573733015875,2043
1257.2860120305932,2042
1259.4140868425648,1977
1261.54159797707,2100
1263.6685456737569,2044
1265.7949301723515,2082
1267.9207517126597,2098
1270.046010534565,2031
1272.1707068780306,2164
1274.2948409830983,2075
1276.4184130898889,2124
1278.541423438603,2159
1280.6638722695184,2094
1282.785759822993,2094
1284.9070863394636,2189
1287.0278520594447,2176
1289.1480572235314,2136
1291.2677020723963,2135
1293.3867868467923,2103
1295.5053117875495,2082
1297.623277135579,2202
1299.740683131868,2174
1301.8575300174857,2185
1303.973818033578,2195
1306.0895474213703,2211
1308.2047184221678,2243
1310.3193312773528,2212
1312.4333862283888,2283
1314.5468835168163,2157
1316.659823384255,2146
1318.7722060724045,2171
1320.8840318230418,2218
1322.9953008780249,2225
1325.1060134792888,2174
1327.2161698688478,2103
1329.3257702887959,2132
1331.4348149813054,2171
1333.5433041886276,2174
1335.6512381530933,2186
1337.7586171171101,2151
1339.8654413231675,2138
1341.9717110138317,2099
1344.0774264317488,2129
1346.1825878196432,2176
1348.2871954203192,2210
1350.3912494766587,2190
1352.4947502316231,2178
1354.5976979282532,2167
1356.7000928096686,2115
1358.8019351190665,2132
1360.9032250997243,2177
1363.0039629949988,2183
1365.1041490483235,2223
1367.2037835032133,2131
1369.3028666032606,2170
1371.401398592137,2223
1373.4993797135926,2170
1375.5968102114575,2184
1377.6936903296396,2107
1379.7900203121262,2220
1381.8858004029835,2156
1383.9810308463561,2214
1386.075711886469,2199
1388.1698437676241,2204
1390.2634267342032,2121
1392.356461030667,2217
1394.4489469015557,2112
1396.5408845914872,2183
1398.6322743451592,2208
1400.7231164073469,2195
1402.813411022907,2231
1404.903158436773,2315
1406.9923588939578,2310
1409.0810126395531,2229
1411.1691199187303,2219
1413.2566809767386,2220
1415.343696058907,2293
1417.4301654106425,2290
1419.5160892774315,2201
1421.6014679048399,2375
1423.6863015385125,2284
1425.7705904241707,2266
1427.8543348076178,2346
1429.9375349347342,2342
1432.0201910514802,2265
1434.102303403894,2369
1436.1838722380944,2302
1438.2648978002767,2387
1440.3453803367174,2419
1442.4253200937692,2395
1444.5047173178677,2537
1446.5835722555234,2446
1448.6618851533285,2463
1450.739656257952,2443
1452.8168858161434,2431
1454.8935740747306,2581
1456.96972128062,2656
1459.045327680797,2621
1461.120393522327,2602
1463.1949190523528,2678
1465.2689045180973,2760
1467.3423501668608,2746
1469.415256246024,2752
1471.4876230030463,2808
1473.559450685465,2885
1475.6307395408976,2837
1477.7014898170391,2888
1479.771701761665,2947
1481.8413756226287,3053
1483.9105116478618,3028
1485.9791100853772,3041
1488.0471711832643,3133
1490.1146951896926,3057
1492.1816823529098,3152
1494.2481329212433,3218
1496.3140471430984,3373
1498.3794252669609,3274
1500.4442675413939,3341
1502.5085742150404,3374
1504.572345536622,3331
1506.6355817549388,3477
1508.6982831188702,3454
1510.7604498773744,3508
1512.8220822794883,3441
1514.8831805743293,3694
1516.9437450110909,3599
1519.003775839048,3593
1521.0632733075522,3747
1523.1222376660367,3847
1525.1806691640113,3850
1527.2385680510652,3842
1529.2959345768668,4028
1531.3527689911643,3977
1533.4090715437833,4143
1535.4648424846291,4139
1537.5200820636855,4171
1539.5747905310159,4160
1541.6289681367616,4291
1543.6826151311434,4368
1545.7357317644614,4357
1547.7883182870937,4367
1549.8403749494987,4404
1551.8919020022113,4441
1553.9428996958477,4551
1555.9933682811015,4714
1558.0433080087469,4870
1560.0927191296346,4855
1562.1416018946961,4689
1564.1899565549415,4794
1566.2377833614592,4615
1568.2850825654164,4595
1570.3318544180606,4492
1572.3780991707158,4336
1574.423817074788,4125
1576.4690083817595,3898
1578.5136733431923,3762
1580.5578122107272,3540
1582.601425236085,3495
1584.6445126710646,3337
1586.6870747675434,3242
1588.7291117774776,3135
1590.7706239529034,3016
1592.8116115459347,3114
1594.8520748087658,2909
1596.8920139936686,2819
1598.9314293529933,2756
1600.9703211391711,2704
1603.008689604711,2634
1605.0465350022005,2657
1607.0838575843068,2593
1609.1206576037753,2552
1611.1569353134305,2468
1613.1926909661765,2380
1615.2279248149953,2506
1617.2626371129481,2452
1619.2968281131757,2381
1621.3304980688963,2378
1623.3636472334088,2324
1625.39627586009,2304
1627.428384202396,2231
1629.459972513861,2344
1631.4910410480993,2229
1633.5215900588028,2233
1635.551619799744,2315
1637.5811305247717,2232
1639.6101224878166,2251
1641.6385959428862,2236
1643.6665511440683,2299
1645.693988345528,2295
1647.7209078015112,2237
1649.7473097663405,2265
1651.7731944944203,2253
1653.7985622402307,2163
1655.823413258333,2195
1657.847747803366,2196
1659.8715661300494,2158
1661.8948684931793,2172
1663.9176551476316,2331
1665.9399263483624,2136
1667.9616823504057,2222
1669.982923408873,2223
1672.0036497789574,2162
1674.0238617159293,2102
1676.043559475138,2164
1678.0627433120121,2132
1680.081413482059,2240
1682.0995702408654,2165
1684.117213844096,2139
1686.134344547495,2183
1688.1509626068864,2150
1690.1670682781705,2161
1692.182661817329,2215
1694.1977434804217,2236
1696.2123135235875,2203
1698.226372203043,2217
1700.2399197750851,2183
1702.2529564960905,2139
1704.2654826225112,2156
1706.277498410882,2205
1708.2890041178139,2125
1710.2999999999988,2261
1712.3104863142066,2257
1714.3204633172854,2206
1716.329931266163,2151
1718.3388904178469,2158
1720.3473410294214,2176
1722.3552833580516,2133
1724.3627176609807,2151
1726.3696441955308,2214
1728.3760632191033,2135
1730.3819749891782,2179
1732.3873797633146,2142
1734.3922777991502,2194
1736.3966693544012,2127
1738.4005546868639,2131
1740.4039340544127,2153
1742.406807715001,2126
1744.4091759266616,2136
1746.4110389475054,2186
1748.4123970357223,2190
1750.413250449582,2098
1752.4135994474318,2137
1754.4134442876993,2124
1756.4127852288902,2009
1758.4116225295893,2113
1760.4099564484595,2156
1762.407787244244,2129
1764.405115175764,2061
1766.4019405019203,2079
1768.3982634816916,2105
1770.3940843741357,2091
1772.3894034383907,2156
1774.3842209336717,2139
1776.378537119274,2138
1778.372352254571,2099
1780.3656665990156,2080
1782.3584804121397,2132
1784.3507939535534,2121
1786.3426074829463,2031
1788.3339212600863,2071
1790.3247355448211,2093
1792.3150505970766,2030
1794.3048666768573,2114
1796.2941840442477,2090
1798.2830029594106,2089
1800.2713236825884,2190
1802.2591464741004,2079
1804.2464715943465,2023
1806.2332993038058,2117
1808.2196298630352,2075
1810.2054635326708,2071
1812.190800573428,2085
1814.175641246101,2084
1816.1599858115628,2095
1818.1438345307652,2092
1820.127187664738,2132
1822.1100454745924,2079
1824.092408221516,2074
1826.0742761667766,2024
1828.055649571721,2079
1830.0365286977735,2225
1832.0169138064398,2193
1833.9968051593014,2158
1835.9762030180214,2076
1837.9551076443408,2121
1839.9335193000788,2096
1841.9114382471344,2053
1843.888864747485,2026
1845.8657990631878,2120
1847.842241456378,2085
1849.8181921892697,2087
1851.7936515241558,2039
1853.7686197234098,2053
1855.7430970494815,2087
1857.7170837649014,2124
1859.6905801322787,2101
1861.6635864143004,2066
1863.6361028737338,2180
1865.608129773424,2100
1867.5796673762961,2024
1869.5507159453537,2162
1871.521275743678,2121
1873.4913470344313,2100
1875.4609300808534,2100
1877.4300251462632,2106
1879.3986324940588,2120
1881.366752387717,2126
1883.3343850907936,2100
1885.3015308669228,2109
1887.268189979819,2027
1889.2343626932739,2121
1891.2000492711595,2135
1893.1652499774254,2125
1895.1299650761011,2093
1897.0941948312952,2067
1899.0579395071945,2136
1901.0211993680641,2128
1902.98397467825,2171
1904.9462657021745,2152
1906.9080727043415,2077
1908.869395949332,2159
1910.8302357018065,2144
1912.790592226504,2133
1914.7504657882428,2166
1916.7098566519212,2109
1918.6687650825133,2096
1920.6271913450764,2097
1922.5851357047422,2134
1924.5425984267245,2138
1926.499579776314,2125
1928.4560800188833,2150
1930.4120994198802,2197
1932.367638244833,2143
1934.32269675935,2175
1936.2772752291175,2171
1938.231373919899,2124
1940.1849930975404,2137
1942.1381330279637,2112
1944.0907939771696,2180
1946.0429762112412,2058
1947.9946799963363,2179
1949.9459055986945,2072
1951.896653284633,2147
1953.8469233205478,2053
1955.7967159729142,2138
1957.7460315082863,2134
1959.6948701932974,2147
1961.6432322946594,2216
1963.5911180791632,2211
1965.5385278136787,2204
1967.4854617651545,2178
1969.4319202006182,2095
1971.377903387176,2154
1973.3234115920136,2130
1975.268445082395,2235
1977.2130041256642,2119
1979.1570889892423,2127
1981.1006999406304,2113
1983.04383724741,2189
1984.986501177238,2228
1986.928691997853,2229
1988.8704099770712,2163
1990.811655382789,2126
1992.7524284829801,2168
1994.692729545698,2160
1996.6325588390755,2117
1998.5719166313224,2174
2000.5108031907307,2171
2002.4492187856677,2099
2004.387163684583,2154
2006.3246381560011,2086
2008.2616424685298,2144
2010.1981768908527,2104
2012.1342416917332,2074
2014.069837140014,2147
2016.0049635046162,2171
2017.9396210545406,2189
2019.8738100588666,2130
2021.8075307867502,2103
2023.740783507431,2181
2025.6735684902228,2172
2027.6058860045214,2108
2029.5377363198004,2148
2031.4691197056118,2157
2033.4000364315875,2172
2035.3304867674374,2201
2037.260470982952,2166
2039.189989347998,2098
2041.1190421325232,2090
2043.047629606554,2099
2044.9757520401945,2117
2046.9034097036288,2135
2048.8306028671195,2135
2050.7573318010086,2090
2052.683596775716,2057
2054.609398061742,2114
2056.5347359296647,2150
2058.4596106501403,2117
2060.384022493906,2240
2062.3079717317764,2102
2064.231458634646,2113
2066.1544834734873,2108
2068.077046519352,2179
2069.99914804337,2150
2071.9207883167524,2102
2073.8419676107865,2159
2075.7626861968406,2091
2077.6829443463607,2141
2079.6027423308715,2168
2081.522080421977,2107
2083.440958891362,2135
2085.359378010786,2144
2087.2773380520907,2149
2089.194839287196,2071
2091.111881988101,2017
2093.0284664268825,2107
2094.9445928756973,2097
2096.86026160678,2102
2098.775472892446,2113
2100.690227005088,2198
2102.604524217178,2176
2104.5183648012676,2119
2106.431749029985,2216
2108.34467717604,2156
2110.2571495122206,2082
2112.169166311393,2123
2114.080727846503,2048
2115.9918343905747,2153
2117.902486216711,2152
2119.8126835980956,2146
2121.722426807987,2217
2123.6317161197285,2142
2125.5405518067364,2195
2127.448934142509,2156
2129.356863400624,2135
2131.264339854737,2108
2133.1713637785815,2201
2135.077935445972,2160
2136.9840551308002,2138
2138.889723107037,2184
2140.7949396487334,2128
2142.699705030018,2149
2144.6040195250994,2100
2146.507883408264,2193
2148.4112969538774,2144
2150.3142604363848,2093
2152.2167741303097,2186
2154.1188383102535,2214
2156.0204532508997,2134
2157.9216192270064,2225
2159.822336513414,2203
2161.7226053850413,2238
2163.622426116884,2225
2165.5217989840185,2135
2167.4207242616,2204
2169.319202224862,2170
2171.2172331491165,2208
2173.1148173097563,2073
2175.0119549822507,2150
2176.90864644215,2154
2178.8048919650823,2174
2180.7006918267534,2264
2182.596046302952,2177
2184.4909556695407,2109
2186.3854202024645,2211
2188.279440177746,2254
2190.173015871487,2150
2192.066147559868,2200
2193.958835519149,2137
2195.851080025667,2236
2197.7428813558417,2156
2199.6342397861667,2161
2201.5251555932186,2171
2203.415629053651,2258
2205.3056604441986,2262
2207.19525004167,2215
2209.084398122958,2219
2210.9731049650327,2263
2212.861370844941,2246
2214.749196039812,2259
2216.636580826851,2151
2218.523525483344,2274
2220.410030286655,2252
2222.296095514226,2220
2224.1817214435805,2318
2226.066908352319,2238
2227.951656518121,2277
2229.835966218746,2241
2231.71983773203,2210
2233.6032713358913,2198
2235.486267308324,2251
2237.3688259274036,2210
2239.2509474712824,2220
2241.132632218193,2221
2243.013880446447,2211
2244.8946924344323,2250
2246.7750684606203,2218
2248.6550088035574,2206
2250.534513741871,2195
2252.413583554265,2293
2254.292218519526,2228
2256.170418916517,2273
2258.0481850241786,2214
2259.925517121534,2140
2261.8024154876825,2308
2263.678880401803,2200
2265.5549121431536,2223
2267.430510991071,2251
2269.305677224971,2223
2271.180411124348,2238
2273.0547129687766,2241
2274.9285830379076,2204
2276.8020216114737,2207
2278.6750289692845,2184
2280.5476053912294,2260
2282.4197511572766,2285
2284.2914665474727,2233
2286.162751841943,2333
2288.0336073208937,2290
2289.904033264608,2270
2291.774029953448,2296
2293.6435976678554,2172
2295.5127366883517,2159
2297.381447295534,2131
2299.2497297700825,2136
2301.1175843927526,2221
2302.9850114443825,2171
2304.852011205885,2096
2306.7185839582553,2109
2308.5847299825664,2123
2310.4504495599676,2070
2312.3157429716925,2159
2314.1806104990483,2100
2316.0450524234247,2024
2317.9090690262888,2022
2319.772660589186,2032
2321.635827393742,2067
2323.498569721661,2085
2325.3608878547248,2163
2327.2227820747967,2066
2329.0842526638157,2052
2330.945299903803,2046
2332.805924076857,2045
2334.6661254651535,2040
2336.525904350951,2072
2338.3852610165827,2066
2340.244195744464,2116
2342.102708817088,2059
2343.9608005170253,2051
2345.8184711269287,2044
2347.675720929526,2084
2349.532550207628,2067
2351.38895924412,2013
2353.24494832197,2130
2355.100517724223,2095
2356.955667734004,2070
2358.810398634514,2050
2360.664710709037,2140
2362.5186042409337,2037
2364.3720795136437,2088
2366.225136810686,2065
2368.0777764156583,2081
2369.929998612237,1983
2371.7818036841777,2066
2373.633191915315,2109
2375.484163589562,2066
2377.3347189909114,2132
2379.184858403434,2093
2381.03458211128,2135
2382.8838903986775,2065
2384.732783549936,2113
2386.5812618494406,2065
2388.4293255816588,2120
2390.2769750311327,2110
2392.1242104824883,2126
2393.971032220427,2189
2395.8174405297295,2145
2397.6634356952563,2075
2399.509018001947,2075
2401.3541877348193,2096
2403.1989451789705,2101
2405.043290619576,2044
2406.8872243418905,2087
2408.730746631247,2044
2410.5738577730594,2140
2412.4165580528183,2173
2414.258847756095,2095
2416.100727168537,2104
2417.9421965758734,2106
2419.783256263912,2075
2421.623906518538,2046
2423.4641476257157,2091
2425.303979871491,2059
2427.143403541984,2123
2428.9824189233977,2069
2430.821026302012,2053
2432.6592259641866,2099
2434.497018196361,2045
2436.33440328505,2118
2438.171381516851,2048
2440.00795317844,2117
2441.844118556569,2061
2443.6798779380724,2091
2445.5152316098606,2182
2447.3501798589255,2045
2449.1847229723357,2067
2451.0188612372403,2074
2452.8525949408663,2130
2454.6859243705203,2057
2456.518849813587,2084
2458.3513715575314,2074
2460.183489889895,2149
2462.015205098301,2138
2463.8465174704493,2115
2465.67742729412,2165
2467.5079348571717,2103
2469.338040447542,2063
2471.1677443532476,2132
2472.9970468623833,2141
2474.825948263123,2109
2476.6544488437207,2106
2478.482548892508,2121
2480.310248697896,2081
2482.137548548374,2095
2483.9644487325118,2091
2485.790949538956,2142
2487.617051256433,2193
2489.44275417375,2100
2491.26805857979,2154
2493.0929647635157,2131
2494.917473013971,2153
2496.741583620276,2165
2498.5652968716304,2136
2500.3886130573137,2125
2502.2115324666834,2111
2504.0340553891765,2157
2505.856182114308,2191
2507.6779129316733,2201
2509.499248130945,2209
2511.3201880018764,2214
2513.140732834298,2175
2514.9608829181198,2164
2516.780638543331,2187
2518.6,2195
2520.418967578273,2128
2522.237541568376,2191
2524.0557222606144,2132
2525.8735099453706,2134
2527.6909049131086,2213
2529.507907454368,2207
2531.32451785977,2202
2533.140736420014,2188
2534.9565634258774,2258
2536.771999168218,2226
2538.5870439379714,2212
2540.4016980261526,2185
2542.2159617238544,2222
2544.02983532225,2286
2545.8433191125914,2328
2547.656413386209,2245
2549.4691184345115,2297
2551.2814345489874,2227
2553.093362021204,2319
2554.904901142808,2287
2556.716052205523,2243
2558.526815501153,2339
2560.3371913215824,2293
2562.147179958771,2273
2563.956781704761,2299
2565.7659968516705,2367
2567.5748256916986,2350
2569.3832685171224,2278
2571.1913256202984,2370
2572.9989972936614,2365
2574.806283829725,2373
2576.613185521084,2332
2578.4197026604074,2444
2580.2258355404483,2435
2582.031584454035,2471
2583.836949694077,2465
2585.6419315535613,2472
2587.4465303255533,2416
2589.2507463032002,2431
2591.0545797797245,2427
2592.8580310484303,2407
2594.6611004026995,2452
2596.463788135992,2480
2598.266094541849,2468
2600.0680199138874,2471
2601.869564545807,2448
2603.670728731383,2495
2605.4715127644704,2465
2607.2719169390048,2529
2609.071941548998,2474
2610.8715868885433,2490
2612.670853251811,2484
2614.469740933052,2507
2616.268250226594,2512
2618.0663814268455,2549
2619.864134828292,2534
2621.6615107255006,2480
2623.458509413115,2464
2625.2551311858597,2557
2627.0513763385347,2538
2628.8472451660223,2461
2630.6427379632833,2430
2632.4378550253564,2454
2634.232596647359,2498
2636.026963124488,2458
2637.8209547520187,2363
2639.6145718253065,2394
2641.407814639785,2411
2643.200683490966,2420
2644.9931786744414,2360
2646.7853004858807,2425
2648.577049221034,2334
2650.3684251757277,2316
2652.1594286458712,2291
2653.9500599274484,2314
2655.740319316525,2283
2657.5302071092437,2316
2659.3197236018286,2260
2661.10886909058,2259
2662.8976438718782,2276
2664.686048242183,2240
2666.4740824980327,2273
2668.2617469360443,2313
2670.0490418529134,2356
2671.8359675454153,2201
2673.622524310403,2273
2675.408712444811,2304
2677.1945322456495,2157
2678.979984010009,2231
2680.76506803506,2197
2682.5497846180497,2233
2684.334134056306,2163
2686.1181166472343,2197
2687.9017326883213,2125
2689.6849824771293,2214
2691.4678663113013,2204
2693.2503844885596,2178
2695.032537306705,2234
2696.8143250636167,2219
2698.5957480572542,2159
2700.3768065856534,2132
2702.1575009469316,2237
2703.937831439283,2145
2705.717798360982,2125
2707.4974020103837,2190
2709.276642685917,2145
2711.055520686095,2202
2712.834036309506,2047
2714.612189854819,2107
2716.389981620782,2119
2718.1674119062204,2128
2719.944481010041,2187
2721.721189231226,2093
2723.4975368688415,2148
2725.273524222027,2169
2727.0491515900053,2148
2728.824419272075,2124
2730.5993275676146,2131
2732.3738767760838,2035
2734.148067197016,2086
2735.921899130031,2140
2737.6953728748194,2137
2739.468488731156,2175
2741.2412469988926,2139
2743.0136479779617,2133
2744.785691968372,2124
2746.5573792702116,2038
2748.3287101836504,2126
2750.099685008934,2030
2751.870304046388,2080
2753.640567596418,2079
2755.4104759595057,2129
2757.1800294362156,2060
2758.949228327187,2067
2760.7180729331412,2098
2762.486563554877,2103
2764.254700493272,2110
2766.022484049284,2154
2767.789914523947,2084
2769.5569922183786,2148
2771.3237174337705,2189
2773.090090471394,2164
2774.8561116326036,2016
2776.6217812188274,2106
2778.3870995315756,2130
2780.1520668724356,2064
2781.9166835430747,2061
2783.6809498452394,2166
2785.444866080754,2142
2787.2084325515225,2061
2788.971649559527,2118
2790.73451740683,2091
2792.4970363955713,2125
2794.2592068279705,2076
2796.0210290063264,2078
2797.7825032330147,2074
2799.543629810493,2160
2801.304409041296,2095
2803.0648412280366,2064
2804.8249266734088,2042
2806.5846656801846,2034
2808.344058551212,2164
2810.1031055894246,2126
2811.8618070978273,2111
2813.6201633795085,2080
2815.378174737636,2099
2817.1358414754536,2084
2818.893163896285,2135
2820.6501423035334,2155
2822.4067770006814,2176
2824.1630682912883,2157
2825.9190164789957,2104
2827.6746218675207,2079
2829.429884760661,2086
2831.184805462294,2049
2832.9393842763743,2124
2834.693621506936,2121
2836.4475174580916,2081
2838.201072434034,2118
2839.954286739034,2159
2841.707160677441,2157
2843.459694553685,2166
2845.2118886722724,2236
2846.96374333779,2103
2848.7152588549034,2115
2850.4664355283567,2122
2852.217273662973,2127
2853.9677735636546,2135
2855.7179355353833,2174
2857.4677598832186,2174
2859.217246912299,2141
2860.9663969278427,2195
2862.715210235146,2170
2864.4636871395846,2143
2866.211827946614,2138
2867.9596329617652,2142
2869.7071024906536,2120
2871.4542368389684,2078
2873.20103631248,2102
2874.947501217038,2142
2876.6936318585695,2097
2878.4394285430812,2086
2880.1848915766604,2191
2881.9300212654707,2128
2883.6748179157553,2156
2885.4192818338374,2209
2887.1634133261173,2140
2888.907212699077,2171
2890.6506802592744,2181
2892.393816313348,2159
2894.1366211680142,2090
2895.8790951300693,2184
2897.621238506388,2164
2899.363051603925,2172
2901.1045347297118,2156
2902.8456881908596,2115
2904.58651229456,2222
2906.327007348081,2108
2908.067173658772,2199
2909.8070115340597,2208
2911.5465212814497,2099
2913.285703208527,2110
2915.0245576229563,2084
2916.7630848324807,2115
2918.5012851449196,2071
2920.2391588681758,2035
2921.976706310227,2125
2923.7139277791334,2168
2925.4508235830313,2112
2927.187394030137,2217
2928.923639428745,2148
2930.6595600872306,2160
2932.395156314046,2189
2934.1304284177218,2184
2935.8653767068713,2175
2937.6000014901815,2116
2939.3343030764227,2136
2941.068281774442,2153
2942.8019378931644,2199
2944.5352717415976,2230
2946.2682836288236,2253
2948.0009738640065,2180
2949.7333427563885,2119
2951.465390615289,2124
2953.1971177501086,2088
2954.9285244703265,2209
2956.6596110855,2155
2958.3903779052657,2213
2960.1208252393385,2118
2961.8509533975125,2180
2963.5807626896617,2087
2965.3102534257378,2141
2967.0394259157715,2119
2968.768280469873,2186
2970.496817398232,2180
2972.2250370111146,2160
2973.952939618869,2148
2975.6805255319196,2113
2977.4077950607707,2205
2979.134748516006,2180
2980.861386208289,2149
2982.587708448359,2173
2984.313715547037,2196
2986.039407815222,2149
2987.764785563891,2250
2989.489849104102,2186
2991.2145987469908,2296
2992.9390348037705,2196
2994.6631575857346,2242
2996.3869674042576,2246
2998.1104645707887,2176
2999.83364939686,2164
3001.5565221940783,2211
3003.2790832741334,2235
3005.0013329487924,2200
3006.7232715298996,2158
3008.4448993293804,2154
3010.166216659239,2227
3011.887223831558,2196
3013.607921158498,2167
3015.3283089522993,2195
3017.0483875252826,2139
3018.7681571898443,2221
3020.4876182584626,2113
3022.2067710436927,2219
3023.9256158581707,2173
3025.644153014609,2213
3027.362382825801,2198
3029.0803056046193,2212
3030.797921664012,2246
3032.5152313170106,2176
3034.2322348767225,2189
3035.9489326563353,2177
3037.665324969115,2259
3039.3814121284063,2215
3041.097194447633,2299
3042.812672240299,2260
3044.5278458199855,2227
3046.2427155003525,2199
3047.9572815951406,2222
3049.671544418167,2206
3051.38550428333,2229
3053.0991615046073,2280
3054.812516396051,2202
3056.5255692717974,2177
3058.2383204460575,2218
3059.9507702331257,2164
3061.662918947372,2152
3063.3747669032446,2255
3065.0863144152736,2245
3066.7975617980674,2234
3068.508509366309,2204
3070.219157434767,2199
3071.9295063182844,2167
3073.639556331785,2162
3075.3493077902704,2261
3077.058761008821,2238
3078.7679163025964,2278
3080.476773986837,2290
3082.1853343768594,2259
3083.89359778806,2234
3085.6015645359153,2203
3087.3092349359786,2264
3089.016609303884,2258
3090.7236879553434,2293
3092.4304712061476,2237
3094.136959372166,2219
3095.843152769349,2246
3097.5490517137237,2249
3099.2546565213966,2255
3100.959967508554,2207
3102.66498499146,2268
3104.3697092864577,2248
3106.0741407099695,2189
3107.778279578498,2218
3109.482126208622,2189
3111.1856809170004,2221
3112.8889440203716,2210
3114.5919158355528,2254
3116.294596679439,2258
3117.996986869006,2299
3119.6990867213062,2252
3121.4008965534726,2252
3123.102416682717,2339
3124.803647426329,2280
3126.5045891016784,2240
3128.205242026213,2191
3129.90560651746,2305
3131.605682893025,2333
3133.3054714705922,2261
3135.0049725679282,2254
3136.7041865028714,2259
3138.4031135933465,2273
3140.101754157353,2278
3141.800108512971,2285
3143.498176978357,2229
3145.1959598717494,2229
3146.8934575114636,2198
3148.5906702158954,2236
3150.2875983035183,2245
3151.9842420928853,2251
3153.680601902627,2196
3155.376678051456,2224
3157.07247085816,2193
3158.767980641609,2244
3160.463207720748,2241
3162.158152414606,2314
3163.8528150422862,2168
3165.5471959229726,2289
3167.2412953759303,2304
3168.9351137204976,2347
3170.628651276098,2251
3172.3219083622307,2232
3174.014885298474,2292
3175.707582404485,2296
3177.4000000000005,2317
3179.092138404835,2285
3180.7839979388846,2285
3182.47557892212,2271
3184.166881674594,2193
3185.8579065164386,2200
3187.5486537678626,2233
3189.2391237491547,2308
3190.9293167806827,2197
3192.6192331828934,2289
3194.3088732763117,2253
3195.998237381542,2233
3197.687325819268,2263
3199.376138910251,2215
3201.064676975334,2206
3202.7529403354347,2218
3204.4409293115523,2261
3206.1286442247647,2197
3207.816085396229,2238
3209.5032531471825,2195
3211.190147798936,2184
3212.8767696728846,2162
3214.5631190905015,2265
3216.2491963733373,2147
3217.9350018430214,2209
3219.6205358212637,2203
3221.305798629851,2189
3222.990790590651,2218
3224.6755120256103,2175
3226.359963256751,2184
3228.0441446061795,2196
3229.7280563960758,2236
3231.411698948703,2246
3233.0950725863995,2207
3234.778177631587,2196
3236.461014406761,2249
3238.1435832345005,2248
3239.8258844374595,2200
3241.507918338374,2298
3243.1896852600576,2274
3244.8711855254023,2275
3246.552419457381,2267
3248.233387379042,2262
3249.914089613516,2288
3251.59452648401,2298
3253.274698313813,2239
3254.95460542629,2272
3256.6342481448855,2209
3258.313626793125,2235
3259.9927416946084,2205
3261.6715931730196,2272
3263.3501815521176,2205
3265.0285071557437,2159
3266.706570307815,2248
3268.3843713323286,2216
3270.0619105533615,2293
3271.739188295068,2319
3273.4162048816834,2230
3275.0929606375184,2272
3276.769455886966,2283
3278.445690954498,2235
3280.1216661646613,2274
3281.797381842087,2199
3283.4728383114807,2260
3285.1480358976296,2287
3286.8229749253996,2295
3288.4976557197333,2248
3290.172078605655,2198
3291.846243908266,2235
3293.5201519527463,2282
3295.193803064357,2155
3296.8671975684374,2142
3298.5403357904024,2226
3300.21321805575,2201
3301.8858446900567,2260
3303.558216018975,2261
3305.23033236824,2282
3306.9021940636603,2304
3308.57380143113,2285
3310.2451547966184,2329
3311.916254486174,2289
3313.5871008259246,2273
3315.2576941420766,2212
3316.9280347609147,2244
3318.5981230088046,2261
3320.2679592121895,2270
3321.9375436975924,2251
3323.606876791612,2223
3325.27595882093,2237
3326.944790112305,2207
3328.6133709925753,2266
3330.2817017886573,2200
3331.949782827547,2168
3333.617614436319,2269
3335.2851969421245,2267
3336.952530672199,2322
3338.619615953853,2269
3340.286453114475,2256
3341.9530424815357,2275
3343.619384382583,2255
3345.2854791452437,2237
3346.951327097224,2216
3348.6169285663073,2255
3350.2822838803577,2279
3351.947393367319,2255
3353.61225735521,2313
3355.2768761721345,2240
3356.9412501462693,2271
3358.605379605873,2292
3360.2692648792827,2240
3361.9329062949146,2283
3363.596304181263,2209
