CollectionTime,7/11/2024 11:44:16 AM
ExposureUsed,3
CalibratedSpectrum
-962.7078968117929,753
-959.9714848408522,814
-957.2358232597828,775
-954.5009119013725,768
-951.7667505983302,783
-949.0333391832855,795
-946.3006774887896,741
-943.5687653473143,807
-940.837602591253,806
-938.1071890529199,747
-935.3775245645503,778
-932.6486089583007,774
-929.9204420662485,786
-927.1930237203925,796
-924.4663537526524,810
-921.7404319948689,780
-919.0152582788041,827
-916.2908324361409,863
-913.5671542984834,810
-910.8442236973568,811
-908.1220404642074,832
-905.4006044304027,823
-902.679915427231,801
-899.959973285902,757
-897.2407778375464,769
-894.5223289132158,775
-891.8046263438832,776
-889.0876699604426,798
-886.3714595937089,831
-883.6559950744183,815
-880.9412762332282,794
-878.2273029007168,780
-875.5140749073835,785
-872.8015920836489,791
-870.0898542598545,770
-867.3788612662631,785
-864.6686129330585,820
-861.9591090903457,856
-859.2503495681506,799
-856.5423341964203,772
-853.8350628050229,782
-851.1285352237478,818
-848.4227512823054,789
-845.7177108103272,802
-843.0134136373656,788
-840.3098595928943,819
-837.6070485063082,796
-834.9049802069229,812
-832.2036545239757,797
-829.5030712866244,778
-826.8032303239481,817
-824.1041314649472,838
-821.4057745385428,846
-818.7081593735775,797
-816.0112857988148,790
-813.3151536429393,817
-810.6197627345566,818
-807.9251129021936,818
-805.2312039742981,818
-802.5380357792392,812
-799.8456081453069,856
-797.1539209007124,859
-794.462973873588,902
-791.772766891987,899
-789.083299783884,821
-786.3945723771743,841
-783.7065844996748,838
-781.0193359791231,811
-778.3328266431781,812
-775.6470563194197,804
-772.9620248353489,790
-770.2777320183878,830
-767.5941776958798,852
-764.9113616950891,859
-762.2292838432011,864
-759.5479439673222,840
-756.8673418944801,882
-754.1874774516235,897
-751.5083504656222,887
-748.8299607632671,844
-746.15230817127,809
-743.475392516264,849
-740.7992136248035,897
-738.1237713233636,863
-735.4490654383407,844
-732.7750957960521,890
-730.1018622227365,912
-727.4293645445534,896
-724.7576025875837,862
-722.0865761778291,871
-719.4162851412126,903
-716.7467293035781,931
-714.0779084906909,926
-711.409822528237,906
-708.7424712418238,912
-706.0758544569796,899
-703.4099719991541,923
-700.7448236937178,947
-698.0804093659622,951
-695.4167288411002,957
-692.7537819442656,883
-690.0915685005134,911
-687.4300883348199,885
-684.7693412720819,922
-682.1093271371178,916
-679.4500457546669,914
-676.7914969493897,900
-674.1336805458676,906
-671.4765963686034,922
-668.8202442420206,939
-666.1646239904642,949
-663.5097354382001,949
-660.8555784094151,947
-658.2021527282176,967
-655.5494582186366,996
-652.8974947046223,953
-650.2462620100463,968
-647.5957599587009,974
-644.9459883742998,977
-642.2969470804776,1010
-639.6486359007902,1020
-637.0010546587141,995
-634.3542031776476,1031
-631.7080812809096,1008
-629.0626887917401,999
-626.4180255333008,1007
-623.7740913286734,1008
-621.1308860008619,977
-618.4884093727904,976
-615.8466612673046,990
-613.2056415071715,980
-610.5653499150785,985
-607.9257863136347,1033
-605.28695052537,1000
-602.6488423727357,1064
-600.0114616781036,1012
-597.3748082637674,1011
-594.7388819519412,1096
-592.1036825647604,1108
-589.4692099242818,1113
-586.8354638524829,1088
-584.2024441712624,1018
-581.5701507024403,1046
-578.9385832677575,1071
-576.3077416888759,1053
-573.6776257873787,1089
-571.0482353847704,1026
-568.4195703024757,1029
-565.7916303618415,1075
-563.164415384135,1067
-560.5379251905453,1038
-557.9121596021815,1015
-555.2871184400748,1053
-552.6628015251767,1022
-550.0392086783606,1062
-547.4163397204204,1098
-544.794194472071,1025
-542.1727727539491,1098
-539.5520743866118,1108
-536.9320991905377,1171
-534.3128469861261,1201
-531.6943175936979,1137
-529.0765108334947,1170
-526.4594265256793,1244
-523.8430644903358,1292
-521.2274245474689,1353
-518.612506517005,1330
-515.9983102187913,1429
-513.3848354725959,1402
-510.77208209810846,1444
-508.16004991493924,1524
-505.5487387426199,1736
-502.9381484006032,1816
-500.3282787082628,1810
-497.71912948489364,1788
-495.1107005497117,1702
-492.5029917218539,1547
-489.8960028203786,1427
-487.28973366426493,1359
-484.68418407241325,1336
-482.07935386364494,1336
-479.47524285670266,1232
-476.87185087025,1204
-474.2691777228715,1209
-471.66722323307334,1257
-469.0659872192821,1267
-466.4654694998459,1311
-463.86566989303384,1188
-461.26658821703614,1230
-458.66822428996414,1312
-456.07057792985,1298
-453.4736489546475,1283
-450.877437182231,1221
-448.28194243039627,1213
-445.68716451686,1232
-443.09310325926003,1182
-440.49975847515555,1238
-437.9071299820263,1195
-435.31521759727354,1280
-432.72402113821954,1319
-430.13354042210767,1296
-427.5437752661022,1279
-424.95472548728867,1254
-422.36639090267386,1323
-419.7787713291855,1394
-417.1918665836721,1396
-414.60567648290385,1317
-412.0202008435715,1325
-409.4354394822874,1319
-406.8513922155845,1354
-404.26805885991723,1365
-401.685439231661,1416
-399.103533147112,1364
-396.522340422488,1288
-393.9418608739278,1293
-391.3620943174908,1330
-388.7830405691583,1269
-386.2046994448317,1182
-383.6270707603344,1149
-381.05015433141045,1065
-378.473949973725,930
-375.8984575028645,903
-373.32367673433623,844
-370.74960748356875,819
-368.1762495659117,715
-365.60360279663576,661
-363.03166699093265,630
-360.4604419639154,586
-357.8899275306178,571
-355.32012350599507,518
-352.7510297049233,483
-350.1826459421999,499
-347.61497203254316,463
-345.04800779059235,495
-342.4817530309082,551
-339.91620756797226,541
-337.35137121618743,557
-334.7872437898774,589
-332.22382510328725,558
-329.66111497058273,522
-327.09911320585127,483
-324.53781962310075,538
-321.9772340362607,581
-319.4173562591816,503
-316.8581861056348,571
-314.2997233893127,534
-311.7419679238294,560
-309.1849195227194,622
-306.62857799943856,675
-304.0729431673641,654
-301.51801483979375,585
-298.963792829947,613
-296.41027695096386,609
-293.85746701590574,620
-291.3053628377552,551
-288.7539642294155,606
-286.2032710037115,612
-283.65328297338897,563
-281.1039999511146,667
-278.5554217494762,663
-276.007548180983,617
-273.4603790580651,644
-270.9139141930734,580
-268.3681533982807,643
-265.8230964858798,683
-263.27874326798565,711
-260.7350935566336,657
-258.1921471637804,636
-255.6499039013039,595
-253.10836358100266,641
-250.56752601459698,610
-248.02739101372765,708
-245.48795838995704,751
-242.94922795476816,719
-240.41119951956557,685
-237.8738728956746,727
-235.33724789434166,696
-232.80132432673452,709
-230.2661020039418,714
-227.73158073697357,799
-225.19776033676033,796
-222.66464061415422,841
-220.1322213799284,787
-217.60050244477725,702
-215.06948361931552,734
-212.53916471408013,776
-210.00954553952818,724
-207.48062590603843,734
-204.9524056239104,762
-202.4248845033651,792
-199.8980623545441,811
-197.37193898751036,858
-194.84651421224817,876
-192.32178783866232,802
-189.79775967657952,879
-187.27442953574644,936
-184.7517972258321,874
-182.2298625564256,847
-179.7086253370378,781
-177.18808537710026,816
-174.66824248596583,856
-172.14909647290835,889
-169.6306471471229,959
-167.11289431772548,948
-164.59583779375328,937
-162.07947738416453,860
-159.5638128978386,919
-157.04884414357605,1001
-154.53457093009854,1031
-152.02099306604828,970
-149.50811035998936,1043
-146.99592262040665,1129
-144.48442965570587,1124
-141.97363127421409,1182
-139.46352728417958,1272
-136.95411749377126,1276
-134.44540171107985,1141
-131.93737974411636,996
-129.43005140081357,990
-126.92341648902493,1287
-124.41747481652521,1810
-121.91222619101006,2722
-119.40767042009657,3257
-116.90380731132257,3247
-114.40063667214702,3874
-111.8981583099503,5883
-109.3963720320337,7327
-106.89527764561933,6610
-104.39487495785067,4460
-101.89516377579241,3786
-99.39614390642998,6196
-96.89781515667039,10107
-94.40017733334128,12362
-91.90323024319173,13533
-89.40697369289148,14461
-86.91140748903172,14524
-84.41653143812482,11358
-81.92234534660395,7569
-79.42884902082358,5127
-76.93604226705907,7172
-74.4439248915071,13412
-71.95249670028534,18994
-69.46175749943245,21798
-66.97170709490854,20445
-64.48234529259423,17951
-61.99367189829195,16529
-59.50568671772464,15183
-57.01838955653636,12283
-54.53178022029283,10434
-52.045858514480074,10792
-49.560624244506016,10347
-47.07607721569923,9687
-44.59221723330904,9872
-42.10904410250669,9501
-39.62655762838392,8958
-37.14475761595372,8341
-34.66364387015028,8991
-32.18321619582866,9751
-29.70347439776515,9473
-27.224418280657005,10553
-24.74604764912317,13428
-22.26836230770266,20922
-19.7913620608565,36786
-17.315046712966478,61635
-14.83941606833514,65036
-12.36446993118659,65036
-9.89020810566592,65036
-7.416630395839093,65036
-4.94373660569363,65036
-2.471526539137585,65036
-6.821210263296962E-13,65036
2.47084320796705,65036
4.941003281093458,65036
7.410480415786196,65036
9.879274808531363,65036
12.347386655893956,65036
14.814816154518212,65036
17.28156350112681,65036
19.74762889252179,65036
22.21301252558385,65036
24.67771459727237,20993
27.141735304626195,4357
29.605074844762612,3066
32.06773341487792,3080
34.52971121224755,2961
36.99100843422559,3163
39.45162527824516,2568
41.91156194181792,2425
44.370818622535126,2250
46.82939551806646,2170
49.287292826160524,2441
51.74451074464503,2540
54.201049471426245,2668
56.65690920448981,2323
59.112090141899785,2013
61.56659248179983,1686
64.02041642241159,1782
66.4735621620365,1705
68.92602989905402,1480
71.37781983192338,1628
73.82893215918205,1697
76.27936707944684,1775
78.72912479141326,1581
81.17820549385567,1508
83.62660938562783,1741
86.07433666566146,1397
88.5213875329681,1177
90.96776218663751,1210
93.41346082583925,1250
95.85848364982041,1312
98.30283085790859,1416
100.7465026495089,1576
103.18949922410604,1439
105.63182078126385,1279
108.07346752062438,1326
110.51443964190923,1205
112.95473734491827,1134
115.39436082953114,1246
117.83331029570547,1208
120.27158594347827,1322
122.7091879729652,1442
125.1461165843615,1310
127.58237197794062,1144
130.01795435405518,1226
132.4528639131364,1413
134.88710085569494,1241
137.32066538231982,1138
139.75355769367923,1096
142.1857779905207,1111
144.61732647366978,1102
147.04820334403132,1005
149.47840880258934,1044
151.90794305040674,1201
154.33680628862487,1352
156.76499871846443,1553
159.19252054122433,1639
161.61937195828352,1830
164.04555317109896,2023
166.47106438120693,2110
168.89590579022217,2319
171.320077599839,2432
173.7435800118302,2666
176.16641322804742,2687
178.58857745042144,2951
181.01007288096173,3064
183.43089972175687,2997
185.85105817497413,3132
188.27054844285988,2966
190.6893707277394,2914
193.10752523201643,3000
195.5250121581745,3254
197.9418317087751,3365
200.3579840864594,3299
202.7734694939469,3228
205.18828813403627,3367
207.6024402096051,3386
210.01592592360964,3421
212.42874547908548,3295
214.84089907914665,3146
217.2523869269868,3135
219.66320922587727,3208
222.0733661791695,3121
224.48285799029293,3127
226.8916848627572,3197
229.29984700014882,3176
231.7073446061355,3174
234.11417788446204,3003
236.520347038953,3169
238.92585227351185,3236
241.33069379212054,3326
243.73487179884035,3377
246.1383864978112,3401
248.541238093252,3309
250.9434267894609,3255
253.34495279081432,3164
255.74581630176783,3306
258.1460175268563,3142
260.54555667069314,3190
262.9444339379703,3163
265.3426495334594,3140
267.7402036620107,3151
270.1370965285529,3091
272.53332833809407,3041
274.9288992957214,2941
277.32380960660055,2911
279.718059475976,2894
282.1116491091717,2878
284.5045787115897,2819
286.89684848871195,2782
289.2884586460981,2901
291.67940938938807,2830
294.0697009242996,2881
296.4593334566299,2967
298.84830719225477,2881
301.23662233712923,2863
303.6242790972866,2845
306.01127767884,2816
308.39761828798066,2875
310.78330113097934,2787
313.16832641418534,2653
315.5526943440269,2655
317.9364051270112,2533
320.3194589697242,2604
322.70185607883093,2664
325.0835966610754,2623
327.4646809232805,2667
329.8451090723478,2532
332.2248813152577,2561
334.6039978590701,2563
336.9824589109231,2601
339.36026467803447,2378
341.7374153677,2566
344.113911187295,2456
346.48975234427337,2525
348.8649390461686,2468
351.2394715005918,2539
353.61334991523415,2500
355.9865744978655,2437
358.35914545633375,2541
360.73106299856715,2542
363.10232733257146,2405
365.47293866643247,2370
367.84289720831396,2445
370.2122031664593,2428
372.5808567491905,2473
374.9488581649083,2369
377.31620762209275,2371
379.6829053293021,2344
382.0489514951745,2317
384.4143463284262,2368
386.7790900378528,2398
389.14318283232853,2376
391.50662492080653,2493
393.86941651231916,2440
396.23155781597745,2397
398.5930490409713,2434
400.9538903965696,2417
403.3140820921202,2442
405.6736243370498,2323
408.03251734086336,2448
410.3907613131465,2343
412.74835646356166,2410
415.10530300185144,2369
417.4616011378372,2337
419.81725108141893,2343
422.1722530425758,2312
424.5266072313656,2361
426.880313857925,2336
429.2333731324701,2372
431.58578526529516,2305
433.9375504667738,2272
436.2886689473588,2310
438.63914091758113,2250
440.9889665880513,2337
443.33814616945835,2334
445.68667987257015,2186
448.03456790823395,2296
450.3818104873759,2204
452.72840782100013,2229
455.07436012019105,2271
457.41966759611057,2362
459.7643304600007,2382
462.10834892318155,2242
464.4517231970525,2355
466.79445349309174,2405
469.1365400228566,2407
471.4779829979826,2307
473.81878263018564,2309
476.15893913125876,2299
478.4984527130747,2420
480.8373235875855,2458
483.17555196682144,2394
485.5131380628919,2547
487.8500820879857,2587
490.1863842543697,2665
492.52204477439034,2950
494.8570638604725,3106
497.1914417251204,3335
499.52517858091653,3493
501.85827464052306,3456
504.19073011668036,3553
506.5225452222086,3365
508.85372017000566,3372
511.18425517304956,3250
513.514150444396,3518
515.8434061971808,4281
518.1720226446176,4785
520.4999999999999,4812
522.8273384766991,4561
525.1540382881666,4323
527.480099647932,3839
529.8055227696037,3233
532.1303078668694,2853
534.454455153496,2531
536.777964843328,2507
539.1008371502907,2443
541.4230722883866,2401
543.744670471698,2391
546.0656319143858,2436
548.3859568306899,2209
550.7056454349294,2361
553.0246979415016,2343
555.3431145648834,2384
557.6608955196306,2348
559.978041020377,2248
562.2945512818363,2268
564.6104265188006,2396
566.9256669461412,2373
569.2402727788082,2408
571.5542442318302,2422
573.8675815203156,2358
576.1802848594508,2450
578.4923544645015,2423
580.8037905508126,2412
583.114593333807,2425
585.4247630289875,2335
587.7342998519354,2345
590.0432040183106,2411
592.3514757438526,2367
594.6591152443794,2344
596.9661227357875,2380
599.2724984340531,2523
601.578242555231,2363
603.8833553154542,2421
606.1878369309362,2445
608.4916876179676,2408
610.7949075929192,2356
613.0974970722403,2398
615.3994562724587,2370
617.7007854101818,2432
620.0014847020951,2415
622.3015543649641,2454
624.6009946156324,2397
626.8998056710224,2436
629.1979877481361,2419
631.4955410640538,2423
633.7924658359349,2466
636.0887622810175,2353
638.3844306166192,2409
640.6794710601358,2420
642.9738838290426,2474
645.2676691408932,2493
647.5608272133207,2573
649.853358264037,2515
652.1452625108324,2470
654.4365401715764,2444
656.7271914642178,2508
659.0172166067838,2541
661.3066158173809,2398
663.5953893141935,2507
665.8835373154867,2544
668.1710600396028,2526
670.4579577049639,2443
672.7442305300709,2425
675.0298787335033,2385
677.3149025339197,2431
679.599302150058,2475
681.8830778007342,2444
684.1662297048437,2497
686.4487580813608,2538
688.7306631493387,2479
691.0119451279091,2444
693.2926042362834,2456
695.5726406937516,2525
697.8520547196814,2457
700.1308465335215,2506
702.4090163547982,2448
704.6865644031171,2480
706.9634908981619,2399
709.2397960596965,2412
711.5154801075631,2434
713.7905432616823,2489
716.0649857420548,2481
718.3388077687592,2477
720.612009561953,2476
722.8845913418733,2498
725.1565533288352,2544
727.427895743234,2496
729.6986188055427,2514
731.9687227363137,2472
734.238207756178,2463
736.5070740858458,2401
738.7753219461066,2424
741.0429515578281,2485
743.3099631419569,2502
745.5763569195191,2495
747.8421331116193,2487
750.1072919394409,2452
752.3718336242467,2468
754.6357583873777,2482
756.8990664502545,2528
759.1617580343765,2403
761.423833361321,2440
763.6852926527457,2449
765.9461361303862,2511
768.206364016058,2506
770.4659765316536,2497
772.7249738991469,2437
774.9833563405886,2482
777.2411240781092,2461
779.4982773339183,2442
781.7548163303044,2510
784.010741289634,2548
786.2660524343538,2575
788.5207499869881,2549
790.7748341701416,2617
793.0283052064964,2553
795.2811633188143,2495
797.5334087299362,2515
799.7850416627813,2460
802.0360623403484,2509
804.2864709857143,2488
806.5362678220353,2500
808.7854530725468,2527
811.0340269605625,2520
813.2819897094754,2559
815.5293415427581,2454
817.77608268396,2604
820.0222133567116,2551
822.2677337847211,2465
824.5126441917765,2585
826.7569448017433,2537
829.0006358385675,2433
831.2437175262731,2441
833.4861900889629,2529
835.7280537508192,2502
837.9693087361026,2500
840.2099552691533,2596
842.4499935743896,2512
844.689423876309,2515
846.9282463994886,2530
849.1664613685833,2556
851.4040690083276,2444
853.6410695435349,2515
855.877463199097,2469
858.1132501999847,2546
860.3484307712487,2508
862.5830051380175,2489
864.8169735254988,2596
867.0503361589791,2601
869.2830932638243,2588
871.5152450654786,2578
873.7467917894654,2654
875.9777336613873,2551
878.2080709069252,2589
880.4378037518389,2623
882.666932421968,2648
884.8954571432301,2579
887.1233781416219,2611
889.3506956432192,2538
891.5774098741766,2634
893.803521060728,2640
896.0290294291852,2580
898.2539352059397,2510
900.4782386174619,2628
902.7019398903011,2664
904.925039251085,2554
907.147536926521,2575
909.3694331433943,2663
911.59072812857,2547
913.8114221089921,2604
916.0315153116827,2594
918.2510079637437,2610
920.4699002923547,2608
922.6881925247761,2482
924.905884888345,2545
927.1229776104793,2501
929.3394709186747,2545
931.555365040506,2555
933.7706602036275,2582
935.9853566357709,2514
938.1994545647489,2518
940.4129542184515,2482
942.6258558248488,2488
944.8381596119883,2511
947.0498658079974,2492
949.2609746410825,2561
951.4714863395287,2514
953.6814011316998,2480
955.8907192460387,2492
958.0994409110671,2482
960.3075663553858,2496
962.5150958076741,2492
964.7220294966913,2420
966.928367651274,2521
969.1341105003388,2468
971.3392582728806,2475
973.5438111979742,2480
975.747769504772,2461
977.9511334225061,2410
980.153903180487,2476
982.3560790081052,2450
984.5576611348289,2377
986.7586497902058,2435
988.9590452038618,2474
991.158847605503,2418
993.3580572249133,2378
995.5566742919558,2326
997.7546990365728,2318
999.952131688785,2377
1002.1489724786926,2241
1004.3452216364743,2228
1006.5408793923874,2210
1008.7359459767691,2337
1010.9304216200343,2238
1013.1243065526781,2333
1015.3176010052733,2244
1017.510305208472,2195
1019.7024193930064,2248
1021.8939437896848,2299
1024.0848786293977,2215
1026.2752241431122,2175
1028.4649805618747,2213
1030.6541481168115,2245
1032.842727039127,2149
1035.0307175601051,2176
1037.2181199111074,2168
1039.4049343235752,2258
1041.591161029029,2221
1043.7768002590683,2208
1045.9618522453698,2220
1048.1463172196918,2168
1050.3301954138697,2191
1052.513487059818,2099
1054.69619238953,2207
1056.8783116350783,2176
1059.0598450286152,2189
1061.2407928023704,2159
1063.4211551886528,2183
1065.6009324198508,2215
1067.780124728432,2195
1069.9587323469414,2261
1072.1367555080046,2207
1074.314194444325,2124
1076.4910493886855,2154
1078.667320573947,2157
1080.843008233051,2170
1083.0181125990161,2123
1085.1926339049414,2154
1087.3665723840027,2186
1089.5399282694575,2125
1091.7127017946405,2137
1093.8848931929647,2079
1096.0565026979243,2082
1098.2275305430899,2085
1100.3979769621128,2067
1102.567842188722,2097
1104.737126456726,2141
1106.9058300000124,2054
1109.0739530525475,2105
1111.2414958483764,2133
1113.4084586216231,2045
1115.5748416064907,2071
1117.7406450372605,2084
1119.9058691482942,2064
1122.0705141740304,2052
1124.2345803489884,2124
1126.3980679077658,2077
1128.5609770850388,2056
1130.7233081155623,2053
1132.8850612341707,2055
1135.0462366757774,2106
1137.2068346753745,2075
1139.3668554680326,2039
1141.526299288901,2042
1143.68516637321,2059
1145.8434569562655,2036
1148.001171273455,1965
1150.158309560244,2032
1152.3148720521767,2006
1154.470858984876,2015
1156.626270594044,2045
1158.7811071154629,2022
1160.9353687849912,1959
1163.089055838569,2062
1165.242168512213,2069
1167.3947070420209,1923
1169.5466716641677,2003
1171.6980626149075,1969
1173.8488801305748,1965
1175.9991244475814,1961
1178.1487958024186,1993
1180.2978944316555,2049
1182.4464205719428,2018
1184.5943744600072,1962
1186.7417563326567,2046
1188.8885664267755,2004
1191.0348049793297,1993
1193.1804722273619,1930
1195.325568407995,1986
1197.4700937584303,2033
1199.614048515948,1992
1201.7574329179074,1987
1203.900247201746,2026
1206.042491604982,2044
1208.1841663652099,2044
1210.3252717201053,2070
1212.465807907422,1976
1214.6057751649923,1961
1216.7451737307279,1972
1218.8840038426192,2106
1221.0222657387353,1977
1223.1599596572241,2011
1225.2970858363137,2116
1227.4336445143094,2030
1229.5696359295966,2055
1231.705060320639,2035
1233.8399179259786,2104
1235.9742089842384,2127
1238.107933734118,1996
1240.2410924143974,1996
1242.373685263935,1971
1244.5057125216676,1975
1246.6371744266116,1990
1248.7680712178621,1995
1250.898403134593,2010
1253.028170416058,2079
1255.1573733015875,2068
1257.2860120305932,2050
1259.4140868425648,2059
1261.54159797707,2023
1263.6685456737569,2081
1265.7949301723515,2066
1267.9207517126597,2081
1270.046010534565,2001
1272.1707068780306,2085
1274.2948409830983,2013
1276.4184130898889,2019
1278.541423438603,2101
1280.6638722695184,2052
1282.785759822993,2086
1284.9070863394636,2054
1287.0278520594447,2084
1289.1480572235314,2185
1291.2677020723963,2080
1293.3867868467923,2124
1295.5053117875495,2153
1297.623277135579,2193
1299.740683131868,2184
1301.8575300174857,2168
1303.973818033578,2178
1306.0895474213703,2128
1308.2047184221678,2144
1310.3193312773528,2195
1312.4333862283888,2206
1314.5468835168163,2107
1316.659823384255,2118
1318.7722060724045,2167
1320.8840318230418,2150
1322.9953008780249,2150
1325.1060134792888,2148
1327.2161698688478,2158
1329.3257702887959,2145
1331.4348149813054,2212
1333.5433041886276,2181
1335.6512381530933,2187
1337.7586171171101,2135
1339.8654413231675,2171
1341.9717110138317,2075
1344.0774264317488,2258
1346.1825878196432,2136
1348.2871954203192,2062
1350.3912494766587,2142
1352.4947502316231,2107
1354.5976979282532,2158
1356.7000928096686,2119
1358.8019351190665,2125
1360.9032250997243,2188
1363.0039629949988,2117
1365.1041490483235,2089
1367.2037835032133,2210
1369.3028666032606,2161
1371.401398592137,2161
1373.4993797135926,2161
1375.5968102114575,2118
1377.6936903296396,2172
1379.7900203121262,2202
1381.8858004029835,2176
1383.9810308463561,2114
1386.075711886469,2166
1388.1698437676241,2218
1390.2634267342032,2107
1392.356461030667,2185
1394.4489469015557,2165
1396.5408845914872,2204
1398.6322743451592,2207
1400.7231164073469,2130
1402.813411022907,2238
1404.903158436773,2258
1406.9923588939578,2197
1409.0810126395531,2293
1411.1691199187303,2235
1413.2566809767386,2231
1415.343696058907,2251
1417.4301654106425,2226
1419.5160892774315,2231
1421.6014679048399,2277
1423.6863015385125,2220
1425.7705904241707,2344
1427.8543348076178,2334
1429.9375349347342,2305
1432.0201910514802,2289
1434.102303403894,2313
1436.1838722380944,2296
1438.2648978002767,2380
1440.3453803367174,2320
1442.4253200937692,2310
1444.5047173178677,2413
1446.5835722555234,2469
1448.6618851533285,2509
1450.739656257952,2434
1452.8168858161434,2487
1454.8935740747306,2609
1456.96972128062,2500
1459.045327680797,2570
1461.120393522327,2633
1463.1949190523528,2669
1465.2689045180973,2690
1467.3423501668608,2643
1469.415256246024,2733
1471.4876230030463,2766
1473.559450685465,2803
1475.6307395408976,2843
1477.7014898170391,2799
1479.771701761665,2929
1481.8413756226287,2879
1483.9105116478618,2989
1485.9791100853772,3029
1488.0471711832643,2973
1490.1146951896926,3091
1492.1816823529098,3063
1494.2481329212433,3151
1496.3140471430984,3256
1498.3794252669609,3220
1500.4442675413939,3324
1502.5085742150404,3363
1504.572345536622,3306
1506.6355817549388,3388
1508.6982831188702,3400
1510.7604498773744,3464
1512.8220822794883,3442
1514.8831805743293,3559
1516.9437450110909,3546
1519.003775839048,3620
1521.0632733075522,3792
1523.1222376660367,3753
1525.1806691640113,3821
1527.2385680510652,3819
1529.2959345768668,3876
1531.3527689911643,3959
1533.4090715437833,3994
1535.4648424846291,4029
1537.5200820636855,4123
1539.5747905310159,4188
1541.6289681367616,4234
1543.6826151311434,4283
1545.7357317644614,4381
1547.7883182870937,4404
1549.8403749494987,4440
1551.8919020022113,4490
1553.9428996958477,4608
1555.9933682811015,4784
1558.0433080087469,4698
1560.0927191296346,4819
1562.1416018946961,4738
1564.1899565549415,4740
1566.2377833614592,4558
1568.2850825654164,4512
1570.3318544180606,4385
1572.3780991707158,4239
1574.423817074788,4014
1576.4690083817595,3940
1578.5136733431923,3713
1580.5578122107272,3581
1582.601425236085,3556
1584.6445126710646,3344
1586.6870747675434,3108
1588.7291117774776,3090
1590.7706239529034,3072
1592.8116115459347,2896
1594.8520748087658,2814
1596.8920139936686,2852
1598.9314293529933,2773
1600.9703211391711,2681
1603.008689604711,2572
1605.0465350022005,2576
1607.0838575843068,2517
1609.1206576037753,2414
1611.1569353134305,2464
1613.1926909661765,2446
1615.2279248149953,2376
1617.2626371129481,2375
1619.2968281131757,2229
1621.3304980688963,2304
1623.3636472334088,2255
1625.39627586009,2214
1627.428384202396,2284
1629.459972513861,2237
1631.4910410480993,2270
1633.5215900588028,2281
1635.551619799744,2148
1637.5811305247717,2096
1639.6101224878166,2243
1641.6385959428862,2151
1643.6665511440683,2264
1645.693988345528,2197
1647.7209078015112,2115
1649.7473097663405,2166
1651.7731944944203,2154
1653.7985622402307,2146
1655.823413258333,2148
1657.847747803366,2171
1659.8715661300494,2158
1661.8948684931793,2047
1663.9176551476316,2219
1665.9399263483624,2104
1667.9616823504057,2134
1669.982923408873,2134
1672.0036497789574,2179
1674.0238617159293,2165
1676.043559475138,2183
1678.0627433120121,2082
1680.081413482059,2047
1682.0995702408654,2085
1684.117213844096,2147
1686.134344547495,2092
1688.1509626068864,2069
1690.1670682781705,2076
1692.182661817329,2083
1694.1977434804217,2135
1696.2123135235875,2113
1698.226372203043,2165
1700.2399197750851,2182
1702.2529564960905,2111
1704.2654826225112,2073
1706.277498410882,2125
1708.2890041178139,2177
1710.2999999999988,2103
1712.3104863142066,2086
1714.3204633172854,2144
1716.329931266163,2104
1718.3388904178469,2131
1720.3473410294214,2134
1722.3552833580516,2041
1724.3627176609807,2023
1726.3696441955308,2171
1728.3760632191033,2061
1730.3819749891782,2063
1732.3873797633146,2072
1734.3922777991502,2057
1736.3966693544012,2131
1738.4005546868639,2083
1740.4039340544127,2029
1742.406807715001,2101
1744.4091759266616,2033
1746.4110389475054,2056
1748.4123970357223,2006
1750.413250449582,2001
1752.4135994474318,2010
1754.4134442876993,2049
1756.4127852288902,2034
1758.4116225295893,2062
1760.4099564484595,2008
1762.407787244244,2052
1764.405115175764,1943
1766.4019405019203,2081
1768.3982634816916,2066
1770.3940843741357,2055
1772.3894034383907,2007
1774.3842209336717,1967
1776.378537119274,1957
1778.372352254571,2004
1780.3656665990156,2086
1782.3584804121397,1949
1784.3507939535534,2096
1786.3426074829463,2048
1788.3339212600863,1968
1790.3247355448211,2020
1792.3150505970766,2037
1794.3048666768573,2020
1796.2941840442477,2087
1798.2830029594106,2088
1800.2713236825884,2035
1802.2591464741004,2054
1804.2464715943465,2041
1806.2332993038058,2058
1808.2196298630352,2036
1810.2054635326708,1941
1812.190800573428,1970
1814.175641246101,2065
1816.1599858115628,2055
1818.1438345307652,2035
1820.127187664738,2042
1822.1100454745924,1952
1824.092408221516,2073
1826.0742761667766,2089
1828.055649571721,1984
1830.0365286977735,2057
1832.0169138064398,2036
1833.9968051593014,2082
1835.9762030180214,2000
1837.9551076443408,2011
1839.9335193000788,2020
1841.9114382471344,1988
1843.888864747485,1983
1845.8657990631878,1896
1847.842241456378,2036
1849.8181921892697,1957
1851.7936515241558,2020
1853.7686197234098,2035
1855.7430970494815,2000
1857.7170837649014,2009
1859.6905801322787,1962
1861.6635864143004,1995
1863.6361028737338,1993
1865.608129773424,2034
1867.5796673762961,2047
1869.5507159453537,2029
1871.521275743678,1992
1873.4913470344313,2011
1875.4609300808534,2021
1877.4300251462632,2024
1879.3986324940588,2037
1881.366752387717,2043
1883.3343850907936,2099
1885.3015308669228,2105
1887.268189979819,2024
1889.2343626932739,2052
1891.2000492711595,2056
1893.1652499774254,2028
1895.1299650761011,2082
1897.0941948312952,1973
1899.0579395071945,2104
1901.0211993680641,2126
1902.98397467825,1975
1904.9462657021745,2008
1906.9080727043415,2140
1908.869395949332,2092
1910.8302357018065,2162
1912.790592226504,2026
1914.7504657882428,2051
1916.7098566519212,2063
1918.6687650825133,2074
1920.6271913450764,2113
1922.5851357047422,2061
1924.5425984267245,2023
1926.499579776314,1997
1928.4560800188833,2075
1930.4120994198802,2035
1932.367638244833,2143
1934.32269675935,2024
1936.2772752291175,2047
1938.231373919899,2111
1940.1849930975404,2103
1942.1381330279637,2044
1944.0907939771696,2062
1946.0429762112412,2033
1947.9946799963363,2120
1949.9459055986945,2145
1951.896653284633,2052
1953.8469233205478,2002
1955.7967159729142,2009
1957.7460315082863,2069
1959.6948701932974,2108
1961.6432322946594,2066
1963.5911180791632,2100
1965.5385278136787,2128
1967.4854617651545,2067
1969.4319202006182,2091
1971.377903387176,2120
1973.3234115920136,2137
1975.268445082395,2089
1977.2130041256642,2106
1979.1570889892423,2069
1981.1006999406304,2104
1983.04383724741,2032
1984.986501177238,2033
1986.928691997853,2104
1988.8704099770712,2143
1990.811655382789,2025
1992.7524284829801,2032
1994.692729545698,2088
1996.6325588390755,2069
1998.5719166313224,2049
2000.5108031907307,2081
2002.4492187856677,1991
2004.387163684583,2011
2006.3246381560011,2034
2008.2616424685298,2060
2010.1981768908527,2061
2012.1342416917332,2047
2014.069837140014,2107
2016.0049635046162,2003
2017.9396210545406,2035
2019.8738100588666,1991
2021.8075307867502,2023
2023.740783507431,2044
2025.6735684902228,2086
2027.6058860045214,2052
2029.5377363198004,2075
2031.4691197056118,2007
2033.4000364315875,2082
2035.3304867674374,2035
2037.260470982952,2079
2039.189989347998,2038
2041.1190421325232,2014
2043.047629606554,1998
2044.9757520401945,2032
2046.9034097036288,2066
2048.8306028671195,2073
2050.7573318010086,2057
2052.683596775716,2054
2054.609398061742,2062
2056.5347359296647,2076
2058.4596106501403,2078
2060.384022493906,2069
2062.3079717317764,2094
2064.231458634646,2005
2066.1544834734873,2004
2068.077046519352,2078
2069.99914804337,2009
2071.9207883167524,2113
2073.8419676107865,2066
2075.7626861968406,2062
2077.6829443463607,2012
2079.6027423308715,2044
2081.522080421977,2072
2083.440958891362,2145
2085.359378010786,2084
2087.2773380520907,2002
2089.194839287196,2085
2091.111881988101,2028
2093.0284664268825,2132
2094.9445928756973,2079
2096.86026160678,2065
2098.775472892446,2058
2100.690227005088,2041
2102.604524217178,2155
2104.5183648012676,2084
2106.431749029985,2083
2108.34467717604,2129
2110.2571495122206,2104
2112.169166311393,2061
2114.080727846503,2109
2115.9918343905747,2124
2117.902486216711,2086
2119.8126835980956,2014
2121.722426807987,2143
2123.6317161197285,2119
2125.5405518067364,2090
2127.448934142509,2116
2129.356863400624,2045
2131.264339854737,2113
2133.1713637785815,2104
2135.077935445972,2104
2136.9840551308002,2168
2138.889723107037,2198
2140.7949396487334,2101
2142.699705030018,2140
2144.6040195250994,2095
2146.507883408264,2118
2148.4112969538774,2077
2150.3142604363848,2099
2152.2167741303097,2095
2154.1188383102535,2059
2156.0204532508997,2173
2157.9216192270064,2115
2159.822336513414,2129
2161.7226053850413,2053
2163.622426116884,2126
2165.5217989840185,2129
2167.4207242616,2128
2169.319202224862,2049
2171.2172331491165,2072
2173.1148173097563,2131
2175.0119549822507,2157
2176.90864644215,2194
2178.8048919650823,2169
2180.7006918267534,2118
2182.596046302952,2140
2184.4909556695407,2145
2186.3854202024645,2127
2188.279440177746,2183
2190.173015871487,2161
2192.066147559868,2083
2193.958835519149,2182
2195.851080025667,2138
2197.7428813558417,2164
2199.6342397861667,2163
2201.5251555932186,2238
2203.415629053651,2203
2205.3056604441986,2241
2207.19525004167,2184
2209.084398122958,2232
2210.9731049650327,2213
2212.861370844941,2260
2214.749196039812,2124
2216.636580826851,2188
2218.523525483344,2211
2220.410030286655,2279
2222.296095514226,2176
2224.1817214435805,2182
2226.066908352319,2227
2227.951656518121,2208
2229.835966218746,2219
2231.71983773203,2265
2233.6032713358913,2230
2235.486267308324,2257
2237.3688259274036,2176
2239.2509474712824,2193
2241.132632218193,2186
2243.013880446447,2277
2244.8946924344323,2162
2246.7750684606203,2220
2248.6550088035574,2178
2250.534513741871,2234
2252.413583554265,2232
2254.292218519526,2160
2256.170418916517,2171
2258.0481850241786,2235
2259.925517121534,2258
2261.8024154876825,2113
2263.678880401803,2212
2265.5549121431536,2174
2267.430510991071,2146
2269.305677224971,2096
2271.180411124348,2161
2273.0547129687766,2121
2274.9285830379076,2195
2276.8020216114737,2173
2278.6750289692845,2152
2280.5476053912294,2188
2282.4197511572766,2250
2284.2914665474727,2173
2286.162751841943,2233
2288.0336073208937,2239
2289.904033264608,2232
2291.774029953448,2221
2293.6435976678554,2151
2295.5127366883517,2167
2297.381447295534,2142
2299.2497297700825,2132
2301.1175843927526,2102
2302.9850114443825,2090
2304.852011205885,2038
2306.7185839582553,2045
2308.5847299825664,2057
2310.4504495599676,2051
2312.3157429716925,1977
2314.1806104990483,2010
2316.0450524234247,2043
2317.9090690262888,1993
2319.772660589186,1965
2321.635827393742,1982
2323.498569721661,1984
2325.3608878547248,2006
2327.2227820747967,2049
2329.0842526638157,2048
2330.945299903803,2002
2332.805924076857,2048
2334.6661254651535,2090
2336.525904350951,2045
2338.3852610165827,2019
2340.244195744464,2003
2342.102708817088,2103
2343.9608005170253,1966
2345.8184711269287,2007
2347.675720929526,2022
2349.532550207628,2013
2351.38895924412,1997
2353.24494832197,1973
2355.100517724223,2010
2356.955667734004,2034
2358.810398634514,2014
2360.664710709037,2047
2362.5186042409337,2001
2364.3720795136437,2103
2366.225136810686,2001
2368.0777764156583,1986
2369.929998612237,2028
2371.7818036841777,1948
2373.633191915315,2026
2375.484163589562,2033
2377.3347189909114,2083
2379.184858403434,2067
2381.03458211128,2006
2382.8838903986775,2125
2384.732783549936,2014
2386.5812618494406,1977
2388.4293255816588,2099
2390.2769750311327,2086
2392.1242104824883,2096
2393.971032220427,2091
2395.8174405297295,2089
2397.6634356952563,2096
2399.509018001947,2052
2401.3541877348193,2081
2403.1989451789705,2035
2405.043290619576,2095
2406.8872243418905,2034
2408.730746631247,2013
2410.5738577730594,2055
2412.4165580528183,1988
2414.258847756095,2037
2416.100727168537,2018
2417.9421965758734,2106
2419.783256263912,2007
2421.623906518538,2062
2423.4641476257157,2023
2425.303979871491,2156
2427.143403541984,2005
2428.9824189233977,2060
2430.821026302012,2018
2432.6592259641866,2081
2434.497018196361,2051
2436.33440328505,2036
2438.171381516851,2021
2440.00795317844,2029
2441.844118556569,2078
2443.6798779380724,2074
2445.5152316098606,2057
2447.3501798589255,2072
2449.1847229723357,2104
2451.0188612372403,2065
2452.8525949408663,2081
2454.6859243705203,2064
2456.518849813587,2101
2458.3513715575314,2136
2460.183489889895,2140
2462.015205098301,2128
2463.8465174704493,2089
2465.67742729412,2137
2467.5079348571717,2094
2469.338040447542,2064
2471.1677443532476,2045
2472.9970468623833,2135
2474.825948263123,2143
2476.6544488437207,2108
2478.482548892508,2082
2480.310248697896,2104
2482.137548548374,2058
2483.9644487325118,2060
2485.790949538956,2085
2487.617051256433,2095
2489.44275417375,2126
2491.26805857979,2108
2493.0929647635157,2110
2494.917473013971,2102
2496.741583620276,2086
2498.5652968716304,2142
2500.3886130573137,2085
2502.2115324666834,2164
2504.0340553891765,2039
2505.856182114308,2102
2507.6779129316733,2103
2509.499248130945,2089
2511.3201880018764,2223
2513.140732834298,2125
2514.9608829181198,2228
2516.780638543331,2164
2518.6,2234
2520.418967578273,2206
2522.237541568376,2177
2524.0557222606144,2282
2525.8735099453706,2195
2527.6909049131086,2190
2529.507907454368,2155
2531.32451785977,2141
2533.140736420014,2262
2534.9565634258774,2160
2536.771999168218,2196
2538.5870439379714,2206
2540.4016980261526,2198
2542.2159617238544,2219
2544.02983532225,2176
2545.8433191125914,2270
2547.656413386209,2260
2549.4691184345115,2282
2551.2814345489874,2314
2553.093362021204,2251
2554.904901142808,2253
2556.716052205523,2332
2558.526815501153,2275
2560.3371913215824,2347
2562.147179958771,2272
2563.956781704761,2415
2565.7659968516705,2282
2567.5748256916986,2393
2569.3832685171224,2323
2571.1913256202984,2409
2572.9989972936614,2412
2574.806283829725,2408
2576.613185521084,2343
2578.4197026604074,2384
2580.2258355404483,2376
2582.031584454035,2361
2583.836949694077,2401
2585.6419315535613,2507
2587.4465303255533,2516
2589.2507463032002,2479
2591.0545797797245,2424
2592.8580310484303,2502
2594.6611004026995,2453
2596.463788135992,2419
2598.266094541849,2471
2600.0680199138874,2403
2601.869564545807,2438
2603.670728731383,2466
2605.4715127644704,2453
2607.2719169390048,2464
2609.071941548998,2503
2610.8715868885433,2427
2612.670853251811,2510
2614.469740933052,2488
2616.268250226594,2474
2618.0663814268455,2508
2619.864134828292,2504
2621.6615107255006,2484
2623.458509413115,2472
2625.2551311858597,2514
2627.0513763385347,2433
2628.8472451660223,2385
2630.6427379632833,2421
2632.4378550253564,2369
2634.232596647359,2403
2636.026963124488,2410
2637.8209547520187,2368
2639.6145718253065,2438
2641.407814639785,2323
2643.200683490966,2368
2644.9931786744414,2324
2646.7853004858807,2358
2648.577049221034,2348
2650.3684251757277,2372
2652.1594286458712,2241
2653.9500599274484,2269
2655.740319316525,2230
2657.5302071092437,2261
2659.3197236018286,2271
2661.10886909058,2283
2662.8976438718782,2237
2664.686048242183,2268
2666.4740824980327,2240
2668.2617469360443,2186
2670.0490418529134,2219
2671.8359675454153,2200
2673.622524310403,2274
2675.408712444811,2178
2677.1945322456495,2155
2678.979984010009,2185
2680.76506803506,2216
2682.5497846180497,2193
2684.334134056306,2088
2686.1181166472343,2218
2687.9017326883213,2152
2689.6849824771293,2108
2691.4678663113013,2111
2693.2503844885596,2176
2695.032537306705,2113
2696.8143250636167,2109
2698.5957480572542,2124
2700.3768065856534,2181
2702.1575009469316,2058
2703.937831439283,2100
2705.717798360982,2164
2707.4974020103837,2078
2709.276642685917,2112
2711.055520686095,2095
2712.834036309506,2050
2714.612189854819,2085
2716.389981620782,2115
2718.1674119062204,2134
2719.944481010041,2132
2721.721189231226,2043
2723.4975368688415,2065
2725.273524222027,2040
2727.0491515900053,2090
2728.824419272075,2072
2730.5993275676146,2098
2732.3738767760838,2112
2734.148067197016,2124
2735.921899130031,2063
2737.6953728748194,2112
2739.468488731156,2089
2741.2412469988926,2062
2743.0136479779617,2072
2744.785691968372,2034
2746.5573792702116,2093
2748.3287101836504,2037
2750.099685008934,2102
2751.870304046388,2050
2753.640567596418,2047
2755.4104759595057,2062
2757.1800294362156,2083
2758.949228327187,2049
2760.7180729331412,2057
2762.486563554877,2151
2764.254700493272,2050
2766.022484049284,1982
2767.789914523947,2031
2769.5569922183786,2069
2771.3237174337705,2128
2773.090090471394,2080
2774.8561116326036,2000
2776.6217812188274,2023
2778.3870995315756,2102
2780.1520668724356,2030
2781.9166835430747,2051
2783.6809498452394,2039
2785.444866080754,2060
2787.2084325515225,2136
2788.971649559527,2072
2790.73451740683,2110
2792.4970363955713,2123
2794.2592068279705,2146
2796.0210290063264,2068
2797.7825032330147,2032
2799.543629810493,2087
2801.304409041296,2113
2803.0648412280366,2109
2804.8249266734088,2084
2806.5846656801846,2158
2808.344058551212,2064
2810.1031055894246,2072
2811.8618070978273,2061
2813.6201633795085,2006
2815.378174737636,2072
2817.1358414754536,2030
2818.893163896285,2134
2820.6501423035334,2030
2822.4067770006814,2112
2824.1630682912883,2160
2825.9190164789957,2106
2827.6746218675207,2136
2829.429884760661,2169
2831.184805462294,2055
2832.9393842763743,2097
2834.693621506936,2092
2836.4475174580916,2097
2838.201072434034,2069
2839.954286739034,2101
2841.707160677441,2114
2843.459694553685,2148
2845.2118886722724,2142
2846.96374333779,2127
2848.7152588549034,2090
2850.4664355283567,2104
2852.217273662973,2124
2853.9677735636546,2083
2855.7179355353833,2118
2857.4677598832186,2169
2859.217246912299,2036
2860.9663969278427,2136
2862.715210235146,2094
2864.4636871395846,2112
2866.211827946614,2054
2867.9596329617652,2083
2869.7071024906536,2055
2871.4542368389684,2084
2873.20103631248,2045
2874.947501217038,2164
2876.6936318585695,2089
2878.4394285430812,2052
2880.1848915766604,2110
2881.9300212654707,2096
2883.6748179157553,2161
2885.4192818338374,2148
2887.1634133261173,2079
2888.907212699077,2087
2890.6506802592744,2102
2892.393816313348,2089
2894.1366211680142,2050
2895.8790951300693,2099
2897.621238506388,2159
2899.363051603925,2193
2901.1045347297118,2121
2902.8456881908596,2083
2904.58651229456,2059
2906.327007348081,2029
2908.067173658772,2108
2909.8070115340597,2125
2911.5465212814497,2051
2913.285703208527,2040
2915.0245576229563,2014
2916.7630848324807,2082
2918.5012851449196,2098
2920.2391588681758,2092
2921.976706310227,2164
2923.7139277791334,2056
2925.4508235830313,2023
2927.187394030137,2100
2928.923639428745,2090
2930.6595600872306,2072
2932.395156314046,2120
2934.1304284177218,2110
2935.8653767068713,2170
2937.6000014901815,2096
2939.3343030764227,2126
2941.068281774442,2104
2942.8019378931644,2170
2944.5352717415976,2103
2946.2682836288236,2170
2948.0009738640065,2125
2949.7333427563885,2205
2951.465390615289,2148
2953.1971177501086,2168
2954.9285244703265,2112
2956.6596110855,2192
2958.3903779052657,2135
2960.1208252393385,2103
2961.8509533975125,2118
2963.5807626896617,2119
2965.3102534257378,2072
2967.0394259157715,2111
2968.768280469873,2050
2970.496817398232,2073
2972.2250370111146,2104
2973.952939618869,2135
2975.6805255319196,2167
2977.4077950607707,2170
2979.134748516006,2200
2980.861386208289,2099
2982.587708448359,2037
2984.313715547037,2058
2986.039407815222,2164
2987.764785563891,2169
2989.489849104102,2160
2991.2145987469908,2108
2992.9390348037705,2143
2994.6631575857346,2124
2996.3869674042576,2149
2998.1104645707887,2067
2999.83364939686,2077
3001.5565221940783,2051
3003.2790832741334,2095
3005.0013329487924,2168
3006.7232715298996,2137
3008.4448993293804,2080
3010.166216659239,2126
3011.887223831558,2098
3013.607921158498,2076
3015.3283089522993,2139
3017.0483875252826,2188
3018.7681571898443,2146
3020.4876182584626,2143
3022.2067710436927,2123
3023.9256158581707,2091
3025.644153014609,2106
3027.362382825801,2191
3029.0803056046193,2146
3030.797921664012,2112
3032.5152313170106,2102
3034.2322348767225,2136
3035.9489326563353,2101
3037.665324969115,2148
3039.3814121284063,2146
3041.097194447633,2182
3042.812672240299,2157
3044.5278458199855,2165
3046.2427155003525,2150
3047.9572815951406,2104
3049.671544418167,2193
3051.38550428333,2176
3053.0991615046073,2127
3054.812516396051,2116
3056.5255692717974,2168
3058.2383204460575,2097
3059.9507702331257,2140
3061.662918947372,2107
3063.3747669032446,2148
3065.0863144152736,2168
3066.7975617980674,2179
3068.508509366309,2197
3070.219157434767,2203
3071.9295063182844,2205
3073.639556331785,2161
3075.3493077902704,2166
3077.058761008821,2115
3078.7679163025964,2275
3080.476773986837,2204
3082.1853343768594,2150
3083.89359778806,2168
3085.6015645359153,2143
3087.3092349359786,2182
3089.016609303884,2116
3090.7236879553434,2159
3092.4304712061476,2145
3094.136959372166,2180
3095.843152769349,2210
3097.5490517137237,2126
3099.2546565213966,2185
3100.959967508554,2275
3102.66498499146,2151
3104.3697092864577,2157
3106.0741407099695,2258
3107.778279578498,2139
3109.482126208622,2133
3111.1856809170004,2193
3112.8889440203716,2214
3114.5919158355528,2228
3116.294596679439,2198
3117.996986869006,2272
3119.6990867213062,2162
3121.4008965534726,2253
3123.102416682717,2266
3124.803647426329,2245
3126.5045891016784,2221
3128.205242026213,2185
3129.90560651746,2155
3131.605682893025,2132
3133.3054714705922,2287
3135.0049725679282,2238
3136.7041865028714,2289
3138.4031135933465,2188
3140.101754157353,2252
3141.800108512971,2253
3143.498176978357,2231
3145.1959598717494,2241
3146.8934575114636,2169
3148.5906702158954,2191
3150.2875983035183,2191
3151.9842420928853,2239
3153.680601902627,2212
3155.376678051456,2170
3157.07247085816,2126
3158.767980641609,2138
3160.463207720748,2233
3162.158152414606,2228
3163.8528150422862,2118
3165.5471959229726,2247
3167.2412953759303,2221
3168.9351137204976,2199
3170.628651276098,2197
3172.3219083622307,2254
3174.014885298474,2215
3175.707582404485,2229
3177.4000000000005,2171
3179.092138404835,2225
3180.7839979388846,2181
3182.47557892212,2179
3184.166881674594,2248
3185.8579065164386,2222
3187.5486537678626,2205
3189.2391237491547,2289
3190.9293167806827,2189
3192.6192331828934,2169
3194.3088732763117,2234
3195.998237381542,2221
3197.687325819268,2214
3199.376138910251,2198
3201.064676975334,2259
3202.7529403354347,2191
3204.4409293115523,2123
3206.1286442247647,2218
3207.816085396229,2104
3209.5032531471825,2211
3211.190147798936,2214
3212.8767696728846,2203
3214.5631190905015,2067
3216.2491963733373,2193
3217.9350018430214,2110
3219.6205358212637,2106
3221.305798629851,2142
3222.990790590651,2105
3224.6755120256103,2192
3226.359963256751,2137
3228.0441446061795,2191
3229.7280563960758,2218
3231.411698948703,2153
3233.0950725863995,2227
3234.778177631587,2184
3236.461014406761,2195
3238.1435832345005,2219
3239.8258844374595,2235
3241.507918338374,2185
3243.1896852600576,2186
3244.8711855254023,2216
3246.552419457381,2214
3248.233387379042,2240
3249.914089613516,2237
3251.59452648401,2173
3253.274698313813,2227
3254.95460542629,2211
3256.6342481448855,2207
3258.313626793125,2134
3259.9927416946084,2187
3261.6715931730196,2121
3263.3501815521176,2190
3265.0285071557437,2090
3266.706570307815,2147
3268.3843713323286,2127
3270.0619105533615,2148
3271.739188295068,2242
3273.4162048816834,2133
3275.0929606375184,2254
3276.769455886966,2237
3278.445690954498,2187
3280.1216661646613,2230
3281.797381842087,2280
3283.4728383114807,2208
3285.1480358976296,2284
3286.8229749253996,2219
3288.4976557197333,2221
3290.172078605655,2198
3291.846243908266,2257
3293.5201519527463,2124
3295.193803064357,2152
3296.8671975684374,2146
3298.5403357904024,2226
3300.21321805575,2137
3301.8858446900567,2235
3303.558216018975,2212
3305.23033236824,2175
3306.9021940636603,2197
3308.57380143113,2216
3310.2451547966184,2200
3311.916254486174,2183
3313.5871008259246,2125
3315.2576941420766,2257
3316.9280347609147,2186
3318.5981230088046,2149
3320.2679592121895,2135
3321.9375436975924,2141
3323.606876791612,2128
3325.27595882093,2183
3326.944790112305,2212
3328.6133709925753,2151
3330.2817017886573,2257
3331.949782827547,2115
3333.617614436319,2263
3335.2851969421245,2199
3336.952530672199,2249
3338.619615953853,2184
3340.286453114475,2244
3341.9530424815357,2241
3343.619384382583,2298
3345.2854791452437,2260
3346.951327097224,2225
3348.6169285663073,2233
3350.2822838803577,2185
3351.947393367319,2271
3353.61225735521,2203
3355.2768761721345,2144
3356.9412501462693,2217
3358.605379605873,2266
3360.2692648792827,2271
3361.9329062949146,2248
3363.596304181263,2226
