CollectionTime,7/11/2024 12:34:49 PM
ExposureUsed,3
CalibratedSpectrum
-962.7078968117929,541
-959.9714848408522,564
-957.2358232597828,583
-954.5009119013725,555
-951.7667505983302,547
-949.0333391832855,581
-946.3006774887896,567
-943.5687653473143,589
-940.837602591253,543
-938.1071890529199,568
-935.3775245645503,548
-932.6486089583007,619
-929.9204420662485,644
-927.1930237203925,597
-924.4663537526524,553
-921.7404319948689,567
-919.0152582788041,583
-916.2908324361409,639
-913.5671542984834,607
-910.8442236973568,593
-908.1220404642074,602
-905.4006044304027,629
-902.679915427231,593
-899.959973285902,589
-897.2407778375464,581
-894.5223289132158,577
-891.8046263438832,544
-889.0876699604426,555
-886.3714595937089,588
-883.6559950744183,583
-880.9412762332282,568
-878.2273029007168,581
-875.5140749073835,589
-872.8015920836489,570
-870.0898542598545,549
-867.3788612662631,539
-864.6686129330585,545
-861.9591090903457,561
-859.2503495681506,544
-856.5423341964203,568
-853.8350628050229,534
-851.1285352237478,533
-848.4227512823054,529
-845.7177108103272,572
-843.0134136373656,570
-840.3098595928943,580
-837.6070485063082,610
-834.9049802069229,578
-832.2036545239757,570
-829.5030712866244,555
-826.8032303239481,558
-824.1041314649472,581
-821.4057745385428,601
-818.7081593735775,581
-816.0112857988148,588
-813.3151536429393,557
-810.6197627345566,554
-807.9251129021936,579
-805.2312039742981,565
-802.5380357792392,535
-799.8456081453069,537
-797.1539209007124,602
-794.462973873588,582
-791.772766891987,604
-789.083299783884,591
-786.3945723771743,582
-783.7065844996748,589
-781.0193359791231,545
-778.3328266431781,570
-775.6470563194197,555
-772.9620248353489,575
-770.2777320183878,584
-767.5941776958798,564
-764.9113616950891,603
-762.2292838432011,575
-759.5479439673222,585
-756.8673418944801,582
-754.1874774516235,603
-751.5083504656222,612
-748.8299607632671,625
-746.15230817127,611
-743.475392516264,617
-740.7992136248035,633
-738.1237713233636,622
-735.4490654383407,614
-732.7750957960521,598
-730.1018622227365,645
-727.4293645445534,618
-724.7576025875837,607
-722.0865761778291,594
-719.4162851412126,622
-716.7467293035781,601
-714.0779084906909,585
-711.409822528237,604
-708.7424712418238,601
-706.0758544569796,612
-703.4099719991541,645
-700.7448236937178,679
-698.0804093659622,699
-695.4167288411002,643
-692.7537819442656,630
-690.0915685005134,642
-687.4300883348199,622
-684.7693412720819,645
-682.1093271371178,613
-679.4500457546669,631
-676.7914969493897,625
-674.1336805458676,626
-671.4765963686034,597
-668.8202442420206,641
-666.1646239904642,636
-663.5097354382001,603
-660.8555784094151,626
-658.2021527282176,643
-655.5494582186366,664
-652.8974947046223,672
-650.2462620100463,657
-647.5957599587009,706
-644.9459883742998,676
-642.2969470804776,677
-639.6486359007902,667
-637.0010546587141,690
-634.3542031776476,692
-631.7080812809096,690
-629.0626887917401,694
-626.4180255333008,660
-623.7740913286734,685
-621.1308860008619,717
-618.4884093727904,698
-615.8466612673046,691
-613.2056415071715,667
-610.5653499150785,704
-607.9257863136347,717
-605.28695052537,682
-602.6488423727357,683
-600.0114616781036,692
-597.3748082637674,694
-594.7388819519412,706
-592.1036825647604,752
-589.4692099242818,747
-586.8354638524829,754
-584.2024441712624,755
-581.5701507024403,737
-578.9385832677575,728
-576.3077416888759,773
-573.6776257873787,756
-571.0482353847704,739
-568.4195703024757,694
-565.7916303618415,732
-563.164415384135,752
-560.5379251905453,708
-557.9121596021815,699
-555.2871184400748,677
-552.6628015251767,712
-550.0392086783606,755
-547.4163397204204,733
-544.794194472071,717
-542.1727727539491,718
-539.5520743866118,812
-536.9320991905377,791
-534.3128469861261,844
-531.6943175936979,824
-529.0765108334947,819
-526.4594265256793,874
-523.8430644903358,955
-521.2274245474689,1049
-518.612506517005,1096
-515.9983102187913,1030
-513.3848354725959,1117
-510.77208209810846,1144
-508.16004991493924,1248
-505.5487387426199,1422
-502.9381484006032,1569
-500.3282787082628,1604
-497.71912948489364,1643
-495.1107005497117,1555
-492.5029917218539,1443
-489.8960028203786,1256
-487.28973366426493,1180
-484.68418407241325,1050
-482.07935386364494,965
-479.47524285670266,889
-476.87185087025,963
-474.2691777228715,961
-471.66722323307334,956
-469.0659872192821,948
-466.4654694998459,891
-463.86566989303384,905
-461.26658821703614,922
-458.66822428996414,899
-456.07057792985,938
-453.4736489546475,897
-450.877437182231,864
-448.28194243039627,902
-445.68716451686,915
-443.09310325926003,845
-440.49975847515555,924
-437.9071299820263,868
-435.31521759727354,889
-432.72402113821954,917
-430.13354042210767,942
-427.5437752661022,918
-424.95472548728867,897
-422.36639090267386,889
-419.7787713291855,993
-417.1918665836721,999
-414.60567648290385,964
-412.0202008435715,949
-409.4354394822874,1014
-406.8513922155845,1026
-404.26805885991723,1022
-401.685439231661,997
-399.103533147112,973
-396.522340422488,984
-393.9418608739278,916
-391.3620943174908,945
-388.7830405691583,949
-386.2046994448317,875
-383.6270707603344,873
-381.05015433141045,793
-378.473949973725,787
-375.8984575028645,756
-373.32367673433623,729
-370.74960748356875,679
-368.1762495659117,681
-365.60360279663576,622
-363.03166699093265,567
-360.4604419639154,561
-357.8899275306178,543
-355.32012350599507,531
-352.7510297049233,511
-350.1826459421999,487
-347.61497203254316,499
-345.04800779059235,490
-342.4817530309082,510
-339.91620756797226,534
-337.35137121618743,530
-334.7872437898774,591
-332.22382510328725,534
-329.66111497058273,501
-327.09911320585127,492
-324.53781962310075,496
-321.9772340362607,513
-319.4173562591816,501
-316.8581861056348,477
-314.2997233893127,459
-311.7419679238294,478
-309.1849195227194,522
-306.62857799943856,561
-304.0729431673641,553
-301.51801483979375,571
-298.963792829947,587
-296.41027695096386,594
-293.85746701590574,633
-291.3053628377552,633
-288.7539642294155,622
-286.2032710037115,561
-283.65328297338897,537
-281.1039999511146,589
-278.5554217494762,697
-276.007548180983,641
-273.4603790580651,600
-270.9139141930734,548
-268.3681533982807,529
-265.8230964858798,589
-263.27874326798565,634
-260.7350935566336,615
-258.1921471637804,631
-255.6499039013039,574
-253.10836358100266,627
-250.56752601459698,665
-248.02739101372765,616
-245.48795838995704,685
-242.94922795476816,737
-240.41119951956557,685
-237.8738728956746,732
-235.33724789434166,705
-232.80132432673452,667
-230.2661020039418,640
-227.73158073697357,644
-225.19776033676033,631
-222.66464061415422,677
-220.1322213799284,677
-217.60050244477725,674
-215.06948361931552,623
-212.53916471408013,700
-210.00954553952818,739
-207.48062590603843,758
-204.9524056239104,751
-202.4248845033651,735
-199.8980623545441,761
-197.37193898751036,731
-194.84651421224817,718
-192.32178783866232,768
-189.79775967657952,823
-187.27442953574644,893
-184.7517972258321,964
-182.2298625564256,923
-179.7086253370378,897
-177.18808537710026,846
-174.66824248596583,797
-172.14909647290835,769
-169.6306471471229,904
-167.11289431772548,942
-164.59583779375328,929
-162.07947738416453,838
-159.5638128978386,908
-157.04884414357605,1001
-154.53457093009854,949
-152.02099306604828,891
-149.50811035998936,868
-146.99592262040665,903
-144.48442965570587,870
-141.97363127421409,943
-139.46352728417958,1034
-136.95411749377126,1027
-134.44540171107985,1006
-131.93737974411636,911
-129.43005140081357,906
-126.92341648902493,1101
-124.41747481652521,1453
-121.91222619101006,1602
-119.40767042009657,1781
-116.90380731132257,1927
-114.40063667214702,2247
-111.8981583099503,2538
-109.3963720320337,2127
-106.89527764561933,1819
-104.39487495785067,1795
-101.89516377579241,2241
-99.39614390642998,3132
-96.89781515667039,3292
-94.40017733334128,2815
-91.90323024319173,2761
-89.40697369289148,4722
-86.91140748903172,7207
-84.41653143812482,8400
-81.92234534660395,8164
-79.42884902082358,6248
-76.93604226705907,7348
-74.4439248915071,13993
-71.95249670028534,24630
-69.46175749943245,30586
-66.97170709490854,33444
-64.48234529259423,31086
-61.99367189829195,25396
-59.50568671772464,16204
-57.01838955653636,11193
-54.53178022029283,10931
-52.045858514480074,9476
-49.560624244506016,8519
-47.07607721569923,9946
-44.59221723330904,11451
-42.10904410250669,11544
-39.62655762838392,11051
-37.14475761595372,10941
-34.66364387015028,11354
-32.18321619582866,10504
-29.70347439776515,9215
-27.224418280657005,8664
-24.74604764912317,9700
-22.26836230770266,14817
-19.7913620608565,27726
-17.315046712966478,47444
-14.83941606833514,64696
-12.36446993118659,65037
-9.89020810566592,65037
-7.416630395839093,65037
-4.94373660569363,65037
-2.471526539137585,65037
-6.821210263296962E-13,65037
2.47084320796705,65037
4.941003281093458,65037
7.410480415786196,65037
9.879274808531363,65037
12.347386655893956,65037
14.814816154518212,65037
17.28156350112681,65037
19.74762889252179,65037
22.21301252558385,65037
24.67771459727237,21563
27.141735304626195,4537
29.605074844762612,3269
32.06773341487792,3276
34.52971121224755,2985
36.99100843422559,3686
39.45162527824516,3449
41.91156194181792,2411
44.370818622535126,1944
46.82939551806646,1632
49.287292826160524,1900
51.74451074464503,2446
54.201049471426245,2764
56.65690920448981,2290
59.112090141899785,1742
61.56659248179983,1606
64.02041642241159,1407
66.4735621620365,1428
68.92602989905402,1241
71.37781983192338,1414
73.82893215918205,1509
76.27936707944684,1566
78.72912479141326,1425
81.17820549385567,1293
83.62660938562783,1615
86.07433666566146,1721
88.5213875329681,1373
90.96776218663751,1121
93.41346082583925,1000
95.85848364982041,1208
98.30283085790859,1649
100.7465026495089,1588
103.18949922410604,1436
105.63182078126385,1246
108.07346752062438,1238
110.51443964190923,1071
112.95473734491827,1016
115.39436082953114,1076
117.83331029570547,1147
120.27158594347827,1229
122.7091879729652,1577
125.1461165843615,1412
127.58237197794062,1126
130.01795435405518,997
132.4528639131364,1087
134.88710085569494,1075
137.32066538231982,1020
139.75355769367923,959
142.1857779905207,915
144.61732647366978,903
147.04820334403132,897
149.47840880258934,980
151.90794305040674,1032
154.33680628862487,1228
156.76499871846443,1456
159.19252054122433,1479
161.61937195828352,1465
164.04555317109896,1740
166.47106438120693,1996
168.89590579022217,2163
171.320077599839,2212
173.7435800118302,2381
176.16641322804742,2443
178.58857745042144,2550
181.01007288096173,2779
183.43089972175687,2622
185.85105817497413,2629
188.27054844285988,2581
190.6893707277394,2486
193.10752523201643,2686
195.5250121581745,2691
197.9418317087751,2957
200.3579840864594,2839
202.7734694939469,2761
205.18828813403627,2800
207.6024402096051,3013
210.01592592360964,2924
212.42874547908548,2874
214.84089907914665,2803
217.2523869269868,2760
219.66320922587727,2806
222.0733661791695,2701
224.48285799029293,2606
226.8916848627572,2663
229.29984700014882,2786
231.7073446061355,2798
234.11417788446204,2689
236.520347038953,2730
238.92585227351185,2839
241.33069379212054,2821
243.73487179884035,2931
246.1383864978112,2946
248.541238093252,2797
250.9434267894609,2876
253.34495279081432,2734
255.74581630176783,2825
258.1460175268563,2747
260.54555667069314,2844
262.9444339379703,2824
265.3426495334594,2743
267.7402036620107,2800
270.1370965285529,2780
272.53332833809407,2659
274.9288992957214,2606
277.32380960660055,2636
279.718059475976,2612
282.1116491091717,2593
284.5045787115897,2467
286.89684848871195,2456
289.2884586460981,2585
291.67940938938807,2657
294.0697009242996,2603
296.4593334566299,2536
298.84830719225477,2569
301.23662233712923,2565
303.6242790972866,2522
306.01127767884,2420
308.39761828798066,2431
310.78330113097934,2406
313.16832641418534,2399
315.5526943440269,2322
317.9364051270112,2334
320.3194589697242,2320
322.70185607883093,2388
325.0835966610754,2389
327.4646809232805,2283
329.8451090723478,2301
332.2248813152577,2206
334.6039978590701,2250
336.9824589109231,2288
339.36026467803447,2295
341.7374153677,2212
344.113911187295,2164
346.48975234427337,2200
348.8649390461686,2197
351.2394715005918,2222
353.61334991523415,2122
355.9865744978655,2136
358.35914545633375,2166
360.73106299856715,2203
363.10232733257146,2181
365.47293866643247,2178
367.84289720831396,2138
370.2122031664593,2166
372.5808567491905,2096
374.9488581649083,2037
377.31620762209275,2072
379.6829053293021,2065
382.0489514951745,2014
384.4143463284262,2048
386.7790900378528,2037
389.14318283232853,2028
391.50662492080653,2017
393.86941651231916,2052
396.23155781597745,2046
398.5930490409713,2045
400.9538903965696,2018
403.3140820921202,2000
405.6736243370498,1987
408.03251734086336,2024
410.3907613131465,1963
412.74835646356166,2004
415.10530300185144,2043
417.4616011378372,1997
419.81725108141893,1996
422.1722530425758,1981
424.5266072313656,1948
426.880313857925,1930
429.2333731324701,1968
431.58578526529516,1882
433.9375504667738,1900
436.2886689473588,1930
438.63914091758113,1937
440.9889665880513,1921
443.33814616945835,1931
445.68667987257015,1896
448.03456790823395,1934
450.3818104873759,1838
452.72840782100013,1905
455.07436012019105,1866
457.41966759611057,1982
459.7643304600007,1929
462.10834892318155,1907
464.4517231970525,1910
466.79445349309174,1932
469.1365400228566,1937
471.4779829979826,1911
473.81878263018564,1918
476.15893913125876,1938
478.4984527130747,2000
480.8373235875855,2064
483.17555196682144,2077
485.5131380628919,2134
487.8500820879857,2234
490.1863842543697,2270
492.52204477439034,2615
494.8570638604725,2808
497.1914417251204,3035
499.52517858091653,3286
501.85827464052306,3341
504.19073011668036,3337
506.5225452222086,3273
508.85372017000566,3184
511.18425517304956,3055
513.514150444396,3186
515.8434061971808,3663
518.1720226446176,4334
520.4999999999999,4475
522.8273384766991,4270
525.1540382881666,3918
527.480099647932,3642
529.8055227696037,3134
532.1303078668694,2585
534.454455153496,2195
536.777964843328,2037
539.1008371502907,2018
541.4230722883866,1937
543.744670471698,1986
546.0656319143858,1933
548.3859568306899,1947
550.7056454349294,1959
553.0246979415016,1938
555.3431145648834,1880
557.6608955196306,1938
559.978041020377,1799
562.2945512818363,1926
564.6104265188006,1874
566.9256669461412,1908
569.2402727788082,1952
571.5542442318302,1861
573.8675815203156,1878
576.1802848594508,1892
578.4923544645015,1969
580.8037905508126,1838
583.114593333807,1932
585.4247630289875,1858
587.7342998519354,1870
590.0432040183106,1917
592.3514757438526,1971
594.6591152443794,1910
596.9661227357875,1817
599.2724984340531,1993
601.578242555231,1918
603.8833553154542,1933
606.1878369309362,1941
608.4916876179676,1981
610.7949075929192,1929
613.0974970722403,1944
615.3994562724587,1918
617.7007854101818,1975
620.0014847020951,1923
622.3015543649641,1960
624.6009946156324,1940
626.8998056710224,1914
629.1979877481361,1962
631.4955410640538,1904
633.7924658359349,1930
636.0887622810175,1938
638.3844306166192,1915
640.6794710601358,1948
642.9738838290426,2084
645.2676691408932,2000
647.5608272133207,1942
649.853358264037,2101
652.1452625108324,1977
654.4365401715764,1989
656.7271914642178,1986
659.0172166067838,1952
661.3066158173809,1972
663.5953893141935,1915
665.8835373154867,1998
668.1710600396028,2057
670.4579577049639,2012
672.7442305300709,2045
675.0298787335033,1930
677.3149025339197,1949
679.599302150058,1922
681.8830778007342,2006
684.1662297048437,1937
686.4487580813608,1980
688.7306631493387,2025
691.0119451279091,2070
693.2926042362834,2017
695.5726406937516,1971
697.8520547196814,2015
700.1308465335215,1965
702.4090163547982,1984
704.6865644031171,1964
706.9634908981619,1920
709.2397960596965,2016
711.5154801075631,2022
713.7905432616823,1950
716.0649857420548,2013
718.3388077687592,2011
720.612009561953,1898
722.8845913418733,2028
725.1565533288352,1868
727.427895743234,2014
729.6986188055427,2004
731.9687227363137,2019
734.238207756178,1897
736.5070740858458,2036
738.7753219461066,1918
741.0429515578281,2018
743.3099631419569,1921
745.5763569195191,1983
747.8421331116193,1977
750.1072919394409,1932
752.3718336242467,1973
754.6357583873777,1947
756.8990664502545,1989
759.1617580343765,1957
761.423833361321,1944
763.6852926527457,1963
765.9461361303862,1962
768.206364016058,2001
770.4659765316536,2060
772.7249738991469,2048
774.9833563405886,2011
777.2411240781092,2048
779.4982773339183,2001
781.7548163303044,2067
784.010741289634,2057
786.2660524343538,2081
788.5207499869881,2019
790.7748341701416,2084
793.0283052064964,2026
795.2811633188143,2056
797.5334087299362,2036
799.7850416627813,2078
802.0360623403484,2025
804.2864709857143,2108
806.5362678220353,2046
808.7854530725468,2018
811.0340269605625,1975
813.2819897094754,1990
815.5293415427581,2036
817.77608268396,2003
820.0222133567116,2050
822.2677337847211,2028
824.5126441917765,2085
826.7569448017433,2008
829.0006358385675,2069
831.2437175262731,2007
833.4861900889629,2061
835.7280537508192,1956
837.9693087361026,2005
840.2099552691533,2069
842.4499935743896,2004
844.689423876309,2027
846.9282463994886,1994
849.1664613685833,1993
851.4040690083276,2029
853.6410695435349,2030
855.877463199097,2035
858.1132501999847,2017
860.3484307712487,2063
862.5830051380175,2029
864.8169735254988,2070
867.0503361589791,2059
869.2830932638243,2131
871.5152450654786,2075
873.7467917894654,2078
875.9777336613873,2041
878.2080709069252,2092
880.4378037518389,2105
882.666932421968,2130
884.8954571432301,2151
887.1233781416219,2096
889.3506956432192,2053
891.5774098741766,2105
893.803521060728,2111
896.0290294291852,2037
898.2539352059397,2073
900.4782386174619,2103
902.7019398903011,2021
904.925039251085,2087
907.147536926521,2038
909.3694331433943,2088
911.59072812857,2032
913.8114221089921,1980
916.0315153116827,2126
918.2510079637437,2036
920.4699002923547,2066
922.6881925247761,1969
924.905884888345,2032
927.1229776104793,2032
929.3394709186747,1959
931.555365040506,2077
933.7706602036275,1985
935.9853566357709,1991
938.1994545647489,2039
940.4129542184515,2053
942.6258558248488,1988
944.8381596119883,1961
947.0498658079974,1940
949.2609746410825,1948
951.4714863395287,1931
953.6814011316998,1924
955.8907192460387,1944
958.0994409110671,1906
960.3075663553858,1900
962.5150958076741,1906
964.7220294966913,1953
966.928367651274,1885
969.1341105003388,1902
971.3392582728806,1874
973.5438111979742,1908
975.747769504772,1941
977.9511334225061,1848
980.153903180487,1857
982.3560790081052,1927
984.5576611348289,1872
986.7586497902058,1884
988.9590452038618,1884
991.158847605503,1914
993.3580572249133,1872
995.5566742919558,1818
997.7546990365728,1834
999.952131688785,1803
1002.1489724786926,1701
1004.3452216364743,1776
1006.5408793923874,1648
1008.7359459767691,1635
1010.9304216200343,1715
1013.1243065526781,1728
1015.3176010052733,1649
1017.510305208472,1680
1019.7024193930064,1626
1021.8939437896848,1651
1024.0848786293977,1740
1026.2752241431122,1685
1028.4649805618747,1663
1030.6541481168115,1646
1032.842727039127,1639
1035.0307175601051,1634
1037.2181199111074,1624
1039.4049343235752,1621
1041.591161029029,1613
1043.7768002590683,1633
1045.9618522453698,1639
1048.1463172196918,1595
1050.3301954138697,1637
1052.513487059818,1551
1054.69619238953,1619
1056.8783116350783,1584
1059.0598450286152,1524
1061.2407928023704,1534
1063.4211551886528,1575
1065.6009324198508,1588
1067.780124728432,1620
1069.9587323469414,1672
1072.1367555080046,1597
1074.314194444325,1591
1076.4910493886855,1531
1078.667320573947,1506
1080.843008233051,1571
1083.0181125990161,1550
1085.1926339049414,1559
1087.3665723840027,1433
1089.5399282694575,1505
1091.7127017946405,1560
1093.8848931929647,1519
1096.0565026979243,1503
1098.2275305430899,1503
1100.3979769621128,1555
1102.567842188722,1510
1104.737126456726,1510
1106.9058300000124,1490
1109.0739530525475,1481
1111.2414958483764,1544
1113.4084586216231,1517
1115.5748416064907,1518
1117.7406450372605,1504
1119.9058691482942,1489
1122.0705141740304,1507
1124.2345803489884,1465
1126.3980679077658,1452
1128.5609770850388,1509
1130.7233081155623,1563
1132.8850612341707,1440
1135.0462366757774,1494
1137.2068346753745,1500
1139.3668554680326,1486
1141.526299288901,1512
1143.68516637321,1497
1145.8434569562655,1457
1148.001171273455,1415
1150.158309560244,1457
1152.3148720521767,1482
1154.470858984876,1440
1156.626270594044,1468
1158.7811071154629,1428
1160.9353687849912,1538
1163.089055838569,1463
1165.242168512213,1457
1167.3947070420209,1445
1169.5466716641677,1421
1171.6980626149075,1457
1173.8488801305748,1480
1175.9991244475814,1468
1178.1487958024186,1450
1180.2978944316555,1461
1182.4464205719428,1474
1184.5943744600072,1429
1186.7417563326567,1474
1188.8885664267755,1429
1191.0348049793297,1419
1193.1804722273619,1492
1195.325568407995,1436
1197.4700937584303,1485
1199.614048515948,1391
1201.7574329179074,1456
1203.900247201746,1431
1206.042491604982,1452
1208.1841663652099,1473
1210.3252717201053,1412
1212.465807907422,1461
1214.6057751649923,1448
1216.7451737307279,1494
1218.8840038426192,1476
1221.0222657387353,1426
1223.1599596572241,1515
1225.2970858363137,1496
1227.4336445143094,1485
1229.5696359295966,1427
1231.705060320639,1410
1233.8399179259786,1518
1235.9742089842384,1546
1238.107933734118,1442
1240.2410924143974,1508
1242.373685263935,1489
1244.5057125216676,1484
1246.6371744266116,1437
1248.7680712178621,1465
1250.898403134593,1431
1253.028170416058,1530
1255.1573733015875,1471
1257.2860120305932,1453
1259.4140868425648,1515
1261.54159797707,1480
1263.6685456737569,1511
1265.7949301723515,1529
1267.9207517126597,1548
1270.046010534565,1559
1272.1707068780306,1558
1274.2948409830983,1534
1276.4184130898889,1476
1278.541423438603,1505
1280.6638722695184,1489
1282.785759822993,1516
1284.9070863394636,1624
1287.0278520594447,1511
1289.1480572235314,1547
1291.2677020723963,1573
1293.3867868467923,1560
1295.5053117875495,1486
1297.623277135579,1569
1299.740683131868,1543
1301.8575300174857,1591
1303.973818033578,1577
1306.0895474213703,1542
1308.2047184221678,1601
1310.3193312773528,1575
1312.4333862283888,1637
1314.5468835168163,1573
1316.659823384255,1530
1318.7722060724045,1589
1320.8840318230418,1525
1322.9953008780249,1509
1325.1060134792888,1596
1327.2161698688478,1566
1329.3257702887959,1606
1331.4348149813054,1547
1333.5433041886276,1609
1335.6512381530933,1610
1337.7586171171101,1547
1339.8654413231675,1584
1341.9717110138317,1552
1344.0774264317488,1594
1346.1825878196432,1564
1348.2871954203192,1646
1350.3912494766587,1550
1352.4947502316231,1521
1354.5976979282532,1548
1356.7000928096686,1591
1358.8019351190665,1507
1360.9032250997243,1539
1363.0039629949988,1558
1365.1041490483235,1609
1367.2037835032133,1554
1369.3028666032606,1522
1371.401398592137,1561
1373.4993797135926,1558
1375.5968102114575,1623
1377.6936903296396,1548
1379.7900203121262,1603
1381.8858004029835,1538
1383.9810308463561,1576
1386.075711886469,1524
1388.1698437676241,1557
1390.2634267342032,1628
1392.356461030667,1641
1394.4489469015557,1583
1396.5408845914872,1615
1398.6322743451592,1667
1400.7231164073469,1676
1402.813411022907,1608
1404.903158436773,1651
1406.9923588939578,1675
1409.0810126395531,1601
1411.1691199187303,1596
1413.2566809767386,1673
1415.343696058907,1661
1417.4301654106425,1687
1419.5160892774315,1721
1421.6014679048399,1675
1423.6863015385125,1683
1425.7705904241707,1683
1427.8543348076178,1567
1429.9375349347342,1656
1432.0201910514802,1719
1434.102303403894,1749
1436.1838722380944,1729
1438.2648978002767,1817
1440.3453803367174,1716
1442.4253200937692,1820
1444.5047173178677,1831
1446.5835722555234,1850
1448.6618851533285,1820
1450.739656257952,1843
1452.8168858161434,1873
1454.8935740747306,1903
1456.96972128062,1867
1459.045327680797,1975
1461.120393522327,1984
1463.1949190523528,1987
1465.2689045180973,2062
1467.3423501668608,2000
1469.415256246024,2105
1471.4876230030463,2065
1473.559450685465,2063
1475.6307395408976,2128
1477.7014898170391,2149
1479.771701761665,2125
1481.8413756226287,2240
1483.9105116478618,2161
1485.9791100853772,2332
1488.0471711832643,2261
1490.1146951896926,2299
1492.1816823529098,2288
1494.2481329212433,2375
1496.3140471430984,2380
1498.3794252669609,2421
1500.4442675413939,2321
1502.5085742150404,2364
1504.572345536622,2439
1506.6355817549388,2462
1508.6982831188702,2514
1510.7604498773744,2590
1512.8220822794883,2678
1514.8831805743293,2644
1516.9437450110909,2542
1519.003775839048,2582
1521.0632733075522,2709
1523.1222376660367,2767
1525.1806691640113,2738
1527.2385680510652,2772
1529.2959345768668,2846
1531.3527689911643,2849
1533.4090715437833,2937
1535.4648424846291,2986
1537.5200820636855,3061
1539.5747905310159,3086
1541.6289681367616,3165
1543.6826151311434,3265
1545.7357317644614,3233
1547.7883182870937,3165
1549.8403749494987,3288
1551.8919020022113,3221
1553.9428996958477,3422
1555.9933682811015,3414
1558.0433080087469,3554
1560.0927191296346,3653
1562.1416018946961,3558
1564.1899565549415,3664
1566.2377833614592,3682
1568.2850825654164,3536
1570.3318544180606,3512
1572.3780991707158,3430
1574.423817074788,3326
1576.4690083817595,3246
1578.5136733431923,3100
1580.5578122107272,2988
1582.601425236085,2827
1584.6445126710646,2769
1586.6870747675434,2614
1588.7291117774776,2477
1590.7706239529034,2395
1592.8116115459347,2259
1594.8520748087658,2197
1596.8920139936686,2124
1598.9314293529933,2108
1600.9703211391711,2024
1603.008689604711,1992
1605.0465350022005,1923
1607.0838575843068,1911
1609.1206576037753,1907
1611.1569353134305,1859
1613.1926909661765,1856
1615.2279248149953,1731
1617.2626371129481,1741
1619.2968281131757,1774
1621.3304980688963,1692
1623.3636472334088,1713
1625.39627586009,1681
1627.428384202396,1654
1629.459972513861,1619
1631.4910410480993,1654
1633.5215900588028,1633
1635.551619799744,1672
1637.5811305247717,1608
1639.6101224878166,1614
1641.6385959428862,1532
1643.6665511440683,1568
1645.693988345528,1510
1647.7209078015112,1576
1649.7473097663405,1607
1651.7731944944203,1507
1653.7985622402307,1566
1655.823413258333,1512
1657.847747803366,1552
1659.8715661300494,1544
1661.8948684931793,1501
1663.9176551476316,1595
1665.9399263483624,1526
1667.9616823504057,1580
1669.982923408873,1559
1672.0036497789574,1567
1674.0238617159293,1561
1676.043559475138,1517
1678.0627433120121,1545
1680.081413482059,1512
1682.0995702408654,1548
1684.117213844096,1586
1686.134344547495,1582
1688.1509626068864,1513
1690.1670682781705,1526
1692.182661817329,1559
1694.1977434804217,1485
1696.2123135235875,1535
1698.226372203043,1487
1700.2399197750851,1598
1702.2529564960905,1532
1704.2654826225112,1582
1706.277498410882,1497
1708.2890041178139,1494
1710.2999999999988,1472
1712.3104863142066,1500
1714.3204633172854,1549
1716.329931266163,1557
1718.3388904178469,1506
1720.3473410294214,1463
1722.3552833580516,1478
1724.3627176609807,1486
1726.3696441955308,1554
1728.3760632191033,1545
1730.3819749891782,1513
1732.3873797633146,1402
1734.3922777991502,1502
1736.3966693544012,1449
1738.4005546868639,1511
1740.4039340544127,1491
1742.406807715001,1500
1744.4091759266616,1443
1746.4110389475054,1446
1748.4123970357223,1450
1750.413250449582,1478
1752.4135994474318,1450
1754.4134442876993,1471
1756.4127852288902,1529
1758.4116225295893,1444
1760.4099564484595,1411
1762.407787244244,1457
1764.405115175764,1473
1766.4019405019203,1464
1768.3982634816916,1444
1770.3940843741357,1393
1772.3894034383907,1502
1774.3842209336717,1420
1776.378537119274,1480
1778.372352254571,1414
1780.3656665990156,1414
1782.3584804121397,1451
1784.3507939535534,1465
1786.3426074829463,1437
1788.3339212600863,1438
1790.3247355448211,1450
1792.3150505970766,1429
1794.3048666768573,1437
1796.2941840442477,1427
1798.2830029594106,1412
1800.2713236825884,1449
1802.2591464741004,1405
1804.2464715943465,1440
1806.2332993038058,1389
1808.2196298630352,1414
1810.2054635326708,1422
1812.190800573428,1473
1814.175641246101,1436
1816.1599858115628,1399
1818.1438345307652,1422
1820.127187664738,1480
1822.1100454745924,1413
1824.092408221516,1451
1826.0742761667766,1453
1828.055649571721,1427
1830.0365286977735,1469
1832.0169138064398,1457
1833.9968051593014,1417
1835.9762030180214,1427
1837.9551076443408,1468
1839.9335193000788,1412
1841.9114382471344,1431
1843.888864747485,1489
1845.8657990631878,1443
1847.842241456378,1425
1849.8181921892697,1406
1851.7936515241558,1375
1853.7686197234098,1423
1855.7430970494815,1420
1857.7170837649014,1408
1859.6905801322787,1403
1861.6635864143004,1383
1863.6361028737338,1404
1865.608129773424,1421
1867.5796673762961,1422
1869.5507159453537,1395
1871.521275743678,1403
1873.4913470344313,1398
1875.4609300808534,1452
1877.4300251462632,1447
1879.3986324940588,1472
1881.366752387717,1445
1883.3343850907936,1445
1885.3015308669228,1444
1887.268189979819,1418
1889.2343626932739,1428
1891.2000492711595,1445
1893.1652499774254,1442
1895.1299650761011,1474
1897.0941948312952,1491
1899.0579395071945,1457
1901.0211993680641,1467
1902.98397467825,1450
1904.9462657021745,1462
1906.9080727043415,1410
1908.869395949332,1464
1910.8302357018065,1473
1912.790592226504,1371
1914.7504657882428,1363
1916.7098566519212,1414
1918.6687650825133,1417
1920.6271913450764,1459
1922.5851357047422,1426
1924.5425984267245,1393
1926.499579776314,1465
1928.4560800188833,1491
1930.4120994198802,1424
1932.367638244833,1387
1934.32269675935,1385
1936.2772752291175,1487
1938.231373919899,1412
1940.1849930975404,1507
1942.1381330279637,1403
1944.0907939771696,1462
1946.0429762112412,1358
1947.9946799963363,1457
1949.9459055986945,1436
1951.896653284633,1425
1953.8469233205478,1474
1955.7967159729142,1414
1957.7460315082863,1459
1959.6948701932974,1416
1961.6432322946594,1419
1963.5911180791632,1452
1965.5385278136787,1446
1967.4854617651545,1408
1969.4319202006182,1415
1971.377903387176,1408
1973.3234115920136,1411
1975.268445082395,1387
1977.2130041256642,1389
1979.1570889892423,1461
1981.1006999406304,1451
1983.04383724741,1435
1984.986501177238,1409
1986.928691997853,1444
1988.8704099770712,1453
1990.811655382789,1454
1992.7524284829801,1450
1994.692729545698,1425
1996.6325588390755,1351
1998.5719166313224,1440
2000.5108031907307,1438
2002.4492187856677,1468
2004.387163684583,1435
2006.3246381560011,1425
2008.2616424685298,1448
2010.1981768908527,1383
2012.1342416917332,1473
2014.069837140014,1387
2016.0049635046162,1450
2017.9396210545406,1340
2019.8738100588666,1426
2021.8075307867502,1332
2023.740783507431,1404
2025.6735684902228,1382
2027.6058860045214,1429
2029.5377363198004,1402
2031.4691197056118,1438
2033.4000364315875,1393
2035.3304867674374,1433
2037.260470982952,1425
2039.189989347998,1374
2041.1190421325232,1363
2043.047629606554,1361
2044.9757520401945,1350
2046.9034097036288,1355
2048.8306028671195,1407
2050.7573318010086,1399
2052.683596775716,1352
2054.609398061742,1356
2056.5347359296647,1369
2058.4596106501403,1340
2060.384022493906,1405
2062.3079717317764,1407
2064.231458634646,1371
2066.1544834734873,1382
2068.077046519352,1388
2069.99914804337,1332
2071.9207883167524,1430
2073.8419676107865,1338
2075.7626861968406,1374
2077.6829443463607,1364
2079.6027423308715,1371
2081.522080421977,1417
2083.440958891362,1398
2085.359378010786,1404
2087.2773380520907,1368
2089.194839287196,1416
2091.111881988101,1344
2093.0284664268825,1453
2094.9445928756973,1428
2096.86026160678,1362
2098.775472892446,1390
2100.690227005088,1373
2102.604524217178,1369
2104.5183648012676,1336
2106.431749029985,1405
2108.34467717604,1434
2110.2571495122206,1397
2112.169166311393,1455
2114.080727846503,1354
2115.9918343905747,1400
2117.902486216711,1420
2119.8126835980956,1415
2121.722426807987,1403
2123.6317161197285,1422
2125.5405518067364,1454
2127.448934142509,1447
2129.356863400624,1369
2131.264339854737,1414
2133.1713637785815,1405
2135.077935445972,1411
2136.9840551308002,1469
2138.889723107037,1365
2140.7949396487334,1412
2142.699705030018,1393
2144.6040195250994,1438
2146.507883408264,1404
2148.4112969538774,1409
2150.3142604363848,1365
2152.2167741303097,1409
2154.1188383102535,1450
2156.0204532508997,1458
2157.9216192270064,1430
2159.822336513414,1461
2161.7226053850413,1487
2163.622426116884,1425
2165.5217989840185,1441
2167.4207242616,1509
2169.319202224862,1417
2171.2172331491165,1474
2173.1148173097563,1426
2175.0119549822507,1391
2176.90864644215,1493
2178.8048919650823,1499
2180.7006918267534,1483
2182.596046302952,1485
2184.4909556695407,1471
2186.3854202024645,1499
2188.279440177746,1465
2190.173015871487,1551
2192.066147559868,1569
2193.958835519149,1435
2195.851080025667,1488
2197.7428813558417,1512
2199.6342397861667,1532
2201.5251555932186,1524
2203.415629053651,1469
2205.3056604441986,1539
2207.19525004167,1526
2209.084398122958,1590
2210.9731049650327,1534
2212.861370844941,1568
2214.749196039812,1545
2216.636580826851,1563
2218.523525483344,1525
2220.410030286655,1577
2222.296095514226,1579
2224.1817214435805,1580
2226.066908352319,1520
2227.951656518121,1564
2229.835966218746,1563
2231.71983773203,1506
2233.6032713358913,1553
2235.486267308324,1544
2237.3688259274036,1588
2239.2509474712824,1558
2241.132632218193,1570
2243.013880446447,1532
2244.8946924344323,1566
2246.7750684606203,1549
2248.6550088035574,1529
2250.534513741871,1508
2252.413583554265,1539
2254.292218519526,1561
2256.170418916517,1518
2258.0481850241786,1545
2259.925517121534,1488
2261.8024154876825,1537
2263.678880401803,1542
2265.5549121431536,1565
2267.430510991071,1550
2269.305677224971,1541
2271.180411124348,1540
2273.0547129687766,1527
2274.9285830379076,1477
2276.8020216114737,1558
2278.6750289692845,1554
2280.5476053912294,1540
2282.4197511572766,1574
2284.2914665474727,1643
2286.162751841943,1593
2288.0336073208937,1597
2289.904033264608,1646
2291.774029953448,1615
2293.6435976678554,1577
2295.5127366883517,1545
2297.381447295534,1478
2299.2497297700825,1495
2301.1175843927526,1403
2302.9850114443825,1423
2304.852011205885,1389
2306.7185839582553,1330
2308.5847299825664,1390
2310.4504495599676,1325
2312.3157429716925,1347
2314.1806104990483,1259
2316.0450524234247,1291
2317.9090690262888,1333
2319.772660589186,1357
2321.635827393742,1297
2323.498569721661,1292
2325.3608878547248,1301
2327.2227820747967,1326
2329.0842526638157,1308
2330.945299903803,1335
2332.805924076857,1312
2334.6661254651535,1283
2336.525904350951,1304
2338.3852610165827,1307
2340.244195744464,1306
2342.102708817088,1299
2343.9608005170253,1337
2345.8184711269287,1262
2347.675720929526,1225
2349.532550207628,1268
2351.38895924412,1269
2353.24494832197,1273
2355.100517724223,1302
2356.955667734004,1301
2358.810398634514,1298
2360.664710709037,1310
2362.5186042409337,1290
2364.3720795136437,1281
2366.225136810686,1361
2368.0777764156583,1253
2369.929998612237,1303
2371.7818036841777,1272
2373.633191915315,1278
2375.484163589562,1278
2377.3347189909114,1290
2379.184858403434,1325
2381.03458211128,1279
2382.8838903986775,1299
2384.732783549936,1321
2386.5812618494406,1319
2388.4293255816588,1315
2390.2769750311327,1300
2392.1242104824883,1299
2393.971032220427,1336
2395.8174405297295,1289
2397.6634356952563,1334
2399.509018001947,1343
2401.3541877348193,1303
2403.1989451789705,1316
2405.043290619576,1328
2406.8872243418905,1321
2408.730746631247,1315
2410.5738577730594,1323
2412.4165580528183,1303
2414.258847756095,1313
2416.100727168537,1340
2417.9421965758734,1308
2419.783256263912,1306
2421.623906518538,1338
2423.4641476257157,1288
2425.303979871491,1264
2427.143403541984,1260
2428.9824189233977,1377
2430.821026302012,1358
2432.6592259641866,1325
2434.497018196361,1321
2436.33440328505,1278
2438.171381516851,1363
2440.00795317844,1291
2441.844118556569,1285
2443.6798779380724,1329
2445.5152316098606,1293
2447.3501798589255,1358
2449.1847229723357,1342
2451.0188612372403,1358
2452.8525949408663,1330
2454.6859243705203,1385
2456.518849813587,1344
2458.3513715575314,1323
2460.183489889895,1326
2462.015205098301,1333
2463.8465174704493,1309
2465.67742729412,1305
2467.5079348571717,1317
2469.338040447542,1334
2471.1677443532476,1295
2472.9970468623833,1343
2474.825948263123,1360
2476.6544488437207,1329
2478.482548892508,1359
2480.310248697896,1300
2482.137548548374,1330
2483.9644487325118,1382
2485.790949538956,1377
2487.617051256433,1371
2489.44275417375,1345
2491.26805857979,1338
2493.0929647635157,1368
2494.917473013971,1383
2496.741583620276,1359
2498.5652968716304,1383
2500.3886130573137,1438
2502.2115324666834,1373
2504.0340553891765,1388
2505.856182114308,1373
2507.6779129316733,1413
2509.499248130945,1366
2511.3201880018764,1354
2513.140732834298,1400
2514.9608829181198,1365
2516.780638543331,1381
2518.6,1333
2520.418967578273,1360
2522.237541568376,1392
2524.0557222606144,1391
2525.8735099453706,1378
2527.6909049131086,1393
2529.507907454368,1392
2531.32451785977,1404
2533.140736420014,1451
2534.9565634258774,1442
2536.771999168218,1495
2538.5870439379714,1465
2540.4016980261526,1452
2542.2159617238544,1445
2544.02983532225,1488
2545.8433191125914,1453
2547.656413386209,1519
2549.4691184345115,1512
2551.2814345489874,1521
2553.093362021204,1514
2554.904901142808,1457
2556.716052205523,1503
2558.526815501153,1549
2560.3371913215824,1537
2562.147179958771,1579
2563.956781704761,1520
2565.7659968516705,1517
2567.5748256916986,1650
2569.3832685171224,1525
2571.1913256202984,1565
2572.9989972936614,1578
2574.806283829725,1590
2576.613185521084,1635
2578.4197026604074,1631
2580.2258355404483,1636
2582.031584454035,1641
2583.836949694077,1625
2585.6419315535613,1644
2587.4465303255533,1656
2589.2507463032002,1594
2591.0545797797245,1683
2592.8580310484303,1622
2594.6611004026995,1678
2596.463788135992,1663
2598.266094541849,1709
2600.0680199138874,1658
2601.869564545807,1656
2603.670728731383,1674
2605.4715127644704,1675
2607.2719169390048,1637
2609.071941548998,1689
2610.8715868885433,1677
2612.670853251811,1680
2614.469740933052,1675
2616.268250226594,1636
2618.0663814268455,1628
2619.864134828292,1669
2621.6615107255006,1705
2623.458509413115,1768
2625.2551311858597,1683
2627.0513763385347,1680
2628.8472451660223,1664
2630.6427379632833,1634
2632.4378550253564,1639
2634.232596647359,1633
2636.026963124488,1614
2637.8209547520187,1619
2639.6145718253065,1598
2641.407814639785,1590
2643.200683490966,1595
2644.9931786744414,1670
2646.7853004858807,1503
2648.577049221034,1562
2650.3684251757277,1558
2652.1594286458712,1565
2653.9500599274484,1562
2655.740319316525,1477
2657.5302071092437,1509
2659.3197236018286,1552
2661.10886909058,1512
2662.8976438718782,1493
2664.686048242183,1488
2666.4740824980327,1502
2668.2617469360443,1473
2670.0490418529134,1474
2671.8359675454153,1427
2673.622524310403,1429
2675.408712444811,1445
2677.1945322456495,1439
2678.979984010009,1416
2680.76506803506,1372
2682.5497846180497,1387
2684.334134056306,1392
2686.1181166472343,1403
2687.9017326883213,1394
2689.6849824771293,1392
2691.4678663113013,1342
2693.2503844885596,1362
2695.032537306705,1325
2696.8143250636167,1385
2698.5957480572542,1421
2700.3768065856534,1386
2702.1575009469316,1384
2703.937831439283,1397
2705.717798360982,1362
2707.4974020103837,1358
2709.276642685917,1362
2711.055520686095,1348
2712.834036309506,1275
2714.612189854819,1359
2716.389981620782,1313
2718.1674119062204,1350
2719.944481010041,1308
2721.721189231226,1328
2723.4975368688415,1294
2725.273524222027,1362
2727.0491515900053,1375
2728.824419272075,1274
2730.5993275676146,1351
2732.3738767760838,1270
2734.148067197016,1307
2735.921899130031,1300
2737.6953728748194,1279
2739.468488731156,1354
2741.2412469988926,1289
2743.0136479779617,1295
2744.785691968372,1238
2746.5573792702116,1310
2748.3287101836504,1322
2750.099685008934,1252
2751.870304046388,1274
2753.640567596418,1311
2755.4104759595057,1301
2757.1800294362156,1330
2758.949228327187,1277
2760.7180729331412,1345
2762.486563554877,1363
2764.254700493272,1303
2766.022484049284,1304
2767.789914523947,1254
2769.5569922183786,1249
2771.3237174337705,1257
2773.090090471394,1244
2774.8561116326036,1294
2776.6217812188274,1268
2778.3870995315756,1304
2780.1520668724356,1298
2781.9166835430747,1302
2783.6809498452394,1252
2785.444866080754,1285
2787.2084325515225,1321
2788.971649559527,1254
2790.73451740683,1275
2792.4970363955713,1250
2794.2592068279705,1296
2796.0210290063264,1289
2797.7825032330147,1253
2799.543629810493,1298
2801.304409041296,1301
2803.0648412280366,1293
2804.8249266734088,1311
2806.5846656801846,1284
2808.344058551212,1277
2810.1031055894246,1319
2811.8618070978273,1367
2813.6201633795085,1237
2815.378174737636,1329
2817.1358414754536,1337
2818.893163896285,1272
2820.6501423035334,1268
2822.4067770006814,1266
2824.1630682912883,1296
2825.9190164789957,1312
2827.6746218675207,1374
2829.429884760661,1330
2831.184805462294,1267
2832.9393842763743,1294
2834.693621506936,1246
2836.4475174580916,1300
2838.201072434034,1260
2839.954286739034,1294
2841.707160677441,1338
2843.459694553685,1279
2845.2118886722724,1313
2846.96374333779,1249
2848.7152588549034,1244
2850.4664355283567,1331
2852.217273662973,1354
2853.9677735636546,1331
2855.7179355353833,1325
2857.4677598832186,1371
2859.217246912299,1342
2860.9663969278427,1319
2862.715210235146,1304
2864.4636871395846,1300
2866.211827946614,1266
2867.9596329617652,1277
2869.7071024906536,1296
2871.4542368389684,1298
2873.20103631248,1286
2874.947501217038,1331
2876.6936318585695,1264
2878.4394285430812,1276
2880.1848915766604,1262
2881.9300212654707,1302
2883.6748179157553,1291
2885.4192818338374,1301
2887.1634133261173,1306
2888.907212699077,1287
2890.6506802592744,1262
2892.393816313348,1293
2894.1366211680142,1261
2895.8790951300693,1272
2897.621238506388,1275
2899.363051603925,1294
2901.1045347297118,1250
2902.8456881908596,1268
2904.58651229456,1314
2906.327007348081,1312
2908.067173658772,1287
2909.8070115340597,1280
2911.5465212814497,1296
2913.285703208527,1270
2915.0245576229563,1330
2916.7630848324807,1288
2918.5012851449196,1304
2920.2391588681758,1278
2921.976706310227,1285
2923.7139277791334,1247
2925.4508235830313,1286
2927.187394030137,1310
2928.923639428745,1307
2930.6595600872306,1357
2932.395156314046,1303
2934.1304284177218,1276
2935.8653767068713,1281
2937.6000014901815,1327
2939.3343030764227,1297
2941.068281774442,1301
2942.8019378931644,1312
2944.5352717415976,1328
2946.2682836288236,1334
2948.0009738640065,1290
2949.7333427563885,1294
2951.465390615289,1324
2953.1971177501086,1275
2954.9285244703265,1275
2956.6596110855,1267
2958.3903779052657,1306
2960.1208252393385,1311
2961.8509533975125,1274
2963.5807626896617,1245
2965.3102534257378,1253
2967.0394259157715,1300
2968.768280469873,1282
2970.496817398232,1294
2972.2250370111146,1293
2973.952939618869,1272
2975.6805255319196,1285
2977.4077950607707,1306
2979.134748516006,1338
2980.861386208289,1346
2982.587708448359,1349
2984.313715547037,1342
2986.039407815222,1303
2987.764785563891,1297
2989.489849104102,1318
2991.2145987469908,1317
2992.9390348037705,1331
2994.6631575857346,1322
2996.3869674042576,1286
2998.1104645707887,1289
2999.83364939686,1281
3001.5565221940783,1285
3003.2790832741334,1310
3005.0013329487924,1213
3006.7232715298996,1265
3008.4448993293804,1306
3010.166216659239,1321
3011.887223831558,1284
3013.607921158498,1297
3015.3283089522993,1273
3017.0483875252826,1312
3018.7681571898443,1285
3020.4876182584626,1304
3022.2067710436927,1312
3023.9256158581707,1255
3025.644153014609,1284
3027.362382825801,1328
3029.0803056046193,1306
3030.797921664012,1316
3032.5152313170106,1317
3034.2322348767225,1231
3035.9489326563353,1304
3037.665324969115,1287
3039.3814121284063,1247
3041.097194447633,1309
3042.812672240299,1273
3044.5278458199855,1293
3046.2427155003525,1281
3047.9572815951406,1329
3049.671544418167,1315
3051.38550428333,1380
3053.0991615046073,1304
3054.812516396051,1333
3056.5255692717974,1246
3058.2383204460575,1272
3059.9507702331257,1263
3061.662918947372,1288
3063.3747669032446,1286
3065.0863144152736,1291
3066.7975617980674,1293
3068.508509366309,1261
3070.219157434767,1317
3071.9295063182844,1244
3073.639556331785,1264
3075.3493077902704,1331
3077.058761008821,1294
3078.7679163025964,1320
3080.476773986837,1317
3082.1853343768594,1324
3083.89359778806,1249
3085.6015645359153,1303
3087.3092349359786,1259
3089.016609303884,1275
3090.7236879553434,1316
3092.4304712061476,1338
3094.136959372166,1328
3095.843152769349,1304
3097.5490517137237,1272
3099.2546565213966,1333
3100.959967508554,1327
3102.66498499146,1254
3104.3697092864577,1253
3106.0741407099695,1290
3107.778279578498,1362
3109.482126208622,1343
3111.1856809170004,1320
3112.8889440203716,1286
3114.5919158355528,1303
3116.294596679439,1297
3117.996986869006,1284
3119.6990867213062,1312
3121.4008965534726,1309
3123.102416682717,1353
3124.803647426329,1337
3126.5045891016784,1314
3128.205242026213,1290
3129.90560651746,1293
3131.605682893025,1321
3133.3054714705922,1349
3135.0049725679282,1286
3136.7041865028714,1291
3138.4031135933465,1333
3140.101754157353,1261
3141.800108512971,1311
3143.498176978357,1338
3145.1959598717494,1273
3146.8934575114636,1314
3148.5906702158954,1268
3150.2875983035183,1256
3151.9842420928853,1236
3153.680601902627,1242
3155.376678051456,1285
3157.07247085816,1275
3158.767980641609,1260
3160.463207720748,1268
3162.158152414606,1334
3163.8528150422862,1275
3165.5471959229726,1298
3167.2412953759303,1272
3168.9351137204976,1359
3170.628651276098,1353
3172.3219083622307,1271
3174.014885298474,1298
3175.707582404485,1249
3177.4000000000005,1292
3179.092138404835,1259
3180.7839979388846,1310
3182.47557892212,1267
3184.166881674594,1248
3185.8579065164386,1256
3187.5486537678626,1305
3189.2391237491547,1300
3190.9293167806827,1309
3192.6192331828934,1301
3194.3088732763117,1250
3195.998237381542,1261
3197.687325819268,1272
3199.376138910251,1240
3201.064676975334,1288
3202.7529403354347,1284
3204.4409293115523,1269
3206.1286442247647,1275
3207.816085396229,1250
3209.5032531471825,1249
3211.190147798936,1293
3212.8767696728846,1250
3214.5631190905015,1280
3216.2491963733373,1190
3217.9350018430214,1251
3219.6205358212637,1243
3221.305798629851,1262
3222.990790590651,1230
3224.6755120256103,1195
3226.359963256751,1229
3228.0441446061795,1246
3229.7280563960758,1307
3231.411698948703,1310
3233.0950725863995,1323
3234.778177631587,1268
3236.461014406761,1246
3238.1435832345005,1296
3239.8258844374595,1292
3241.507918338374,1298
3243.1896852600576,1262
3244.8711855254023,1262
3246.552419457381,1248
3248.233387379042,1280
3249.914089613516,1292
3251.59452648401,1287
3253.274698313813,1310
3254.95460542629,1275
3256.6342481448855,1256
3258.313626793125,1239
3259.9927416946084,1232
3261.6715931730196,1243
3263.3501815521176,1231
3265.0285071557437,1266
3266.706570307815,1222
3268.3843713323286,1307
3270.0619105533615,1234
3271.739188295068,1250
3273.4162048816834,1222
3275.0929606375184,1236
3276.769455886966,1242
3278.445690954498,1248
3280.1216661646613,1284
3281.797381842087,1333
3283.4728383114807,1261
3285.1480358976296,1236
3286.8229749253996,1301
3288.4976557197333,1236
3290.172078605655,1292
3291.846243908266,1299
3293.5201519527463,1217
3295.193803064357,1207
3296.8671975684374,1233
3298.5403357904024,1198
3300.21321805575,1166
3301.8858446900567,1265
3303.558216018975,1287
3305.23033236824,1331
3306.9021940636603,1321
3308.57380143113,1252
3310.2451547966184,1245
3311.916254486174,1215
3313.5871008259246,1285
3315.2576941420766,1205
3316.9280347609147,1262
3318.5981230088046,1229
3320.2679592121895,1238
3321.9375436975924,1210
3323.606876791612,1271
3325.27595882093,1251
3326.944790112305,1214
3328.6133709925753,1235
3330.2817017886573,1221
3331.949782827547,1251
3333.617614436319,1260
3335.2851969421245,1257
3336.952530672199,1260
3338.619615953853,1282
3340.286453114475,1268
3341.9530424815357,1289
3343.619384382583,1296
3345.2854791452437,1230
3346.951327097224,1251
3348.6169285663073,1283
3350.2822838803577,1279
3351.947393367319,1250
3353.61225735521,1327
3355.2768761721345,1214
3356.9412501462693,1257
3358.605379605873,1263
3360.2692648792827,1236
3361.9329062949146,1276
3363.596304181263,1253
