CollectionTime,7/11/2024 12:35:58 PM
ExposureUsed,3
CalibratedSpectrum
-962.7078968117929,534
-959.9714848408522,564
-957.2358232597828,552
-954.5009119013725,554
-951.7667505983302,540
-949.0333391832855,582
-946.3006774887896,582
-943.5687653473143,594
-940.837602591253,605
-938.1071890529199,573
-935.3775245645503,578
-932.6486089583007,603
-929.9204420662485,609
-927.1930237203925,586
-924.4663537526524,585
-921.7404319948689,555
-919.0152582788041,568
-916.2908324361409,634
-913.5671542984834,596
-910.8442236973568,587
-908.1220404642074,562
-905.4006044304027,597
-902.679915427231,566
-899.959973285902,574
-897.2407778375464,577
-894.5223289132158,567
-891.8046263438832,561
-889.0876699604426,563
-886.3714595937089,540
-883.6559950744183,578
-880.9412762332282,544
-878.2273029007168,539
-875.5140749073835,565
-872.8015920836489,546
-870.0898542598545,562
-867.3788612662631,550
-864.6686129330585,576
-861.9591090903457,581
-859.2503495681506,566
-856.5423341964203,539
-853.8350628050229,561
-851.1285352237478,556
-848.4227512823054,533
-845.7177108103272,572
-843.0134136373656,557
-840.3098595928943,573
-837.6070485063082,600
-834.9049802069229,596
-832.2036545239757,562
-829.5030712866244,577
-826.8032303239481,574
-824.1041314649472,558
-821.4057745385428,569
-818.7081593735775,554
-816.0112857988148,553
-813.3151536429393,580
-810.6197627345566,556
-807.9251129021936,541
-805.2312039742981,556
-802.5380357792392,575
-799.8456081453069,566
-797.1539209007124,572
-794.462973873588,572
-791.772766891987,604
-789.083299783884,595
-786.3945723771743,568
-783.7065844996748,584
-781.0193359791231,563
-778.3328266431781,582
-775.6470563194197,570
-772.9620248353489,560
-770.2777320183878,563
-767.5941776958798,565
-764.9113616950891,601
-762.2292838432011,565
-759.5479439673222,597
-756.8673418944801,588
-754.1874774516235,588
-751.5083504656222,624
-748.8299607632671,595
-746.15230817127,604
-743.475392516264,599
-740.7992136248035,623
-738.1237713233636,586
-735.4490654383407,601
-732.7750957960521,629
-730.1018622227365,590
-727.4293645445534,595
-724.7576025875837,587
-722.0865761778291,592
-719.4162851412126,600
-716.7467293035781,612
-714.0779084906909,618
-711.409822528237,625
-708.7424712418238,636
-706.0758544569796,616
-703.4099719991541,620
-700.7448236937178,673
-698.0804093659622,688
-695.4167288411002,690
-692.7537819442656,603
-690.0915685005134,618
-687.4300883348199,630
-684.7693412720819,600
-682.1093271371178,619
-679.4500457546669,635
-676.7914969493897,605
-674.1336805458676,651
-671.4765963686034,616
-668.8202442420206,647
-666.1646239904642,622
-663.5097354382001,651
-660.8555784094151,649
-658.2021527282176,639
-655.5494582186366,675
-652.8974947046223,634
-650.2462620100463,646
-647.5957599587009,652
-644.9459883742998,691
-642.2969470804776,667
-639.6486359007902,666
-637.0010546587141,682
-634.3542031776476,679
-631.7080812809096,660
-629.0626887917401,678
-626.4180255333008,666
-623.7740913286734,711
-621.1308860008619,697
-618.4884093727904,680
-615.8466612673046,653
-613.2056415071715,660
-610.5653499150785,649
-607.9257863136347,680
-605.28695052537,693
-602.6488423727357,646
-600.0114616781036,684
-597.3748082637674,697
-594.7388819519412,683
-592.1036825647604,731
-589.4692099242818,783
-586.8354638524829,761
-584.2024441712624,742
-581.5701507024403,703
-578.9385832677575,707
-576.3077416888759,726
-573.6776257873787,757
-571.0482353847704,717
-568.4195703024757,708
-565.7916303618415,683
-563.164415384135,706
-560.5379251905453,654
-557.9121596021815,689
-555.2871184400748,676
-552.6628015251767,685
-550.0392086783606,736
-547.4163397204204,748
-544.794194472071,717
-542.1727727539491,702
-539.5520743866118,755
-536.9320991905377,782
-534.3128469861261,804
-531.6943175936979,830
-529.0765108334947,850
-526.4594265256793,837
-523.8430644903358,956
-521.2274245474689,1025
-518.612506517005,1100
-515.9983102187913,1101
-513.3848354725959,1044
-510.77208209810846,1119
-508.16004991493924,1232
-505.5487387426199,1323
-502.9381484006032,1489
-500.3282787082628,1479
-497.71912948489364,1459
-495.1107005497117,1464
-492.5029917218539,1330
-489.8960028203786,1236
-487.28973366426493,1074
-484.68418407241325,992
-482.07935386364494,940
-479.47524285670266,943
-476.87185087025,907
-474.2691777228715,904
-471.66722323307334,912
-469.0659872192821,896
-466.4654694998459,935
-463.86566989303384,892
-461.26658821703614,891
-458.66822428996414,877
-456.07057792985,896
-453.4736489546475,924
-450.877437182231,849
-448.28194243039627,915
-445.68716451686,882
-443.09310325926003,866
-440.49975847515555,891
-437.9071299820263,891
-435.31521759727354,848
-432.72402113821954,924
-430.13354042210767,901
-427.5437752661022,870
-424.95472548728867,857
-422.36639090267386,906
-419.7787713291855,993
-417.1918665836721,980
-414.60567648290385,936
-412.0202008435715,929
-409.4354394822874,1030
-406.8513922155845,1022
-404.26805885991723,992
-401.685439231661,933
-399.103533147112,962
-396.522340422488,997
-393.9418608739278,965
-391.3620943174908,998
-388.7830405691583,921
-386.2046994448317,906
-383.6270707603344,834
-381.05015433141045,823
-378.473949973725,727
-375.8984575028645,778
-373.32367673433623,700
-370.74960748356875,672
-368.1762495659117,632
-365.60360279663576,603
-363.03166699093265,557
-360.4604419639154,520
-357.8899275306178,504
-355.32012350599507,481
-352.7510297049233,471
-350.1826459421999,468
-347.61497203254316,450
-345.04800779059235,452
-342.4817530309082,537
-339.91620756797226,520
-337.35137121618743,513
-334.7872437898774,538
-332.22382510328725,520
-329.66111497058273,484
-327.09911320585127,469
-324.53781962310075,493
-321.9772340362607,523
-319.4173562591816,463
-316.8581861056348,444
-314.2997233893127,470
-311.7419679238294,449
-309.1849195227194,503
-306.62857799943856,524
-304.0729431673641,528
-301.51801483979375,531
-298.963792829947,567
-296.41027695096386,592
-293.85746701590574,601
-291.3053628377552,588
-288.7539642294155,599
-286.2032710037115,537
-283.65328297338897,515
-281.1039999511146,591
-278.5554217494762,654
-276.007548180983,629
-273.4603790580651,527
-270.9139141930734,560
-268.3681533982807,520
-265.8230964858798,552
-263.27874326798565,581
-260.7350935566336,560
-258.1921471637804,561
-255.6499039013039,549
-253.10836358100266,598
-250.56752601459698,571
-248.02739101372765,569
-245.48795838995704,647
-242.94922795476816,647
-240.41119951956557,609
-237.8738728956746,677
-235.33724789434166,665
-232.80132432673452,635
-230.2661020039418,641
-227.73158073697357,642
-225.19776033676033,636
-222.66464061415422,673
-220.1322213799284,678
-217.60050244477725,614
-215.06948361931552,568
-212.53916471408013,610
-210.00954553952818,665
-207.48062590603843,694
-204.9524056239104,687
-202.4248845033651,731
-199.8980623545441,711
-197.37193898751036,697
-194.84651421224817,677
-192.32178783866232,715
-189.79775967657952,757
-187.27442953574644,785
-184.7517972258321,849
-182.2298625564256,879
-179.7086253370378,846
-177.18808537710026,817
-174.66824248596583,739
-172.14909647290835,759
-169.6306471471229,813
-167.11289431772548,907
-164.59583779375328,907
-162.07947738416453,826
-159.5638128978386,852
-157.04884414357605,994
-154.53457093009854,962
-152.02099306604828,854
-149.50811035998936,865
-146.99592262040665,901
-144.48442965570587,751
-141.97363127421409,905
-139.46352728417958,892
-136.95411749377126,931
-134.44540171107985,963
-131.93737974411636,910
-129.43005140081357,839
-126.92341648902493,1107
-124.41747481652521,1378
-121.91222619101006,1408
-119.40767042009657,1626
-116.90380731132257,1794
-114.40063667214702,2108
-111.8981583099503,2139
-109.3963720320337,1806
-106.89527764561933,1588
-104.39487495785067,1710
-101.89516377579241,2061
-99.39614390642998,2626
-96.89781515667039,2708
-94.40017733334128,2295
-91.90323024319173,2483
-89.40697369289148,4289
-86.91140748903172,6186
-84.41653143812482,7514
-81.92234534660395,7000
-79.42884902082358,5246
-76.93604226705907,6282
-74.4439248915071,12326
-71.95249670028534,21352
-69.46175749943245,26987
-66.97170709490854,29407
-64.48234529259423,27580
-61.99367189829195,23507
-59.50568671772464,15381
-57.01838955653636,11406
-54.53178022029283,11604
-52.045858514480074,10219
-49.560624244506016,10433
-47.07607721569923,12238
-44.59221723330904,13765
-42.10904410250669,14040
-39.62655762838392,13276
-37.14475761595372,12872
-34.66364387015028,12695
-32.18321619582866,11059
-29.70347439776515,9959
-27.224418280657005,9038
-24.74604764912317,9321
-22.26836230770266,13457
-19.7913620608565,24369
-17.315046712966478,41541
-14.83941606833514,57602
-12.36446993118659,65037
-9.89020810566592,65037
-7.416630395839093,65037
-4.94373660569363,65037
-2.471526539137585,65037
-6.821210263296962E-13,65037
2.47084320796705,65037
4.941003281093458,65037
7.410480415786196,65037
9.879274808531363,65037
12.347386655893956,65037
14.814816154518212,65037
17.28156350112681,65037
19.74762889252179,65037
22.21301252558385,65037
24.67771459727237,19944
27.141735304626195,4080
29.605074844762612,2902
32.06773341487792,2731
34.52971121224755,2543
36.99100843422559,3217
39.45162527824516,2928
41.91156194181792,2193
44.370818622535126,1981
46.82939551806646,1604
49.287292826160524,1616
51.74451074464503,2088
54.201049471426245,2300
56.65690920448981,1867
59.112090141899785,1424
61.56659248179983,1426
64.02041642241159,1210
66.4735621620365,1210
68.92602989905402,1127
71.37781983192338,1336
73.82893215918205,1374
76.27936707944684,1396
78.72912479141326,1329
81.17820549385567,1250
83.62660938562783,1462
86.07433666566146,1601
88.5213875329681,1217
90.96776218663751,1023
93.41346082583925,1073
95.85848364982041,1232
98.30283085790859,1576
100.7465026495089,1441
103.18949922410604,1249
105.63182078126385,1101
108.07346752062438,1092
110.51443964190923,984
112.95473734491827,923
115.39436082953114,993
117.83331029570547,1057
120.27158594347827,1161
122.7091879729652,1317
125.1461165843615,1275
127.58237197794062,1042
130.01795435405518,954
132.4528639131364,1019
134.88710085569494,992
137.32066538231982,962
139.75355769367923,860
142.1857779905207,849
144.61732647366978,862
147.04820334403132,878
149.47840880258934,976
151.90794305040674,1099
154.33680628862487,1269
156.76499871846443,1451
159.19252054122433,1430
161.61937195828352,1511
164.04555317109896,1729
166.47106438120693,1891
168.89590579022217,2214
171.320077599839,2315
173.7435800118302,2361
176.16641322804742,2403
178.58857745042144,2576
181.01007288096173,2668
183.43089972175687,2592
185.85105817497413,2600
188.27054844285988,2570
190.6893707277394,2577
193.10752523201643,2675
195.5250121581745,2790
197.9418317087751,2791
200.3579840864594,2716
202.7734694939469,2755
205.18828813403627,2833
207.6024402096051,2864
210.01592592360964,2844
212.42874547908548,2820
214.84089907914665,2864
217.2523869269868,2774
219.66320922587727,2761
222.0733661791695,2683
224.48285799029293,2700
226.8916848627572,2661
229.29984700014882,2720
231.7073446061355,2716
234.11417788446204,2689
236.520347038953,2794
238.92585227351185,2868
241.33069379212054,2943
243.73487179884035,2938
246.1383864978112,2951
248.541238093252,2885
250.9434267894609,2823
253.34495279081432,2845
255.74581630176783,2892
258.1460175268563,2849
260.54555667069314,2841
262.9444339379703,2856
265.3426495334594,2799
267.7402036620107,2834
270.1370965285529,2839
272.53332833809407,2697
274.9288992957214,2518
277.32380960660055,2579
279.718059475976,2515
282.1116491091717,2510
284.5045787115897,2471
286.89684848871195,2513
289.2884586460981,2577
291.67940938938807,2551
294.0697009242996,2564
296.4593334566299,2550
298.84830719225477,2522
301.23662233712923,2504
303.6242790972866,2403
306.01127767884,2360
308.39761828798066,2384
310.78330113097934,2395
313.16832641418534,2367
315.5526943440269,2316
317.9364051270112,2255
320.3194589697242,2298
322.70185607883093,2302
325.0835966610754,2290
327.4646809232805,2231
329.8451090723478,2172
332.2248813152577,2163
334.6039978590701,2212
336.9824589109231,2159
339.36026467803447,2141
341.7374153677,2145
344.113911187295,2094
346.48975234427337,2131
348.8649390461686,2172
351.2394715005918,2143
353.61334991523415,2124
355.9865744978655,2111
358.35914545633375,2073
360.73106299856715,2127
363.10232733257146,2040
365.47293866643247,2120
367.84289720831396,1995
370.2122031664593,2006
372.5808567491905,2038
374.9488581649083,2060
377.31620762209275,2014
379.6829053293021,1997
382.0489514951745,1930
384.4143463284262,2009
386.7790900378528,1992
389.14318283232853,1962
391.50662492080653,1975
393.86941651231916,2003
396.23155781597745,1995
398.5930490409713,2019
400.9538903965696,1986
403.3140820921202,2014
405.6736243370498,2019
408.03251734086336,1906
410.3907613131465,1935
412.74835646356166,1942
415.10530300185144,1979
417.4616011378372,1884
419.81725108141893,2014
422.1722530425758,1935
424.5266072313656,1893
426.880313857925,1940
429.2333731324701,1932
431.58578526529516,1894
433.9375504667738,1862
436.2886689473588,1844
438.63914091758113,1893
440.9889665880513,1865
443.33814616945835,1905
445.68667987257015,1879
448.03456790823395,1863
450.3818104873759,1790
452.72840782100013,1861
455.07436012019105,1865
457.41966759611057,1866
459.7643304600007,1864
462.10834892318155,1878
464.4517231970525,1816
466.79445349309174,1788
469.1365400228566,1864
471.4779829979826,1809
473.81878263018564,1874
476.15893913125876,1940
478.4984527130747,1962
480.8373235875855,2002
483.17555196682144,1947
485.5131380628919,2139
487.8500820879857,2136
490.1863842543697,2226
492.52204477439034,2431
494.8570638604725,2567
497.1914417251204,2871
499.52517858091653,3113
501.85827464052306,3195
504.19073011668036,3245
506.5225452222086,3256
508.85372017000566,3088
511.18425517304956,2941
513.514150444396,3018
515.8434061971808,3538
518.1720226446176,4241
520.4999999999999,4297
522.8273384766991,4101
525.1540382881666,3915
527.480099647932,3403
529.8055227696037,2987
532.1303078668694,2471
534.454455153496,2083
536.777964843328,2082
539.1008371502907,1937
541.4230722883866,1959
543.744670471698,1904
546.0656319143858,1929
548.3859568306899,1907
550.7056454349294,1881
553.0246979415016,1826
555.3431145648834,1865
557.6608955196306,1874
559.978041020377,1860
562.2945512818363,1915
564.6104265188006,1898
566.9256669461412,1847
569.2402727788082,1848
571.5542442318302,1858
573.8675815203156,1840
576.1802848594508,1916
578.4923544645015,1872
580.8037905508126,1873
583.114593333807,1977
585.4247630289875,1897
587.7342998519354,1825
590.0432040183106,1895
592.3514757438526,1864
594.6591152443794,1884
596.9661227357875,1888
599.2724984340531,1942
601.578242555231,1925
603.8833553154542,1936
606.1878369309362,1926
608.4916876179676,1922
610.7949075929192,1909
613.0974970722403,1936
615.3994562724587,1904
617.7007854101818,1935
620.0014847020951,1863
622.3015543649641,1994
624.6009946156324,1933
626.8998056710224,1921
629.1979877481361,1988
631.4955410640538,1859
633.7924658359349,1891
636.0887622810175,1898
638.3844306166192,1971
640.6794710601358,1994
642.9738838290426,1959
645.2676691408932,1913
647.5608272133207,1939
649.853358264037,1978
652.1452625108324,2004
654.4365401715764,1969
656.7271914642178,2021
659.0172166067838,1924
661.3066158173809,1985
663.5953893141935,1962
665.8835373154867,1972
668.1710600396028,1962
670.4579577049639,1974
672.7442305300709,1944
675.0298787335033,1974
677.3149025339197,1921
679.599302150058,1911
681.8830778007342,1948
684.1662297048437,1964
686.4487580813608,2039
688.7306631493387,2049
691.0119451279091,1971
693.2926042362834,1916
695.5726406937516,1945
697.8520547196814,1953
700.1308465335215,1950
702.4090163547982,1934
704.6865644031171,1947
706.9634908981619,1947
709.2397960596965,2002
711.5154801075631,1990
713.7905432616823,1993
716.0649857420548,2005
718.3388077687592,2023
720.612009561953,1949
722.8845913418733,2005
725.1565533288352,1968
727.427895743234,1971
729.6986188055427,2014
731.9687227363137,1920
734.238207756178,1937
736.5070740858458,1960
738.7753219461066,1904
741.0429515578281,2033
743.3099631419569,2010
745.5763569195191,2015
747.8421331116193,1901
750.1072919394409,1950
752.3718336242467,1949
754.6357583873777,1909
756.8990664502545,1999
759.1617580343765,1939
761.423833361321,1925
763.6852926527457,1923
765.9461361303862,1899
768.206364016058,2055
770.4659765316536,2014
772.7249738991469,2072
774.9833563405886,2021
777.2411240781092,1973
779.4982773339183,1899
781.7548163303044,2000
784.010741289634,2039
786.2660524343538,2025
788.5207499869881,2001
790.7748341701416,2027
793.0283052064964,2037
795.2811633188143,2009
797.5334087299362,2009
799.7850416627813,2012
802.0360623403484,1972
804.2864709857143,2010
806.5362678220353,2014
808.7854530725468,1990
811.0340269605625,2032
813.2819897094754,2071
815.5293415427581,2021
817.77608268396,1947
820.0222133567116,2012
822.2677337847211,2039
824.5126441917765,1974
826.7569448017433,1945
829.0006358385675,2066
831.2437175262731,1973
833.4861900889629,1976
835.7280537508192,2048
837.9693087361026,1997
840.2099552691533,1975
842.4499935743896,2043
844.689423876309,2001
846.9282463994886,2013
849.1664613685833,2006
851.4040690083276,1989
853.6410695435349,1973
855.877463199097,1961
858.1132501999847,1946
860.3484307712487,1985
862.5830051380175,1949
864.8169735254988,2014
867.0503361589791,2051
869.2830932638243,2071
871.5152450654786,2041
873.7467917894654,2040
875.9777336613873,2051
878.2080709069252,2009
880.4378037518389,2000
882.666932421968,2006
884.8954571432301,2052
887.1233781416219,2003
889.3506956432192,2091
891.5774098741766,2085
893.803521060728,2089
896.0290294291852,2080
898.2539352059397,1958
900.4782386174619,2025
902.7019398903011,2028
904.925039251085,2075
907.147536926521,2022
909.3694331433943,1986
911.59072812857,2024
913.8114221089921,2001
916.0315153116827,2034
918.2510079637437,2028
920.4699002923547,1948
922.6881925247761,1995
924.905884888345,1959
927.1229776104793,1973
929.3394709186747,1911
931.555365040506,1991
933.7706602036275,1934
935.9853566357709,1915
938.1994545647489,1929
940.4129542184515,1959
942.6258558248488,1959
944.8381596119883,1972
947.0498658079974,2027
949.2609746410825,1927
951.4714863395287,1891
953.6814011316998,1898
955.8907192460387,1887
958.0994409110671,1817
960.3075663553858,1929
962.5150958076741,1902
964.7220294966913,1925
966.928367651274,1852
969.1341105003388,1905
971.3392582728806,1828
973.5438111979742,1857
975.747769504772,1881
977.9511334225061,1810
980.153903180487,1783
982.3560790081052,1827
984.5576611348289,1834
986.7586497902058,1790
988.9590452038618,1818
991.158847605503,1793
993.3580572249133,1803
995.5566742919558,1752
997.7546990365728,1770
999.952131688785,1690
1002.1489724786926,1694
1004.3452216364743,1715
1006.5408793923874,1734
1008.7359459767691,1720
1010.9304216200343,1662
1013.1243065526781,1657
1015.3176010052733,1647
1017.510305208472,1669
1019.7024193930064,1599
1021.8939437896848,1684
1024.0848786293977,1650
1026.2752241431122,1598
1028.4649805618747,1627
1030.6541481168115,1640
1032.842727039127,1597
1035.0307175601051,1598
1037.2181199111074,1551
1039.4049343235752,1594
1041.591161029029,1595
1043.7768002590683,1575
1045.9618522453698,1582
1048.1463172196918,1550
1050.3301954138697,1588
1052.513487059818,1609
1054.69619238953,1588
1056.8783116350783,1600
1059.0598450286152,1616
1061.2407928023704,1582
1063.4211551886528,1572
1065.6009324198508,1685
1067.780124728432,1529
1069.9587323469414,1609
1072.1367555080046,1603
1074.314194444325,1565
1076.4910493886855,1542
1078.667320573947,1564
1080.843008233051,1535
1083.0181125990161,1543
1085.1926339049414,1561
1087.3665723840027,1508
1089.5399282694575,1554
1091.7127017946405,1545
1093.8848931929647,1553
1096.0565026979243,1502
1098.2275305430899,1514
1100.3979769621128,1449
1102.567842188722,1511
1104.737126456726,1511
1106.9058300000124,1519
1109.0739530525475,1447
1111.2414958483764,1475
1113.4084586216231,1498
1115.5748416064907,1425
1117.7406450372605,1466
1119.9058691482942,1504
1122.0705141740304,1521
1124.2345803489884,1486
1126.3980679077658,1433
1128.5609770850388,1497
1130.7233081155623,1539
1132.8850612341707,1468
1135.0462366757774,1451
1137.2068346753745,1539
1139.3668554680326,1489
1141.526299288901,1437
1143.68516637321,1445
1145.8434569562655,1461
1148.001171273455,1472
1150.158309560244,1447
1152.3148720521767,1465
1154.470858984876,1443
1156.626270594044,1497
1158.7811071154629,1467
1160.9353687849912,1431
1163.089055838569,1457
1165.242168512213,1409
1167.3947070420209,1423
1169.5466716641677,1389
1171.6980626149075,1448
1173.8488801305748,1410
1175.9991244475814,1391
1178.1487958024186,1464
1180.2978944316555,1471
1182.4464205719428,1502
1184.5943744600072,1438
1186.7417563326567,1414
1188.8885664267755,1425
1191.0348049793297,1387
1193.1804722273619,1394
1195.325568407995,1450
1197.4700937584303,1400
1199.614048515948,1368
1201.7574329179074,1465
1203.900247201746,1399
1206.042491604982,1452
1208.1841663652099,1405
1210.3252717201053,1389
1212.465807907422,1425
1214.6057751649923,1398
1216.7451737307279,1420
1218.8840038426192,1425
1221.0222657387353,1473
1223.1599596572241,1414
1225.2970858363137,1423
1227.4336445143094,1447
1229.5696359295966,1439
1231.705060320639,1453
1233.8399179259786,1461
1235.9742089842384,1459
1238.107933734118,1528
1240.2410924143974,1464
1242.373685263935,1416
1244.5057125216676,1478
1246.6371744266116,1436
1248.7680712178621,1434
1250.898403134593,1460
1253.028170416058,1455
1255.1573733015875,1425
1257.2860120305932,1446
1259.4140868425648,1482
1261.54159797707,1481
1263.6685456737569,1517
1265.7949301723515,1527
1267.9207517126597,1483
1270.046010534565,1469
1272.1707068780306,1537
1274.2948409830983,1517
1276.4184130898889,1482
1278.541423438603,1542
1280.6638722695184,1505
1282.785759822993,1498
1284.9070863394636,1522
1287.0278520594447,1491
1289.1480572235314,1555
1291.2677020723963,1561
1293.3867868467923,1477
1295.5053117875495,1569
1297.623277135579,1498
1299.740683131868,1496
1301.8575300174857,1555
1303.973818033578,1536
1306.0895474213703,1502
1308.2047184221678,1572
1310.3193312773528,1532
1312.4333862283888,1599
1314.5468835168163,1566
1316.659823384255,1550
1318.7722060724045,1577
1320.8840318230418,1651
1322.9953008780249,1636
1325.1060134792888,1581
1327.2161698688478,1557
1329.3257702887959,1602
1331.4348149813054,1586
1333.5433041886276,1637
1335.6512381530933,1600
1337.7586171171101,1597
1339.8654413231675,1596
1341.9717110138317,1584
1344.0774264317488,1551
1346.1825878196432,1557
1348.2871954203192,1690
1350.3912494766587,1576
1352.4947502316231,1578
1354.5976979282532,1522
1356.7000928096686,1604
1358.8019351190665,1543
1360.9032250997243,1548
1363.0039629949988,1543
1365.1041490483235,1545
1367.2037835032133,1546
1369.3028666032606,1582
1371.401398592137,1574
1373.4993797135926,1611
1375.5968102114575,1607
1377.6936903296396,1622
1379.7900203121262,1557
1381.8858004029835,1587
1383.9810308463561,1638
1386.075711886469,1634
1388.1698437676241,1596
1390.2634267342032,1600
1392.356461030667,1562
1394.4489469015557,1593
1396.5408845914872,1552
1398.6322743451592,1661
1400.7231164073469,1652
1402.813411022907,1643
1404.903158436773,1682
1406.9923588939578,1734
1409.0810126395531,1694
1411.1691199187303,1659
1413.2566809767386,1672
1415.343696058907,1681
1417.4301654106425,1705
1419.5160892774315,1746
1421.6014679048399,1683
1423.6863015385125,1711
1425.7705904241707,1753
1427.8543348076178,1751
1429.9375349347342,1775
1432.0201910514802,1794
1434.102303403894,1763
1436.1838722380944,1837
1438.2648978002767,1818
1440.3453803367174,1808
1442.4253200937692,1913
1444.5047173178677,1780
1446.5835722555234,1809
1448.6618851533285,1864
1450.739656257952,1924
1452.8168858161434,1897
1454.8935740747306,2033
1456.96972128062,1981
1459.045327680797,2029
1461.120393522327,1964
1463.1949190523528,2022
1465.2689045180973,2089
1467.3423501668608,2100
1469.415256246024,2066
1471.4876230030463,2165
1473.559450685465,2180
1475.6307395408976,2250
1477.7014898170391,2254
1479.771701761665,2248
1481.8413756226287,2342
1483.9105116478618,2392
1485.9791100853772,2438
1488.0471711832643,2438
1490.1146951896926,2460
1492.1816823529098,2460
1494.2481329212433,2523
1496.3140471430984,2523
1498.3794252669609,2604
1500.4442675413939,2641
1502.5085742150404,2643
1504.572345536622,2614
1506.6355817549388,2649
1508.6982831188702,2722
1510.7604498773744,2774
1512.8220822794883,2835
1514.8831805743293,2828
1516.9437450110909,2893
1519.003775839048,2885
1521.0632733075522,2936
1523.1222376660367,3019
1525.1806691640113,3097
1527.2385680510652,3126
1529.2959345768668,3249
1531.3527689911643,3239
1533.4090715437833,3245
1535.4648424846291,3321
1537.5200820636855,3368
1539.5747905310159,3459
1541.6289681367616,3386
1543.6826151311434,3575
1545.7357317644614,3610
1547.7883182870937,3757
1549.8403749494987,3709
1551.8919020022113,3768
1553.9428996958477,3898
1555.9933682811015,3887
1558.0433080087469,3957
1560.0927191296346,4181
1562.1416018946961,4021
1564.1899565549415,4217
1566.2377833614592,4123
1568.2850825654164,4093
1570.3318544180606,4038
1572.3780991707158,3906
1574.423817074788,3745
1576.4690083817595,3557
1578.5136733431923,3449
1580.5578122107272,3183
1582.601425236085,3004
1584.6445126710646,2905
1586.6870747675434,2793
1588.7291117774776,2574
1590.7706239529034,2620
1592.8116115459347,2462
1594.8520748087658,2345
1596.8920139936686,2309
1598.9314293529933,2206
1600.9703211391711,2165
1603.008689604711,2105
1605.0465350022005,2003
1607.0838575843068,1950
1609.1206576037753,2039
1611.1569353134305,1941
1613.1926909661765,1869
1615.2279248149953,1831
1617.2626371129481,1805
1619.2968281131757,1840
1621.3304980688963,1775
1623.3636472334088,1792
1625.39627586009,1717
1627.428384202396,1687
1629.459972513861,1623
1631.4910410480993,1696
1633.5215900588028,1666
1635.551619799744,1728
1637.5811305247717,1674
1639.6101224878166,1642
1641.6385959428862,1598
1643.6665511440683,1613
1645.693988345528,1578
1647.7209078015112,1642
1649.7473097663405,1600
1651.7731944944203,1609
1653.7985622402307,1625
1655.823413258333,1572
1657.847747803366,1609
1659.8715661300494,1590
1661.8948684931793,1605
1663.9176551476316,1675
1665.9399263483624,1601
1667.9616823504057,1580
1669.982923408873,1601
1672.0036497789574,1509
1674.0238617159293,1579
1676.043559475138,1543
1678.0627433120121,1547
1680.081413482059,1581
1682.0995702408654,1556
1684.117213844096,1537
1686.134344547495,1565
1688.1509626068864,1556
1690.1670682781705,1536
1692.182661817329,1546
1694.1977434804217,1544
1696.2123135235875,1513
1698.226372203043,1589
1700.2399197750851,1612
1702.2529564960905,1619
1704.2654826225112,1623
1706.277498410882,1581
1708.2890041178139,1570
1710.2999999999988,1514
1712.3104863142066,1528
1714.3204633172854,1533
1716.329931266163,1516
1718.3388904178469,1525
1720.3473410294214,1569
1722.3552833580516,1567
1724.3627176609807,1517
1726.3696441955308,1541
1728.3760632191033,1576
1730.3819749891782,1521
1732.3873797633146,1514
1734.3922777991502,1508
1736.3966693544012,1559
1738.4005546868639,1508
1740.4039340544127,1517
1742.406807715001,1500
1744.4091759266616,1505
1746.4110389475054,1473
1748.4123970357223,1507
1750.413250449582,1452
1752.4135994474318,1492
1754.4134442876993,1502
1756.4127852288902,1442
1758.4116225295893,1499
1760.4099564484595,1462
1762.407787244244,1496
1764.405115175764,1461
1766.4019405019203,1473
1768.3982634816916,1440
1770.3940843741357,1421
1772.3894034383907,1410
1774.3842209336717,1431
1776.378537119274,1508
1778.372352254571,1409
1780.3656665990156,1439
1782.3584804121397,1377
1784.3507939535534,1404
1786.3426074829463,1485
1788.3339212600863,1454
1790.3247355448211,1427
1792.3150505970766,1438
1794.3048666768573,1418
1796.2941840442477,1446
1798.2830029594106,1451
1800.2713236825884,1457
1802.2591464741004,1458
1804.2464715943465,1426
1806.2332993038058,1438
1808.2196298630352,1396
1810.2054635326708,1424
1812.190800573428,1504
1814.175641246101,1468
1816.1599858115628,1382
1818.1438345307652,1496
1820.127187664738,1391
1822.1100454745924,1484
1824.092408221516,1417
1826.0742761667766,1448
1828.055649571721,1466
1830.0365286977735,1453
1832.0169138064398,1426
1833.9968051593014,1389
1835.9762030180214,1389
1837.9551076443408,1451
1839.9335193000788,1407
1841.9114382471344,1427
1843.888864747485,1345
1845.8657990631878,1404
1847.842241456378,1440
1849.8181921892697,1461
1851.7936515241558,1415
1853.7686197234098,1377
1855.7430970494815,1432
1857.7170837649014,1368
1859.6905801322787,1334
1861.6635864143004,1393
1863.6361028737338,1396
1865.608129773424,1451
1867.5796673762961,1398
1869.5507159453537,1463
1871.521275743678,1391
1873.4913470344313,1391
1875.4609300808534,1376
1877.4300251462632,1335
1879.3986324940588,1465
1881.366752387717,1426
1883.3343850907936,1380
1885.3015308669228,1370
1887.268189979819,1366
1889.2343626932739,1398
1891.2000492711595,1394
1893.1652499774254,1416
1895.1299650761011,1338
1897.0941948312952,1419
1899.0579395071945,1436
1901.0211993680641,1419
1902.98397467825,1401
1904.9462657021745,1399
1906.9080727043415,1376
1908.869395949332,1419
1910.8302357018065,1375
1912.790592226504,1405
1914.7504657882428,1397
1916.7098566519212,1391
1918.6687650825133,1346
1920.6271913450764,1422
1922.5851357047422,1421
1924.5425984267245,1409
1926.499579776314,1341
1928.4560800188833,1383
1930.4120994198802,1369
1932.367638244833,1356
1934.32269675935,1406
1936.2772752291175,1409
1938.231373919899,1354
1940.1849930975404,1411
1942.1381330279637,1438
1944.0907939771696,1411
1946.0429762112412,1389
1947.9946799963363,1430
1949.9459055986945,1408
1951.896653284633,1413
1953.8469233205478,1410
1955.7967159729142,1370
1957.7460315082863,1368
1959.6948701932974,1340
1961.6432322946594,1390
1963.5911180791632,1351
1965.5385278136787,1330
1967.4854617651545,1428
1969.4319202006182,1387
1971.377903387176,1345
1973.3234115920136,1398
1975.268445082395,1345
1977.2130041256642,1432
1979.1570889892423,1338
1981.1006999406304,1376
1983.04383724741,1388
1984.986501177238,1347
1986.928691997853,1386
1988.8704099770712,1355
1990.811655382789,1426
1992.7524284829801,1357
1994.692729545698,1322
1996.6325588390755,1366
1998.5719166313224,1324
2000.5108031907307,1348
2002.4492187856677,1317
2004.387163684583,1422
2006.3246381560011,1367
2008.2616424685298,1382
2010.1981768908527,1344
2012.1342416917332,1345
2014.069837140014,1315
2016.0049635046162,1352
2017.9396210545406,1371
2019.8738100588666,1366
2021.8075307867502,1348
2023.740783507431,1347
2025.6735684902228,1345
2027.6058860045214,1332
2029.5377363198004,1376
2031.4691197056118,1353
2033.4000364315875,1334
2035.3304867674374,1421
2037.260470982952,1328
2039.189989347998,1358
2041.1190421325232,1325
2043.047629606554,1348
2044.9757520401945,1356
2046.9034097036288,1324
2048.8306028671195,1329
2050.7573318010086,1333
2052.683596775716,1327
2054.609398061742,1334
2056.5347359296647,1328
2058.4596106501403,1322
2060.384022493906,1307
2062.3079717317764,1308
2064.231458634646,1317
2066.1544834734873,1373
2068.077046519352,1361
2069.99914804337,1333
2071.9207883167524,1340
2073.8419676107865,1348
2075.7626861968406,1295
2077.6829443463607,1342
2079.6027423308715,1338
2081.522080421977,1335
2083.440958891362,1339
2085.359378010786,1362
2087.2773380520907,1367
2089.194839287196,1335
2091.111881988101,1352
2093.0284664268825,1412
2094.9445928756973,1359
2096.86026160678,1283
2098.775472892446,1347
2100.690227005088,1432
2102.604524217178,1370
2104.5183648012676,1377
2106.431749029985,1320
2108.34467717604,1362
2110.2571495122206,1348
2112.169166311393,1391
2114.080727846503,1319
2115.9918343905747,1403
2117.902486216711,1346
2119.8126835980956,1316
2121.722426807987,1399
2123.6317161197285,1318
2125.5405518067364,1448
2127.448934142509,1374
2129.356863400624,1409
2131.264339854737,1393
2133.1713637785815,1383
2135.077935445972,1363
2136.9840551308002,1334
2138.889723107037,1371
2140.7949396487334,1394
2142.699705030018,1363
2144.6040195250994,1349
2146.507883408264,1377
2148.4112969538774,1355
2150.3142604363848,1414
2152.2167741303097,1381
2154.1188383102535,1403
2156.0204532508997,1439
2157.9216192270064,1396
2159.822336513414,1370
2161.7226053850413,1370
2163.622426116884,1379
2165.5217989840185,1429
2167.4207242616,1431
2169.319202224862,1424
2171.2172331491165,1428
2173.1148173097563,1466
2175.0119549822507,1426
2176.90864644215,1435
2178.8048919650823,1447
2180.7006918267534,1411
2182.596046302952,1461
2184.4909556695407,1503
2186.3854202024645,1473
2188.279440177746,1468
2190.173015871487,1473
2192.066147559868,1437
2193.958835519149,1470
2195.851080025667,1417
2197.7428813558417,1461
2199.6342397861667,1455
2201.5251555932186,1456
2203.415629053651,1438
2205.3056604441986,1510
2207.19525004167,1513
2209.084398122958,1452
2210.9731049650327,1468
2212.861370844941,1538
2214.749196039812,1534
2216.636580826851,1487
2218.523525483344,1510
2220.410030286655,1557
2222.296095514226,1474
2224.1817214435805,1462
2226.066908352319,1444
2227.951656518121,1517
2229.835966218746,1533
2231.71983773203,1483
2233.6032713358913,1491
2235.486267308324,1465
2237.3688259274036,1487
2239.2509474712824,1435
2241.132632218193,1521
2243.013880446447,1486
2244.8946924344323,1526
2246.7750684606203,1419
2248.6550088035574,1418
2250.534513741871,1483
2252.413583554265,1531
2254.292218519526,1527
2256.170418916517,1460
2258.0481850241786,1443
2259.925517121534,1431
2261.8024154876825,1425
2263.678880401803,1536
2265.5549121431536,1466
2267.430510991071,1494
2269.305677224971,1508
2271.180411124348,1483
2273.0547129687766,1428
2274.9285830379076,1510
2276.8020216114737,1446
2278.6750289692845,1461
2280.5476053912294,1477
2282.4197511572766,1478
2284.2914665474727,1525
2286.162751841943,1548
2288.0336073208937,1534
2289.904033264608,1513
2291.774029953448,1556
2293.6435976678554,1536
2295.5127366883517,1445
2297.381447295534,1419
2299.2497297700825,1360
2301.1175843927526,1409
2302.9850114443825,1371
2304.852011205885,1331
2306.7185839582553,1285
2308.5847299825664,1296
2310.4504495599676,1268
2312.3157429716925,1261
2314.1806104990483,1203
2316.0450524234247,1201
2317.9090690262888,1223
2319.772660589186,1218
2321.635827393742,1220
2323.498569721661,1221
2325.3608878547248,1253
2327.2227820747967,1199
2329.0842526638157,1279
2330.945299903803,1212
2332.805924076857,1252
2334.6661254651535,1196
2336.525904350951,1210
2338.3852610165827,1221
2340.244195744464,1243
2342.102708817088,1248
2343.9608005170253,1257
2345.8184711269287,1234
2347.675720929526,1231
2349.532550207628,1242
2351.38895924412,1253
2353.24494832197,1258
2355.100517724223,1213
2356.955667734004,1259
2358.810398634514,1279
2360.664710709037,1272
2362.5186042409337,1272
2364.3720795136437,1243
2366.225136810686,1194
2368.0777764156583,1250
2369.929998612237,1285
2371.7818036841777,1230
2373.633191915315,1293
2375.484163589562,1264
2377.3347189909114,1246
2379.184858403434,1257
2381.03458211128,1262
2382.8838903986775,1222
2384.732783549936,1260
2386.5812618494406,1258
2388.4293255816588,1280
2390.2769750311327,1294
2392.1242104824883,1301
2393.971032220427,1273
2395.8174405297295,1289
2397.6634356952563,1268
2399.509018001947,1286
2401.3541877348193,1255
2403.1989451789705,1339
2405.043290619576,1253
2406.8872243418905,1268
2408.730746631247,1270
2410.5738577730594,1254
2412.4165580528183,1337
2414.258847756095,1285
2416.100727168537,1253
2417.9421965758734,1273
2419.783256263912,1263
2421.623906518538,1292
2423.4641476257157,1280
2425.303979871491,1253
2427.143403541984,1297
2428.9824189233977,1304
2430.821026302012,1280
2432.6592259641866,1272
2434.497018196361,1280
2436.33440328505,1294
2438.171381516851,1307
2440.00795317844,1266
2441.844118556569,1267
2443.6798779380724,1289
2445.5152316098606,1340
2447.3501798589255,1176
2449.1847229723357,1280
2451.0188612372403,1211
2452.8525949408663,1273
2454.6859243705203,1279
2456.518849813587,1264
2458.3513715575314,1264
2460.183489889895,1326
2462.015205098301,1290
2463.8465174704493,1269
2465.67742729412,1263
2467.5079348571717,1330
2469.338040447542,1294
2471.1677443532476,1289
2472.9970468623833,1325
2474.825948263123,1297
2476.6544488437207,1267
2478.482548892508,1316
2480.310248697896,1335
2482.137548548374,1295
2483.9644487325118,1302
2485.790949538956,1293
2487.617051256433,1323
2489.44275417375,1314
2491.26805857979,1317
2493.0929647635157,1273
2494.917473013971,1296
2496.741583620276,1324
2498.5652968716304,1349
2500.3886130573137,1385
2502.2115324666834,1321
2504.0340553891765,1308
2505.856182114308,1433
2507.6779129316733,1354
2509.499248130945,1384
2511.3201880018764,1353
2513.140732834298,1337
2514.9608829181198,1307
2516.780638543331,1320
2518.6,1385
2520.418967578273,1359
2522.237541568376,1363
2524.0557222606144,1348
2525.8735099453706,1325
2527.6909049131086,1409
2529.507907454368,1348
2531.32451785977,1374
2533.140736420014,1399
2534.9565634258774,1414
2536.771999168218,1411
2538.5870439379714,1380
2540.4016980261526,1390
2542.2159617238544,1444
2544.02983532225,1461
2545.8433191125914,1409
2547.656413386209,1442
2549.4691184345115,1417
2551.2814345489874,1465
2553.093362021204,1526
2554.904901142808,1471
2556.716052205523,1517
2558.526815501153,1515
2560.3371913215824,1523
2562.147179958771,1517
2563.956781704761,1597
2565.7659968516705,1549
2567.5748256916986,1525
2569.3832685171224,1516
2571.1913256202984,1589
2572.9989972936614,1537
2574.806283829725,1492
2576.613185521084,1589
2578.4197026604074,1582
2580.2258355404483,1560
2582.031584454035,1617
2583.836949694077,1652
2585.6419315535613,1638
2587.4465303255533,1617
2589.2507463032002,1657
2591.0545797797245,1681
2592.8580310484303,1670
2594.6611004026995,1727
2596.463788135992,1741
2598.266094541849,1671
2600.0680199138874,1614
2601.869564545807,1735
2603.670728731383,1756
2605.4715127644704,1709
2607.2719169390048,1651
2609.071941548998,1756
2610.8715868885433,1731
2612.670853251811,1784
2614.469740933052,1698
2616.268250226594,1681
2618.0663814268455,1688
2619.864134828292,1725
2621.6615107255006,1676
2623.458509413115,1743
2625.2551311858597,1675
2627.0513763385347,1647
2628.8472451660223,1634
2630.6427379632833,1701
2632.4378550253564,1602
2634.232596647359,1635
2636.026963124488,1593
2637.8209547520187,1660
2639.6145718253065,1628
2641.407814639785,1539
2643.200683490966,1579
2644.9931786744414,1584
2646.7853004858807,1519
2648.577049221034,1598
2650.3684251757277,1526
2652.1594286458712,1536
2653.9500599274484,1504
2655.740319316525,1468
2657.5302071092437,1501
2659.3197236018286,1503
2661.10886909058,1438
2662.8976438718782,1504
2664.686048242183,1473
2666.4740824980327,1448
2668.2617469360443,1462
2670.0490418529134,1405
2671.8359675454153,1421
2673.622524310403,1386
2675.408712444811,1416
2677.1945322456495,1394
2678.979984010009,1331
2680.76506803506,1369
2682.5497846180497,1391
2684.334134056306,1432
2686.1181166472343,1370
2687.9017326883213,1460
2689.6849824771293,1306
2691.4678663113013,1386
2693.2503844885596,1415
2695.032537306705,1369
2696.8143250636167,1387
2698.5957480572542,1373
2700.3768065856534,1291
2702.1575009469316,1318
2703.937831439283,1336
2705.717798360982,1284
2707.4974020103837,1339
2709.276642685917,1355
2711.055520686095,1330
2712.834036309506,1315
2714.612189854819,1299
2716.389981620782,1242
2718.1674119062204,1327
2719.944481010041,1330
2721.721189231226,1312
2723.4975368688415,1269
2725.273524222027,1289
2727.0491515900053,1292
2728.824419272075,1295
2730.5993275676146,1321
2732.3738767760838,1212
2734.148067197016,1268
2735.921899130031,1217
2737.6953728748194,1273
2739.468488731156,1282
2741.2412469988926,1292
2743.0136479779617,1239
2744.785691968372,1221
2746.5573792702116,1262
2748.3287101836504,1258
2750.099685008934,1208
2751.870304046388,1258
2753.640567596418,1253
2755.4104759595057,1235
2757.1800294362156,1261
2758.949228327187,1261
2760.7180729331412,1255
2762.486563554877,1248
2764.254700493272,1221
2766.022484049284,1228
2767.789914523947,1231
2769.5569922183786,1287
2771.3237174337705,1233
2773.090090471394,1216
2774.8561116326036,1241
2776.6217812188274,1220
2778.3870995315756,1263
2780.1520668724356,1249
2781.9166835430747,1229
2783.6809498452394,1222
2785.444866080754,1286
2787.2084325515225,1226
2788.971649559527,1225
2790.73451740683,1203
2792.4970363955713,1240
2794.2592068279705,1246
2796.0210290063264,1285
2797.7825032330147,1204
2799.543629810493,1209
2801.304409041296,1313
2803.0648412280366,1239
2804.8249266734088,1208
2806.5846656801846,1327
2808.344058551212,1312
2810.1031055894246,1307
2811.8618070978273,1280
2813.6201633795085,1254
2815.378174737636,1316
2817.1358414754536,1245
2818.893163896285,1250
2820.6501423035334,1263
2822.4067770006814,1294
2824.1630682912883,1271
2825.9190164789957,1296
2827.6746218675207,1260
2829.429884760661,1264
2831.184805462294,1296
2832.9393842763743,1321
2834.693621506936,1232
2836.4475174580916,1261
2838.201072434034,1236
2839.954286739034,1252
2841.707160677441,1210
2843.459694553685,1231
2845.2118886722724,1278
2846.96374333779,1269
2848.7152588549034,1296
2850.4664355283567,1327
2852.217273662973,1308
2853.9677735636546,1296
2855.7179355353833,1255
2857.4677598832186,1243
2859.217246912299,1281
2860.9663969278427,1202
2862.715210235146,1197
2864.4636871395846,1242
2866.211827946614,1252
2867.9596329617652,1219
2869.7071024906536,1257
2871.4542368389684,1242
2873.20103631248,1274
2874.947501217038,1249
2876.6936318585695,1246
2878.4394285430812,1197
2880.1848915766604,1232
2881.9300212654707,1222
2883.6748179157553,1200
2885.4192818338374,1264
2887.1634133261173,1223
2888.907212699077,1251
2890.6506802592744,1272
2892.393816313348,1246
2894.1366211680142,1275
2895.8790951300693,1263
2897.621238506388,1226
2899.363051603925,1248
2901.1045347297118,1236
2902.8456881908596,1256
2904.58651229456,1260
2906.327007348081,1242
2908.067173658772,1244
2909.8070115340597,1254
2911.5465212814497,1253
2913.285703208527,1248
2915.0245576229563,1197
2916.7630848324807,1234
2918.5012851449196,1291
2920.2391588681758,1235
2921.976706310227,1279
2923.7139277791334,1254
2925.4508235830313,1222
2927.187394030137,1197
2928.923639428745,1183
2930.6595600872306,1194
2932.395156314046,1241
2934.1304284177218,1205
2935.8653767068713,1315
2937.6000014901815,1254
2939.3343030764227,1258
2941.068281774442,1223
2942.8019378931644,1265
2944.5352717415976,1234
2946.2682836288236,1257
2948.0009738640065,1292
2949.7333427563885,1238
2951.465390615289,1249
2953.1971177501086,1245
2954.9285244703265,1247
2956.6596110855,1251
2958.3903779052657,1215
2960.1208252393385,1203
2961.8509533975125,1169
2963.5807626896617,1272
2965.3102534257378,1225
2967.0394259157715,1294
2968.768280469873,1176
2970.496817398232,1231
2972.2250370111146,1231
2973.952939618869,1218
2975.6805255319196,1222
2977.4077950607707,1284
2979.134748516006,1267
2980.861386208289,1279
2982.587708448359,1261
2984.313715547037,1244
2986.039407815222,1279
2987.764785563891,1287
2989.489849104102,1261
2991.2145987469908,1231
2992.9390348037705,1208
2994.6631575857346,1243
2996.3869674042576,1211
2998.1104645707887,1231
2999.83364939686,1267
3001.5565221940783,1204
3003.2790832741334,1209
3005.0013329487924,1186
3006.7232715298996,1231
3008.4448993293804,1229
3010.166216659239,1249
3011.887223831558,1180
3013.607921158498,1243
3015.3283089522993,1255
3017.0483875252826,1209
3018.7681571898443,1268
3020.4876182584626,1218
3022.2067710436927,1198
3023.9256158581707,1221
3025.644153014609,1218
3027.362382825801,1294
3029.0803056046193,1234
3030.797921664012,1230
3032.5152313170106,1251
3034.2322348767225,1202
3035.9489326563353,1258
3037.665324969115,1262
3039.3814121284063,1244
3041.097194447633,1265
3042.812672240299,1212
3044.5278458199855,1258
3046.2427155003525,1243
3047.9572815951406,1290
3049.671544418167,1273
3051.38550428333,1221
3053.0991615046073,1260
3054.812516396051,1255
3056.5255692717974,1263
3058.2383204460575,1242
3059.9507702331257,1196
3061.662918947372,1270
3063.3747669032446,1293
3065.0863144152736,1273
3066.7975617980674,1222
3068.508509366309,1250
3070.219157434767,1241
3071.9295063182844,1209
3073.639556331785,1213
3075.3493077902704,1256
3077.058761008821,1238
3078.7679163025964,1235
3080.476773986837,1258
3082.1853343768594,1279
3083.89359778806,1180
3085.6015645359153,1264
3087.3092349359786,1263
3089.016609303884,1241
3090.7236879553434,1209
3092.4304712061476,1270
3094.136959372166,1290
3095.843152769349,1246
3097.5490517137237,1229
3099.2546565213966,1257
3100.959967508554,1188
3102.66498499146,1248
3104.3697092864577,1194
3106.0741407099695,1229
3107.778279578498,1278
3109.482126208622,1257
3111.1856809170004,1203
3112.8889440203716,1237
3114.5919158355528,1251
3116.294596679439,1258
3117.996986869006,1254
3119.6990867213062,1308
3121.4008965534726,1300
3123.102416682717,1322
3124.803647426329,1245
3126.5045891016784,1269
3128.205242026213,1235
3129.90560651746,1292
3131.605682893025,1316
3133.3054714705922,1306
3135.0049725679282,1241
3136.7041865028714,1282
3138.4031135933465,1236
3140.101754157353,1221
3141.800108512971,1262
3143.498176978357,1292
3145.1959598717494,1307
3146.8934575114636,1257
3148.5906702158954,1242
3150.2875983035183,1188
3151.9842420928853,1278
3153.680601902627,1217
3155.376678051456,1224
3157.07247085816,1270
3158.767980641609,1242
3160.463207720748,1224
3162.158152414606,1246
3163.8528150422862,1253
3165.5471959229726,1271
3167.2412953759303,1230
3168.9351137204976,1220
3170.628651276098,1256
3172.3219083622307,1188
3174.014885298474,1182
3175.707582404485,1224
3177.4000000000005,1233
3179.092138404835,1237
3180.7839979388846,1248
3182.47557892212,1228
3184.166881674594,1283
3185.8579065164386,1228
3187.5486537678626,1207
3189.2391237491547,1248
3190.9293167806827,1269
3192.6192331828934,1203
3194.3088732763117,1256
3195.998237381542,1249
3197.687325819268,1222
3199.376138910251,1235
3201.064676975334,1221
3202.7529403354347,1213
3204.4409293115523,1203
3206.1286442247647,1159
3207.816085396229,1143
3209.5032531471825,1183
3211.190147798936,1164
3212.8767696728846,1175
3214.5631190905015,1202
3216.2491963733373,1139
3217.9350018430214,1187
3219.6205358212637,1190
3221.305798629851,1198
3222.990790590651,1201
3224.6755120256103,1205
3226.359963256751,1150
3228.0441446061795,1162
3229.7280563960758,1225
3231.411698948703,1215
3233.0950725863995,1220
3234.778177631587,1241
3236.461014406761,1150
3238.1435832345005,1267
3239.8258844374595,1200
3241.507918338374,1220
3243.1896852600576,1237
3244.8711855254023,1273
3246.552419457381,1235
3248.233387379042,1244
3249.914089613516,1198
3251.59452648401,1189
3253.274698313813,1238
3254.95460542629,1262
3256.6342481448855,1245
3258.313626793125,1166
3259.9927416946084,1154
3261.6715931730196,1197
3263.3501815521176,1214
3265.0285071557437,1164
3266.706570307815,1143
3268.3843713323286,1220
3270.0619105533615,1264
3271.739188295068,1184
3273.4162048816834,1243
3275.0929606375184,1205
3276.769455886966,1193
3278.445690954498,1256
3280.1216661646613,1230
3281.797381842087,1189
3283.4728383114807,1206
3285.1480358976296,1187
3286.8229749253996,1241
3288.4976557197333,1185
3290.172078605655,1163
3291.846243908266,1133
3293.5201519527463,1153
3295.193803064357,1233
3296.8671975684374,1169
3298.5403357904024,1162
3300.21321805575,1200
3301.8858446900567,1207
3303.558216018975,1169
3305.23033236824,1167
3306.9021940636603,1187
3308.57380143113,1218
3310.2451547966184,1216
3311.916254486174,1225
3313.5871008259246,1232
3315.2576941420766,1199
3316.9280347609147,1197
3318.5981230088046,1175
3320.2679592121895,1211
3321.9375436975924,1144
3323.606876791612,1218
3325.27595882093,1230
3326.944790112305,1224
3328.6133709925753,1166
3330.2817017886573,1217
3331.949782827547,1234
3333.617614436319,1185
3335.2851969421245,1218
3336.952530672199,1189
3338.619615953853,1207
3340.286453114475,1133
3341.9530424815357,1215
3343.619384382583,1228
3345.2854791452437,1195
3346.951327097224,1220
3348.6169285663073,1170
3350.2822838803577,1251
3351.947393367319,1244
3353.61225735521,1211
3355.2768761721345,1205
3356.9412501462693,1166
3358.605379605873,1235
3360.2692648792827,1227
3361.9329062949146,1179
3363.596304181263,1195
