CollectionTime,7/11/2024 12:37:11 PM
ExposureUsed,3
CalibratedSpectrum
-962.7078968117929,565
-959.9714848408522,605
-957.2358232597828,594
-954.5009119013725,565
-951.7667505983302,584
-949.0333391832855,589
-946.3006774887896,622
-943.5687653473143,600
-940.837602591253,586
-938.1071890529199,575
-935.3775245645503,596
-932.6486089583007,605
-929.9204420662485,636
-927.1930237203925,607
-924.4663537526524,601
-921.7404319948689,598
-919.0152582788041,616
-916.2908324361409,653
-913.5671542984834,605
-910.8442236973568,576
-908.1220404642074,581
-905.4006044304027,601
-902.679915427231,603
-899.959973285902,606
-897.2407778375464,616
-894.5223289132158,598
-891.8046263438832,570
-889.0876699604426,579
-886.3714595937089,568
-883.6559950744183,585
-880.9412762332282,576
-878.2273029007168,554
-875.5140749073835,564
-872.8015920836489,575
-870.0898542598545,570
-867.3788612662631,552
-864.6686129330585,572
-861.9591090903457,587
-859.2503495681506,579
-856.5423341964203,573
-853.8350628050229,589
-851.1285352237478,556
-848.4227512823054,579
-845.7177108103272,538
-843.0134136373656,563
-840.3098595928943,606
-837.6070485063082,619
-834.9049802069229,613
-832.2036545239757,591
-829.5030712866244,559
-826.8032303239481,594
-824.1041314649472,635
-821.4057745385428,583
-818.7081593735775,574
-816.0112857988148,612
-813.3151536429393,615
-810.6197627345566,573
-807.9251129021936,594
-805.2312039742981,555
-802.5380357792392,598
-799.8456081453069,570
-797.1539209007124,587
-794.462973873588,572
-791.772766891987,633
-789.083299783884,598
-786.3945723771743,603
-783.7065844996748,604
-781.0193359791231,605
-778.3328266431781,610
-775.6470563194197,614
-772.9620248353489,586
-770.2777320183878,583
-767.5941776958798,597
-764.9113616950891,594
-762.2292838432011,620
-759.5479439673222,603
-756.8673418944801,580
-754.1874774516235,610
-751.5083504656222,607
-748.8299607632671,590
-746.15230817127,595
-743.475392516264,609
-740.7992136248035,634
-738.1237713233636,606
-735.4490654383407,599
-732.7750957960521,598
-730.1018622227365,635
-727.4293645445534,634
-724.7576025875837,625
-722.0865761778291,612
-719.4162851412126,606
-716.7467293035781,646
-714.0779084906909,624
-711.409822528237,631
-708.7424712418238,669
-706.0758544569796,631
-703.4099719991541,670
-700.7448236937178,688
-698.0804093659622,656
-695.4167288411002,687
-692.7537819442656,625
-690.0915685005134,677
-687.4300883348199,669
-684.7693412720819,643
-682.1093271371178,615
-679.4500457546669,648
-676.7914969493897,697
-674.1336805458676,653
-671.4765963686034,652
-668.8202442420206,700
-666.1646239904642,671
-663.5097354382001,654
-660.8555784094151,677
-658.2021527282176,659
-655.5494582186366,672
-652.8974947046223,681
-650.2462620100463,676
-647.5957599587009,665
-644.9459883742998,708
-642.2969470804776,692
-639.6486359007902,683
-637.0010546587141,673
-634.3542031776476,689
-631.7080812809096,710
-629.0626887917401,706
-626.4180255333008,699
-623.7740913286734,709
-621.1308860008619,690
-618.4884093727904,699
-615.8466612673046,714
-613.2056415071715,687
-610.5653499150785,681
-607.9257863136347,721
-605.28695052537,701
-602.6488423727357,698
-600.0114616781036,682
-597.3748082637674,709
-594.7388819519412,677
-592.1036825647604,760
-589.4692099242818,782
-586.8354638524829,734
-584.2024441712624,715
-581.5701507024403,734
-578.9385832677575,699
-576.3077416888759,747
-573.6776257873787,743
-571.0482353847704,706
-568.4195703024757,718
-565.7916303618415,736
-563.164415384135,782
-560.5379251905453,729
-557.9121596021815,727
-555.2871184400748,711
-552.6628015251767,759
-550.0392086783606,726
-547.4163397204204,722
-544.794194472071,717
-542.1727727539491,808
-539.5520743866118,781
-536.9320991905377,775
-534.3128469861261,805
-531.6943175936979,842
-529.0765108334947,801
-526.4594265256793,801
-523.8430644903358,941
-521.2274245474689,1076
-518.612506517005,1093
-515.9983102187913,1030
-513.3848354725959,1082
-510.77208209810846,1099
-508.16004991493924,1187
-505.5487387426199,1306
-502.9381484006032,1478
-500.3282787082628,1528
-497.71912948489364,1488
-495.1107005497117,1474
-492.5029917218539,1446
-489.8960028203786,1298
-487.28973366426493,1130
-484.68418407241325,1112
-482.07935386364494,970
-479.47524285670266,975
-476.87185087025,961
-474.2691777228715,918
-471.66722323307334,931
-469.0659872192821,924
-466.4654694998459,891
-463.86566989303384,905
-461.26658821703614,898
-458.66822428996414,933
-456.07057792985,934
-453.4736489546475,882
-450.877437182231,881
-448.28194243039627,926
-445.68716451686,870
-443.09310325926003,917
-440.49975847515555,878
-437.9071299820263,884
-435.31521759727354,904
-432.72402113821954,965
-430.13354042210767,974
-427.5437752661022,905
-424.95472548728867,903
-422.36639090267386,912
-419.7787713291855,981
-417.1918665836721,991
-414.60567648290385,1000
-412.0202008435715,1023
-409.4354394822874,989
-406.8513922155845,965
-404.26805885991723,999
-401.685439231661,989
-399.103533147112,993
-396.522340422488,1006
-393.9418608739278,999
-391.3620943174908,931
-388.7830405691583,948
-386.2046994448317,873
-383.6270707603344,871
-381.05015433141045,787
-378.473949973725,746
-375.8984575028645,712
-373.32367673433623,688
-370.74960748356875,624
-368.1762495659117,621
-365.60360279663576,616
-363.03166699093265,535
-360.4604419639154,527
-357.8899275306178,518
-355.32012350599507,477
-352.7510297049233,490
-350.1826459421999,445
-347.61497203254316,449
-345.04800779059235,489
-342.4817530309082,474
-339.91620756797226,474
-337.35137121618743,472
-334.7872437898774,519
-332.22382510328725,544
-329.66111497058273,500
-327.09911320585127,465
-324.53781962310075,465
-321.9772340362607,502
-319.4173562591816,442
-316.8581861056348,449
-314.2997233893127,441
-311.7419679238294,451
-309.1849195227194,456
-306.62857799943856,484
-304.0729431673641,546
-301.51801483979375,533
-298.963792829947,530
-296.41027695096386,562
-293.85746701590574,537
-291.3053628377552,557
-288.7539642294155,547
-286.2032710037115,519
-283.65328297338897,544
-281.1039999511146,548
-278.5554217494762,570
-276.007548180983,526
-273.4603790580651,549
-270.9139141930734,537
-268.3681533982807,549
-265.8230964858798,557
-263.27874326798565,562
-260.7350935566336,558
-258.1921471637804,610
-255.6499039013039,545
-253.10836358100266,528
-250.56752601459698,555
-248.02739101372765,548
-245.48795838995704,573
-242.94922795476816,618
-240.41119951956557,585
-237.8738728956746,647
-235.33724789434166,637
-232.80132432673452,610
-230.2661020039418,581
-227.73158073697357,597
-225.19776033676033,660
-222.66464061415422,698
-220.1322213799284,668
-217.60050244477725,655
-215.06948361931552,583
-212.53916471408013,634
-210.00954553952818,652
-207.48062590603843,655
-204.9524056239104,667
-202.4248845033651,715
-199.8980623545441,715
-197.37193898751036,761
-194.84651421224817,747
-192.32178783866232,717
-189.79775967657952,701
-187.27442953574644,746
-184.7517972258321,860
-182.2298625564256,852
-179.7086253370378,843
-177.18808537710026,807
-174.66824248596583,774
-172.14909647290835,756
-169.6306471471229,829
-167.11289431772548,821
-164.59583779375328,761
-162.07947738416453,807
-159.5638128978386,779
-157.04884414357605,792
-154.53457093009854,865
-152.02099306604828,880
-149.50811035998936,790
-146.99592262040665,684
-144.48442965570587,724
-141.97363127421409,807
-139.46352728417958,825
-136.95411749377126,954
-134.44540171107985,901
-131.93737974411636,873
-129.43005140081357,828
-126.92341648902493,1012
-124.41747481652521,1198
-121.91222619101006,1140
-119.40767042009657,1300
-116.90380731132257,1598
-114.40063667214702,1755
-111.8981583099503,1853
-109.3963720320337,1737
-106.89527764561933,1501
-104.39487495785067,1634
-101.89516377579241,1969
-99.39614390642998,2569
-96.89781515667039,2454
-94.40017733334128,2166
-91.90323024319173,2095
-89.40697369289148,3484
-86.91140748903172,5332
-84.41653143812482,7040
-81.92234534660395,7310
-79.42884902082358,5525
-76.93604226705907,5485
-74.4439248915071,10619
-71.95249670028534,19010
-69.46175749943245,25331
-66.97170709490854,28757
-64.48234529259423,28426
-61.99367189829195,23028
-59.50568671772464,15176
-57.01838955653636,11532
-54.53178022029283,11692
-52.045858514480074,11916
-49.560624244506016,11580
-47.07607721569923,12348
-44.59221723330904,12802
-42.10904410250669,11864
-39.62655762838392,10344
-37.14475761595372,9386
-34.66364387015028,9973
-32.18321619582866,8999
-29.70347439776515,8340
-27.224418280657005,8331
-24.74604764912317,8480
-22.26836230770266,11716
-19.7913620608565,21322
-17.315046712966478,37567
-14.83941606833514,51779
-12.36446993118659,65038
-9.89020810566592,65038
-7.416630395839093,65038
-4.94373660569363,65038
-2.471526539137585,65038
-6.821210263296962E-13,65038
2.47084320796705,65038
4.941003281093458,65038
7.410480415786196,65038
9.879274808531363,65038
12.347386655893956,65038
14.814816154518212,65038
17.28156350112681,65038
19.74762889252179,65038
22.21301252558385,21254
24.67771459727237,3915
27.141735304626195,2867
29.605074844762612,2622
32.06773341487792,2534
34.52971121224755,2514
36.99100843422559,2763
39.45162527824516,2276
41.91156194181792,1920
44.370818622535126,1761
46.82939551806646,1494
49.287292826160524,1448
51.74451074464503,1820
54.201049471426245,2154
56.65690920448981,1910
59.112090141899785,1501
61.56659248179983,1369
64.02041642241159,1207
66.4735621620365,1141
68.92602989905402,1079
71.37781983192338,1105
73.82893215918205,1225
76.27936707944684,1339
78.72912479141326,1180
81.17820549385567,1206
83.62660938562783,1496
86.07433666566146,1303
88.5213875329681,1055
90.96776218663751,962
93.41346082583925,944
95.85848364982041,1067
98.30283085790859,1137
100.7465026495089,1115
103.18949922410604,1098
105.63182078126385,1150
108.07346752062438,1175
110.51443964190923,939
112.95473734491827,854
115.39436082953114,911
117.83331029570547,900
120.27158594347827,918
122.7091879729652,957
125.1461165843615,1009
127.58237197794062,950
130.01795435405518,843
132.4528639131364,943
134.88710085569494,964
137.32066538231982,870
139.75355769367923,784
142.1857779905207,866
144.61732647366978,840
147.04820334403132,823
149.47840880258934,841
151.90794305040674,935
154.33680628862487,1071
156.76499871846443,1260
159.19252054122433,1390
161.61937195828352,1507
164.04555317109896,1645
166.47106438120693,1848
168.89590579022217,2036
171.320077599839,2180
173.7435800118302,2319
176.16641322804742,2574
178.58857745042144,2597
181.01007288096173,2687
183.43089972175687,2741
185.85105817497413,2590
188.27054844285988,2605
190.6893707277394,2637
193.10752523201643,2763
195.5250121581745,2806
197.9418317087751,2730
200.3579840864594,2918
202.7734694939469,2824
205.18828813403627,3006
207.6024402096051,3000
210.01592592360964,3008
212.42874547908548,2908
214.84089907914665,2768
217.2523869269868,2813
219.66320922587727,2820
222.0733661791695,2729
224.48285799029293,2664
226.8916848627572,2770
229.29984700014882,2769
231.7073446061355,2774
234.11417788446204,2814
236.520347038953,2845
238.92585227351185,2897
241.33069379212054,2939
243.73487179884035,2944
246.1383864978112,2971
248.541238093252,2960
250.9434267894609,2950
253.34495279081432,2956
255.74581630176783,2904
258.1460175268563,2888
260.54555667069314,2858
262.9444339379703,2942
265.3426495334594,2779
267.7402036620107,2838
270.1370965285529,2776
272.53332833809407,2744
274.9288992957214,2606
277.32380960660055,2586
279.718059475976,2577
282.1116491091717,2553
284.5045787115897,2496
286.89684848871195,2501
289.2884586460981,2550
291.67940938938807,2581
294.0697009242996,2537
296.4593334566299,2575
298.84830719225477,2496
301.23662233712923,2596
303.6242790972866,2485
306.01127767884,2425
308.39761828798066,2380
310.78330113097934,2354
313.16832641418534,2364
315.5526943440269,2376
317.9364051270112,2330
320.3194589697242,2352
322.70185607883093,2244
325.0835966610754,2250
327.4646809232805,2216
329.8451090723478,2260
332.2248813152577,2240
334.6039978590701,2172
336.9824589109231,2141
339.36026467803447,2221
341.7374153677,2148
344.113911187295,2160
346.48975234427337,2164
348.8649390461686,2170
351.2394715005918,2084
353.61334991523415,2164
355.9865744978655,2188
358.35914545633375,2159
360.73106299856715,2176
363.10232733257146,2137
365.47293866643247,2152
367.84289720831396,2103
370.2122031664593,2041
372.5808567491905,2070
374.9488581649083,2077
377.31620762209275,2031
379.6829053293021,2039
382.0489514951745,1999
384.4143463284262,2059
386.7790900378528,2045
389.14318283232853,2074
391.50662492080653,1991
393.86941651231916,2077
396.23155781597745,2090
398.5930490409713,1998
400.9538903965696,2018
403.3140820921202,2047
405.6736243370498,1985
408.03251734086336,2029
410.3907613131465,2031
412.74835646356166,1898
415.10530300185144,1927
417.4616011378372,2011
419.81725108141893,1964
422.1722530425758,1895
424.5266072313656,2006
426.880313857925,1941
429.2333731324701,2009
431.58578526529516,1956
433.9375504667738,1912
436.2886689473588,1917
438.63914091758113,1926
440.9889665880513,1875
443.33814616945835,1894
445.68667987257015,1918
448.03456790823395,1913
450.3818104873759,1875
452.72840782100013,1894
455.07436012019105,1855
457.41966759611057,1911
459.7643304600007,1885
462.10834892318155,1894
464.4517231970525,1909
466.79445349309174,1986
469.1365400228566,1887
471.4779829979826,1853
473.81878263018564,1916
476.15893913125876,2007
478.4984527130747,1911
480.8373235875855,1982
483.17555196682144,2021
485.5131380628919,1990
487.8500820879857,2100
490.1863842543697,2244
492.52204477439034,2497
494.8570638604725,2625
497.1914417251204,2956
499.52517858091653,3171
501.85827464052306,3133
504.19073011668036,3274
506.5225452222086,3205
508.85372017000566,3009
511.18425517304956,2911
513.514150444396,3034
515.8434061971808,3623
518.1720226446176,4277
520.4999999999999,4379
522.8273384766991,4199
525.1540382881666,3856
527.480099647932,3426
529.8055227696037,3087
532.1303078668694,2428
534.454455153496,2202
536.777964843328,2089
539.1008371502907,2034
541.4230722883866,1957
543.744670471698,1919
546.0656319143858,1910
548.3859568306899,1902
550.7056454349294,1873
553.0246979415016,1917
555.3431145648834,1801
557.6608955196306,1893
559.978041020377,1897
562.2945512818363,1893
564.6104265188006,1858
566.9256669461412,1900
569.2402727788082,1874
571.5542442318302,1861
573.8675815203156,1950
576.1802848594508,1850
578.4923544645015,1941
580.8037905508126,1940
583.114593333807,1892
585.4247630289875,1859
587.7342998519354,1860
590.0432040183106,1855
592.3514757438526,1982
594.6591152443794,1909
596.9661227357875,1906
599.2724984340531,1875
601.578242555231,1954
603.8833553154542,2069
606.1878369309362,1867
608.4916876179676,1918
610.7949075929192,1890
613.0974970722403,1875
615.3994562724587,1909
617.7007854101818,1889
620.0014847020951,1980
622.3015543649641,1990
624.6009946156324,1985
626.8998056710224,1983
629.1979877481361,1928
631.4955410640538,1936
633.7924658359349,1888
636.0887622810175,1950
638.3844306166192,1956
640.6794710601358,2055
642.9738838290426,2043
645.2676691408932,2008
647.5608272133207,1990
649.853358264037,1992
652.1452625108324,2000
654.4365401715764,2031
656.7271914642178,2020
659.0172166067838,1992
661.3066158173809,2015
663.5953893141935,1966
665.8835373154867,1926
668.1710600396028,1951
670.4579577049639,2031
672.7442305300709,1930
675.0298787335033,1931
677.3149025339197,1999
679.599302150058,1983
681.8830778007342,2017
684.1662297048437,1978
686.4487580813608,1995
688.7306631493387,1999
691.0119451279091,2000
693.2926042362834,2051
695.5726406937516,2075
697.8520547196814,2074
700.1308465335215,1983
702.4090163547982,1988
704.6865644031171,2033
706.9634908981619,1961
709.2397960596965,1959
711.5154801075631,1982
713.7905432616823,1975
716.0649857420548,2018
718.3388077687592,1953
720.612009561953,1923
722.8845913418733,2013
725.1565533288352,1951
727.427895743234,1949
729.6986188055427,2022
731.9687227363137,2009
734.238207756178,1952
736.5070740858458,2022
738.7753219461066,1987
741.0429515578281,1920
743.3099631419569,2008
745.5763569195191,2066
747.8421331116193,1965
750.1072919394409,1999
752.3718336242467,2051
754.6357583873777,2001
756.8990664502545,1961
759.1617580343765,1994
761.423833361321,2045
763.6852926527457,1998
765.9461361303862,1987
768.206364016058,2098
770.4659765316536,1987
772.7249738991469,2048
774.9833563405886,2046
777.2411240781092,2030
779.4982773339183,2035
781.7548163303044,2056
784.010741289634,2011
786.2660524343538,2105
788.5207499869881,2044
790.7748341701416,2055
793.0283052064964,2025
795.2811633188143,2055
797.5334087299362,2067
799.7850416627813,2056
802.0360623403484,2028
804.2864709857143,2008
806.5362678220353,2048
808.7854530725468,1984
811.0340269605625,2040
813.2819897094754,2047
815.5293415427581,1962
817.77608268396,1995
820.0222133567116,1946
822.2677337847211,2018
824.5126441917765,2042
826.7569448017433,2094
829.0006358385675,2057
831.2437175262731,1990
833.4861900889629,2003
835.7280537508192,2066
837.9693087361026,2011
840.2099552691533,2027
842.4499935743896,1989
844.689423876309,2002
846.9282463994886,2089
849.1664613685833,2032
851.4040690083276,2035
853.6410695435349,2020
855.877463199097,1988
858.1132501999847,2026
860.3484307712487,2017
862.5830051380175,2045
864.8169735254988,2072
867.0503361589791,1973
869.2830932638243,2052
871.5152450654786,2159
873.7467917894654,2116
875.9777336613873,2029
878.2080709069252,2063
880.4378037518389,2044
882.666932421968,2141
884.8954571432301,2095
887.1233781416219,2104
889.3506956432192,2126
891.5774098741766,2038
893.803521060728,2070
896.0290294291852,2138
898.2539352059397,2055
900.4782386174619,2113
902.7019398903011,2050
904.925039251085,2129
907.147536926521,2097
909.3694331433943,2034
911.59072812857,2090
913.8114221089921,2036
916.0315153116827,2029
918.2510079637437,2000
920.4699002923547,1976
922.6881925247761,2034
924.905884888345,1944
927.1229776104793,1938
929.3394709186747,1998
931.555365040506,2005
933.7706602036275,2006
935.9853566357709,2001
938.1994545647489,2076
940.4129542184515,2013
942.6258558248488,1986
944.8381596119883,1946
947.0498658079974,1948
949.2609746410825,2015
951.4714863395287,1933
953.6814011316998,1899
955.8907192460387,1975
958.0994409110671,1952
960.3075663553858,1912
962.5150958076741,1888
964.7220294966913,2033
966.928367651274,1916
969.1341105003388,1908
971.3392582728806,1891
973.5438111979742,1866
975.747769504772,1842
977.9511334225061,1882
980.153903180487,1863
982.3560790081052,1865
984.5576611348289,1837
986.7586497902058,1902
988.9590452038618,1855
991.158847605503,1839
993.3580572249133,1871
995.5566742919558,1886
997.7546990365728,1783
999.952131688785,1755
1002.1489724786926,1811
1004.3452216364743,1757
1006.5408793923874,1734
1008.7359459767691,1723
1010.9304216200343,1683
1013.1243065526781,1711
1015.3176010052733,1710
1017.510305208472,1722
1019.7024193930064,1719
1021.8939437896848,1682
1024.0848786293977,1618
1026.2752241431122,1664
1028.4649805618747,1701
1030.6541481168115,1688
1032.842727039127,1678
1035.0307175601051,1658
1037.2181199111074,1649
1039.4049343235752,1602
1041.591161029029,1663
1043.7768002590683,1635
1045.9618522453698,1546
1048.1463172196918,1643
1050.3301954138697,1629
1052.513487059818,1659
1054.69619238953,1612
1056.8783116350783,1631
1059.0598450286152,1624
1061.2407928023704,1630
1063.4211551886528,1579
1065.6009324198508,1592
1067.780124728432,1632
1069.9587323469414,1643
1072.1367555080046,1586
1074.314194444325,1659
1076.4910493886855,1653
1078.667320573947,1558
1080.843008233051,1529
1083.0181125990161,1524
1085.1926339049414,1467
1087.3665723840027,1586
1089.5399282694575,1610
1091.7127017946405,1561
1093.8848931929647,1544
1096.0565026979243,1527
1098.2275305430899,1556
1100.3979769621128,1578
1102.567842188722,1483
1104.737126456726,1496
1106.9058300000124,1548
1109.0739530525475,1523
1111.2414958483764,1471
1113.4084586216231,1567
1115.5748416064907,1491
1117.7406450372605,1523
1119.9058691482942,1495
1122.0705141740304,1459
1124.2345803489884,1562
1126.3980679077658,1517
1128.5609770850388,1543
1130.7233081155623,1490
1132.8850612341707,1517
1135.0462366757774,1447
1137.2068346753745,1504
1139.3668554680326,1507
1141.526299288901,1543
1143.68516637321,1490
1145.8434569562655,1461
1148.001171273455,1498
1150.158309560244,1521
1152.3148720521767,1465
1154.470858984876,1512
1156.626270594044,1474
1158.7811071154629,1529
1160.9353687849912,1457
1163.089055838569,1461
1165.242168512213,1459
1167.3947070420209,1410
1169.5466716641677,1451
1171.6980626149075,1425
1173.8488801305748,1412
1175.9991244475814,1519
1178.1487958024186,1467
1180.2978944316555,1485
1182.4464205719428,1521
1184.5943744600072,1470
1186.7417563326567,1456
1188.8885664267755,1387
1191.0348049793297,1459
1193.1804722273619,1402
1195.325568407995,1428
1197.4700937584303,1462
1199.614048515948,1425
1201.7574329179074,1466
1203.900247201746,1434
1206.042491604982,1464
1208.1841663652099,1494
1210.3252717201053,1471
1212.465807907422,1432
1214.6057751649923,1478
1216.7451737307279,1484
1218.8840038426192,1485
1221.0222657387353,1544
1223.1599596572241,1472
1225.2970858363137,1444
1227.4336445143094,1555
1229.5696359295966,1486
1231.705060320639,1459
1233.8399179259786,1452
1235.9742089842384,1569
1238.107933734118,1500
1240.2410924143974,1511
1242.373685263935,1562
1244.5057125216676,1534
1246.6371744266116,1536
1248.7680712178621,1513
1250.898403134593,1500
1253.028170416058,1520
1255.1573733015875,1511
1257.2860120305932,1490
1259.4140868425648,1461
1261.54159797707,1474
1263.6685456737569,1492
1265.7949301723515,1529
1267.9207517126597,1526
1270.046010534565,1512
1272.1707068780306,1497
1274.2948409830983,1578
1276.4184130898889,1515
1278.541423438603,1501
1280.6638722695184,1590
1282.785759822993,1495
1284.9070863394636,1500
1287.0278520594447,1606
1289.1480572235314,1574
1291.2677020723963,1572
1293.3867868467923,1601
1295.5053117875495,1634
1297.623277135579,1608
1299.740683131868,1609
1301.8575300174857,1656
1303.973818033578,1582
1306.0895474213703,1623
1308.2047184221678,1596
1310.3193312773528,1656
1312.4333862283888,1644
1314.5468835168163,1633
1316.659823384255,1615
1318.7722060724045,1594
1320.8840318230418,1627
1322.9953008780249,1562
1325.1060134792888,1553
1327.2161698688478,1624
1329.3257702887959,1588
1331.4348149813054,1663
1333.5433041886276,1594
1335.6512381530933,1641
1337.7586171171101,1611
1339.8654413231675,1591
1341.9717110138317,1587
1344.0774264317488,1616
1346.1825878196432,1615
1348.2871954203192,1618
1350.3912494766587,1646
1352.4947502316231,1600
1354.5976979282532,1596
1356.7000928096686,1591
1358.8019351190665,1546
1360.9032250997243,1611
1363.0039629949988,1576
1365.1041490483235,1621
1367.2037835032133,1589
1369.3028666032606,1577
1371.401398592137,1572
1373.4993797135926,1615
1375.5968102114575,1565
1377.6936903296396,1564
1379.7900203121262,1610
1381.8858004029835,1581
1383.9810308463561,1595
1386.075711886469,1602
1388.1698437676241,1653
1390.2634267342032,1701
1392.356461030667,1705
1394.4489469015557,1650
1396.5408845914872,1690
1398.6322743451592,1651
1400.7231164073469,1689
1402.813411022907,1686
1404.903158436773,1672
1406.9923588939578,1660
1409.0810126395531,1745
1411.1691199187303,1734
1413.2566809767386,1725
1415.343696058907,1722
1417.4301654106425,1731
1419.5160892774315,1737
1421.6014679048399,1729
1423.6863015385125,1847
1425.7705904241707,1773
1427.8543348076178,1775
1429.9375349347342,1862
1432.0201910514802,1779
1434.102303403894,1703
1436.1838722380944,1788
1438.2648978002767,1893
1440.3453803367174,1834
1442.4253200937692,1912
1444.5047173178677,1858
1446.5835722555234,1830
1448.6618851533285,1978
1450.739656257952,1911
1452.8168858161434,1925
1454.8935740747306,1922
1456.96972128062,2017
1459.045327680797,2039
1461.120393522327,2180
1463.1949190523528,2032
1465.2689045180973,2141
1467.3423501668608,2202
1469.415256246024,2178
1471.4876230030463,2235
1473.559450685465,2225
1475.6307395408976,2294
1477.7014898170391,2318
1479.771701761665,2445
1481.8413756226287,2468
1483.9105116478618,2391
1485.9791100853772,2445
1488.0471711832643,2464
1490.1146951896926,2495
1492.1816823529098,2576
1494.2481329212433,2675
1496.3140471430984,2634
1498.3794252669609,2640
1500.4442675413939,2726
1502.5085742150404,2764
1504.572345536622,2730
1506.6355817549388,2830
1508.6982831188702,2856
1510.7604498773744,2871
1512.8220822794883,2879
1514.8831805743293,2885
1516.9437450110909,2982
1519.003775839048,3064
1521.0632733075522,3129
1523.1222376660367,3088
1525.1806691640113,3233
1527.2385680510652,3260
1529.2959345768668,3314
1531.3527689911643,3441
1533.4090715437833,3429
1535.4648424846291,3565
1537.5200820636855,3655
1539.5747905310159,3689
1541.6289681367616,3735
1543.6826151311434,3696
1545.7357317644614,3816
1547.7883182870937,3796
1549.8403749494987,3852
1551.8919020022113,3977
1553.9428996958477,4060
1555.9933682811015,4108
1558.0433080087469,4213
1560.0927191296346,4252
1562.1416018946961,4334
1564.1899565549415,4396
1566.2377833614592,4347
1568.2850825654164,4258
1570.3318544180606,4138
1572.3780991707158,3914
1574.423817074788,3707
1576.4690083817595,3598
1578.5136733431923,3494
1580.5578122107272,3343
1582.601425236085,3160
1584.6445126710646,3057
1586.6870747675434,2830
1588.7291117774776,2769
1590.7706239529034,2642
1592.8116115459347,2485
1594.8520748087658,2372
1596.8920139936686,2265
1598.9314293529933,2163
1600.9703211391711,2182
1603.008689604711,2166
1605.0465350022005,2075
1607.0838575843068,2044
1609.1206576037753,1923
1611.1569353134305,1873
1613.1926909661765,1966
1615.2279248149953,1861
1617.2626371129481,1813
1619.2968281131757,1833
1621.3304980688963,1801
1623.3636472334088,1742
1625.39627586009,1722
1627.428384202396,1765
1629.459972513861,1718
1631.4910410480993,1728
1633.5215900588028,1711
1635.551619799744,1721
1637.5811305247717,1718
1639.6101224878166,1622
1641.6385959428862,1696
1643.6665511440683,1668
1645.693988345528,1632
1647.7209078015112,1599
1649.7473097663405,1619
1651.7731944944203,1658
1653.7985622402307,1652
1655.823413258333,1660
1657.847747803366,1618
1659.8715661300494,1611
1661.8948684931793,1584
1663.9176551476316,1604
1665.9399263483624,1633
1667.9616823504057,1617
1669.982923408873,1590
1672.0036497789574,1622
1674.0238617159293,1680
1676.043559475138,1593
1678.0627433120121,1602
1680.081413482059,1606
1682.0995702408654,1661
1684.117213844096,1616
1686.134344547495,1617
1688.1509626068864,1630
1690.1670682781705,1622
1692.182661817329,1663
1694.1977434804217,1570
1696.2123135235875,1566
1698.226372203043,1610
1700.2399197750851,1562
1702.2529564960905,1614
1704.2654826225112,1588
1706.277498410882,1599
1708.2890041178139,1593
1710.2999999999988,1565
1712.3104863142066,1608
1714.3204633172854,1582
1716.329931266163,1586
1718.3388904178469,1606
1720.3473410294214,1512
1722.3552833580516,1606
1724.3627176609807,1559
1726.3696441955308,1557
1728.3760632191033,1591
1730.3819749891782,1514
1732.3873797633146,1514
1734.3922777991502,1560
1736.3966693544012,1575
1738.4005546868639,1591
1740.4039340544127,1537
1742.406807715001,1562
1744.4091759266616,1572
1746.4110389475054,1590
1748.4123970357223,1504
1750.413250449582,1492
1752.4135994474318,1535
1754.4134442876993,1529
1756.4127852288902,1470
1758.4116225295893,1463
1760.4099564484595,1472
1762.407787244244,1462
1764.405115175764,1483
1766.4019405019203,1549
1768.3982634816916,1474
1770.3940843741357,1449
1772.3894034383907,1458
1774.3842209336717,1521
1776.378537119274,1479
1778.372352254571,1397
1780.3656665990156,1441
1782.3584804121397,1429
1784.3507939535534,1461
1786.3426074829463,1522
1788.3339212600863,1456
1790.3247355448211,1405
1792.3150505970766,1492
1794.3048666768573,1473
1796.2941840442477,1446
1798.2830029594106,1514
1800.2713236825884,1412
1802.2591464741004,1450
1804.2464715943465,1501
1806.2332993038058,1441
1808.2196298630352,1509
1810.2054635326708,1424
1812.190800573428,1497
1814.175641246101,1506
1816.1599858115628,1522
1818.1438345307652,1452
1820.127187664738,1446
1822.1100454745924,1495
1824.092408221516,1400
1826.0742761667766,1526
1828.055649571721,1526
1830.0365286977735,1428
1832.0169138064398,1448
1833.9968051593014,1467
1835.9762030180214,1422
1837.9551076443408,1472
1839.9335193000788,1425
1841.9114382471344,1416
1843.888864747485,1397
1845.8657990631878,1411
1847.842241456378,1372
1849.8181921892697,1426
1851.7936515241558,1399
1853.7686197234098,1405
1855.7430970494815,1423
1857.7170837649014,1390
1859.6905801322787,1431
1861.6635864143004,1454
1863.6361028737338,1417
1865.608129773424,1408
1867.5796673762961,1488
1869.5507159453537,1449
1871.521275743678,1429
1873.4913470344313,1417
1875.4609300808534,1410
1877.4300251462632,1425
1879.3986324940588,1562
1881.366752387717,1522
1883.3343850907936,1409
1885.3015308669228,1493
1887.268189979819,1453
1889.2343626932739,1464
1891.2000492711595,1377
1893.1652499774254,1422
1895.1299650761011,1387
1897.0941948312952,1435
1899.0579395071945,1425
1901.0211993680641,1481
1902.98397467825,1434
1904.9462657021745,1470
1906.9080727043415,1472
1908.869395949332,1438
1910.8302357018065,1477
1912.790592226504,1443
1914.7504657882428,1431
1916.7098566519212,1447
1918.6687650825133,1478
1920.6271913450764,1451
1922.5851357047422,1463
1924.5425984267245,1417
1926.499579776314,1457
1928.4560800188833,1446
1930.4120994198802,1482
1932.367638244833,1501
1934.32269675935,1444
1936.2772752291175,1422
1938.231373919899,1449
1940.1849930975404,1448
1942.1381330279637,1440
1944.0907939771696,1411
1946.0429762112412,1451
1947.9946799963363,1484
1949.9459055986945,1472
1951.896653284633,1438
1953.8469233205478,1458
1955.7967159729142,1431
1957.7460315082863,1447
1959.6948701932974,1494
1961.6432322946594,1411
1963.5911180791632,1436
1965.5385278136787,1444
1967.4854617651545,1440
1969.4319202006182,1466
1971.377903387176,1457
1973.3234115920136,1481
1975.268445082395,1421
1977.2130041256642,1454
1979.1570889892423,1449
1981.1006999406304,1470
1983.04383724741,1420
1984.986501177238,1430
1986.928691997853,1426
1988.8704099770712,1420
1990.811655382789,1443
1992.7524284829801,1483
1994.692729545698,1407
1996.6325588390755,1446
1998.5719166313224,1443
2000.5108031907307,1425
2002.4492187856677,1435
2004.387163684583,1391
2006.3246381560011,1432
2008.2616424685298,1340
2010.1981768908527,1393
2012.1342416917332,1387
2014.069837140014,1413
2016.0049635046162,1498
2017.9396210545406,1391
2019.8738100588666,1412
2021.8075307867502,1448
2023.740783507431,1371
2025.6735684902228,1394
2027.6058860045214,1452
2029.5377363198004,1436
2031.4691197056118,1381
2033.4000364315875,1430
2035.3304867674374,1385
2037.260470982952,1396
2039.189989347998,1410
2041.1190421325232,1415
2043.047629606554,1372
2044.9757520401945,1374
2046.9034097036288,1386
2048.8306028671195,1422
2050.7573318010086,1384
2052.683596775716,1402
2054.609398061742,1410
2056.5347359296647,1376
2058.4596106501403,1361
2060.384022493906,1378
2062.3079717317764,1382
2064.231458634646,1306
2066.1544834734873,1344
2068.077046519352,1346
2069.99914804337,1390
2071.9207883167524,1428
2073.8419676107865,1386
2075.7626861968406,1369
2077.6829443463607,1358
2079.6027423308715,1449
2081.522080421977,1411
2083.440958891362,1367
2085.359378010786,1355
2087.2773380520907,1393
2089.194839287196,1360
2091.111881988101,1403
2093.0284664268825,1340
2094.9445928756973,1338
2096.86026160678,1402
2098.775472892446,1414
2100.690227005088,1391
2102.604524217178,1391
2104.5183648012676,1392
2106.431749029985,1419
2108.34467717604,1384
2110.2571495122206,1369
2112.169166311393,1364
2114.080727846503,1376
2115.9918343905747,1429
2117.902486216711,1338
2119.8126835980956,1383
2121.722426807987,1380
2123.6317161197285,1377
2125.5405518067364,1414
2127.448934142509,1407
2129.356863400624,1422
2131.264339854737,1431
2133.1713637785815,1403
2135.077935445972,1442
2136.9840551308002,1398
2138.889723107037,1362
2140.7949396487334,1413
2142.699705030018,1380
2144.6040195250994,1351
2146.507883408264,1462
2148.4112969538774,1422
2150.3142604363848,1427
2152.2167741303097,1465
2154.1188383102535,1423
2156.0204532508997,1394
2157.9216192270064,1458
2159.822336513414,1411
2161.7226053850413,1391
2163.622426116884,1420
2165.5217989840185,1387
2167.4207242616,1393
2169.319202224862,1394
2171.2172331491165,1390
2173.1148173097563,1381
2175.0119549822507,1415
2176.90864644215,1496
2178.8048919650823,1402
2180.7006918267534,1474
2182.596046302952,1415
2184.4909556695407,1456
2186.3854202024645,1442
2188.279440177746,1500
2190.173015871487,1464
2192.066147559868,1462
2193.958835519149,1435
2195.851080025667,1481
2197.7428813558417,1462
2199.6342397861667,1462
2201.5251555932186,1479
2203.415629053651,1501
2205.3056604441986,1499
2207.19525004167,1543
2209.084398122958,1515
2210.9731049650327,1506
2212.861370844941,1437
2214.749196039812,1498
2216.636580826851,1563
2218.523525483344,1504
2220.410030286655,1597
2222.296095514226,1532
2224.1817214435805,1493
2226.066908352319,1542
2227.951656518121,1493
2229.835966218746,1538
2231.71983773203,1502
2233.6032713358913,1534
2235.486267308324,1565
2237.3688259274036,1574
2239.2509474712824,1473
2241.132632218193,1509
2243.013880446447,1546
2244.8946924344323,1484
2246.7750684606203,1467
2248.6550088035574,1518
2250.534513741871,1519
2252.413583554265,1513
2254.292218519526,1442
2256.170418916517,1527
2258.0481850241786,1424
2259.925517121534,1482
2261.8024154876825,1416
2263.678880401803,1494
2265.5549121431536,1487
2267.430510991071,1446
2269.305677224971,1406
2271.180411124348,1508
2273.0547129687766,1393
2274.9285830379076,1498
2276.8020216114737,1439
2278.6750289692845,1408
2280.5476053912294,1461
2282.4197511572766,1542
2284.2914665474727,1546
2286.162751841943,1534
2288.0336073208937,1573
2289.904033264608,1518
2291.774029953448,1520
2293.6435976678554,1500
2295.5127366883517,1498
2297.381447295534,1439
2299.2497297700825,1442
2301.1175843927526,1394
2302.9850114443825,1343
2304.852011205885,1331
2306.7185839582553,1310
2308.5847299825664,1316
2310.4504495599676,1268
2312.3157429716925,1303
2314.1806104990483,1269
2316.0450524234247,1275
2317.9090690262888,1282
2319.772660589186,1277
2321.635827393742,1289
2323.498569721661,1295
2325.3608878547248,1255
2327.2227820747967,1223
2329.0842526638157,1251
2330.945299903803,1285
2332.805924076857,1281
2334.6661254651535,1282
2336.525904350951,1242
2338.3852610165827,1217
2340.244195744464,1286
2342.102708817088,1348
2343.9608005170253,1343
2345.8184711269287,1243
2347.675720929526,1319
2349.532550207628,1249
2351.38895924412,1329
2353.24494832197,1281
2355.100517724223,1319
2356.955667734004,1303
2358.810398634514,1253
2360.664710709037,1288
2362.5186042409337,1276
2364.3720795136437,1295
2366.225136810686,1328
2368.0777764156583,1301
2369.929998612237,1301
2371.7818036841777,1272
2373.633191915315,1322
2375.484163589562,1326
2377.3347189909114,1242
2379.184858403434,1302
2381.03458211128,1323
2382.8838903986775,1310
2384.732783549936,1314
2386.5812618494406,1302
2388.4293255816588,1262
2390.2769750311327,1338
2392.1242104824883,1321
2393.971032220427,1277
2395.8174405297295,1308
2397.6634356952563,1304
2399.509018001947,1326
2401.3541877348193,1249
2403.1989451789705,1343
2405.043290619576,1344
2406.8872243418905,1339
2408.730746631247,1293
2410.5738577730594,1318
2412.4165580528183,1322
2414.258847756095,1355
2416.100727168537,1270
2417.9421965758734,1407
2419.783256263912,1296
2421.623906518538,1330
2423.4641476257157,1304
2425.303979871491,1281
2427.143403541984,1306
2428.9824189233977,1297
2430.821026302012,1373
2432.6592259641866,1345
2434.497018196361,1378
2436.33440328505,1333
2438.171381516851,1324
2440.00795317844,1314
2441.844118556569,1366
2443.6798779380724,1353
2445.5152316098606,1375
2447.3501798589255,1333
2449.1847229723357,1301
2451.0188612372403,1291
2452.8525949408663,1365
2454.6859243705203,1305
2456.518849813587,1295
2458.3513715575314,1286
2460.183489889895,1365
2462.015205098301,1329
2463.8465174704493,1308
2465.67742729412,1336
2467.5079348571717,1337
2469.338040447542,1339
2471.1677443532476,1348
2472.9970468623833,1323
2474.825948263123,1300
2476.6544488437207,1338
2478.482548892508,1301
2480.310248697896,1313
2482.137548548374,1337
2483.9644487325118,1330
2485.790949538956,1360
2487.617051256433,1327
2489.44275417375,1358
2491.26805857979,1358
2493.0929647635157,1301
2494.917473013971,1298
2496.741583620276,1386
2498.5652968716304,1414
2500.3886130573137,1407
2502.2115324666834,1375
2504.0340553891765,1420
2505.856182114308,1383
2507.6779129316733,1386
2509.499248130945,1362
2511.3201880018764,1370
2513.140732834298,1366
2514.9608829181198,1343
2516.780638543331,1386
2518.6,1372
2520.418967578273,1351
2522.237541568376,1403
2524.0557222606144,1391
2525.8735099453706,1387
2527.6909049131086,1478
2529.507907454368,1464
2531.32451785977,1443
2533.140736420014,1456
2534.9565634258774,1471
2536.771999168218,1491
2538.5870439379714,1397
2540.4016980261526,1433
2542.2159617238544,1527
2544.02983532225,1458
2545.8433191125914,1545
2547.656413386209,1450
2549.4691184345115,1497
2551.2814345489874,1509
2553.093362021204,1581
2554.904901142808,1589
2556.716052205523,1507
2558.526815501153,1542
2560.3371913215824,1514
2562.147179958771,1590
2563.956781704761,1525
2565.7659968516705,1590
2567.5748256916986,1566
2569.3832685171224,1607
2571.1913256202984,1509
2572.9989972936614,1592
2574.806283829725,1657
2576.613185521084,1619
2578.4197026604074,1625
2580.2258355404483,1615
2582.031584454035,1703
2583.836949694077,1643
2585.6419315535613,1703
2587.4465303255533,1712
2589.2507463032002,1675
2591.0545797797245,1727
2592.8580310484303,1782
2594.6611004026995,1709
2596.463788135992,1739
2598.266094541849,1716
2600.0680199138874,1710
2601.869564545807,1681
2603.670728731383,1690
2605.4715127644704,1688
2607.2719169390048,1738
2609.071941548998,1733
2610.8715868885433,1784
2612.670853251811,1735
2614.469740933052,1752
2616.268250226594,1717
2618.0663814268455,1766
2619.864134828292,1742
2621.6615107255006,1725
2623.458509413115,1747
2625.2551311858597,1742
2627.0513763385347,1790
2628.8472451660223,1740
2630.6427379632833,1792
2632.4378550253564,1691
2634.232596647359,1752
2636.026963124488,1689
2637.8209547520187,1655
2639.6145718253065,1706
2641.407814639785,1620
2643.200683490966,1645
2644.9931786744414,1651
2646.7853004858807,1612
2648.577049221034,1612
2650.3684251757277,1587
2652.1594286458712,1581
2653.9500599274484,1525
2655.740319316525,1558
2657.5302071092437,1539
2659.3197236018286,1523
2661.10886909058,1524
2662.8976438718782,1453
2664.686048242183,1504
2666.4740824980327,1524
2668.2617469360443,1534
2670.0490418529134,1442
2671.8359675454153,1430
2673.622524310403,1418
2675.408712444811,1486
2677.1945322456495,1478
2678.979984010009,1440
2680.76506803506,1448
2682.5497846180497,1380
2684.334134056306,1396
2686.1181166472343,1418
2687.9017326883213,1400
2689.6849824771293,1380
2691.4678663113013,1357
2693.2503844885596,1412
2695.032537306705,1413
2696.8143250636167,1398
2698.5957480572542,1375
2700.3768065856534,1371
2702.1575009469316,1368
2703.937831439283,1361
2705.717798360982,1329
2707.4974020103837,1297
2709.276642685917,1354
2711.055520686095,1360
2712.834036309506,1319
2714.612189854819,1364
2716.389981620782,1282
2718.1674119062204,1376
2719.944481010041,1341
2721.721189231226,1350
2723.4975368688415,1258
2725.273524222027,1335
2727.0491515900053,1372
2728.824419272075,1348
2730.5993275676146,1357
2732.3738767760838,1306
2734.148067197016,1326
2735.921899130031,1319
2737.6953728748194,1344
2739.468488731156,1295
2741.2412469988926,1282
2743.0136479779617,1313
2744.785691968372,1298
2746.5573792702116,1312
2748.3287101836504,1301
2750.099685008934,1270
2751.870304046388,1290
2753.640567596418,1319
2755.4104759595057,1319
2757.1800294362156,1354
2758.949228327187,1342
2760.7180729331412,1307
2762.486563554877,1277
2764.254700493272,1266
2766.022484049284,1313
2767.789914523947,1238
2769.5569922183786,1278
2771.3237174337705,1297
2773.090090471394,1277
2774.8561116326036,1296
2776.6217812188274,1315
2778.3870995315756,1340
2780.1520668724356,1279
2781.9166835430747,1266
2783.6809498452394,1274
2785.444866080754,1295
2787.2084325515225,1306
2788.971649559527,1314
2790.73451740683,1322
2792.4970363955713,1246
2794.2592068279705,1234
2796.0210290063264,1254
2797.7825032330147,1282
2799.543629810493,1210
2801.304409041296,1294
2803.0648412280366,1265
2804.8249266734088,1249
2806.5846656801846,1298
2808.344058551212,1343
2810.1031055894246,1280
2811.8618070978273,1280
2813.6201633795085,1330
2815.378174737636,1284
2817.1358414754536,1290
2818.893163896285,1298
2820.6501423035334,1261
2822.4067770006814,1259
2824.1630682912883,1273
2825.9190164789957,1236
2827.6746218675207,1283
2829.429884760661,1286
2831.184805462294,1241
2832.9393842763743,1298
2834.693621506936,1324
2836.4475174580916,1352
2838.201072434034,1268
2839.954286739034,1276
2841.707160677441,1304
2843.459694553685,1272
2845.2118886722724,1262
2846.96374333779,1257
2848.7152588549034,1342
2850.4664355283567,1262
2852.217273662973,1300
2853.9677735636546,1313
2855.7179355353833,1298
2857.4677598832186,1326
2859.217246912299,1274
2860.9663969278427,1267
2862.715210235146,1258
2864.4636871395846,1215
2866.211827946614,1317
2867.9596329617652,1253
2869.7071024906536,1280
2871.4542368389684,1254
2873.20103631248,1264
2874.947501217038,1235
2876.6936318585695,1290
2878.4394285430812,1293
2880.1848915766604,1226
2881.9300212654707,1273
2883.6748179157553,1258
2885.4192818338374,1260
2887.1634133261173,1289
2888.907212699077,1261
2890.6506802592744,1286
2892.393816313348,1316
2894.1366211680142,1309
2895.8790951300693,1292
2897.621238506388,1283
2899.363051603925,1286
2901.1045347297118,1231
2902.8456881908596,1267
2904.58651229456,1269
2906.327007348081,1247
2908.067173658772,1271
2909.8070115340597,1192
2911.5465212814497,1283
2913.285703208527,1222
2915.0245576229563,1227
2916.7630848324807,1271
2918.5012851449196,1266
2920.2391588681758,1266
2921.976706310227,1279
2923.7139277791334,1281
2925.4508235830313,1253
2927.187394030137,1237
2928.923639428745,1326
2930.6595600872306,1259
2932.395156314046,1296
2934.1304284177218,1250
2935.8653767068713,1311
2937.6000014901815,1282
2939.3343030764227,1249
2941.068281774442,1269
2942.8019378931644,1290
2944.5352717415976,1274
2946.2682836288236,1335
2948.0009738640065,1300
2949.7333427563885,1283
2951.465390615289,1302
2953.1971177501086,1332
2954.9285244703265,1326
2956.6596110855,1256
2958.3903779052657,1281
2960.1208252393385,1265
2961.8509533975125,1263
2963.5807626896617,1237
2965.3102534257378,1275
2967.0394259157715,1239
2968.768280469873,1233
2970.496817398232,1261
2972.2250370111146,1296
2973.952939618869,1262
2975.6805255319196,1238
2977.4077950607707,1254
2979.134748516006,1264
2980.861386208289,1282
2982.587708448359,1303
2984.313715547037,1302
2986.039407815222,1282
2987.764785563891,1262
2989.489849104102,1222
2991.2145987469908,1280
2992.9390348037705,1296
2994.6631575857346,1267
2996.3869674042576,1284
2998.1104645707887,1292
2999.83364939686,1294
3001.5565221940783,1266
3003.2790832741334,1300
3005.0013329487924,1250
3006.7232715298996,1230
3008.4448993293804,1289
3010.166216659239,1298
3011.887223831558,1280
3013.607921158498,1213
3015.3283089522993,1268
3017.0483875252826,1293
3018.7681571898443,1310
3020.4876182584626,1272
3022.2067710436927,1271
3023.9256158581707,1286
3025.644153014609,1273
3027.362382825801,1238
3029.0803056046193,1278
3030.797921664012,1297
3032.5152313170106,1281
3034.2322348767225,1266
3035.9489326563353,1284
3037.665324969115,1259
3039.3814121284063,1240
3041.097194447633,1248
3042.812672240299,1263
3044.5278458199855,1290
3046.2427155003525,1277
3047.9572815951406,1239
3049.671544418167,1266
3051.38550428333,1250
3053.0991615046073,1238
3054.812516396051,1285
3056.5255692717974,1258
3058.2383204460575,1277
3059.9507702331257,1244
3061.662918947372,1327
3063.3747669032446,1296
3065.0863144152736,1306
3066.7975617980674,1311
3068.508509366309,1268
3070.219157434767,1295
3071.9295063182844,1296
3073.639556331785,1254
3075.3493077902704,1238
3077.058761008821,1317
3078.7679163025964,1279
3080.476773986837,1302
3082.1853343768594,1324
3083.89359778806,1268
3085.6015645359153,1285
3087.3092349359786,1301
3089.016609303884,1256
3090.7236879553434,1335
3092.4304712061476,1260
3094.136959372166,1255
3095.843152769349,1298
3097.5490517137237,1253
3099.2546565213966,1225
3100.959967508554,1321
3102.66498499146,1326
3104.3697092864577,1286
3106.0741407099695,1271
3107.778279578498,1265
3109.482126208622,1303
3111.1856809170004,1362
3112.8889440203716,1292
3114.5919158355528,1281
3116.294596679439,1320
3117.996986869006,1311
3119.6990867213062,1310
3121.4008965534726,1304
3123.102416682717,1313
3124.803647426329,1289
3126.5045891016784,1256
3128.205242026213,1300
3129.90560651746,1294
3131.605682893025,1297
3133.3054714705922,1282
3135.0049725679282,1342
3136.7041865028714,1313
3138.4031135933465,1349
3140.101754157353,1325
3141.800108512971,1295
3143.498176978357,1264
3145.1959598717494,1287
3146.8934575114636,1234
3148.5906702158954,1233
3150.2875983035183,1269
3151.9842420928853,1282
3153.680601902627,1251
3155.376678051456,1274
3157.07247085816,1272
3158.767980641609,1331
3160.463207720748,1307
3162.158152414606,1248
3163.8528150422862,1297
3165.5471959229726,1308
3167.2412953759303,1311
3168.9351137204976,1237
3170.628651276098,1268
3172.3219083622307,1277
3174.014885298474,1247
3175.707582404485,1202
3177.4000000000005,1283
3179.092138404835,1280
3180.7839979388846,1319
3182.47557892212,1295
3184.166881674594,1274
3185.8579065164386,1250
3187.5486537678626,1298
3189.2391237491547,1255
3190.9293167806827,1253
3192.6192331828934,1243
3194.3088732763117,1329
3195.998237381542,1239
3197.687325819268,1218
3199.376138910251,1252
3201.064676975334,1261
3202.7529403354347,1306
3204.4409293115523,1270
3206.1286442247647,1247
3207.816085396229,1212
3209.5032531471825,1226
3211.190147798936,1236
3212.8767696728846,1234
3214.5631190905015,1249
3216.2491963733373,1272
3217.9350018430214,1206
3219.6205358212637,1239
3221.305798629851,1247
3222.990790590651,1195
3224.6755120256103,1247
3226.359963256751,1209
3228.0441446061795,1249
3229.7280563960758,1245
3231.411698948703,1250
3233.0950725863995,1270
3234.778177631587,1296
3236.461014406761,1248
3238.1435832345005,1271
3239.8258844374595,1261
3241.507918338374,1297
3243.1896852600576,1229
3244.8711855254023,1234
3246.552419457381,1286
3248.233387379042,1195
3249.914089613516,1283
3251.59452648401,1268
3253.274698313813,1232
3254.95460542629,1215
3256.6342481448855,1258
3258.313626793125,1268
3259.9927416946084,1216
3261.6715931730196,1212
3263.3501815521176,1198
3265.0285071557437,1204
3266.706570307815,1241
3268.3843713323286,1232
3270.0619105533615,1228
3271.739188295068,1230
3273.4162048816834,1224
3275.0929606375184,1258
3276.769455886966,1257
3278.445690954498,1242
3280.1216661646613,1308
3281.797381842087,1241
3283.4728383114807,1221
3285.1480358976296,1223
3286.8229749253996,1270
3288.4976557197333,1293
3290.172078605655,1281
3291.846243908266,1219
3293.5201519527463,1211
3295.193803064357,1224
3296.8671975684374,1211
3298.5403357904024,1257
3300.21321805575,1241
3301.8858446900567,1262
3303.558216018975,1257
3305.23033236824,1254
3306.9021940636603,1203
3308.57380143113,1203
3310.2451547966184,1219
3311.916254486174,1216
3313.5871008259246,1223
3315.2576941420766,1292
3316.9280347609147,1267
3318.5981230088046,1208
3320.2679592121895,1233
3321.9375436975924,1206
3323.606876791612,1193
3325.27595882093,1259
3326.944790112305,1216
3328.6133709925753,1217
3330.2817017886573,1204
3331.949782827547,1232
3333.617614436319,1248
3335.2851969421245,1243
3336.952530672199,1277
3338.619615953853,1236
3340.286453114475,1218
3341.9530424815357,1279
3343.619384382583,1242
3345.2854791452437,1302
3346.951327097224,1230
3348.6169285663073,1215
3350.2822838803577,1239
3351.947393367319,1243
3353.61225735521,1242
3355.2768761721345,1205
3356.9412501462693,1221
3358.605379605873,1265
3360.2692648792827,1291
3361.9329062949146,1266
3363.596304181263,1224
