CollectionTime,7/11/2024 12:37:24 PM
ExposureUsed,3
CalibratedSpectrum
-962.7078968117929,881
-959.9714848408522,919
-957.2358232597828,886
-954.5009119013725,874
-951.7667505983302,942
-949.0333391832855,920
-946.3006774887896,919
-943.5687653473143,891
-940.837602591253,930
-938.1071890529199,909
-935.3775245645503,950
-932.6486089583007,945
-929.9204420662485,969
-927.1930237203925,954
-924.4663537526524,906
-921.7404319948689,959
-919.0152582788041,968
-916.2908324361409,900
-913.5671542984834,907
-910.8442236973568,902
-908.1220404642074,898
-905.4006044304027,956
-902.679915427231,936
-899.959973285902,947
-897.2407778375464,936
-894.5223289132158,893
-891.8046263438832,897
-889.0876699604426,912
-886.3714595937089,939
-883.6559950744183,920
-880.9412762332282,902
-878.2273029007168,892
-875.5140749073835,871
-872.8015920836489,920
-870.0898542598545,879
-867.3788612662631,927
-864.6686129330585,877
-861.9591090903457,919
-859.2503495681506,918
-856.5423341964203,918
-853.8350628050229,885
-851.1285352237478,913
-848.4227512823054,891
-845.7177108103272,881
-843.0134136373656,904
-840.3098595928943,933
-837.6070485063082,951
-834.9049802069229,948
-832.2036545239757,923
-829.5030712866244,910
-826.8032303239481,961
-824.1041314649472,956
-821.4057745385428,942
-818.7081593735775,916
-816.0112857988148,952
-813.3151536429393,963
-810.6197627345566,910
-807.9251129021936,902
-805.2312039742981,964
-802.5380357792392,925
-799.8456081453069,906
-797.1539209007124,911
-794.462973873588,1006
-791.772766891987,934
-789.083299783884,985
-786.3945723771743,924
-783.7065844996748,931
-781.0193359791231,917
-778.3328266431781,950
-775.6470563194197,962
-772.9620248353489,937
-770.2777320183878,948
-767.5941776958798,942
-764.9113616950891,923
-762.2292838432011,929
-759.5479439673222,979
-756.8673418944801,960
-754.1874774516235,987
-751.5083504656222,1002
-748.8299607632671,950
-746.15230817127,979
-743.475392516264,940
-740.7992136248035,1007
-738.1237713233636,968
-735.4490654383407,985
-732.7750957960521,984
-730.1018622227365,988
-727.4293645445534,1025
-724.7576025875837,970
-722.0865761778291,979
-719.4162851412126,1009
-716.7467293035781,1049
-714.0779084906909,1015
-711.409822528237,974
-708.7424712418238,1021
-706.0758544569796,1010
-703.4099719991541,983
-700.7448236937178,1083
-698.0804093659622,1048
-695.4167288411002,1058
-692.7537819442656,1047
-690.0915685005134,1001
-687.4300883348199,1030
-684.7693412720819,1081
-682.1093271371178,1032
-679.4500457546669,1061
-676.7914969493897,1043
-674.1336805458676,1051
-671.4765963686034,1042
-668.8202442420206,1074
-666.1646239904642,1048
-663.5097354382001,1049
-660.8555784094151,1014
-658.2021527282176,1051
-655.5494582186366,1070
-652.8974947046223,1048
-650.2462620100463,1011
-647.5957599587009,1088
-644.9459883742998,1130
-642.2969470804776,1092
-639.6486359007902,1058
-637.0010546587141,1059
-634.3542031776476,1087
-631.7080812809096,1063
-629.0626887917401,1057
-626.4180255333008,1085
-623.7740913286734,1067
-621.1308860008619,1083
-618.4884093727904,1055
-615.8466612673046,1073
-613.2056415071715,1122
-610.5653499150785,1072
-607.9257863136347,1080
-605.28695052537,1117
-602.6488423727357,1046
-600.0114616781036,1113
-597.3748082637674,1100
-594.7388819519412,1125
-592.1036825647604,1127
-589.4692099242818,1143
-586.8354638524829,1102
-584.2024441712624,1101
-581.5701507024403,1102
-578.9385832677575,1119
-576.3077416888759,1128
-573.6776257873787,1191
-571.0482353847704,1146
-568.4195703024757,1152
-565.7916303618415,1149
-563.164415384135,1128
-560.5379251905453,1136
-557.9121596021815,1126
-555.2871184400748,1111
-552.6628015251767,1092
-550.0392086783606,1174
-547.4163397204204,1160
-544.794194472071,1120
-542.1727727539491,1155
-539.5520743866118,1147
-536.9320991905377,1166
-534.3128469861261,1266
-531.6943175936979,1252
-529.0765108334947,1211
-526.4594265256793,1201
-523.8430644903358,1412
-521.2274245474689,1447
-518.612506517005,1508
-515.9983102187913,1542
-513.3848354725959,1500
-510.77208209810846,1517
-508.16004991493924,1573
-505.5487387426199,1718
-502.9381484006032,1892
-500.3282787082628,1884
-497.71912948489364,1940
-495.1107005497117,1852
-492.5029917218539,1781
-489.8960028203786,1611
-487.28973366426493,1582
-484.68418407241325,1447
-482.07935386364494,1398
-479.47524285670266,1400
-476.87185087025,1372
-474.2691777228715,1328
-471.66722323307334,1343
-469.0659872192821,1306
-466.4654694998459,1345
-463.86566989303384,1289
-461.26658821703614,1319
-458.66822428996414,1299
-456.07057792985,1373
-453.4736489546475,1328
-450.877437182231,1260
-448.28194243039627,1284
-445.68716451686,1298
-443.09310325926003,1303
-440.49975847515555,1326
-437.9071299820263,1328
-435.31521759727354,1316
-432.72402113821954,1342
-430.13354042210767,1318
-427.5437752661022,1303
-424.95472548728867,1272
-422.36639090267386,1305
-419.7787713291855,1410
-417.1918665836721,1454
-414.60567648290385,1416
-412.0202008435715,1366
-409.4354394822874,1380
-406.8513922155845,1413
-404.26805885991723,1422
-401.685439231661,1411
-399.103533147112,1403
-396.522340422488,1362
-393.9418608739278,1378
-391.3620943174908,1364
-388.7830405691583,1337
-386.2046994448317,1195
-383.6270707603344,1216
-381.05015433141045,1145
-378.473949973725,995
-375.8984575028645,925
-373.32367673433623,832
-370.74960748356875,817
-368.1762495659117,777
-365.60360279663576,685
-363.03166699093265,590
-360.4604419639154,530
-357.8899275306178,521
-355.32012350599507,519
-352.7510297049233,516
-350.1826459421999,478
-347.61497203254316,459
-345.04800779059235,445
-342.4817530309082,451
-339.91620756797226,470
-337.35137121618743,496
-334.7872437898774,542
-332.22382510328725,573
-329.66111497058273,508
-327.09911320585127,469
-324.53781962310075,479
-321.9772340362607,484
-319.4173562591816,471
-316.8581861056348,444
-314.2997233893127,466
-311.7419679238294,453
-309.1849195227194,454
-306.62857799943856,515
-304.0729431673641,549
-301.51801483979375,564
-298.963792829947,545
-296.41027695096386,549
-293.85746701590574,565
-291.3053628377552,587
-288.7539642294155,560
-286.2032710037115,551
-283.65328297338897,537
-281.1039999511146,545
-278.5554217494762,593
-276.007548180983,549
-273.4603790580651,540
-270.9139141930734,534
-268.3681533982807,543
-265.8230964858798,537
-263.27874326798565,612
-260.7350935566336,623
-258.1921471637804,578
-255.6499039013039,561
-253.10836358100266,563
-250.56752601459698,596
-248.02739101372765,579
-245.48795838995704,597
-242.94922795476816,645
-240.41119951956557,643
-237.8738728956746,707
-235.33724789434166,656
-232.80132432673452,601
-230.2661020039418,563
-227.73158073697357,627
-225.19776033676033,615
-222.66464061415422,598
-220.1322213799284,608
-217.60050244477725,612
-215.06948361931552,629
-212.53916471408013,645
-210.00954553952818,635
-207.48062590603843,688
-204.9524056239104,681
-202.4248845033651,717
-199.8980623545441,677
-197.37193898751036,705
-194.84651421224817,697
-192.32178783866232,707
-189.79775967657952,723
-187.27442953574644,836
-184.7517972258321,846
-182.2298625564256,834
-179.7086253370378,849
-177.18808537710026,785
-174.66824248596583,771
-172.14909647290835,731
-169.6306471471229,773
-167.11289431772548,864
-164.59583779375328,832
-162.07947738416453,787
-159.5638128978386,817
-157.04884414357605,793
-154.53457093009854,878
-152.02099306604828,863
-149.50811035998936,736
-146.99592262040665,712
-144.48442965570587,796
-141.97363127421409,842
-139.46352728417958,1008
-136.95411749377126,1006
-134.44540171107985,925
-131.93737974411636,804
-129.43005140081357,804
-126.92341648902493,930
-124.41747481652521,1193
-121.91222619101006,1294
-119.40767042009657,1388
-116.90380731132257,1541
-114.40063667214702,1775
-111.8981583099503,1901
-109.3963720320337,1733
-106.89527764561933,1607
-104.39487495785067,1763
-101.89516377579241,2065
-99.39614390642998,2554
-96.89781515667039,2436
-94.40017733334128,1997
-91.90323024319173,2100
-89.40697369289148,3461
-86.91140748903172,5254
-84.41653143812482,7033
-81.92234534660395,7314
-79.42884902082358,5278
-76.93604226705907,5500
-74.4439248915071,10438
-71.95249670028534,18388
-69.46175749943245,24289
-66.97170709490854,27599
-64.48234529259423,26561
-61.99367189829195,20248
-59.50568671772464,13317
-57.01838955653636,10139
-54.53178022029283,9498
-52.045858514480074,8451
-49.560624244506016,7493
-47.07607721569923,7003
-44.59221723330904,7132
-42.10904410250669,6938
-39.62655762838392,6891
-37.14475761595372,8314
-34.66364387015028,9662
-32.18321619582866,9501
-29.70347439776515,9252
-27.224418280657005,8563
-24.74604764912317,7930
-22.26836230770266,10645
-19.7913620608565,19346
-17.315046712966478,33725
-14.83941606833514,45416
-12.36446993118659,65038
-9.89020810566592,65038
-7.416630395839093,65038
-4.94373660569363,65038
-2.471526539137585,65038
-6.821210263296962E-13,65038
2.47084320796705,65038
4.941003281093458,65038
7.410480415786196,65038
9.879274808531363,65038
12.347386655893956,65038
14.814816154518212,65038
17.28156350112681,65038
19.74762889252179,65038
22.21301252558385,65038
24.67771459727237,19711
27.141735304626195,4169
29.605074844762612,2551
32.06773341487792,2698
34.52971121224755,2742
36.99100843422559,2652
39.45162527824516,2521
41.91156194181792,2115
44.370818622535126,1622
46.82939551806646,1313
49.287292826160524,1448
51.74451074464503,1929
54.201049471426245,2322
56.65690920448981,2024
59.112090141899785,1586
61.56659248179983,1380
64.02041642241159,1224
66.4735621620365,1147
68.92602989905402,1171
71.37781983192338,1254
73.82893215918205,1396
76.27936707944684,1417
78.72912479141326,1248
81.17820549385567,1251
83.62660938562783,1412
86.07433666566146,1344
88.5213875329681,1111
90.96776218663751,969
93.41346082583925,880
95.85848364982041,951
98.30283085790859,1242
100.7465026495089,1248
103.18949922410604,1159
105.63182078126385,1152
108.07346752062438,1190
110.51443964190923,1029
112.95473734491827,894
115.39436082953114,1022
117.83331029570547,1130
120.27158594347827,988
122.7091879729652,1110
125.1461165843615,1144
127.58237197794062,1013
130.01795435405518,879
132.4528639131364,956
134.88710085569494,954
137.32066538231982,832
139.75355769367923,899
142.1857779905207,847
144.61732647366978,883
147.04820334403132,867
149.47840880258934,872
151.90794305040674,937
154.33680628862487,1179
156.76499871846443,1334
159.19252054122433,1556
161.61937195828352,1632
164.04555317109896,1793
166.47106438120693,2051
168.89590579022217,2262
171.320077599839,2353
173.7435800118302,2478
176.16641322804742,2637
178.58857745042144,2868
181.01007288096173,3000
183.43089972175687,2994
185.85105817497413,2992
188.27054844285988,2960
190.6893707277394,3025
193.10752523201643,3043
195.5250121581745,3112
197.9418317087751,3287
200.3579840864594,3276
202.7734694939469,3289
205.18828813403627,3239
207.6024402096051,3493
210.01592592360964,3461
212.42874547908548,3251
214.84089907914665,3210
217.2523869269868,3203
219.66320922587727,3248
222.0733661791695,3123
224.48285799029293,3166
226.8916848627572,3200
229.29984700014882,3196
231.7073446061355,3093
234.11417788446204,3138
236.520347038953,3174
238.92585227351185,3223
241.33069379212054,3308
243.73487179884035,3365
246.1383864978112,3379
248.541238093252,3371
250.9434267894609,3249
253.34495279081432,3331
255.74581630176783,3300
258.1460175268563,3313
260.54555667069314,3300
262.9444339379703,3273
265.3426495334594,3179
267.7402036620107,3147
270.1370965285529,3178
272.53332833809407,3157
274.9288992957214,3026
277.32380960660055,2913
279.718059475976,2971
282.1116491091717,2915
284.5045787115897,3059
286.89684848871195,2902
289.2884586460981,2931
291.67940938938807,2966
294.0697009242996,2942
296.4593334566299,2909
298.84830719225477,2910
301.23662233712923,2874
303.6242790972866,2877
306.01127767884,2789
308.39761828798066,2819
310.78330113097934,2840
313.16832641418534,2791
315.5526943440269,2751
317.9364051270112,2783
320.3194589697242,2765
322.70185607883093,2824
325.0835966610754,2839
327.4646809232805,2601
329.8451090723478,2711
332.2248813152577,2570
334.6039978590701,2602
336.9824589109231,2660
339.36026467803447,2645
341.7374153677,2543
344.113911187295,2547
346.48975234427337,2661
348.8649390461686,2505
351.2394715005918,2629
353.61334991523415,2551
355.9865744978655,2464
358.35914545633375,2441
360.73106299856715,2567
363.10232733257146,2493
365.47293866643247,2503
367.84289720831396,2471
370.2122031664593,2440
372.5808567491905,2471
374.9488581649083,2482
377.31620762209275,2430
379.6829053293021,2472
382.0489514951745,2455
384.4143463284262,2419
386.7790900378528,2383
389.14318283232853,2441
391.50662492080653,2418
393.86941651231916,2378
396.23155781597745,2418
398.5930490409713,2462
400.9538903965696,2389
403.3140820921202,2452
405.6736243370498,2363
408.03251734086336,2388
410.3907613131465,2329
412.74835646356166,2400
415.10530300185144,2423
417.4616011378372,2325
419.81725108141893,2308
422.1722530425758,2330
424.5266072313656,2381
426.880313857925,2265
429.2333731324701,2318
431.58578526529516,2320
433.9375504667738,2242
436.2886689473588,2321
438.63914091758113,2305
440.9889665880513,2297
443.33814616945835,2297
445.68667987257015,2324
448.03456790823395,2244
450.3818104873759,2269
452.72840782100013,2194
455.07436012019105,2265
457.41966759611057,2372
459.7643304600007,2381
462.10834892318155,2289
464.4517231970525,2321
466.79445349309174,2269
469.1365400228566,2382
471.4779829979826,2287
473.81878263018564,2344
476.15893913125876,2377
478.4984527130747,2370
480.8373235875855,2376
483.17555196682144,2474
485.5131380628919,2535
487.8500820879857,2517
490.1863842543697,2684
492.52204477439034,2879
494.8570638604725,3098
497.1914417251204,3308
499.52517858091653,3500
501.85827464052306,3565
504.19073011668036,3714
506.5225452222086,3501
508.85372017000566,3510
511.18425517304956,3391
513.514150444396,3508
515.8434061971808,3995
518.1720226446176,4646
520.4999999999999,4839
522.8273384766991,4609
525.1540382881666,4301
527.480099647932,3915
529.8055227696037,3350
532.1303078668694,2928
534.454455153496,2644
536.777964843328,2444
539.1008371502907,2446
541.4230722883866,2402
543.744670471698,2354
546.0656319143858,2363
548.3859568306899,2329
550.7056454349294,2355
553.0246979415016,2271
555.3431145648834,2307
557.6608955196306,2278
559.978041020377,2308
562.2945512818363,2394
564.6104265188006,2268
566.9256669461412,2234
569.2402727788082,2262
571.5542442318302,2287
573.8675815203156,2298
576.1802848594508,2310
578.4923544645015,2338
580.8037905508126,2345
583.114593333807,2325
585.4247630289875,2274
587.7342998519354,2352
590.0432040183106,2260
592.3514757438526,2326
594.6591152443794,2307
596.9661227357875,2318
599.2724984340531,2307
601.578242555231,2366
603.8833553154542,2381
606.1878369309362,2415
608.4916876179676,2314
610.7949075929192,2322
613.0974970722403,2350
615.3994562724587,2258
617.7007854101818,2388
620.0014847020951,2268
622.3015543649641,2298
624.6009946156324,2311
626.8998056710224,2295
629.1979877481361,2338
631.4955410640538,2318
633.7924658359349,2328
636.0887622810175,2361
638.3844306166192,2263
640.6794710601358,2356
642.9738838290426,2381
645.2676691408932,2327
647.5608272133207,2387
649.853358264037,2329
652.1452625108324,2399
654.4365401715764,2402
656.7271914642178,2379
659.0172166067838,2425
661.3066158173809,2352
663.5953893141935,2341
665.8835373154867,2399
668.1710600396028,2424
670.4579577049639,2396
672.7442305300709,2358
675.0298787335033,2461
677.3149025339197,2328
679.599302150058,2355
681.8830778007342,2474
684.1662297048437,2382
686.4487580813608,2354
688.7306631493387,2494
691.0119451279091,2435
693.2926042362834,2424
695.5726406937516,2390
697.8520547196814,2387
700.1308465335215,2358
702.4090163547982,2384
704.6865644031171,2411
706.9634908981619,2398
709.2397960596965,2392
711.5154801075631,2419
713.7905432616823,2293
716.0649857420548,2288
718.3388077687592,2356
720.612009561953,2451
722.8845913418733,2386
725.1565533288352,2423
727.427895743234,2412
729.6986188055427,2359
731.9687227363137,2373
734.238207756178,2365
736.5070740858458,2375
738.7753219461066,2421
741.0429515578281,2391
743.3099631419569,2386
745.5763569195191,2432
747.8421331116193,2345
750.1072919394409,2338
752.3718336242467,2385
754.6357583873777,2392
756.8990664502545,2327
759.1617580343765,2406
761.423833361321,2334
763.6852926527457,2374
765.9461361303862,2452
768.206364016058,2342
770.4659765316536,2380
772.7249738991469,2433
774.9833563405886,2414
777.2411240781092,2425
779.4982773339183,2308
781.7548163303044,2319
784.010741289634,2381
786.2660524343538,2479
788.5207499869881,2471
790.7748341701416,2438
793.0283052064964,2356
795.2811633188143,2410
797.5334087299362,2410
799.7850416627813,2395
802.0360623403484,2418
804.2864709857143,2408
806.5362678220353,2369
808.7854530725468,2367
811.0340269605625,2391
813.2819897094754,2483
815.5293415427581,2368
817.77608268396,2376
820.0222133567116,2464
822.2677337847211,2417
824.5126441917765,2424
826.7569448017433,2436
829.0006358385675,2383
831.2437175262731,2441
833.4861900889629,2460
835.7280537508192,2445
837.9693087361026,2400
840.2099552691533,2342
842.4499935743896,2392
844.689423876309,2396
846.9282463994886,2428
849.1664613685833,2449
851.4040690083276,2451
853.6410695435349,2430
855.877463199097,2387
858.1132501999847,2391
860.3484307712487,2435
862.5830051380175,2406
864.8169735254988,2370
867.0503361589791,2455
869.2830932638243,2434
871.5152450654786,2415
873.7467917894654,2463
875.9777336613873,2500
878.2080709069252,2531
880.4378037518389,2394
882.666932421968,2423
884.8954571432301,2502
887.1233781416219,2476
889.3506956432192,2509
891.5774098741766,2440
893.803521060728,2422
896.0290294291852,2535
898.2539352059397,2499
900.4782386174619,2464
902.7019398903011,2428
904.925039251085,2464
907.147536926521,2477
909.3694331433943,2522
911.59072812857,2464
913.8114221089921,2398
916.0315153116827,2453
918.2510079637437,2500
920.4699002923547,2405
922.6881925247761,2334
924.905884888345,2382
927.1229776104793,2361
929.3394709186747,2400
931.555365040506,2391
933.7706602036275,2301
935.9853566357709,2329
938.1994545647489,2372
940.4129542184515,2467
942.6258558248488,2389
944.8381596119883,2415
947.0498658079974,2333
949.2609746410825,2376
951.4714863395287,2319
953.6814011316998,2445
955.8907192460387,2329
958.0994409110671,2265
960.3075663553858,2360
962.5150958076741,2344
964.7220294966913,2337
966.928367651274,2317
969.1341105003388,2314
971.3392582728806,2337
973.5438111979742,2374
975.747769504772,2350
977.9511334225061,2290
980.153903180487,2307
982.3560790081052,2226
984.5576611348289,2254
986.7586497902058,2243
988.9590452038618,2306
991.158847605503,2275
993.3580572249133,2261
995.5566742919558,2201
997.7546990365728,2194
999.952131688785,2150
1002.1489724786926,2103
1004.3452216364743,2042
1006.5408793923874,2112
1008.7359459767691,2051
1010.9304216200343,2097
1013.1243065526781,2105
1015.3176010052733,2110
1017.510305208472,2041
1019.7024193930064,2037
1021.8939437896848,1963
1024.0848786293977,2070
1026.2752241431122,2048
1028.4649805618747,2036
1030.6541481168115,2043
1032.842727039127,2003
1035.0307175601051,1987
1037.2181199111074,2039
1039.4049343235752,2062
1041.591161029029,2008
1043.7768002590683,1954
1045.9618522453698,1953
1048.1463172196918,1980
1050.3301954138697,2023
1052.513487059818,2031
1054.69619238953,1987
1056.8783116350783,2035
1059.0598450286152,2069
1061.2407928023704,2004
1063.4211551886528,1989
1065.6009324198508,1952
1067.780124728432,2010
1069.9587323469414,2034
1072.1367555080046,1992
1074.314194444325,1952
1076.4910493886855,2033
1078.667320573947,1954
1080.843008233051,1949
1083.0181125990161,1916
1085.1926339049414,1787
1087.3665723840027,1907
1089.5399282694575,1958
1091.7127017946405,1896
1093.8848931929647,1990
1096.0565026979243,1909
1098.2275305430899,1959
1100.3979769621128,1867
1102.567842188722,1868
1104.737126456726,1899
1106.9058300000124,1889
1109.0739530525475,1916
1111.2414958483764,1901
1113.4084586216231,1888
1115.5748416064907,1926
1117.7406450372605,1926
1119.9058691482942,1926
1122.0705141740304,1948
1124.2345803489884,1950
1126.3980679077658,1892
1128.5609770850388,1928
1130.7233081155623,1915
1132.8850612341707,1922
1135.0462366757774,1855
1137.2068346753745,1961
1139.3668554680326,1979
1141.526299288901,1892
1143.68516637321,1862
1145.8434569562655,1911
1148.001171273455,1820
1150.158309560244,1859
1152.3148720521767,1867
1154.470858984876,1872
1156.626270594044,1910
1158.7811071154629,1839
1160.9353687849912,1895
1163.089055838569,1841
1165.242168512213,1809
1167.3947070420209,1849
1169.5466716641677,1804
1171.6980626149075,1839
1173.8488801305748,1785
1175.9991244475814,1802
1178.1487958024186,1782
1180.2978944316555,1884
1182.4464205719428,1844
1184.5943744600072,1790
1186.7417563326567,1801
1188.8885664267755,1807
1191.0348049793297,1733
1193.1804722273619,1834
1195.325568407995,1850
1197.4700937584303,1862
1199.614048515948,1806
1201.7574329179074,1849
1203.900247201746,1802
1206.042491604982,1894
1208.1841663652099,1816
1210.3252717201053,1879
1212.465807907422,1788
1214.6057751649923,1816
1216.7451737307279,1761
1218.8840038426192,1852
1221.0222657387353,1876
1223.1599596572241,1843
1225.2970858363137,1864
1227.4336445143094,1883
1229.5696359295966,1861
1231.705060320639,1838
1233.8399179259786,1875
1235.9742089842384,1905
1238.107933734118,1858
1240.2410924143974,1913
1242.373685263935,1890
1244.5057125216676,1890
1246.6371744266116,1822
1248.7680712178621,1895
1250.898403134593,1940
1253.028170416058,1882
1255.1573733015875,1816
1257.2860120305932,1862
1259.4140868425648,1811
1261.54159797707,1847
1263.6685456737569,1878
1265.7949301723515,1827
1267.9207517126597,1898
1270.046010534565,1895
1272.1707068780306,1936
1274.2948409830983,1918
1276.4184130898889,1893
1278.541423438603,1981
1280.6638722695184,1872
1282.785759822993,1942
1284.9070863394636,1887
1287.0278520594447,1901
1289.1480572235314,1985
1291.2677020723963,1898
1293.3867868467923,1941
1295.5053117875495,2013
1297.623277135579,1897
1299.740683131868,1917
1301.8575300174857,1944
1303.973818033578,2000
1306.0895474213703,1999
1308.2047184221678,1944
1310.3193312773528,1928
1312.4333862283888,2005
1314.5468835168163,2025
1316.659823384255,2008
1318.7722060724045,1930
1320.8840318230418,1934
1322.9953008780249,1932
1325.1060134792888,2010
1327.2161698688478,1948
1329.3257702887959,1984
1331.4348149813054,2042
1333.5433041886276,1999
1335.6512381530933,1928
1337.7586171171101,1946
1339.8654413231675,1937
1341.9717110138317,1902
1344.0774264317488,1997
1346.1825878196432,1973
1348.2871954203192,1951
1350.3912494766587,1946
1352.4947502316231,1936
1354.5976979282532,1949
1356.7000928096686,1971
1358.8019351190665,1938
1360.9032250997243,1915
1363.0039629949988,1981
1365.1041490483235,1878
1367.2037835032133,1926
1369.3028666032606,1967
1371.401398592137,2000
1373.4993797135926,2046
1375.5968102114575,1936
1377.6936903296396,1969
1379.7900203121262,1924
1381.8858004029835,1996
1383.9810308463561,1960
1386.075711886469,1914
1388.1698437676241,1998
1390.2634267342032,1939
1392.356461030667,1993
1394.4489469015557,1968
1396.5408845914872,2026
1398.6322743451592,1935
1400.7231164073469,2094
1402.813411022907,2031
1404.903158436773,2050
1406.9923588939578,2035
1409.0810126395531,2045
1411.1691199187303,2058
1413.2566809767386,2010
1415.343696058907,2031
1417.4301654106425,2134
1419.5160892774315,2161
1421.6014679048399,2038
1423.6863015385125,2070
1425.7705904241707,2117
1427.8543348076178,2089
1429.9375349347342,2072
1432.0201910514802,2104
1434.102303403894,2169
1436.1838722380944,2143
1438.2648978002767,2160
1440.3453803367174,2214
1442.4253200937692,2189
1444.5047173178677,2165
1446.5835722555234,2235
1448.6618851533285,2298
1450.739656257952,2259
1452.8168858161434,2321
1454.8935740747306,2333
1456.96972128062,2423
1459.045327680797,2356
1461.120393522327,2366
1463.1949190523528,2381
1465.2689045180973,2470
1467.3423501668608,2582
1469.415256246024,2574
1471.4876230030463,2534
1473.559450685465,2554
1475.6307395408976,2647
1477.7014898170391,2676
1479.771701761665,2788
1481.8413756226287,2790
1483.9105116478618,2747
1485.9791100853772,2777
1488.0471711832643,2837
1490.1146951896926,2942
1492.1816823529098,2886
1494.2481329212433,2949
1496.3140471430984,2945
1498.3794252669609,2967
1500.4442675413939,3001
1502.5085742150404,2974
1504.572345536622,3091
1506.6355817549388,3124
1508.6982831188702,3197
1510.7604498773744,3200
1512.8220822794883,3234
1514.8831805743293,3340
1516.9437450110909,3283
1519.003775839048,3377
1521.0632733075522,3388
1523.1222376660367,3461
1525.1806691640113,3610
1527.2385680510652,3490
1529.2959345768668,3538
1531.3527689911643,3725
1533.4090715437833,3736
1535.4648424846291,3810
1537.5200820636855,3907
1539.5747905310159,3859
1541.6289681367616,4007
1543.6826151311434,4068
1545.7357317644614,4156
1547.7883182870937,4207
1549.8403749494987,4243
1551.8919020022113,4352
1553.9428996958477,4418
1555.9933682811015,4540
1558.0433080087469,4591
1560.0927191296346,4660
1562.1416018946961,4658
1564.1899565549415,4722
1566.2377833614592,4726
1568.2850825654164,4606
1570.3318544180606,4520
1572.3780991707158,4421
1574.423817074788,4131
1576.4690083817595,4016
1578.5136733431923,3822
1580.5578122107272,3676
1582.601425236085,3382
1584.6445126710646,3295
1586.6870747675434,3066
1588.7291117774776,3064
1590.7706239529034,2911
1592.8116115459347,2795
1594.8520748087658,2653
1596.8920139936686,2637
1598.9314293529933,2528
1600.9703211391711,2536
1603.008689604711,2491
1605.0465350022005,2451
1607.0838575843068,2306
1609.1206576037753,2275
1611.1569353134305,2275
1613.1926909661765,2208
1615.2279248149953,2200
1617.2626371129481,2203
1619.2968281131757,2109
1621.3304980688963,2101
1623.3636472334088,2097
1625.39627586009,2059
1627.428384202396,2026
1629.459972513861,1999
1631.4910410480993,2036
1633.5215900588028,2070
1635.551619799744,2039
1637.5811305247717,1995
1639.6101224878166,1947
1641.6385959428862,1937
1643.6665511440683,2008
1645.693988345528,2032
1647.7209078015112,1958
1649.7473097663405,1928
1651.7731944944203,2012
1653.7985622402307,1881
1655.823413258333,2033
1657.847747803366,1902
1659.8715661300494,1941
1661.8948684931793,1861
1663.9176551476316,1929
1665.9399263483624,1930
1667.9616823504057,1871
1669.982923408873,1881
1672.0036497789574,1918
1674.0238617159293,1943
1676.043559475138,1906
1678.0627433120121,1871
1680.081413482059,1921
1682.0995702408654,1890
1684.117213844096,1858
1686.134344547495,1802
1688.1509626068864,1922
1690.1670682781705,1863
1692.182661817329,1841
1694.1977434804217,1921
1696.2123135235875,1901
1698.226372203043,1907
1700.2399197750851,1916
1702.2529564960905,1894
1704.2654826225112,1905
1706.277498410882,1913
1708.2890041178139,1770
1710.2999999999988,1857
1712.3104863142066,1849
1714.3204633172854,1874
1716.329931266163,1848
1718.3388904178469,1858
1720.3473410294214,1857
1722.3552833580516,1841
1724.3627176609807,1880
1726.3696441955308,1840
1728.3760632191033,1880
1730.3819749891782,1832
1732.3873797633146,1840
1734.3922777991502,1858
1736.3966693544012,1812
1738.4005546868639,1849
1740.4039340544127,1776
1742.406807715001,1833
1744.4091759266616,1785
1746.4110389475054,1786
1748.4123970357223,1770
1750.413250449582,1803
1752.4135994474318,1806
1754.4134442876993,1802
1756.4127852288902,1793
1758.4116225295893,1810
1760.4099564484595,1789
1762.407787244244,1778
1764.405115175764,1751
1766.4019405019203,1710
1768.3982634816916,1785
1770.3940843741357,1753
1772.3894034383907,1775
1774.3842209336717,1718
1776.378537119274,1695
1778.372352254571,1736
1780.3656665990156,1722
1782.3584804121397,1689
1784.3507939535534,1761
1786.3426074829463,1810
1788.3339212600863,1701
1790.3247355448211,1765
1792.3150505970766,1767
1794.3048666768573,1705
1796.2941840442477,1740
1798.2830029594106,1735
1800.2713236825884,1721
1802.2591464741004,1692
1804.2464715943465,1757
1806.2332993038058,1739
1808.2196298630352,1782
1810.2054635326708,1726
1812.190800573428,1813
1814.175641246101,1778
1816.1599858115628,1751
1818.1438345307652,1744
1820.127187664738,1764
1822.1100454745924,1694
1824.092408221516,1763
1826.0742761667766,1692
1828.055649571721,1687
1830.0365286977735,1720
1832.0169138064398,1743
1833.9968051593014,1749
1835.9762030180214,1769
1837.9551076443408,1759
1839.9335193000788,1705
1841.9114382471344,1683
1843.888864747485,1671
1845.8657990631878,1724
1847.842241456378,1798
1849.8181921892697,1691
1851.7936515241558,1652
1853.7686197234098,1697
1855.7430970494815,1744
1857.7170837649014,1691
1859.6905801322787,1704
1861.6635864143004,1656
1863.6361028737338,1695
1865.608129773424,1690
1867.5796673762961,1682
1869.5507159453537,1709
1871.521275743678,1789
1873.4913470344313,1736
1875.4609300808534,1709
1877.4300251462632,1683
1879.3986324940588,1660
1881.366752387717,1716
1883.3343850907936,1721
1885.3015308669228,1681
1887.268189979819,1738
1889.2343626932739,1729
1891.2000492711595,1692
1893.1652499774254,1725
1895.1299650761011,1683
1897.0941948312952,1729
1899.0579395071945,1707
1901.0211993680641,1722
1902.98397467825,1781
1904.9462657021745,1760
1906.9080727043415,1813
1908.869395949332,1657
1910.8302357018065,1715
1912.790592226504,1682
1914.7504657882428,1671
1916.7098566519212,1732
1918.6687650825133,1742
1920.6271913450764,1712
1922.5851357047422,1659
1924.5425984267245,1726
1926.499579776314,1779
1928.4560800188833,1672
1930.4120994198802,1701
1932.367638244833,1762
1934.32269675935,1745
1936.2772752291175,1801
1938.231373919899,1745
1940.1849930975404,1804
1942.1381330279637,1709
1944.0907939771696,1742
1946.0429762112412,1709
1947.9946799963363,1745
1949.9459055986945,1746
1951.896653284633,1776
1953.8469233205478,1723
1955.7967159729142,1632
1957.7460315082863,1635
1959.6948701932974,1713
1961.6432322946594,1723
1963.5911180791632,1709
1965.5385278136787,1768
1967.4854617651545,1721
1969.4319202006182,1733
1971.377903387176,1714
1973.3234115920136,1705
1975.268445082395,1692
1977.2130041256642,1662
1979.1570889892423,1740
1981.1006999406304,1731
1983.04383724741,1736
1984.986501177238,1749
1986.928691997853,1760
1988.8704099770712,1723
1990.811655382789,1717
1992.7524284829801,1735
1994.692729545698,1733
1996.6325588390755,1683
1998.5719166313224,1631
2000.5108031907307,1732
2002.4492187856677,1670
2004.387163684583,1727
2006.3246381560011,1689
2008.2616424685298,1744
2010.1981768908527,1675
2012.1342416917332,1709
2014.069837140014,1686
2016.0049635046162,1700
2017.9396210545406,1653
2019.8738100588666,1664
2021.8075307867502,1712
2023.740783507431,1720
2025.6735684902228,1711
2027.6058860045214,1701
2029.5377363198004,1707
2031.4691197056118,1670
2033.4000364315875,1644
2035.3304867674374,1720
2037.260470982952,1693
2039.189989347998,1717
2041.1190421325232,1746
2043.047629606554,1639
2044.9757520401945,1691
2046.9034097036288,1663
2048.8306028671195,1715
2050.7573318010086,1667
2052.683596775716,1640
2054.609398061742,1671
2056.5347359296647,1687
2058.4596106501403,1667
2060.384022493906,1657
2062.3079717317764,1727
2064.231458634646,1679
2066.1544834734873,1619
2068.077046519352,1626
2069.99914804337,1654
2071.9207883167524,1705
2073.8419676107865,1692
2075.7626861968406,1648
2077.6829443463607,1747
2079.6027423308715,1637
2081.522080421977,1654
2083.440958891362,1710
2085.359378010786,1695
2087.2773380520907,1702
2089.194839287196,1626
2091.111881988101,1673
2093.0284664268825,1692
2094.9445928756973,1656
2096.86026160678,1671
2098.775472892446,1646
2100.690227005088,1690
2102.604524217178,1658
2104.5183648012676,1678
2106.431749029985,1718
2108.34467717604,1711
2110.2571495122206,1679
2112.169166311393,1666
2114.080727846503,1626
2115.9918343905747,1668
2117.902486216711,1678
2119.8126835980956,1736
2121.722426807987,1670
2123.6317161197285,1686
2125.5405518067364,1687
2127.448934142509,1676
2129.356863400624,1684
2131.264339854737,1699
2133.1713637785815,1767
2135.077935445972,1687
2136.9840551308002,1648
2138.889723107037,1725
2140.7949396487334,1676
2142.699705030018,1713
2144.6040195250994,1727
2146.507883408264,1691
2148.4112969538774,1723
2150.3142604363848,1735
2152.2167741303097,1695
2154.1188383102535,1737
2156.0204532508997,1728
2157.9216192270064,1703
2159.822336513414,1737
2161.7226053850413,1692
2163.622426116884,1690
2165.5217989840185,1789
2167.4207242616,1762
2169.319202224862,1789
2171.2172331491165,1707
2173.1148173097563,1746
2175.0119549822507,1750
2176.90864644215,1739
2178.8048919650823,1713
2180.7006918267534,1732
2182.596046302952,1713
2184.4909556695407,1731
2186.3854202024645,1819
2188.279440177746,1710
2190.173015871487,1801
2192.066147559868,1754
2193.958835519149,1722
2195.851080025667,1797
2197.7428813558417,1792
2199.6342397861667,1799
2201.5251555932186,1747
2203.415629053651,1828
2205.3056604441986,1761
2207.19525004167,1844
2209.084398122958,1756
2210.9731049650327,1800
2212.861370844941,1813
2214.749196039812,1862
2216.636580826851,1843
2218.523525483344,1858
2220.410030286655,1825
2222.296095514226,1863
2224.1817214435805,1801
2226.066908352319,1822
2227.951656518121,1781
2229.835966218746,1792
2231.71983773203,1865
2233.6032713358913,1886
2235.486267308324,1876
2237.3688259274036,1808
2239.2509474712824,1825
2241.132632218193,1852
2243.013880446447,1820
2244.8946924344323,1873
2246.7750684606203,1791
2248.6550088035574,1838
2250.534513741871,1802
2252.413583554265,1825
2254.292218519526,1732
2256.170418916517,1851
2258.0481850241786,1694
2259.925517121534,1754
2261.8024154876825,1765
2263.678880401803,1853
2265.5549121431536,1848
2267.430510991071,1865
2269.305677224971,1777
2271.180411124348,1767
2273.0547129687766,1742
2274.9285830379076,1839
2276.8020216114737,1717
2278.6750289692845,1787
2280.5476053912294,1835
2282.4197511572766,1806
2284.2914665474727,1862
2286.162751841943,1857
2288.0336073208937,1873
2289.904033264608,1804
2291.774029953448,1849
2293.6435976678554,1866
2295.5127366883517,1777
2297.381447295534,1795
2299.2497297700825,1721
2301.1175843927526,1753
2302.9850114443825,1693
2304.852011205885,1625
2306.7185839582553,1685
2308.5847299825664,1601
2310.4504495599676,1594
2312.3157429716925,1606
2314.1806104990483,1612
2316.0450524234247,1585
2317.9090690262888,1616
2319.772660589186,1653
2321.635827393742,1641
2323.498569721661,1546
2325.3608878547248,1599
2327.2227820747967,1610
2329.0842526638157,1573
2330.945299903803,1534
2332.805924076857,1604
2334.6661254651535,1598
2336.525904350951,1582
2338.3852610165827,1622
2340.244195744464,1577
2342.102708817088,1584
2343.9608005170253,1520
2345.8184711269287,1600
2347.675720929526,1585
2349.532550207628,1628
2351.38895924412,1603
2353.24494832197,1598
2355.100517724223,1570
2356.955667734004,1552
2358.810398634514,1602
2360.664710709037,1660
2362.5186042409337,1648
2364.3720795136437,1609
2366.225136810686,1631
2368.0777764156583,1637
2369.929998612237,1620
2371.7818036841777,1561
2373.633191915315,1632
2375.484163589562,1602
2377.3347189909114,1633
2379.184858403434,1618
2381.03458211128,1679
2382.8838903986775,1655
2384.732783549936,1647
2386.5812618494406,1614
2388.4293255816588,1559
2390.2769750311327,1640
2392.1242104824883,1633
2393.971032220427,1648
2395.8174405297295,1620
2397.6634356952563,1672
2399.509018001947,1593
2401.3541877348193,1589
2403.1989451789705,1644
2405.043290619576,1546
2406.8872243418905,1622
2408.730746631247,1647
2410.5738577730594,1652
2412.4165580528183,1650
2414.258847756095,1684
2416.100727168537,1568
2417.9421965758734,1628
2419.783256263912,1623
2421.623906518538,1647
2423.4641476257157,1693
2425.303979871491,1609
2427.143403541984,1636
2428.9824189233977,1655
2430.821026302012,1667
2432.6592259641866,1622
2434.497018196361,1612
2436.33440328505,1664
2438.171381516851,1677
2440.00795317844,1685
2441.844118556569,1632
2443.6798779380724,1642
2445.5152316098606,1644
2447.3501798589255,1639
2449.1847229723357,1694
2451.0188612372403,1608
2452.8525949408663,1634
2454.6859243705203,1605
2456.518849813587,1669
2458.3513715575314,1648
2460.183489889895,1619
2462.015205098301,1602
2463.8465174704493,1590
2465.67742729412,1634
2467.5079348571717,1642
2469.338040447542,1683
2471.1677443532476,1652
2472.9970468623833,1586
2474.825948263123,1652
2476.6544488437207,1666
2478.482548892508,1656
2480.310248697896,1673
2482.137548548374,1688
2483.9644487325118,1590
2485.790949538956,1616
2487.617051256433,1690
2489.44275417375,1624
2491.26805857979,1626
2493.0929647635157,1666
2494.917473013971,1697
2496.741583620276,1673
2498.5652968716304,1712
2500.3886130573137,1722
2502.2115324666834,1671
2504.0340553891765,1711
2505.856182114308,1722
2507.6779129316733,1692
2509.499248130945,1701
2511.3201880018764,1661
2513.140732834298,1684
2514.9608829181198,1709
2516.780638543331,1712
2518.6,1760
2520.418967578273,1702
2522.237541568376,1756
2524.0557222606144,1675
2525.8735099453706,1741
2527.6909049131086,1704
2529.507907454368,1756
2531.32451785977,1830
2533.140736420014,1731
2534.9565634258774,1735
2536.771999168218,1770
2538.5870439379714,1787
2540.4016980261526,1831
2542.2159617238544,1747
2544.02983532225,1810
2545.8433191125914,1851
2547.656413386209,1812
2549.4691184345115,1818
2551.2814345489874,1870
2553.093362021204,1829
2554.904901142808,1882
2556.716052205523,1882
2558.526815501153,1864
2560.3371913215824,1893
2562.147179958771,1799
2563.956781704761,1884
2565.7659968516705,1893
2567.5748256916986,1888
2569.3832685171224,1925
2571.1913256202984,1882
2572.9989972936614,1887
2574.806283829725,1896
2576.613185521084,1904
2578.4197026604074,2016
2580.2258355404483,1956
2582.031584454035,1931
2583.836949694077,1961
2585.6419315535613,1990
2587.4465303255533,2002
2589.2507463032002,1990
2591.0545797797245,2084
2592.8580310484303,2058
2594.6611004026995,2066
2596.463788135992,2096
2598.266094541849,2048
2600.0680199138874,2009
2601.869564545807,2096
2603.670728731383,2030
2605.4715127644704,2047
2607.2719169390048,2054
2609.071941548998,2124
2610.8715868885433,2068
2612.670853251811,2082
2614.469740933052,2061
2616.268250226594,2058
2618.0663814268455,2061
2619.864134828292,2034
2621.6615107255006,2063
2623.458509413115,1980
2625.2551311858597,2054
2627.0513763385347,2037
2628.8472451660223,2000
2630.6427379632833,1994
2632.4378550253564,2097
2634.232596647359,2033
2636.026963124488,2038
2637.8209547520187,2009
2639.6145718253065,2007
2641.407814639785,2026
2643.200683490966,1944
2644.9931786744414,1933
2646.7853004858807,2006
2648.577049221034,1892
2650.3684251757277,1869
2652.1594286458712,1921
2653.9500599274484,1836
2655.740319316525,1916
2657.5302071092437,1824
2659.3197236018286,1835
2661.10886909058,1827
2662.8976438718782,1916
2664.686048242183,1896
2666.4740824980327,1803
2668.2617469360443,1779
2670.0490418529134,1861
2671.8359675454153,1805
2673.622524310403,1824
2675.408712444811,1721
2677.1945322456495,1744
2678.979984010009,1698
2680.76506803506,1770
2682.5497846180497,1756
2684.334134056306,1757
2686.1181166472343,1726
2687.9017326883213,1703
2689.6849824771293,1771
2691.4678663113013,1700
2693.2503844885596,1692
2695.032537306705,1712
2696.8143250636167,1674
2698.5957480572542,1671
2700.3768065856534,1665
2702.1575009469316,1699
2703.937831439283,1639
2705.717798360982,1639
2707.4974020103837,1633
2709.276642685917,1663
2711.055520686095,1647
2712.834036309506,1656
2714.612189854819,1725
2716.389981620782,1662
2718.1674119062204,1619
2719.944481010041,1619
2721.721189231226,1642
2723.4975368688415,1671
2725.273524222027,1684
2727.0491515900053,1614
2728.824419272075,1636
2730.5993275676146,1657
2732.3738767760838,1581
2734.148067197016,1612
2735.921899130031,1638
2737.6953728748194,1587
2739.468488731156,1604
2741.2412469988926,1634
2743.0136479779617,1645
2744.785691968372,1614
2746.5573792702116,1607
2748.3287101836504,1595
2750.099685008934,1640
2751.870304046388,1594
2753.640567596418,1670
2755.4104759595057,1602
2757.1800294362156,1601
2758.949228327187,1605
2760.7180729331412,1585
2762.486563554877,1661
2764.254700493272,1591
2766.022484049284,1623
2767.789914523947,1616
2769.5569922183786,1660
2771.3237174337705,1604
2773.090090471394,1550
2774.8561116326036,1578
2776.6217812188274,1599
2778.3870995315756,1623
2780.1520668724356,1636
2781.9166835430747,1551
2783.6809498452394,1591
2785.444866080754,1604
2787.2084325515225,1629
2788.971649559527,1559
2790.73451740683,1562
2792.4970363955713,1593
2794.2592068279705,1556
2796.0210290063264,1558
2797.7825032330147,1599
2799.543629810493,1548
2801.304409041296,1528
2803.0648412280366,1602
2804.8249266734088,1612
2806.5846656801846,1637
2808.344058551212,1590
2810.1031055894246,1590
2811.8618070978273,1579
2813.6201633795085,1568
2815.378174737636,1592
2817.1358414754536,1626
2818.893163896285,1640
2820.6501423035334,1620
2822.4067770006814,1588
2824.1630682912883,1620
2825.9190164789957,1555
2827.6746218675207,1524
2829.429884760661,1563
2831.184805462294,1617
2832.9393842763743,1642
2834.693621506936,1555
2836.4475174580916,1515
2838.201072434034,1627
2839.954286739034,1520
2841.707160677441,1553
2843.459694553685,1575
2845.2118886722724,1591
2846.96374333779,1626
2848.7152588549034,1594
2850.4664355283567,1617
2852.217273662973,1640
2853.9677735636546,1622
2855.7179355353833,1568
2857.4677598832186,1561
2859.217246912299,1605
2860.9663969278427,1619
2862.715210235146,1559
2864.4636871395846,1618
2866.211827946614,1549
2867.9596329617652,1588
2869.7071024906536,1614
2871.4542368389684,1603
2873.20103631248,1588
2874.947501217038,1564
2876.6936318585695,1576
2878.4394285430812,1482
2880.1848915766604,1592
2881.9300212654707,1599
2883.6748179157553,1580
2885.4192818338374,1547
2887.1634133261173,1624
2888.907212699077,1605
2890.6506802592744,1577
2892.393816313348,1650
2894.1366211680142,1626
2895.8790951300693,1636
2897.621238506388,1595
2899.363051603925,1597
2901.1045347297118,1602
2902.8456881908596,1581
2904.58651229456,1567
2906.327007348081,1606
2908.067173658772,1594
2909.8070115340597,1562
2911.5465212814497,1588
2913.285703208527,1636
2915.0245576229563,1571
2916.7630848324807,1560
2918.5012851449196,1661
2920.2391588681758,1590
2921.976706310227,1655
2923.7139277791334,1571
2925.4508235830313,1634
2927.187394030137,1607
2928.923639428745,1637
2930.6595600872306,1570
2932.395156314046,1557
2934.1304284177218,1619
2935.8653767068713,1553
2937.6000014901815,1583
2939.3343030764227,1567
2941.068281774442,1607
2942.8019378931644,1610
2944.5352717415976,1614
2946.2682836288236,1619
2948.0009738640065,1570
2949.7333427563885,1637
2951.465390615289,1525
2953.1971177501086,1530
2954.9285244703265,1618
2956.6596110855,1654
2958.3903779052657,1608
2960.1208252393385,1596
2961.8509533975125,1561
2963.5807626896617,1594
2965.3102534257378,1524
2967.0394259157715,1539
2968.768280469873,1602
2970.496817398232,1615
2972.2250370111146,1625
2973.952939618869,1592
2975.6805255319196,1604
2977.4077950607707,1601
2979.134748516006,1621
2980.861386208289,1603
2982.587708448359,1638
2984.313715547037,1636
2986.039407815222,1570
2987.764785563891,1623
2989.489849104102,1612
2991.2145987469908,1625
2992.9390348037705,1543
2994.6631575857346,1582
2996.3869674042576,1501
2998.1104645707887,1591
2999.83364939686,1519
3001.5565221940783,1548
3003.2790832741334,1599
3005.0013329487924,1578
3006.7232715298996,1609
3008.4448993293804,1547
3010.166216659239,1531
3011.887223831558,1520
3013.607921158498,1641
3015.3283089522993,1574
3017.0483875252826,1585
3018.7681571898443,1602
3020.4876182584626,1602
3022.2067710436927,1540
3023.9256158581707,1593
3025.644153014609,1634
3027.362382825801,1653
3029.0803056046193,1581
3030.797921664012,1610
3032.5152313170106,1535
3034.2322348767225,1598
3035.9489326563353,1582
3037.665324969115,1574
3039.3814121284063,1582
3041.097194447633,1581
3042.812672240299,1562
3044.5278458199855,1612
3046.2427155003525,1596
3047.9572815951406,1592
3049.671544418167,1574
3051.38550428333,1617
3053.0991615046073,1583
3054.812516396051,1580
3056.5255692717974,1640
3058.2383204460575,1605
3059.9507702331257,1599
3061.662918947372,1597
3063.3747669032446,1621
3065.0863144152736,1585
3066.7975617980674,1609
3068.508509366309,1611
3070.219157434767,1581
3071.9295063182844,1604
3073.639556331785,1655
3075.3493077902704,1595
3077.058761008821,1570
3078.7679163025964,1622
3080.476773986837,1590
3082.1853343768594,1592
3083.89359778806,1639
3085.6015645359153,1612
3087.3092349359786,1627
3089.016609303884,1613
3090.7236879553434,1603
3092.4304712061476,1589
3094.136959372166,1590
3095.843152769349,1584
3097.5490517137237,1554
3099.2546565213966,1593
3100.959967508554,1627
3102.66498499146,1631
3104.3697092864577,1576
3106.0741407099695,1581
3107.778279578498,1615
3109.482126208622,1601
3111.1856809170004,1607
3112.8889440203716,1611
3114.5919158355528,1698
3116.294596679439,1693
3117.996986869006,1641
3119.6990867213062,1591
3121.4008965534726,1603
3123.102416682717,1647
3124.803647426329,1607
3126.5045891016784,1619
3128.205242026213,1603
3129.90560651746,1660
3131.605682893025,1566
3133.3054714705922,1621
3135.0049725679282,1626
3136.7041865028714,1598
3138.4031135933465,1644
3140.101754157353,1602
3141.800108512971,1534
3143.498176978357,1628
3145.1959598717494,1589
3146.8934575114636,1631
3148.5906702158954,1586
3150.2875983035183,1605
3151.9842420928853,1596
3153.680601902627,1626
3155.376678051456,1581
3157.07247085816,1571
3158.767980641609,1617
3160.463207720748,1603
3162.158152414606,1590
3163.8528150422862,1578
3165.5471959229726,1576
3167.2412953759303,1608
3168.9351137204976,1597
3170.628651276098,1589
3172.3219083622307,1627
3174.014885298474,1602
3175.707582404485,1605
3177.4000000000005,1659
3179.092138404835,1625
3180.7839979388846,1631
3182.47557892212,1603
3184.166881674594,1541
3185.8579065164386,1596
3187.5486537678626,1606
3189.2391237491547,1562
3190.9293167806827,1581
3192.6192331828934,1573
3194.3088732763117,1538
3195.998237381542,1648
3197.687325819268,1602
3199.376138910251,1617
3201.064676975334,1591
3202.7529403354347,1548
3204.4409293115523,1565
3206.1286442247647,1583
3207.816085396229,1565
3209.5032531471825,1524
3211.190147798936,1546
3212.8767696728846,1617
3214.5631190905015,1562
3216.2491963733373,1598
3217.9350018430214,1570
3219.6205358212637,1547
3221.305798629851,1483
3222.990790590651,1553
3224.6755120256103,1521
3226.359963256751,1572
3228.0441446061795,1589
3229.7280563960758,1545
3231.411698948703,1484
3233.0950725863995,1604
3234.778177631587,1542
3236.461014406761,1563
3238.1435832345005,1614
3239.8258844374595,1537
3241.507918338374,1545
3243.1896852600576,1570
3244.8711855254023,1560
3246.552419457381,1595
3248.233387379042,1587
3249.914089613516,1542
3251.59452648401,1547
3253.274698313813,1507
3254.95460542629,1557
3256.6342481448855,1516
3258.313626793125,1505
3259.9927416946084,1560
3261.6715931730196,1470
3263.3501815521176,1522
3265.0285071557437,1517
3266.706570307815,1539
3268.3843713323286,1537
3270.0619105533615,1577
3271.739188295068,1577
3273.4162048816834,1567
3275.0929606375184,1574
3276.769455886966,1549
3278.445690954498,1614
3280.1216661646613,1573
3281.797381842087,1604
3283.4728383114807,1617
3285.1480358976296,1671
3286.8229749253996,1612
3288.4976557197333,1491
3290.172078605655,1526
3291.846243908266,1571
3293.5201519527463,1473
3295.193803064357,1504
3296.8671975684374,1561
3298.5403357904024,1548
3300.21321805575,1589
3301.8858446900567,1537
3303.558216018975,1500
3305.23033236824,1514
3306.9021940636603,1519
3308.57380143113,1503
3310.2451547966184,1565
3311.916254486174,1529
3313.5871008259246,1605
3315.2576941420766,1573
3316.9280347609147,1504
3318.5981230088046,1555
3320.2679592121895,1534
3321.9375436975924,1557
3323.606876791612,1537
3325.27595882093,1520
3326.944790112305,1522
3328.6133709925753,1572
3330.2817017886573,1582
3331.949782827547,1549
3333.617614436319,1522
3335.2851969421245,1522
3336.952530672199,1568
3338.619615953853,1519
3340.286453114475,1513
3341.9530424815357,1532
3343.619384382583,1568
3345.2854791452437,1544
3346.951327097224,1546
3348.6169285663073,1551
3350.2822838803577,1559
3351.947393367319,1571
3353.61225735521,1542
3355.2768761721345,1613
3356.9412501462693,1623
3358.605379605873,1560
3360.2692648792827,1556
3361.9329062949146,1537
3363.596304181263,1566
