CollectionTime,7/11/2024 12:35:02 PM
ExposureUsed,3
CalibratedSpectrum
-962.7078968117929,532
-959.9714848408522,560
-957.2358232597828,561
-954.5009119013725,555
-951.7667505983302,544
-949.0333391832855,594
-946.3006774887896,597
-943.5687653473143,595
-940.837602591253,559
-938.1071890529199,565
-935.3775245645503,559
-932.6486089583007,590
-929.9204420662485,615
-927.1930237203925,603
-924.4663537526524,574
-921.7404319948689,584
-919.0152582788041,568
-916.2908324361409,630
-913.5671542984834,581
-910.8442236973568,572
-908.1220404642074,577
-905.4006044304027,569
-902.679915427231,605
-899.959973285902,574
-897.2407778375464,582
-894.5223289132158,549
-891.8046263438832,521
-889.0876699604426,550
-886.3714595937089,562
-883.6559950744183,564
-880.9412762332282,540
-878.2273029007168,512
-875.5140749073835,540
-872.8015920836489,551
-870.0898542598545,537
-867.3788612662631,551
-864.6686129330585,552
-861.9591090903457,544
-859.2503495681506,569
-856.5423341964203,576
-853.8350628050229,572
-851.1285352237478,516
-848.4227512823054,552
-845.7177108103272,563
-843.0134136373656,550
-840.3098595928943,560
-837.6070485063082,598
-834.9049802069229,595
-832.2036545239757,545
-829.5030712866244,547
-826.8032303239481,572
-824.1041314649472,571
-821.4057745385428,566
-818.7081593735775,545
-816.0112857988148,572
-813.3151536429393,578
-810.6197627345566,546
-807.9251129021936,526
-805.2312039742981,569
-802.5380357792392,559
-799.8456081453069,558
-797.1539209007124,558
-794.462973873588,547
-791.772766891987,566
-789.083299783884,583
-786.3945723771743,566
-783.7065844996748,559
-781.0193359791231,572
-778.3328266431781,558
-775.6470563194197,597
-772.9620248353489,558
-770.2777320183878,572
-767.5941776958798,563
-764.9113616950891,574
-762.2292838432011,620
-759.5479439673222,586
-756.8673418944801,562
-754.1874774516235,603
-751.5083504656222,560
-748.8299607632671,580
-746.15230817127,636
-743.475392516264,604
-740.7992136248035,617
-738.1237713233636,603
-735.4490654383407,586
-732.7750957960521,583
-730.1018622227365,598
-727.4293645445534,627
-724.7576025875837,578
-722.0865761778291,577
-719.4162851412126,616
-716.7467293035781,658
-714.0779084906909,624
-711.409822528237,629
-708.7424712418238,634
-706.0758544569796,600
-703.4099719991541,646
-700.7448236937178,643
-698.0804093659622,633
-695.4167288411002,609
-692.7537819442656,607
-690.0915685005134,611
-687.4300883348199,603
-684.7693412720819,631
-682.1093271371178,649
-679.4500457546669,629
-676.7914969493897,612
-674.1336805458676,633
-671.4765963686034,629
-668.8202442420206,638
-666.1646239904642,615
-663.5097354382001,685
-660.8555784094151,609
-658.2021527282176,645
-655.5494582186366,634
-652.8974947046223,665
-650.2462620100463,640
-647.5957599587009,649
-644.9459883742998,675
-642.2969470804776,675
-639.6486359007902,657
-637.0010546587141,676
-634.3542031776476,673
-631.7080812809096,671
-629.0626887917401,662
-626.4180255333008,660
-623.7740913286734,696
-621.1308860008619,679
-618.4884093727904,690
-615.8466612673046,676
-613.2056415071715,643
-610.5653499150785,653
-607.9257863136347,667
-605.28695052537,677
-602.6488423727357,690
-600.0114616781036,674
-597.3748082637674,670
-594.7388819519412,643
-592.1036825647604,700
-589.4692099242818,807
-586.8354638524829,751
-584.2024441712624,690
-581.5701507024403,700
-578.9385832677575,698
-576.3077416888759,737
-573.6776257873787,729
-571.0482353847704,692
-568.4195703024757,725
-565.7916303618415,700
-563.164415384135,727
-560.5379251905453,681
-557.9121596021815,713
-555.2871184400748,667
-552.6628015251767,692
-550.0392086783606,732
-547.4163397204204,674
-544.794194472071,700
-542.1727727539491,716
-539.5520743866118,753
-536.9320991905377,755
-534.3128469861261,773
-531.6943175936979,794
-529.0765108334947,822
-526.4594265256793,888
-523.8430644903358,969
-521.2274245474689,1062
-518.612506517005,1085
-515.9983102187913,1119
-513.3848354725959,1106
-510.77208209810846,1111
-508.16004991493924,1198
-505.5487387426199,1315
-502.9381484006032,1464
-500.3282787082628,1615
-497.71912948489364,1616
-495.1107005497117,1541
-492.5029917218539,1426
-489.8960028203786,1275
-487.28973366426493,1154
-484.68418407241325,1078
-482.07935386364494,984
-479.47524285670266,986
-476.87185087025,925
-474.2691777228715,958
-471.66722323307334,929
-469.0659872192821,896
-466.4654694998459,856
-463.86566989303384,876
-461.26658821703614,911
-458.66822428996414,897
-456.07057792985,892
-453.4736489546475,907
-450.877437182231,856
-448.28194243039627,878
-445.68716451686,906
-443.09310325926003,891
-440.49975847515555,866
-437.9071299820263,886
-435.31521759727354,886
-432.72402113821954,917
-430.13354042210767,935
-427.5437752661022,910
-424.95472548728867,885
-422.36639090267386,913
-419.7787713291855,978
-417.1918665836721,1005
-414.60567648290385,1035
-412.0202008435715,963
-409.4354394822874,925
-406.8513922155845,952
-404.26805885991723,978
-401.685439231661,938
-399.103533147112,947
-396.522340422488,942
-393.9418608739278,951
-391.3620943174908,971
-388.7830405691583,898
-386.2046994448317,860
-383.6270707603344,820
-381.05015433141045,805
-378.473949973725,742
-375.8984575028645,695
-373.32367673433623,684
-370.74960748356875,644
-368.1762495659117,661
-365.60360279663576,627
-363.03166699093265,565
-360.4604419639154,537
-357.8899275306178,508
-355.32012350599507,496
-352.7510297049233,489
-350.1826459421999,487
-347.61497203254316,469
-345.04800779059235,491
-342.4817530309082,538
-339.91620756797226,491
-337.35137121618743,506
-334.7872437898774,542
-332.22382510328725,557
-329.66111497058273,506
-327.09911320585127,450
-324.53781962310075,484
-321.9772340362607,506
-319.4173562591816,446
-316.8581861056348,461
-314.2997233893127,461
-311.7419679238294,486
-309.1849195227194,488
-306.62857799943856,513
-304.0729431673641,544
-301.51801483979375,550
-298.963792829947,555
-296.41027695096386,570
-293.85746701590574,541
-291.3053628377552,557
-288.7539642294155,600
-286.2032710037115,547
-283.65328297338897,598
-281.1039999511146,599
-278.5554217494762,640
-276.007548180983,549
-273.4603790580651,520
-270.9139141930734,585
-268.3681533982807,570
-265.8230964858798,546
-263.27874326798565,569
-260.7350935566336,563
-258.1921471637804,609
-255.6499039013039,578
-253.10836358100266,560
-250.56752601459698,571
-248.02739101372765,653
-245.48795838995704,642
-242.94922795476816,640
-240.41119951956557,645
-237.8738728956746,671
-235.33724789434166,670
-232.80132432673452,647
-230.2661020039418,671
-227.73158073697357,641
-225.19776033676033,685
-222.66464061415422,725
-220.1322213799284,712
-217.60050244477725,631
-215.06948361931552,607
-212.53916471408013,663
-210.00954553952818,649
-207.48062590603843,656
-204.9524056239104,675
-202.4248845033651,747
-199.8980623545441,764
-197.37193898751036,810
-194.84651421224817,789
-192.32178783866232,771
-189.79775967657952,773
-187.27442953574644,853
-184.7517972258321,924
-182.2298625564256,906
-179.7086253370378,880
-177.18808537710026,846
-174.66824248596583,791
-172.14909647290835,778
-169.6306471471229,823
-167.11289431772548,850
-164.59583779375328,875
-162.07947738416453,836
-159.5638128978386,845
-157.04884414357605,881
-154.53457093009854,953
-152.02099306604828,934
-149.50811035998936,841
-146.99592262040665,807
-144.48442965570587,826
-141.97363127421409,837
-139.46352728417958,862
-136.95411749377126,911
-134.44540171107985,916
-131.93737974411636,915
-129.43005140081357,984
-126.92341648902493,1162
-124.41747481652521,1284
-121.91222619101006,1334
-119.40767042009657,1523
-116.90380731132257,1763
-114.40063667214702,2161
-111.8981583099503,2388
-109.3963720320337,2028
-106.89527764561933,1704
-104.39487495785067,1738
-101.89516377579241,2096
-99.39614390642998,2973
-96.89781515667039,2988
-94.40017733334128,2677
-91.90323024319173,2901
-89.40697369289148,4799
-86.91140748903172,7502
-84.41653143812482,8638
-81.92234534660395,7934
-79.42884902082358,5860
-76.93604226705907,7080
-74.4439248915071,14144
-71.95249670028534,24033
-69.46175749943245,30702
-66.97170709490854,32266
-64.48234529259423,30442
-61.99367189829195,24515
-59.50568671772464,16702
-57.01838955653636,12161
-54.53178022029283,12696
-52.045858514480074,13484
-49.560624244506016,13994
-47.07607721569923,15979
-44.59221723330904,16782
-42.10904410250669,16734
-39.62655762838392,15496
-37.14475761595372,14217
-34.66364387015028,14347
-32.18321619582866,12533
-29.70347439776515,11232
-27.224418280657005,10743
-24.74604764912317,10373
-22.26836230770266,13576
-19.7913620608565,25116
-17.315046712966478,45180
-14.83941606833514,61442
-12.36446993118659,65037
-9.89020810566592,65037
-7.416630395839093,65037
-4.94373660569363,65037
-2.471526539137585,65037
-6.821210263296962E-13,65037
2.47084320796705,65037
4.941003281093458,65037
7.410480415786196,65037
9.879274808531363,65037
12.347386655893956,65037
14.814816154518212,65037
17.28156350112681,65037
19.74762889252179,65037
22.21301252558385,21424
24.67771459727237,4276
27.141735304626195,3340
29.605074844762612,2945
32.06773341487792,2665
34.52971121224755,2975
36.99100843422559,3156
39.45162527824516,2594
41.91156194181792,2079
44.370818622535126,2037
46.82939551806646,1595
49.287292826160524,1530
51.74451074464503,2079
54.201049471426245,2397
56.65690920448981,2001
59.112090141899785,1566
61.56659248179983,1361
64.02041642241159,1306
66.4735621620365,1295
68.92602989905402,1151
71.37781983192338,1247
73.82893215918205,1359
76.27936707944684,1466
78.72912479141326,1318
81.17820549385567,1376
83.62660938562783,1661
86.07433666566146,1451
88.5213875329681,1043
90.96776218663751,1043
93.41346082583925,1088
95.85848364982041,1248
98.30283085790859,1351
100.7465026495089,1253
103.18949922410604,1254
105.63182078126385,1226
108.07346752062438,1226
110.51443964190923,935
112.95473734491827,872
115.39436082953114,970
117.83331029570547,923
120.27158594347827,1004
122.7091879729652,1098
125.1461165843615,1119
127.58237197794062,967
130.01795435405518,885
132.4528639131364,1035
134.88710085569494,1050
137.32066538231982,904
139.75355769367923,829
142.1857779905207,907
144.61732647366978,929
147.04820334403132,832
149.47840880258934,903
151.90794305040674,1016
154.33680628862487,1143
156.76499871846443,1310
159.19252054122433,1367
161.61937195828352,1478
164.04555317109896,1637
166.47106438120693,1863
168.89590579022217,1962
171.320077599839,2154
173.7435800118302,2351
176.16641322804742,2449
178.58857745042144,2524
181.01007288096173,2822
183.43089972175687,2733
185.85105817497413,2603
188.27054844285988,2488
190.6893707277394,2699
193.10752523201643,2649
195.5250121581745,2707
197.9418317087751,2768
200.3579840864594,2750
202.7734694939469,2741
205.18828813403627,2706
207.6024402096051,2869
210.01592592360964,2861
212.42874547908548,2856
214.84089907914665,2838
217.2523869269868,2823
219.66320922587727,2645
222.0733661791695,2642
224.48285799029293,2621
226.8916848627572,2586
229.29984700014882,2707
231.7073446061355,2706
234.11417788446204,2701
236.520347038953,2709
238.92585227351185,2736
241.33069379212054,2877
243.73487179884035,2889
246.1383864978112,2897
248.541238093252,2848
250.9434267894609,2792
253.34495279081432,2837
255.74581630176783,2893
258.1460175268563,2888
260.54555667069314,2720
262.9444339379703,2745
265.3426495334594,2759
267.7402036620107,2810
270.1370965285529,2808
272.53332833809407,2709
274.9288992957214,2638
277.32380960660055,2676
279.718059475976,2558
282.1116491091717,2592
284.5045787115897,2491
286.89684848871195,2548
289.2884586460981,2606
291.67940938938807,2558
294.0697009242996,2620
296.4593334566299,2519
298.84830719225477,2515
301.23662233712923,2564
303.6242790972866,2546
306.01127767884,2491
308.39761828798066,2334
310.78330113097934,2369
313.16832641418534,2352
315.5526943440269,2308
317.9364051270112,2289
320.3194589697242,2328
322.70185607883093,2378
325.0835966610754,2303
327.4646809232805,2266
329.8451090723478,2267
332.2248813152577,2212
334.6039978590701,2283
336.9824589109231,2284
339.36026467803447,2148
341.7374153677,2232
344.113911187295,2237
346.48975234427337,2206
348.8649390461686,2175
351.2394715005918,2106
353.61334991523415,2158
355.9865744978655,2094
358.35914545633375,2100
360.73106299856715,2147
363.10232733257146,2161
365.47293866643247,2140
367.84289720831396,2046
370.2122031664593,2086
372.5808567491905,2104
374.9488581649083,2009
377.31620762209275,1969
379.6829053293021,2057
382.0489514951745,2023
384.4143463284262,1968
386.7790900378528,1986
389.14318283232853,2011
391.50662492080653,2030
393.86941651231916,2078
396.23155781597745,1990
398.5930490409713,2003
400.9538903965696,2042
403.3140820921202,2056
405.6736243370498,2020
408.03251734086336,2029
410.3907613131465,1986
412.74835646356166,1888
415.10530300185144,2028
417.4616011378372,1945
419.81725108141893,1907
422.1722530425758,1977
424.5266072313656,1970
426.880313857925,1975
429.2333731324701,2008
431.58578526529516,1946
433.9375504667738,1941
436.2886689473588,1954
438.63914091758113,1889
440.9889665880513,1888
443.33814616945835,1838
445.68667987257015,1817
448.03456790823395,1958
450.3818104873759,1919
452.72840782100013,1894
455.07436012019105,1909
457.41966759611057,1898
459.7643304600007,1969
462.10834892318155,1951
464.4517231970525,1911
466.79445349309174,1819
469.1365400228566,1904
471.4779829979826,1895
473.81878263018564,1854
476.15893913125876,1977
478.4984527130747,2045
480.8373235875855,2058
483.17555196682144,2007
485.5131380628919,2084
487.8500820879857,2149
490.1863842543697,2280
492.52204477439034,2494
494.8570638604725,2712
497.1914417251204,2962
499.52517858091653,3261
501.85827464052306,3361
504.19073011668036,3404
506.5225452222086,3264
508.85372017000566,3185
511.18425517304956,3054
513.514150444396,3134
515.8434061971808,3634
518.1720226446176,4317
520.4999999999999,4488
522.8273384766991,4258
525.1540382881666,3896
527.480099647932,3581
529.8055227696037,3032
532.1303078668694,2513
534.454455153496,2263
536.777964843328,2052
539.1008371502907,1966
541.4230722883866,1978
543.744670471698,1900
546.0656319143858,1926
548.3859568306899,1904
550.7056454349294,1889
553.0246979415016,1820
555.3431145648834,1886
557.6608955196306,1872
559.978041020377,1901
562.2945512818363,1878
564.6104265188006,1834
566.9256669461412,1875
569.2402727788082,1872
571.5542442318302,1875
573.8675815203156,1827
576.1802848594508,1897
578.4923544645015,1902
580.8037905508126,1861
583.114593333807,1952
585.4247630289875,1851
587.7342998519354,1841
590.0432040183106,1832
592.3514757438526,1941
594.6591152443794,1963
596.9661227357875,1897
599.2724984340531,1984
601.578242555231,1848
603.8833553154542,1924
606.1878369309362,1906
608.4916876179676,1894
610.7949075929192,1860
613.0974970722403,1787
615.3994562724587,1915
617.7007854101818,1917
620.0014847020951,1923
622.3015543649641,1993
624.6009946156324,2001
626.8998056710224,1983
629.1979877481361,1930
631.4955410640538,1927
633.7924658359349,1918
636.0887622810175,1901
638.3844306166192,1992
640.6794710601358,1956
642.9738838290426,2019
645.2676691408932,2021
647.5608272133207,1961
649.853358264037,2040
652.1452625108324,2005
654.4365401715764,1972
656.7271914642178,1969
659.0172166067838,2041
661.3066158173809,1970
663.5953893141935,1943
665.8835373154867,1986
668.1710600396028,1993
670.4579577049639,1992
672.7442305300709,2022
675.0298787335033,1920
677.3149025339197,1936
679.599302150058,1964
681.8830778007342,1926
684.1662297048437,1934
686.4487580813608,1925
688.7306631493387,1999
691.0119451279091,1957
693.2926042362834,2003
695.5726406937516,2026
697.8520547196814,2019
700.1308465335215,1996
702.4090163547982,1940
704.6865644031171,1993
706.9634908981619,1955
709.2397960596965,1935
711.5154801075631,1994
713.7905432616823,1920
716.0649857420548,1942
718.3388077687592,1950
720.612009561953,1912
722.8845913418733,2036
725.1565533288352,2013
727.427895743234,1936
729.6986188055427,1987
731.9687227363137,1988
734.238207756178,1991
736.5070740858458,1977
738.7753219461066,1955
741.0429515578281,1971
743.3099631419569,1979
745.5763569195191,1963
747.8421331116193,1946
750.1072919394409,1983
752.3718336242467,1952
754.6357583873777,2096
756.8990664502545,2053
759.1617580343765,1998
761.423833361321,1928
763.6852926527457,2007
765.9461361303862,1972
768.206364016058,1999
770.4659765316536,1896
772.7249738991469,1988
774.9833563405886,2074
777.2411240781092,2020
779.4982773339183,2005
781.7548163303044,2050
784.010741289634,2036
786.2660524343538,2037
788.5207499869881,2020
790.7748341701416,2064
793.0283052064964,2099
795.2811633188143,2036
797.5334087299362,2048
799.7850416627813,2079
802.0360623403484,2109
804.2864709857143,2063
806.5362678220353,1970
808.7854530725468,2017
811.0340269605625,2071
813.2819897094754,1952
815.5293415427581,2038
817.77608268396,1967
820.0222133567116,2036
822.2677337847211,1973
824.5126441917765,2030
826.7569448017433,1995
829.0006358385675,2090
831.2437175262731,2061
833.4861900889629,2017
835.7280537508192,1999
837.9693087361026,2016
840.2099552691533,2097
842.4499935743896,2045
844.689423876309,2074
846.9282463994886,2070
849.1664613685833,1984
851.4040690083276,2078
853.6410695435349,2035
855.877463199097,2045
858.1132501999847,2065
860.3484307712487,2098
862.5830051380175,1994
864.8169735254988,1992
867.0503361589791,1982
869.2830932638243,2044
871.5152450654786,1992
873.7467917894654,2074
875.9777336613873,2016
878.2080709069252,2137
880.4378037518389,2128
882.666932421968,2094
884.8954571432301,2138
887.1233781416219,2076
889.3506956432192,2105
891.5774098741766,2119
893.803521060728,2101
896.0290294291852,2173
898.2539352059397,2069
900.4782386174619,2128
902.7019398903011,2053
904.925039251085,2138
907.147536926521,2108
909.3694331433943,2085
911.59072812857,2064
913.8114221089921,2013
916.0315153116827,1996
918.2510079637437,1999
920.4699002923547,2017
922.6881925247761,1995
924.905884888345,2015
927.1229776104793,2031
929.3394709186747,1961
931.555365040506,2048
933.7706602036275,1979
935.9853566357709,1942
938.1994545647489,1965
940.4129542184515,1990
942.6258558248488,1987
944.8381596119883,1989
947.0498658079974,1929
949.2609746410825,1896
951.4714863395287,1921
953.6814011316998,1937
955.8907192460387,1926
958.0994409110671,1882
960.3075663553858,1884
962.5150958076741,1907
964.7220294966913,1977
966.928367651274,1971
969.1341105003388,1989
971.3392582728806,1915
973.5438111979742,1873
975.747769504772,1870
977.9511334225061,1874
980.153903180487,1854
982.3560790081052,1849
984.5576611348289,1874
986.7586497902058,1833
988.9590452038618,1878
991.158847605503,1794
993.3580572249133,1852
995.5566742919558,1795
997.7546990365728,1842
999.952131688785,1745
1002.1489724786926,1748
1004.3452216364743,1725
1006.5408793923874,1692
1008.7359459767691,1672
1010.9304216200343,1721
1013.1243065526781,1702
1015.3176010052733,1717
1017.510305208472,1633
1019.7024193930064,1568
1021.8939437896848,1714
1024.0848786293977,1585
1026.2752241431122,1629
1028.4649805618747,1666
1030.6541481168115,1655
1032.842727039127,1557
1035.0307175601051,1598
1037.2181199111074,1568
1039.4049343235752,1597
1041.591161029029,1560
1043.7768002590683,1564
1045.9618522453698,1598
1048.1463172196918,1664
1050.3301954138697,1591
1052.513487059818,1555
1054.69619238953,1590
1056.8783116350783,1581
1059.0598450286152,1599
1061.2407928023704,1611
1063.4211551886528,1542
1065.6009324198508,1605
1067.780124728432,1537
1069.9587323469414,1593
1072.1367555080046,1575
1074.314194444325,1586
1076.4910493886855,1590
1078.667320573947,1614
1080.843008233051,1564
1083.0181125990161,1549
1085.1926339049414,1564
1087.3665723840027,1509
1089.5399282694575,1552
1091.7127017946405,1510
1093.8848931929647,1529
1096.0565026979243,1466
1098.2275305430899,1536
1100.3979769621128,1515
1102.567842188722,1501
1104.737126456726,1487
1106.9058300000124,1507
1109.0739530525475,1566
1111.2414958483764,1503
1113.4084586216231,1491
1115.5748416064907,1524
1117.7406450372605,1503
1119.9058691482942,1442
1122.0705141740304,1466
1124.2345803489884,1480
1126.3980679077658,1534
1128.5609770850388,1492
1130.7233081155623,1470
1132.8850612341707,1513
1135.0462366757774,1427
1137.2068346753745,1551
1139.3668554680326,1457
1141.526299288901,1505
1143.68516637321,1490
1145.8434569562655,1493
1148.001171273455,1413
1150.158309560244,1502
1152.3148720521767,1499
1154.470858984876,1431
1156.626270594044,1480
1158.7811071154629,1487
1160.9353687849912,1471
1163.089055838569,1533
1165.242168512213,1399
1167.3947070420209,1419
1169.5466716641677,1428
1171.6980626149075,1409
1173.8488801305748,1387
1175.9991244475814,1428
1178.1487958024186,1494
1180.2978944316555,1392
1182.4464205719428,1399
1184.5943744600072,1473
1186.7417563326567,1451
1188.8885664267755,1478
1191.0348049793297,1432
1193.1804722273619,1425
1195.325568407995,1497
1197.4700937584303,1478
1199.614048515948,1477
1201.7574329179074,1444
1203.900247201746,1431
1206.042491604982,1460
1208.1841663652099,1487
1210.3252717201053,1443
1212.465807907422,1385
1214.6057751649923,1418
1216.7451737307279,1458
1218.8840038426192,1459
1221.0222657387353,1467
1223.1599596572241,1489
1225.2970858363137,1473
1227.4336445143094,1492
1229.5696359295966,1462
1231.705060320639,1406
1233.8399179259786,1480
1235.9742089842384,1495
1238.107933734118,1463
1240.2410924143974,1491
1242.373685263935,1470
1244.5057125216676,1523
1246.6371744266116,1489
1248.7680712178621,1495
1250.898403134593,1382
1253.028170416058,1513
1255.1573733015875,1387
1257.2860120305932,1451
1259.4140868425648,1433
1261.54159797707,1501
1263.6685456737569,1540
1265.7949301723515,1595
1267.9207517126597,1485
1270.046010534565,1517
1272.1707068780306,1511
1274.2948409830983,1501
1276.4184130898889,1506
1278.541423438603,1473
1280.6638722695184,1456
1282.785759822993,1478
1284.9070863394636,1439
1287.0278520594447,1543
1289.1480572235314,1593
1291.2677020723963,1559
1293.3867868467923,1545
1295.5053117875495,1569
1297.623277135579,1549
1299.740683131868,1570
1301.8575300174857,1597
1303.973818033578,1626
1306.0895474213703,1555
1308.2047184221678,1609
1310.3193312773528,1580
1312.4333862283888,1589
1314.5468835168163,1545
1316.659823384255,1588
1318.7722060724045,1561
1320.8840318230418,1521
1322.9953008780249,1549
1325.1060134792888,1544
1327.2161698688478,1606
1329.3257702887959,1588
1331.4348149813054,1568
1333.5433041886276,1572
1335.6512381530933,1594
1337.7586171171101,1594
1339.8654413231675,1602
1341.9717110138317,1592
1344.0774264317488,1579
1346.1825878196432,1613
1348.2871954203192,1593
1350.3912494766587,1630
1352.4947502316231,1587
1354.5976979282532,1585
1356.7000928096686,1516
1358.8019351190665,1560
1360.9032250997243,1559
1363.0039629949988,1579
1365.1041490483235,1539
1367.2037835032133,1544
1369.3028666032606,1535
1371.401398592137,1607
1373.4993797135926,1569
1375.5968102114575,1556
1377.6936903296396,1618
1379.7900203121262,1586
1381.8858004029835,1610
1383.9810308463561,1614
1386.075711886469,1568
1388.1698437676241,1660
1390.2634267342032,1647
1392.356461030667,1627
1394.4489469015557,1606
1396.5408845914872,1691
1398.6322743451592,1650
1400.7231164073469,1538
1402.813411022907,1644
1404.903158436773,1670
1406.9923588939578,1695
1409.0810126395531,1646
1411.1691199187303,1641
1413.2566809767386,1692
1415.343696058907,1699
1417.4301654106425,1714
1419.5160892774315,1660
1421.6014679048399,1641
1423.6863015385125,1718
1425.7705904241707,1690
1427.8543348076178,1652
1429.9375349347342,1687
1432.0201910514802,1734
1434.102303403894,1736
1436.1838722380944,1727
1438.2648978002767,1788
1440.3453803367174,1803
1442.4253200937692,1885
1444.5047173178677,1788
1446.5835722555234,1926
1448.6618851533285,1866
1450.739656257952,1849
1452.8168858161434,1882
1454.8935740747306,1899
1456.96972128062,1816
1459.045327680797,1920
1461.120393522327,1942
1463.1949190523528,2002
1465.2689045180973,2012
1467.3423501668608,2039
1469.415256246024,2113
1471.4876230030463,2086
1473.559450685465,2177
1475.6307395408976,2188
1477.7014898170391,2178
1479.771701761665,2240
1481.8413756226287,2235
1483.9105116478618,2285
1485.9791100853772,2300
1488.0471711832643,2376
1490.1146951896926,2297
1492.1816823529098,2402
1494.2481329212433,2377
1496.3140471430984,2452
1498.3794252669609,2466
1500.4442675413939,2494
1502.5085742150404,2477
1504.572345536622,2553
1506.6355817549388,2589
1508.6982831188702,2584
1510.7604498773744,2651
1512.8220822794883,2651
1514.8831805743293,2731
1516.9437450110909,2779
1519.003775839048,2817
1521.0632733075522,2848
1523.1222376660367,2785
1525.1806691640113,2930
1527.2385680510652,3015
1529.2959345768668,2909
1531.3527689911643,2974
1533.4090715437833,3119
1535.4648424846291,3191
1537.5200820636855,3219
1539.5747905310159,3278
1541.6289681367616,3287
1543.6826151311434,3385
1545.7357317644614,3322
1547.7883182870937,3351
1549.8403749494987,3438
1551.8919020022113,3458
1553.9428996958477,3595
1555.9933682811015,3638
1558.0433080087469,3758
1560.0927191296346,3803
1562.1416018946961,3849
1564.1899565549415,3877
1566.2377833614592,3810
1568.2850825654164,3773
1570.3318544180606,3677
1572.3780991707158,3630
1574.423817074788,3516
1576.4690083817595,3328
1578.5136733431923,3201
1580.5578122107272,3074
1582.601425236085,2959
1584.6445126710646,2806
1586.6870747675434,2730
1588.7291117774776,2588
1590.7706239529034,2440
1592.8116115459347,2293
1594.8520748087658,2221
1596.8920139936686,2231
1598.9314293529933,2093
1600.9703211391711,2141
1603.008689604711,2047
1605.0465350022005,1993
1607.0838575843068,1931
1609.1206576037753,1906
1611.1569353134305,1878
1613.1926909661765,1844
1615.2279248149953,1895
1617.2626371129481,1722
1619.2968281131757,1765
1621.3304980688963,1801
1623.3636472334088,1735
1625.39627586009,1683
1627.428384202396,1691
1629.459972513861,1664
1631.4910410480993,1696
1633.5215900588028,1660
1635.551619799744,1699
1637.5811305247717,1643
1639.6101224878166,1667
1641.6385959428862,1629
1643.6665511440683,1624
1645.693988345528,1636
1647.7209078015112,1566
1649.7473097663405,1647
1651.7731944944203,1572
1653.7985622402307,1611
1655.823413258333,1653
1657.847747803366,1586
1659.8715661300494,1611
1661.8948684931793,1568
1663.9176551476316,1564
1665.9399263483624,1638
1667.9616823504057,1637
1669.982923408873,1657
1672.0036497789574,1618
1674.0238617159293,1638
1676.043559475138,1627
1678.0627433120121,1582
1680.081413482059,1522
1682.0995702408654,1554
1684.117213844096,1668
1686.134344547495,1624
1688.1509626068864,1587
1690.1670682781705,1586
1692.182661817329,1586
1694.1977434804217,1561
1696.2123135235875,1570
1698.226372203043,1606
1700.2399197750851,1561
1702.2529564960905,1580
1704.2654826225112,1571
1706.277498410882,1589
1708.2890041178139,1569
1710.2999999999988,1546
1712.3104863142066,1585
1714.3204633172854,1542
1716.329931266163,1563
1718.3388904178469,1557
1720.3473410294214,1544
1722.3552833580516,1603
1724.3627176609807,1586
1726.3696441955308,1531
1728.3760632191033,1540
1730.3819749891782,1560
1732.3873797633146,1573
1734.3922777991502,1515
1736.3966693544012,1572
1738.4005546868639,1538
1740.4039340544127,1511
1742.406807715001,1536
1744.4091759266616,1544
1746.4110389475054,1545
1748.4123970357223,1529
1750.413250449582,1564
1752.4135994474318,1484
1754.4134442876993,1521
1756.4127852288902,1561
1758.4116225295893,1537
1760.4099564484595,1513
1762.407787244244,1490
1764.405115175764,1490
1766.4019405019203,1504
1768.3982634816916,1531
1770.3940843741357,1482
1772.3894034383907,1471
1774.3842209336717,1465
1776.378537119274,1482
1778.372352254571,1457
1780.3656665990156,1447
1782.3584804121397,1476
1784.3507939535534,1488
1786.3426074829463,1454
1788.3339212600863,1448
1790.3247355448211,1503
1792.3150505970766,1521
1794.3048666768573,1465
1796.2941840442477,1437
1798.2830029594106,1500
1800.2713236825884,1488
1802.2591464741004,1461
1804.2464715943465,1433
1806.2332993038058,1513
1808.2196298630352,1463
1810.2054635326708,1490
1812.190800573428,1476
1814.175641246101,1484
1816.1599858115628,1461
1818.1438345307652,1486
1820.127187664738,1449
1822.1100454745924,1493
1824.092408221516,1485
1826.0742761667766,1478
1828.055649571721,1487
1830.0365286977735,1390
1832.0169138064398,1500
1833.9968051593014,1432
1835.9762030180214,1463
1837.9551076443408,1468
1839.9335193000788,1475
1841.9114382471344,1483
1843.888864747485,1448
1845.8657990631878,1431
1847.842241456378,1500
1849.8181921892697,1398
1851.7936515241558,1461
1853.7686197234098,1435
1855.7430970494815,1427
1857.7170837649014,1435
1859.6905801322787,1445
1861.6635864143004,1416
1863.6361028737338,1349
1865.608129773424,1489
1867.5796673762961,1476
1869.5507159453537,1410
1871.521275743678,1448
1873.4913470344313,1497
1875.4609300808534,1470
1877.4300251462632,1398
1879.3986324940588,1389
1881.366752387717,1454
1883.3343850907936,1437
1885.3015308669228,1427
1887.268189979819,1491
1889.2343626932739,1428
1891.2000492711595,1447
1893.1652499774254,1459
1895.1299650761011,1508
1897.0941948312952,1391
1899.0579395071945,1441
1901.0211993680641,1476
1902.98397467825,1445
1904.9462657021745,1476
1906.9080727043415,1441
1908.869395949332,1500
1910.8302357018065,1444
1912.790592226504,1456
1914.7504657882428,1419
1916.7098566519212,1417
1918.6687650825133,1481
1920.6271913450764,1409
1922.5851357047422,1409
1924.5425984267245,1464
1926.499579776314,1452
1928.4560800188833,1489
1930.4120994198802,1440
1932.367638244833,1406
1934.32269675935,1455
1936.2772752291175,1521
1938.231373919899,1390
1940.1849930975404,1472
1942.1381330279637,1406
1944.0907939771696,1385
1946.0429762112412,1464
1947.9946799963363,1427
1949.9459055986945,1455
1951.896653284633,1442
1953.8469233205478,1467
1955.7967159729142,1398
1957.7460315082863,1441
1959.6948701932974,1469
1961.6432322946594,1415
1963.5911180791632,1368
1965.5385278136787,1445
1967.4854617651545,1392
1969.4319202006182,1441
1971.377903387176,1483
1973.3234115920136,1386
1975.268445082395,1380
1977.2130041256642,1426
1979.1570889892423,1381
1981.1006999406304,1395
1983.04383724741,1451
1984.986501177238,1420
1986.928691997853,1416
1988.8704099770712,1457
1990.811655382789,1462
1992.7524284829801,1479
1994.692729545698,1421
1996.6325588390755,1449
1998.5719166313224,1428
2000.5108031907307,1415
2002.4492187856677,1422
2004.387163684583,1410
2006.3246381560011,1396
2008.2616424685298,1391
2010.1981768908527,1438
2012.1342416917332,1436
2014.069837140014,1407
2016.0049635046162,1392
2017.9396210545406,1377
2019.8738100588666,1425
2021.8075307867502,1420
2023.740783507431,1418
2025.6735684902228,1418
2027.6058860045214,1442
2029.5377363198004,1333
2031.4691197056118,1413
2033.4000364315875,1374
2035.3304867674374,1414
2037.260470982952,1434
2039.189989347998,1389
2041.1190421325232,1384
2043.047629606554,1400
2044.9757520401945,1428
2046.9034097036288,1382
2048.8306028671195,1421
2050.7573318010086,1443
2052.683596775716,1377
2054.609398061742,1364
2056.5347359296647,1393
2058.4596106501403,1430
2060.384022493906,1392
2062.3079717317764,1371
2064.231458634646,1396
2066.1544834734873,1410
2068.077046519352,1441
2069.99914804337,1408
2071.9207883167524,1350
2073.8419676107865,1385
2075.7626861968406,1372
2077.6829443463607,1340
2079.6027423308715,1385
2081.522080421977,1454
2083.440958891362,1359
2085.359378010786,1427
2087.2773380520907,1374
2089.194839287196,1319
2091.111881988101,1376
2093.0284664268825,1378
2094.9445928756973,1356
2096.86026160678,1372
2098.775472892446,1424
2100.690227005088,1381
2102.604524217178,1403
2104.5183648012676,1395
2106.431749029985,1392
2108.34467717604,1404
2110.2571495122206,1403
2112.169166311393,1349
2114.080727846503,1367
2115.9918343905747,1361
2117.902486216711,1381
2119.8126835980956,1402
2121.722426807987,1372
2123.6317161197285,1397
2125.5405518067364,1413
2127.448934142509,1427
2129.356863400624,1399
2131.264339854737,1380
2133.1713637785815,1391
2135.077935445972,1455
2136.9840551308002,1404
2138.889723107037,1409
2140.7949396487334,1429
2142.699705030018,1407
2144.6040195250994,1464
2146.507883408264,1395
2148.4112969538774,1403
2150.3142604363848,1444
2152.2167741303097,1373
2154.1188383102535,1423
2156.0204532508997,1473
2157.9216192270064,1429
2159.822336513414,1423
2161.7226053850413,1406
2163.622426116884,1420
2165.5217989840185,1450
2167.4207242616,1441
2169.319202224862,1398
2171.2172331491165,1493
2173.1148173097563,1438
2175.0119549822507,1449
2176.90864644215,1425
2178.8048919650823,1455
2180.7006918267534,1479
2182.596046302952,1465
2184.4909556695407,1495
2186.3854202024645,1449
2188.279440177746,1489
2190.173015871487,1392
2192.066147559868,1382
2193.958835519149,1413
2195.851080025667,1457
2197.7428813558417,1443
2199.6342397861667,1420
2201.5251555932186,1496
2203.415629053651,1463
2205.3056604441986,1436
2207.19525004167,1463
2209.084398122958,1466
2210.9731049650327,1443
2212.861370844941,1497
2214.749196039812,1532
2216.636580826851,1628
2218.523525483344,1525
2220.410030286655,1504
2222.296095514226,1523
2224.1817214435805,1570
2226.066908352319,1495
2227.951656518121,1504
2229.835966218746,1467
2231.71983773203,1512
2233.6032713358913,1519
2235.486267308324,1510
2237.3688259274036,1475
2239.2509474712824,1510
2241.132632218193,1521
2243.013880446447,1493
2244.8946924344323,1514
2246.7750684606203,1508
2248.6550088035574,1488
2250.534513741871,1457
2252.413583554265,1490
2254.292218519526,1524
2256.170418916517,1479
2258.0481850241786,1496
2259.925517121534,1433
2261.8024154876825,1476
2263.678880401803,1462
2265.5549121431536,1448
2267.430510991071,1526
2269.305677224971,1543
2271.180411124348,1450
2273.0547129687766,1429
2274.9285830379076,1443
2276.8020216114737,1502
2278.6750289692845,1461
2280.5476053912294,1509
2282.4197511572766,1548
2284.2914665474727,1519
2286.162751841943,1513
2288.0336073208937,1559
2289.904033264608,1601
2291.774029953448,1489
2293.6435976678554,1532
2295.5127366883517,1432
2297.381447295534,1488
2299.2497297700825,1429
2301.1175843927526,1387
2302.9850114443825,1353
2304.852011205885,1409
2306.7185839582553,1251
2308.5847299825664,1326
2310.4504495599676,1338
2312.3157429716925,1276
2314.1806104990483,1299
2316.0450524234247,1271
2317.9090690262888,1277
2319.772660589186,1310
2321.635827393742,1301
2323.498569721661,1271
2325.3608878547248,1269
2327.2227820747967,1248
2329.0842526638157,1275
2330.945299903803,1287
2332.805924076857,1227
2334.6661254651535,1288
2336.525904350951,1242
2338.3852610165827,1253
2340.244195744464,1288
2342.102708817088,1329
2343.9608005170253,1264
2345.8184711269287,1289
2347.675720929526,1306
2349.532550207628,1288
2351.38895924412,1267
2353.24494832197,1287
2355.100517724223,1272
2356.955667734004,1286
2358.810398634514,1331
2360.664710709037,1285
2362.5186042409337,1238
2364.3720795136437,1341
2366.225136810686,1271
2368.0777764156583,1279
2369.929998612237,1301
2371.7818036841777,1293
2373.633191915315,1311
2375.484163589562,1304
2377.3347189909114,1364
2379.184858403434,1329
2381.03458211128,1263
2382.8838903986775,1269
2384.732783549936,1301
2386.5812618494406,1258
2388.4293255816588,1266
2390.2769750311327,1335
2392.1242104824883,1310
2393.971032220427,1282
2395.8174405297295,1334
2397.6634356952563,1304
2399.509018001947,1304
2401.3541877348193,1322
2403.1989451789705,1308
2405.043290619576,1290
2406.8872243418905,1269
2408.730746631247,1304
2410.5738577730594,1294
2412.4165580528183,1303
2414.258847756095,1258
2416.100727168537,1306
2417.9421965758734,1323
2419.783256263912,1294
2421.623906518538,1292
2423.4641476257157,1255
2425.303979871491,1296
2427.143403541984,1305
2428.9824189233977,1263
2430.821026302012,1353
2432.6592259641866,1263
2434.497018196361,1305
2436.33440328505,1306
2438.171381516851,1290
2440.00795317844,1298
2441.844118556569,1348
2443.6798779380724,1291
2445.5152316098606,1303
2447.3501798589255,1260
2449.1847229723357,1313
2451.0188612372403,1317
2452.8525949408663,1370
2454.6859243705203,1272
2456.518849813587,1318
2458.3513715575314,1325
2460.183489889895,1331
2462.015205098301,1375
2463.8465174704493,1289
2465.67742729412,1310
2467.5079348571717,1302
2469.338040447542,1306
2471.1677443532476,1320
2472.9970468623833,1256
2474.825948263123,1331
2476.6544488437207,1373
2478.482548892508,1329
2480.310248697896,1333
2482.137548548374,1319
2483.9644487325118,1306
2485.790949538956,1372
2487.617051256433,1351
2489.44275417375,1344
2491.26805857979,1260
2493.0929647635157,1347
2494.917473013971,1251
2496.741583620276,1333
2498.5652968716304,1329
2500.3886130573137,1378
2502.2115324666834,1411
2504.0340553891765,1351
2505.856182114308,1361
2507.6779129316733,1338
2509.499248130945,1336
2511.3201880018764,1386
2513.140732834298,1384
2514.9608829181198,1347
2516.780638543331,1303
2518.6,1390
2520.418967578273,1366
2522.237541568376,1366
2524.0557222606144,1409
2525.8735099453706,1358
2527.6909049131086,1357
2529.507907454368,1383
2531.32451785977,1398
2533.140736420014,1410
2534.9565634258774,1447
2536.771999168218,1433
2538.5870439379714,1453
2540.4016980261526,1471
2542.2159617238544,1426
2544.02983532225,1421
2545.8433191125914,1430
2547.656413386209,1494
2549.4691184345115,1453
2551.2814345489874,1466
2553.093362021204,1521
2554.904901142808,1566
2556.716052205523,1497
2558.526815501153,1485
2560.3371913215824,1504
2562.147179958771,1556
2563.956781704761,1583
2565.7659968516705,1462
2567.5748256916986,1497
2569.3832685171224,1563
2571.1913256202984,1535
2572.9989972936614,1598
2574.806283829725,1575
2576.613185521084,1590
2578.4197026604074,1541
2580.2258355404483,1610
2582.031584454035,1553
2583.836949694077,1608
2585.6419315535613,1649
2587.4465303255533,1638
2589.2507463032002,1704
2591.0545797797245,1657
2592.8580310484303,1628
2594.6611004026995,1655
2596.463788135992,1610
2598.266094541849,1638
2600.0680199138874,1665
2601.869564545807,1683
2603.670728731383,1753
2605.4715127644704,1739
2607.2719169390048,1659
2609.071941548998,1670
2610.8715868885433,1655
2612.670853251811,1708
2614.469740933052,1683
2616.268250226594,1665
2618.0663814268455,1660
2619.864134828292,1702
2621.6615107255006,1699
2623.458509413115,1631
2625.2551311858597,1638
2627.0513763385347,1661
2628.8472451660223,1638
2630.6427379632833,1625
2632.4378550253564,1664
2634.232596647359,1632
2636.026963124488,1561
2637.8209547520187,1628
2639.6145718253065,1619
2641.407814639785,1597
2643.200683490966,1531
2644.9931786744414,1614
2646.7853004858807,1587
2648.577049221034,1553
2650.3684251757277,1546
2652.1594286458712,1527
2653.9500599274484,1544
2655.740319316525,1485
2657.5302071092437,1529
2659.3197236018286,1471
2661.10886909058,1497
2662.8976438718782,1490
2664.686048242183,1456
2666.4740824980327,1465
2668.2617469360443,1456
2670.0490418529134,1445
2671.8359675454153,1462
2673.622524310403,1480
2675.408712444811,1400
2677.1945322456495,1409
2678.979984010009,1433
2680.76506803506,1416
2682.5497846180497,1438
2684.334134056306,1376
2686.1181166472343,1386
2687.9017326883213,1404
2689.6849824771293,1389
2691.4678663113013,1406
2693.2503844885596,1343
2695.032537306705,1379
2696.8143250636167,1416
2698.5957480572542,1347
2700.3768065856534,1365
2702.1575009469316,1384
2703.937831439283,1274
2705.717798360982,1341
2707.4974020103837,1321
2709.276642685917,1346
2711.055520686095,1334
2712.834036309506,1328
2714.612189854819,1341
2716.389981620782,1332
2718.1674119062204,1329
2719.944481010041,1315
2721.721189231226,1282
2723.4975368688415,1296
2725.273524222027,1309
2727.0491515900053,1289
2728.824419272075,1375
2730.5993275676146,1346
2732.3738767760838,1297
2734.148067197016,1321
2735.921899130031,1277
2737.6953728748194,1315
2739.468488731156,1295
2741.2412469988926,1269
2743.0136479779617,1281
2744.785691968372,1336
2746.5573792702116,1294
2748.3287101836504,1254
2750.099685008934,1297
2751.870304046388,1269
2753.640567596418,1285
2755.4104759595057,1305
2757.1800294362156,1274
2758.949228327187,1271
2760.7180729331412,1315
2762.486563554877,1312
2764.254700493272,1285
2766.022484049284,1248
2767.789914523947,1255
2769.5569922183786,1274
2771.3237174337705,1285
2773.090090471394,1276
2774.8561116326036,1289
2776.6217812188274,1248
2778.3870995315756,1314
2780.1520668724356,1313
2781.9166835430747,1223
2783.6809498452394,1253
2785.444866080754,1288
2787.2084325515225,1303
2788.971649559527,1267
2790.73451740683,1276
2792.4970363955713,1243
2794.2592068279705,1302
2796.0210290063264,1235
2797.7825032330147,1317
2799.543629810493,1256
2801.304409041296,1255
2803.0648412280366,1242
2804.8249266734088,1300
2806.5846656801846,1287
2808.344058551212,1233
2810.1031055894246,1273
2811.8618070978273,1285
2813.6201633795085,1275
2815.378174737636,1309
2817.1358414754536,1269
2818.893163896285,1250
2820.6501423035334,1268
2822.4067770006814,1303
2824.1630682912883,1272
2825.9190164789957,1300
2827.6746218675207,1237
2829.429884760661,1280
2831.184805462294,1369
2832.9393842763743,1336
2834.693621506936,1288
2836.4475174580916,1253
2838.201072434034,1302
2839.954286739034,1262
2841.707160677441,1229
2843.459694553685,1254
2845.2118886722724,1271
2846.96374333779,1271
2848.7152588549034,1311
2850.4664355283567,1273
2852.217273662973,1284
2853.9677735636546,1281
2855.7179355353833,1293
2857.4677598832186,1299
2859.217246912299,1238
2860.9663969278427,1275
2862.715210235146,1277
2864.4636871395846,1253
2866.211827946614,1343
2867.9596329617652,1272
2869.7071024906536,1296
2871.4542368389684,1293
2873.20103631248,1245
2874.947501217038,1209
2876.6936318585695,1256
2878.4394285430812,1279
2880.1848915766604,1273
2881.9300212654707,1259
2883.6748179157553,1332
2885.4192818338374,1248
2887.1634133261173,1328
2888.907212699077,1269
2890.6506802592744,1302
2892.393816313348,1299
2894.1366211680142,1257
2895.8790951300693,1229
2897.621238506388,1319
2899.363051603925,1274
2901.1045347297118,1306
2902.8456881908596,1263
2904.58651229456,1227
2906.327007348081,1250
2908.067173658772,1217
2909.8070115340597,1303
2911.5465212814497,1310
2913.285703208527,1315
2915.0245576229563,1273
2916.7630848324807,1277
2918.5012851449196,1258
2920.2391588681758,1289
2921.976706310227,1286
2923.7139277791334,1260
2925.4508235830313,1291
2927.187394030137,1302
2928.923639428745,1243
2930.6595600872306,1272
2932.395156314046,1275
2934.1304284177218,1265
2935.8653767068713,1279
2937.6000014901815,1254
2939.3343030764227,1270
2941.068281774442,1259
2942.8019378931644,1331
2944.5352717415976,1294
2946.2682836288236,1297
2948.0009738640065,1245
2949.7333427563885,1311
2951.465390615289,1323
2953.1971177501086,1338
2954.9285244703265,1273
2956.6596110855,1237
2958.3903779052657,1325
2960.1208252393385,1297
2961.8509533975125,1280
2963.5807626896617,1252
2965.3102534257378,1278
2967.0394259157715,1277
2968.768280469873,1272
2970.496817398232,1224
2972.2250370111146,1310
2973.952939618869,1293
2975.6805255319196,1318
2977.4077950607707,1218
2979.134748516006,1265
2980.861386208289,1327
2982.587708448359,1323
2984.313715547037,1278
2986.039407815222,1298
2987.764785563891,1229
2989.489849104102,1243
2991.2145987469908,1246
2992.9390348037705,1255
2994.6631575857346,1247
2996.3869674042576,1252
2998.1104645707887,1267
2999.83364939686,1274
3001.5565221940783,1229
3003.2790832741334,1235
3005.0013329487924,1239
3006.7232715298996,1256
3008.4448993293804,1247
3010.166216659239,1198
3011.887223831558,1262
3013.607921158498,1305
3015.3283089522993,1237
3017.0483875252826,1290
3018.7681571898443,1256
3020.4876182584626,1293
3022.2067710436927,1253
3023.9256158581707,1272
3025.644153014609,1357
3027.362382825801,1318
3029.0803056046193,1270
3030.797921664012,1261
3032.5152313170106,1241
3034.2322348767225,1202
3035.9489326563353,1235
3037.665324969115,1251
3039.3814121284063,1235
3041.097194447633,1294
3042.812672240299,1302
3044.5278458199855,1259
3046.2427155003525,1262
3047.9572815951406,1290
3049.671544418167,1259
3051.38550428333,1268
3053.0991615046073,1247
3054.812516396051,1324
3056.5255692717974,1249
3058.2383204460575,1189
3059.9507702331257,1285
3061.662918947372,1256
3063.3747669032446,1290
3065.0863144152736,1298
3066.7975617980674,1292
3068.508509366309,1252
3070.219157434767,1266
3071.9295063182844,1297
3073.639556331785,1277
3075.3493077902704,1252
3077.058761008821,1306
3078.7679163025964,1290
3080.476773986837,1301
3082.1853343768594,1274
3083.89359778806,1278
3085.6015645359153,1320
3087.3092349359786,1307
3089.016609303884,1228
3090.7236879553434,1254
3092.4304712061476,1261
3094.136959372166,1249
3095.843152769349,1253
3097.5490517137237,1258
3099.2546565213966,1247
3100.959967508554,1271
3102.66498499146,1275
3104.3697092864577,1319
3106.0741407099695,1301
3107.778279578498,1261
3109.482126208622,1240
3111.1856809170004,1229
3112.8889440203716,1302
3114.5919158355528,1282
3116.294596679439,1299
3117.996986869006,1327
3119.6990867213062,1294
3121.4008965534726,1361
3123.102416682717,1297
3124.803647426329,1341
3126.5045891016784,1342
3128.205242026213,1303
3129.90560651746,1287
3131.605682893025,1340
3133.3054714705922,1301
3135.0049725679282,1377
3136.7041865028714,1279
3138.4031135933465,1288
3140.101754157353,1311
3141.800108512971,1346
3143.498176978357,1296
3145.1959598717494,1281
3146.8934575114636,1253
3148.5906702158954,1277
3150.2875983035183,1278
3151.9842420928853,1193
3153.680601902627,1328
3155.376678051456,1275
3157.07247085816,1332
3158.767980641609,1277
3160.463207720748,1284
3162.158152414606,1316
3163.8528150422862,1280
3165.5471959229726,1354
3167.2412953759303,1232
3168.9351137204976,1285
3170.628651276098,1267
3172.3219083622307,1291
3174.014885298474,1242
3175.707582404485,1280
3177.4000000000005,1319
3179.092138404835,1247
3180.7839979388846,1260
3182.47557892212,1254
3184.166881674594,1250
3185.8579065164386,1271
3187.5486537678626,1255
3189.2391237491547,1215
3190.9293167806827,1286
3192.6192331828934,1258
3194.3088732763117,1325
3195.998237381542,1241
3197.687325819268,1249
3199.376138910251,1233
3201.064676975334,1229
3202.7529403354347,1217
3204.4409293115523,1219
3206.1286442247647,1227
3207.816085396229,1217
3209.5032531471825,1230
3211.190147798936,1260
3212.8767696728846,1202
3214.5631190905015,1216
3216.2491963733373,1228
3217.9350018430214,1229
3219.6205358212637,1250
3221.305798629851,1159
3222.990790590651,1235
3224.6755120256103,1222
3226.359963256751,1199
3228.0441446061795,1260
3229.7280563960758,1185
3231.411698948703,1233
3233.0950725863995,1265
3234.778177631587,1292
3236.461014406761,1214
3238.1435832345005,1286
3239.8258844374595,1287
3241.507918338374,1262
3243.1896852600576,1289
3244.8711855254023,1295
3246.552419457381,1188
3248.233387379042,1190
3249.914089613516,1300
3251.59452648401,1280
3253.274698313813,1262
3254.95460542629,1235
3256.6342481448855,1289
3258.313626793125,1238
3259.9927416946084,1198
3261.6715931730196,1210
3263.3501815521176,1240
3265.0285071557437,1204
3266.706570307815,1237
3268.3843713323286,1257
3270.0619105533615,1233
3271.739188295068,1237
3273.4162048816834,1230
3275.0929606375184,1232
3276.769455886966,1259
3278.445690954498,1275
3280.1216661646613,1266
3281.797381842087,1228
3283.4728383114807,1258
3285.1480358976296,1204
3286.8229749253996,1247
3288.4976557197333,1241
3290.172078605655,1288
3291.846243908266,1212
3293.5201519527463,1260
3295.193803064357,1222
3296.8671975684374,1207
3298.5403357904024,1174
3300.21321805575,1188
3301.8858446900567,1223
3303.558216018975,1221
3305.23033236824,1266
3306.9021940636603,1214
3308.57380143113,1218
3310.2451547966184,1226
3311.916254486174,1226
3313.5871008259246,1249
3315.2576941420766,1236
3316.9280347609147,1288
3318.5981230088046,1214
3320.2679592121895,1260
3321.9375436975924,1229
3323.606876791612,1186
3325.27595882093,1140
3326.944790112305,1216
3328.6133709925753,1223
3330.2817017886573,1283
3331.949782827547,1193
3333.617614436319,1215
3335.2851969421245,1237
3336.952530672199,1209
3338.619615953853,1231
3340.286453114475,1282
3341.9530424815357,1222
3343.619384382583,1208
3345.2854791452437,1185
3346.951327097224,1251
3348.6169285663073,1230
3350.2822838803577,1255
3351.947393367319,1255
3353.61225735521,1258
3355.2768761721345,1242
3356.9412501462693,1192
3358.605379605873,1221
3360.2692648792827,1152
3361.9329062949146,1216
3363.596304181263,1158
