CollectionTime,7/11/2024 12:36:51 PM
ExposureUsed,3
CalibratedSpectrum
-962.7078968117929,572
-959.9714848408522,650
-957.2358232597828,630
-954.5009119013725,582
-951.7667505983302,591
-949.0333391832855,614
-946.3006774887896,603
-943.5687653473143,633
-940.837602591253,604
-938.1071890529199,612
-935.3775245645503,627
-932.6486089583007,634
-929.9204420662485,655
-927.1930237203925,641
-924.4663537526524,616
-921.7404319948689,594
-919.0152582788041,594
-916.2908324361409,664
-913.5671542984834,651
-910.8442236973568,619
-908.1220404642074,600
-905.4006044304027,634
-902.679915427231,633
-899.959973285902,629
-897.2407778375464,620
-894.5223289132158,600
-891.8046263438832,625
-889.0876699604426,628
-886.3714595937089,621
-883.6559950744183,608
-880.9412762332282,579
-878.2273029007168,598
-875.5140749073835,607
-872.8015920836489,641
-870.0898542598545,590
-867.3788612662631,614
-864.6686129330585,647
-861.9591090903457,626
-859.2503495681506,623
-856.5423341964203,613
-853.8350628050229,611
-851.1285352237478,591
-848.4227512823054,564
-845.7177108103272,621
-843.0134136373656,630
-840.3098595928943,624
-837.6070485063082,673
-834.9049802069229,647
-832.2036545239757,629
-829.5030712866244,632
-826.8032303239481,636
-824.1041314649472,600
-821.4057745385428,620
-818.7081593735775,618
-816.0112857988148,617
-813.3151536429393,627
-810.6197627345566,602
-807.9251129021936,615
-805.2312039742981,615
-802.5380357792392,625
-799.8456081453069,624
-797.1539209007124,627
-794.462973873588,641
-791.772766891987,636
-789.083299783884,622
-786.3945723771743,602
-783.7065844996748,666
-781.0193359791231,583
-778.3328266431781,596
-775.6470563194197,615
-772.9620248353489,563
-770.2777320183878,628
-767.5941776958798,640
-764.9113616950891,624
-762.2292838432011,629
-759.5479439673222,640
-756.8673418944801,614
-754.1874774516235,657
-751.5083504656222,636
-748.8299607632671,651
-746.15230817127,640
-743.475392516264,664
-740.7992136248035,642
-738.1237713233636,667
-735.4490654383407,668
-732.7750957960521,689
-730.1018622227365,658
-727.4293645445534,692
-724.7576025875837,633
-722.0865761778291,618
-719.4162851412126,661
-716.7467293035781,703
-714.0779084906909,684
-711.409822528237,675
-708.7424712418238,684
-706.0758544569796,680
-703.4099719991541,683
-700.7448236937178,757
-698.0804093659622,729
-695.4167288411002,731
-692.7537819442656,687
-690.0915685005134,685
-687.4300883348199,662
-684.7693412720819,676
-682.1093271371178,664
-679.4500457546669,684
-676.7914969493897,658
-674.1336805458676,681
-671.4765963686034,668
-668.8202442420206,701
-666.1646239904642,700
-663.5097354382001,697
-660.8555784094151,686
-658.2021527282176,700
-655.5494582186366,723
-652.8974947046223,742
-650.2462620100463,750
-647.5957599587009,708
-644.9459883742998,725
-642.2969470804776,760
-639.6486359007902,744
-637.0010546587141,760
-634.3542031776476,759
-631.7080812809096,709
-629.0626887917401,731
-626.4180255333008,698
-623.7740913286734,771
-621.1308860008619,757
-618.4884093727904,742
-615.8466612673046,756
-613.2056415071715,701
-610.5653499150785,686
-607.9257863136347,710
-605.28695052537,740
-602.6488423727357,738
-600.0114616781036,758
-597.3748082637674,699
-594.7388819519412,743
-592.1036825647604,779
-589.4692099242818,846
-586.8354638524829,845
-584.2024441712624,786
-581.5701507024403,763
-578.9385832677575,768
-576.3077416888759,770
-573.6776257873787,826
-571.0482353847704,732
-568.4195703024757,750
-565.7916303618415,775
-563.164415384135,742
-560.5379251905453,747
-557.9121596021815,777
-555.2871184400748,763
-552.6628015251767,740
-550.0392086783606,785
-547.4163397204204,782
-544.794194472071,761
-542.1727727539491,784
-539.5520743866118,831
-536.9320991905377,877
-534.3128469861261,884
-531.6943175936979,853
-529.0765108334947,833
-526.4594265256793,913
-523.8430644903358,1052
-521.2274245474689,1011
-518.612506517005,1179
-515.9983102187913,1159
-513.3848354725959,1103
-510.77208209810846,1155
-508.16004991493924,1237
-505.5487387426199,1399
-502.9381484006032,1473
-500.3282787082628,1636
-497.71912948489364,1601
-495.1107005497117,1531
-492.5029917218539,1467
-489.8960028203786,1313
-487.28973366426493,1184
-484.68418407241325,1118
-482.07935386364494,1011
-479.47524285670266,991
-476.87185087025,1007
-474.2691777228715,1020
-471.66722323307334,976
-469.0659872192821,996
-466.4654694998459,984
-463.86566989303384,961
-461.26658821703614,943
-458.66822428996414,983
-456.07057792985,998
-453.4736489546475,989
-450.877437182231,940
-448.28194243039627,914
-445.68716451686,926
-443.09310325926003,950
-440.49975847515555,953
-437.9071299820263,945
-435.31521759727354,942
-432.72402113821954,1009
-430.13354042210767,934
-427.5437752661022,950
-424.95472548728867,1001
-422.36639090267386,1020
-419.7787713291855,1032
-417.1918665836721,1030
-414.60567648290385,1085
-412.0202008435715,990
-409.4354394822874,1053
-406.8513922155845,1047
-404.26805885991723,1029
-401.685439231661,1005
-399.103533147112,1030
-396.522340422488,1048
-393.9418608739278,1002
-391.3620943174908,1037
-388.7830405691583,989
-386.2046994448317,954
-383.6270707603344,925
-381.05015433141045,852
-378.473949973725,824
-375.8984575028645,741
-373.32367673433623,711
-370.74960748356875,712
-368.1762495659117,660
-365.60360279663576,617
-363.03166699093265,563
-360.4604419639154,534
-357.8899275306178,474
-355.32012350599507,482
-352.7510297049233,494
-350.1826459421999,442
-347.61497203254316,460
-345.04800779059235,509
-342.4817530309082,526
-339.91620756797226,502
-337.35137121618743,514
-334.7872437898774,559
-332.22382510328725,540
-329.66111497058273,514
-327.09911320585127,484
-324.53781962310075,471
-321.9772340362607,478
-319.4173562591816,479
-316.8581861056348,450
-314.2997233893127,463
-311.7419679238294,453
-309.1849195227194,503
-306.62857799943856,549
-304.0729431673641,517
-301.51801483979375,547
-298.963792829947,550
-296.41027695096386,583
-293.85746701590574,602
-291.3053628377552,567
-288.7539642294155,564
-286.2032710037115,555
-283.65328297338897,528
-281.1039999511146,609
-278.5554217494762,697
-276.007548180983,638
-273.4603790580651,545
-270.9139141930734,543
-268.3681533982807,549
-265.8230964858798,587
-263.27874326798565,592
-260.7350935566336,571
-258.1921471637804,540
-255.6499039013039,562
-253.10836358100266,548
-250.56752601459698,568
-248.02739101372765,574
-245.48795838995704,626
-242.94922795476816,609
-240.41119951956557,642
-237.8738728956746,702
-235.33724789434166,680
-232.80132432673452,634
-230.2661020039418,637
-227.73158073697357,608
-225.19776033676033,656
-222.66464061415422,725
-220.1322213799284,735
-217.60050244477725,628
-215.06948361931552,613
-212.53916471408013,629
-210.00954553952818,702
-207.48062590603843,678
-204.9524056239104,689
-202.4248845033651,770
-199.8980623545441,732
-197.37193898751036,757
-194.84651421224817,756
-192.32178783866232,728
-189.79775967657952,712
-187.27442953574644,808
-184.7517972258321,863
-182.2298625564256,886
-179.7086253370378,853
-177.18808537710026,769
-174.66824248596583,811
-172.14909647290835,815
-169.6306471471229,859
-167.11289431772548,903
-164.59583779375328,889
-162.07947738416453,844
-159.5638128978386,802
-157.04884414357605,890
-154.53457093009854,901
-152.02099306604828,846
-149.50811035998936,896
-146.99592262040665,925
-144.48442965570587,833
-141.97363127421409,874
-139.46352728417958,897
-136.95411749377126,957
-134.44540171107985,979
-131.93737974411636,911
-129.43005140081357,870
-126.92341648902493,1055
-124.41747481652521,1351
-121.91222619101006,1398
-119.40767042009657,1529
-116.90380731132257,1745
-114.40063667214702,2011
-111.8981583099503,2124
-109.3963720320337,1833
-106.89527764561933,1605
-104.39487495785067,1799
-101.89516377579241,2050
-99.39614390642998,2733
-96.89781515667039,2661
-94.40017733334128,2191
-91.90323024319173,2392
-89.40697369289148,3789
-86.91140748903172,5691
-84.41653143812482,7351
-81.92234534660395,7280
-79.42884902082358,5429
-76.93604226705907,5729
-74.4439248915071,10949
-71.95249670028534,19662
-69.46175749943245,25901
-66.97170709490854,29702
-64.48234529259423,28916
-61.99367189829195,24668
-59.50568671772464,16674
-57.01838955653636,12731
-54.53178022029283,13014
-52.045858514480074,12357
-49.560624244506016,12899
-47.07607721569923,15427
-44.59221723330904,16674
-42.10904410250669,16675
-39.62655762838392,15253
-37.14475761595372,13558
-34.66364387015028,12621
-32.18321619582866,10772
-29.70347439776515,9661
-27.224418280657005,8528
-24.74604764912317,8958
-22.26836230770266,12444
-19.7913620608565,22279
-17.315046712966478,39022
-14.83941606833514,53695
-12.36446993118659,65038
-9.89020810566592,65038
-7.416630395839093,65038
-4.94373660569363,65038
-2.471526539137585,65038
-6.821210263296962E-13,65038
2.47084320796705,65038
4.941003281093458,65038
7.410480415786196,65038
9.879274808531363,65038
12.347386655893956,65038
14.814816154518212,65038
17.28156350112681,65038
19.74762889252179,65038
22.21301252558385,65038
24.67771459727237,19432
27.141735304626195,4086
29.605074844762612,2869
32.06773341487792,2663
34.52971121224755,2657
36.99100843422559,3165
39.45162527824516,2874
41.91156194181792,2179
44.370818622535126,1947
46.82939551806646,1656
49.287292826160524,1673
51.74451074464503,2005
54.201049471426245,2271
56.65690920448981,1911
59.112090141899785,1496
61.56659248179983,1430
64.02041642241159,1207
66.4735621620365,1322
68.92602989905402,1131
71.37781983192338,1299
73.82893215918205,1350
76.27936707944684,1399
78.72912479141326,1308
81.17820549385567,1226
83.62660938562783,1450
86.07433666566146,1566
88.5213875329681,1210
90.96776218663751,1094
93.41346082583925,1063
95.85848364982041,1224
98.30283085790859,1550
100.7465026495089,1418
103.18949922410604,1169
105.63182078126385,1102
108.07346752062438,1168
110.51443964190923,1005
112.95473734491827,937
115.39436082953114,973
117.83331029570547,986
120.27158594347827,1082
122.7091879729652,1253
125.1461165843615,1207
127.58237197794062,1048
130.01795435405518,938
132.4528639131364,1067
134.88710085569494,1072
137.32066538231982,1011
139.75355769367923,920
142.1857779905207,887
144.61732647366978,858
147.04820334403132,843
149.47840880258934,923
151.90794305040674,1068
154.33680628862487,1198
156.76499871846443,1421
159.19252054122433,1490
161.61937195828352,1545
164.04555317109896,1791
166.47106438120693,1912
168.89590579022217,2141
171.320077599839,2338
173.7435800118302,2426
176.16641322804742,2523
178.58857745042144,2728
181.01007288096173,2753
183.43089972175687,2729
185.85105817497413,2760
188.27054844285988,2680
190.6893707277394,2772
193.10752523201643,2877
195.5250121581745,2871
197.9418317087751,2909
200.3579840864594,2809
202.7734694939469,2873
205.18828813403627,2895
207.6024402096051,3024
210.01592592360964,3023
212.42874547908548,2949
214.84089907914665,2889
217.2523869269868,2944
219.66320922587727,2955
222.0733661791695,2863
224.48285799029293,2778
226.8916848627572,2808
229.29984700014882,2923
231.7073446061355,2850
234.11417788446204,2775
236.520347038953,2870
238.92585227351185,2991
241.33069379212054,3046
243.73487179884035,3022
246.1383864978112,3042
248.541238093252,3055
250.9434267894609,3000
253.34495279081432,3048
255.74581630176783,2996
258.1460175268563,2952
260.54555667069314,3079
262.9444339379703,2897
265.3426495334594,2967
267.7402036620107,2970
270.1370965285529,2895
272.53332833809407,2782
274.9288992957214,2725
277.32380960660055,2759
279.718059475976,2706
282.1116491091717,2727
284.5045787115897,2637
286.89684848871195,2589
289.2884586460981,2690
291.67940938938807,2601
294.0697009242996,2706
296.4593334566299,2641
298.84830719225477,2654
301.23662233712923,2630
303.6242790972866,2617
306.01127767884,2635
308.39761828798066,2565
310.78330113097934,2421
313.16832641418534,2389
315.5526943440269,2394
317.9364051270112,2404
320.3194589697242,2425
322.70185607883093,2469
325.0835966610754,2381
327.4646809232805,2388
329.8451090723478,2408
332.2248813152577,2285
334.6039978590701,2382
336.9824589109231,2290
339.36026467803447,2292
341.7374153677,2301
344.113911187295,2258
346.48975234427337,2229
348.8649390461686,2286
351.2394715005918,2204
353.61334991523415,2191
355.9865744978655,2158
358.35914545633375,2213
360.73106299856715,2245
363.10232733257146,2234
365.47293866643247,2172
367.84289720831396,2148
370.2122031664593,2163
372.5808567491905,2127
374.9488581649083,2153
377.31620762209275,2180
379.6829053293021,2164
382.0489514951745,2045
384.4143463284262,2104
386.7790900378528,2211
389.14318283232853,2167
391.50662492080653,2105
393.86941651231916,2167
396.23155781597745,2136
398.5930490409713,2090
400.9538903965696,2052
403.3140820921202,2073
405.6736243370498,2156
408.03251734086336,2054
410.3907613131465,2091
412.74835646356166,2030
415.10530300185144,2019
417.4616011378372,2070
419.81725108141893,2055
422.1722530425758,2038
424.5266072313656,2025
426.880313857925,2072
429.2333731324701,1946
431.58578526529516,1949
433.9375504667738,2037
436.2886689473588,2010
438.63914091758113,2002
440.9889665880513,1957
443.33814616945835,2008
445.68667987257015,2023
448.03456790823395,1921
450.3818104873759,1947
452.72840782100013,2011
455.07436012019105,1956
457.41966759611057,1973
459.7643304600007,1970
462.10834892318155,1978
464.4517231970525,2031
466.79445349309174,1984
469.1365400228566,1985
471.4779829979826,1995
473.81878263018564,2006
476.15893913125876,2067
478.4984527130747,2096
480.8373235875855,2091
483.17555196682144,2071
485.5131380628919,2206
487.8500820879857,2253
490.1863842543697,2402
492.52204477439034,2558
494.8570638604725,2722
497.1914417251204,3067
499.52517858091653,3290
501.85827464052306,3322
504.19073011668036,3366
506.5225452222086,3188
508.85372017000566,3181
511.18425517304956,3040
513.514150444396,3148
515.8434061971808,3620
518.1720226446176,4205
520.4999999999999,4428
522.8273384766991,4249
525.1540382881666,3891
527.480099647932,3521
529.8055227696037,3091
532.1303078668694,2544
534.454455153496,2239
536.777964843328,2178
539.1008371502907,2073
541.4230722883866,1930
543.744670471698,1997
546.0656319143858,2053
548.3859568306899,2021
550.7056454349294,2007
553.0246979415016,2049
555.3431145648834,2024
557.6608955196306,1993
559.978041020377,1916
562.2945512818363,1966
564.6104265188006,1937
566.9256669461412,1932
569.2402727788082,1951
571.5542442318302,1917
573.8675815203156,1985
576.1802848594508,2024
578.4923544645015,1969
580.8037905508126,2009
583.114593333807,2027
585.4247630289875,2038
587.7342998519354,1975
590.0432040183106,1989
592.3514757438526,2010
594.6591152443794,1948
596.9661227357875,2032
599.2724984340531,2010
601.578242555231,2030
603.8833553154542,2009
606.1878369309362,2055
608.4916876179676,1956
610.7949075929192,1986
613.0974970722403,2037
615.3994562724587,1955
617.7007854101818,2038
620.0014847020951,2079
622.3015543649641,2000
624.6009946156324,2005
626.8998056710224,1974
629.1979877481361,2090
631.4955410640538,2022
633.7924658359349,2022
636.0887622810175,2079
638.3844306166192,2078
640.6794710601358,2193
642.9738838290426,2123
645.2676691408932,2073
647.5608272133207,2153
649.853358264037,2095
652.1452625108324,2104
654.4365401715764,2159
656.7271914642178,2055
659.0172166067838,2004
661.3066158173809,2074
663.5953893141935,2079
665.8835373154867,2153
668.1710600396028,2097
670.4579577049639,2126
672.7442305300709,2077
675.0298787335033,1992
677.3149025339197,2078
679.599302150058,1986
681.8830778007342,2148
684.1662297048437,2081
686.4487580813608,2032
688.7306631493387,2115
691.0119451279091,2111
693.2926042362834,2088
695.5726406937516,2120
697.8520547196814,2059
700.1308465335215,2044
702.4090163547982,2126
704.6865644031171,2111
706.9634908981619,2084
709.2397960596965,2085
711.5154801075631,2118
713.7905432616823,2108
716.0649857420548,2146
718.3388077687592,2027
720.612009561953,2079
722.8845913418733,2143
725.1565533288352,2088
727.427895743234,2122
729.6986188055427,2083
731.9687227363137,2010
734.238207756178,2056
736.5070740858458,2066
738.7753219461066,2079
741.0429515578281,2097
743.3099631419569,2155
745.5763569195191,2090
747.8421331116193,2071
750.1072919394409,2087
752.3718336242467,2149
754.6357583873777,2052
756.8990664502545,2088
759.1617580343765,2036
761.423833361321,2093
763.6852926527457,2093
765.9461361303862,2057
768.206364016058,2146
770.4659765316536,2094
772.7249738991469,2096
774.9833563405886,2151
777.2411240781092,1991
779.4982773339183,2092
781.7548163303044,2116
784.010741289634,2099
786.2660524343538,2186
788.5207499869881,2119
790.7748341701416,2112
793.0283052064964,2144
795.2811633188143,2136
797.5334087299362,2153
799.7850416627813,2137
802.0360623403484,2113
804.2864709857143,2094
806.5362678220353,2061
808.7854530725468,2029
811.0340269605625,2094
813.2819897094754,2072
815.5293415427581,2104
817.77608268396,2054
820.0222133567116,2099
822.2677337847211,2095
824.5126441917765,2100
826.7569448017433,2122
829.0006358385675,2062
831.2437175262731,2159
833.4861900889629,2081
835.7280537508192,2096
837.9693087361026,2063
840.2099552691533,2058
842.4499935743896,2147
844.689423876309,2103
846.9282463994886,2119
849.1664613685833,2090
851.4040690083276,2142
853.6410695435349,2135
855.877463199097,2134
858.1132501999847,2096
860.3484307712487,2133
862.5830051380175,2059
864.8169735254988,2121
867.0503361589791,2105
869.2830932638243,2167
871.5152450654786,2151
873.7467917894654,2118
875.9777336613873,2188
878.2080709069252,2148
880.4378037518389,2180
882.666932421968,2122
884.8954571432301,2158
887.1233781416219,2253
889.3506956432192,2210
891.5774098741766,2170
893.803521060728,2246
896.0290294291852,2178
898.2539352059397,2156
900.4782386174619,2132
902.7019398903011,2134
904.925039251085,2171
907.147536926521,2171
909.3694331433943,2123
911.59072812857,2108
913.8114221089921,2150
916.0315153116827,2143
918.2510079637437,2011
920.4699002923547,2104
922.6881925247761,2088
924.905884888345,2043
927.1229776104793,2096
929.3394709186747,2046
931.555365040506,2086
933.7706602036275,2061
935.9853566357709,1999
938.1994545647489,2119
940.4129542184515,2054
942.6258558248488,2099
944.8381596119883,2082
947.0498658079974,2062
949.2609746410825,2027
951.4714863395287,1987
953.6814011316998,1994
955.8907192460387,1988
958.0994409110671,2062
960.3075663553858,2013
962.5150958076741,1928
964.7220294966913,1995
966.928367651274,1959
969.1341105003388,2061
971.3392582728806,1960
973.5438111979742,1984
975.747769504772,2003
977.9511334225061,1975
980.153903180487,1938
982.3560790081052,1947
984.5576611348289,1963
986.7586497902058,1988
988.9590452038618,1881
991.158847605503,1866
993.3580572249133,1874
995.5566742919558,1863
997.7546990365728,1877
999.952131688785,1836
1002.1489724786926,1754
1004.3452216364743,1798
1006.5408793923874,1818
1008.7359459767691,1807
1010.9304216200343,1702
1013.1243065526781,1708
1015.3176010052733,1754
1017.510305208472,1745
1019.7024193930064,1770
1021.8939437896848,1722
1024.0848786293977,1742
1026.2752241431122,1723
1028.4649805618747,1681
1030.6541481168115,1686
1032.842727039127,1717
1035.0307175601051,1691
1037.2181199111074,1711
1039.4049343235752,1741
1041.591161029029,1654
1043.7768002590683,1719
1045.9618522453698,1690
1048.1463172196918,1686
1050.3301954138697,1693
1052.513487059818,1709
1054.69619238953,1749
1056.8783116350783,1698
1059.0598450286152,1699
1061.2407928023704,1673
1063.4211551886528,1608
1065.6009324198508,1664
1067.780124728432,1656
1069.9587323469414,1683
1072.1367555080046,1645
1074.314194444325,1586
1076.4910493886855,1614
1078.667320573947,1597
1080.843008233051,1636
1083.0181125990161,1678
1085.1926339049414,1607
1087.3665723840027,1665
1089.5399282694575,1635
1091.7127017946405,1548
1093.8848931929647,1662
1096.0565026979243,1554
1098.2275305430899,1550
1100.3979769621128,1520
1102.567842188722,1614
1104.737126456726,1573
1106.9058300000124,1528
1109.0739530525475,1621
1111.2414958483764,1474
1113.4084586216231,1616
1115.5748416064907,1598
1117.7406450372605,1586
1119.9058691482942,1646
1122.0705141740304,1555
1124.2345803489884,1605
1126.3980679077658,1518
1128.5609770850388,1562
1130.7233081155623,1580
1132.8850612341707,1570
1135.0462366757774,1571
1137.2068346753745,1574
1139.3668554680326,1623
1141.526299288901,1547
1143.68516637321,1522
1145.8434569562655,1547
1148.001171273455,1589
1150.158309560244,1574
1152.3148720521767,1548
1154.470858984876,1511
1156.626270594044,1548
1158.7811071154629,1519
1160.9353687849912,1507
1163.089055838569,1488
1165.242168512213,1553
1167.3947070420209,1501
1169.5466716641677,1518
1171.6980626149075,1501
1173.8488801305748,1449
1175.9991244475814,1545
1178.1487958024186,1548
1180.2978944316555,1534
1182.4464205719428,1531
1184.5943744600072,1507
1186.7417563326567,1467
1188.8885664267755,1499
1191.0348049793297,1578
1193.1804722273619,1435
1195.325568407995,1514
1197.4700937584303,1502
1199.614048515948,1508
1201.7574329179074,1571
1203.900247201746,1517
1206.042491604982,1559
1208.1841663652099,1544
1210.3252717201053,1536
1212.465807907422,1547
1214.6057751649923,1508
1216.7451737307279,1485
1218.8840038426192,1515
1221.0222657387353,1533
1223.1599596572241,1558
1225.2970858363137,1522
1227.4336445143094,1540
1229.5696359295966,1490
1231.705060320639,1550
1233.8399179259786,1559
1235.9742089842384,1590
1238.107933734118,1527
1240.2410924143974,1530
1242.373685263935,1613
1244.5057125216676,1567
1246.6371744266116,1565
1248.7680712178621,1589
1250.898403134593,1504
1253.028170416058,1550
1255.1573733015875,1485
1257.2860120305932,1543
1259.4140868425648,1534
1261.54159797707,1544
1263.6685456737569,1576
1265.7949301723515,1600
1267.9207517126597,1575
1270.046010534565,1577
1272.1707068780306,1627
1274.2948409830983,1613
1276.4184130898889,1624
1278.541423438603,1586
1280.6638722695184,1641
1282.785759822993,1609
1284.9070863394636,1594
1287.0278520594447,1670
1289.1480572235314,1665
1291.2677020723963,1645
1293.3867868467923,1616
1295.5053117875495,1650
1297.623277135579,1641
1299.740683131868,1658
1301.8575300174857,1661
1303.973818033578,1668
1306.0895474213703,1722
1308.2047184221678,1701
1310.3193312773528,1664
1312.4333862283888,1684
1314.5468835168163,1685
1316.659823384255,1627
1318.7722060724045,1689
1320.8840318230418,1706
1322.9953008780249,1588
1325.1060134792888,1667
1327.2161698688478,1710
1329.3257702887959,1729
1331.4348149813054,1663
1333.5433041886276,1682
1335.6512381530933,1645
1337.7586171171101,1599
1339.8654413231675,1724
1341.9717110138317,1678
1344.0774264317488,1647
1346.1825878196432,1733
1348.2871954203192,1685
1350.3912494766587,1698
1352.4947502316231,1641
1354.5976979282532,1622
1356.7000928096686,1643
1358.8019351190665,1652
1360.9032250997243,1664
1363.0039629949988,1632
1365.1041490483235,1633
1367.2037835032133,1644
1369.3028666032606,1627
1371.401398592137,1625
1373.4993797135926,1627
1375.5968102114575,1680
1377.6936903296396,1635
1379.7900203121262,1656
1381.8858004029835,1656
1383.9810308463561,1715
1386.075711886469,1718
1388.1698437676241,1730
1390.2634267342032,1662
1392.356461030667,1707
1394.4489469015557,1697
1396.5408845914872,1757
1398.6322743451592,1731
1400.7231164073469,1784
1402.813411022907,1716
1404.903158436773,1851
1406.9923588939578,1739
1409.0810126395531,1793
1411.1691199187303,1743
1413.2566809767386,1773
1415.343696058907,1775
1417.4301654106425,1818
1419.5160892774315,1762
1421.6014679048399,1795
1423.6863015385125,1797
1425.7705904241707,1849
1427.8543348076178,1830
1429.9375349347342,1887
1432.0201910514802,1821
1434.102303403894,1823
1436.1838722380944,1899
1438.2648978002767,1827
1440.3453803367174,1830
1442.4253200937692,1940
1444.5047173178677,1954
1446.5835722555234,1932
1448.6618851533285,1920
1450.739656257952,2009
1452.8168858161434,2048
1454.8935740747306,2146
1456.96972128062,2125
1459.045327680797,2130
1461.120393522327,2176
1463.1949190523528,2142
1465.2689045180973,2132
1467.3423501668608,2172
1469.415256246024,2238
1471.4876230030463,2314
1473.559450685465,2382
1475.6307395408976,2369
1477.7014898170391,2339
1479.771701761665,2470
1481.8413756226287,2448
1483.9105116478618,2504
1485.9791100853772,2547
1488.0471711832643,2514
1490.1146951896926,2591
1492.1816823529098,2621
1494.2481329212433,2660
1496.3140471430984,2739
1498.3794252669609,2766
1500.4442675413939,2732
1502.5085742150404,2818
1504.572345536622,2828
1506.6355817549388,2919
1508.6982831188702,2970
1510.7604498773744,2865
1512.8220822794883,3034
1514.8831805743293,2973
1516.9437450110909,3077
1519.003775839048,3122
1521.0632733075522,3141
1523.1222376660367,3246
1525.1806691640113,3194
1527.2385680510652,3265
1529.2959345768668,3351
1531.3527689911643,3368
1533.4090715437833,3471
1535.4648424846291,3605
1537.5200820636855,3518
1539.5747905310159,3679
1541.6289681367616,3667
1543.6826151311434,3723
1545.7357317644614,3756
1547.7883182870937,3889
1549.8403749494987,3979
1551.8919020022113,4071
1553.9428996958477,4033
1555.9933682811015,4163
1558.0433080087469,4191
1560.0927191296346,4332
1562.1416018946961,4366
1564.1899565549415,4296
1566.2377833614592,4361
1568.2850825654164,4210
1570.3318544180606,4182
1572.3780991707158,4019
1574.423817074788,3804
1576.4690083817595,3672
1578.5136733431923,3403
1580.5578122107272,3265
1582.601425236085,3210
1584.6445126710646,3004
1586.6870747675434,2818
1588.7291117774776,2761
1590.7706239529034,2634
1592.8116115459347,2563
1594.8520748087658,2438
1596.8920139936686,2349
1598.9314293529933,2316
1600.9703211391711,2184
1603.008689604711,2220
1605.0465350022005,2162
1607.0838575843068,2120
1609.1206576037753,2031
1611.1569353134305,1912
1613.1926909661765,1960
1615.2279248149953,1975
1617.2626371129481,1819
1619.2968281131757,1901
1621.3304980688963,1869
1623.3636472334088,1784
1625.39627586009,1803
1627.428384202396,1722
1629.459972513861,1771
1631.4910410480993,1734
1633.5215900588028,1819
1635.551619799744,1713
1637.5811305247717,1720
1639.6101224878166,1708
1641.6385959428862,1664
1643.6665511440683,1676
1645.693988345528,1699
1647.7209078015112,1708
1649.7473097663405,1719
1651.7731944944203,1649
1653.7985622402307,1630
1655.823413258333,1715
1657.847747803366,1690
1659.8715661300494,1662
1661.8948684931793,1588
1663.9176551476316,1631
1665.9399263483624,1696
1667.9616823504057,1709
1669.982923408873,1610
1672.0036497789574,1659
1674.0238617159293,1676
1676.043559475138,1727
1678.0627433120121,1679
1680.081413482059,1626
1682.0995702408654,1629
1684.117213844096,1576
1686.134344547495,1647
1688.1509626068864,1619
1690.1670682781705,1610
1692.182661817329,1681
1694.1977434804217,1652
1696.2123135235875,1577
1698.226372203043,1603
1700.2399197750851,1666
1702.2529564960905,1692
1704.2654826225112,1688
1706.277498410882,1606
1708.2890041178139,1681
1710.2999999999988,1582
1712.3104863142066,1550
1714.3204633172854,1577
1716.329931266163,1656
1718.3388904178469,1595
1720.3473410294214,1618
1722.3552833580516,1635
1724.3627176609807,1642
1726.3696441955308,1659
1728.3760632191033,1608
1730.3819749891782,1672
1732.3873797633146,1565
1734.3922777991502,1541
1736.3966693544012,1595
1738.4005546868639,1586
1740.4039340544127,1549
1742.406807715001,1494
1744.4091759266616,1570
1746.4110389475054,1578
1748.4123970357223,1567
1750.413250449582,1571
1752.4135994474318,1532
1754.4134442876993,1595
1756.4127852288902,1593
1758.4116225295893,1526
1760.4099564484595,1555
1762.407787244244,1570
1764.405115175764,1604
1766.4019405019203,1496
1768.3982634816916,1583
1770.3940843741357,1521
1772.3894034383907,1507
1774.3842209336717,1519
1776.378537119274,1498
1778.372352254571,1544
1780.3656665990156,1551
1782.3584804121397,1496
1784.3507939535534,1505
1786.3426074829463,1476
1788.3339212600863,1533
1790.3247355448211,1499
1792.3150505970766,1489
1794.3048666768573,1492
1796.2941840442477,1529
1798.2830029594106,1514
1800.2713236825884,1479
1802.2591464741004,1473
1804.2464715943465,1547
1806.2332993038058,1522
1808.2196298630352,1423
1810.2054635326708,1456
1812.190800573428,1488
1814.175641246101,1456
1816.1599858115628,1526
1818.1438345307652,1476
1820.127187664738,1536
1822.1100454745924,1456
1824.092408221516,1520
1826.0742761667766,1462
1828.055649571721,1484
1830.0365286977735,1549
1832.0169138064398,1497
1833.9968051593014,1523
1835.9762030180214,1523
1837.9551076443408,1495
1839.9335193000788,1488
1841.9114382471344,1484
1843.888864747485,1447
1845.8657990631878,1470
1847.842241456378,1519
1849.8181921892697,1402
1851.7936515241558,1475
1853.7686197234098,1457
1855.7430970494815,1430
1857.7170837649014,1485
1859.6905801322787,1482
1861.6635864143004,1452
1863.6361028737338,1438
1865.608129773424,1509
1867.5796673762961,1502
1869.5507159453537,1435
1871.521275743678,1450
1873.4913470344313,1442
1875.4609300808534,1467
1877.4300251462632,1461
1879.3986324940588,1500
1881.366752387717,1477
1883.3343850907936,1459
1885.3015308669228,1525
1887.268189979819,1438
1889.2343626932739,1407
1891.2000492711595,1474
1893.1652499774254,1477
1895.1299650761011,1520
1897.0941948312952,1489
1899.0579395071945,1505
1901.0211993680641,1481
1902.98397467825,1422
1904.9462657021745,1471
1906.9080727043415,1428
1908.869395949332,1483
1910.8302357018065,1463
1912.790592226504,1449
1914.7504657882428,1437
1916.7098566519212,1489
1918.6687650825133,1447
1920.6271913450764,1446
1922.5851357047422,1452
1924.5425984267245,1419
1926.499579776314,1438
1928.4560800188833,1422
1930.4120994198802,1551
1932.367638244833,1508
1934.32269675935,1541
1936.2772752291175,1471
1938.231373919899,1476
1940.1849930975404,1476
1942.1381330279637,1452
1944.0907939771696,1421
1946.0429762112412,1496
1947.9946799963363,1450
1949.9459055986945,1434
1951.896653284633,1451
1953.8469233205478,1468
1955.7967159729142,1436
1957.7460315082863,1435
1959.6948701932974,1454
1961.6432322946594,1450
1963.5911180791632,1460
1965.5385278136787,1494
1967.4854617651545,1468
1969.4319202006182,1411
1971.377903387176,1443
1973.3234115920136,1476
1975.268445082395,1472
1977.2130041256642,1430
1979.1570889892423,1405
1981.1006999406304,1418
1983.04383724741,1419
1984.986501177238,1430
1986.928691997853,1454
1988.8704099770712,1433
1990.811655382789,1468
1992.7524284829801,1451
1994.692729545698,1440
1996.6325588390755,1360
1998.5719166313224,1495
2000.5108031907307,1481
2002.4492187856677,1388
2004.387163684583,1464
2006.3246381560011,1476
2008.2616424685298,1417
2010.1981768908527,1446
2012.1342416917332,1407
2014.069837140014,1408
2016.0049635046162,1403
2017.9396210545406,1434
2019.8738100588666,1441
2021.8075307867502,1467
2023.740783507431,1445
2025.6735684902228,1403
2027.6058860045214,1425
2029.5377363198004,1387
2031.4691197056118,1428
2033.4000364315875,1450
2035.3304867674374,1394
2037.260470982952,1421
2039.189989347998,1396
2041.1190421325232,1409
2043.047629606554,1431
2044.9757520401945,1385
2046.9034097036288,1418
2048.8306028671195,1383
2050.7573318010086,1406
2052.683596775716,1385
2054.609398061742,1393
2056.5347359296647,1405
2058.4596106501403,1401
2060.384022493906,1426
2062.3079717317764,1409
2064.231458634646,1353
2066.1544834734873,1382
2068.077046519352,1413
2069.99914804337,1433
2071.9207883167524,1479
2073.8419676107865,1423
2075.7626861968406,1378
2077.6829443463607,1432
2079.6027423308715,1365
2081.522080421977,1441
2083.440958891362,1443
2085.359378010786,1339
2087.2773380520907,1380
2089.194839287196,1349
2091.111881988101,1457
2093.0284664268825,1382
2094.9445928756973,1338
2096.86026160678,1386
2098.775472892446,1418
2100.690227005088,1448
2102.604524217178,1463
2104.5183648012676,1420
2106.431749029985,1385
2108.34467717604,1409
2110.2571495122206,1384
2112.169166311393,1469
2114.080727846503,1415
2115.9918343905747,1384
2117.902486216711,1431
2119.8126835980956,1397
2121.722426807987,1421
2123.6317161197285,1451
2125.5405518067364,1485
2127.448934142509,1435
2129.356863400624,1437
2131.264339854737,1410
2133.1713637785815,1463
2135.077935445972,1452
2136.9840551308002,1383
2138.889723107037,1408
2140.7949396487334,1446
2142.699705030018,1422
2144.6040195250994,1425
2146.507883408264,1439
2148.4112969538774,1436
2150.3142604363848,1425
2152.2167741303097,1471
2154.1188383102535,1486
2156.0204532508997,1422
2157.9216192270064,1480
2159.822336513414,1437
2161.7226053850413,1489
2163.622426116884,1447
2165.5217989840185,1450
2167.4207242616,1458
2169.319202224862,1467
2171.2172331491165,1489
2173.1148173097563,1453
2175.0119549822507,1476
2176.90864644215,1506
2178.8048919650823,1478
2180.7006918267534,1440
2182.596046302952,1440
2184.4909556695407,1551
2186.3854202024645,1477
2188.279440177746,1470
2190.173015871487,1565
2192.066147559868,1561
2193.958835519149,1556
2195.851080025667,1559
2197.7428813558417,1505
2199.6342397861667,1506
2201.5251555932186,1550
2203.415629053651,1493
2205.3056604441986,1574
2207.19525004167,1536
2209.084398122958,1532
2210.9731049650327,1468
2212.861370844941,1558
2214.749196039812,1549
2216.636580826851,1604
2218.523525483344,1652
2220.410030286655,1592
2222.296095514226,1522
2224.1817214435805,1570
2226.066908352319,1584
2227.951656518121,1587
2229.835966218746,1577
2231.71983773203,1529
2233.6032713358913,1563
2235.486267308324,1553
2237.3688259274036,1577
2239.2509474712824,1537
2241.132632218193,1543
2243.013880446447,1534
2244.8946924344323,1537
2246.7750684606203,1550
2248.6550088035574,1492
2250.534513741871,1522
2252.413583554265,1568
2254.292218519526,1568
2256.170418916517,1624
2258.0481850241786,1553
2259.925517121534,1539
2261.8024154876825,1567
2263.678880401803,1591
2265.5549121431536,1549
2267.430510991071,1633
2269.305677224971,1579
2271.180411124348,1478
2273.0547129687766,1495
2274.9285830379076,1512
2276.8020216114737,1518
2278.6750289692845,1567
2280.5476053912294,1599
2282.4197511572766,1567
2284.2914665474727,1580
2286.162751841943,1644
2288.0336073208937,1624
2289.904033264608,1617
2291.774029953448,1654
2293.6435976678554,1594
2295.5127366883517,1617
2297.381447295534,1529
2299.2497297700825,1452
2301.1175843927526,1430
2302.9850114443825,1386
2304.852011205885,1368
2306.7185839582553,1390
2308.5847299825664,1368
2310.4504495599676,1382
2312.3157429716925,1351
2314.1806104990483,1325
2316.0450524234247,1320
2317.9090690262888,1307
2319.772660589186,1328
2321.635827393742,1290
2323.498569721661,1254
2325.3608878547248,1282
2327.2227820747967,1318
2329.0842526638157,1288
2330.945299903803,1329
2332.805924076857,1323
2334.6661254651535,1270
2336.525904350951,1332
2338.3852610165827,1325
2340.244195744464,1270
2342.102708817088,1254
2343.9608005170253,1324
2345.8184711269287,1306
2347.675720929526,1328
2349.532550207628,1370
2351.38895924412,1282
2353.24494832197,1284
2355.100517724223,1298
2356.955667734004,1347
2358.810398634514,1306
2360.664710709037,1325
2362.5186042409337,1338
2364.3720795136437,1288
2366.225136810686,1303
2368.0777764156583,1336
2369.929998612237,1326
2371.7818036841777,1339
2373.633191915315,1350
2375.484163589562,1326
2377.3347189909114,1410
2379.184858403434,1343
2381.03458211128,1318
2382.8838903986775,1357
2384.732783549936,1333
2386.5812618494406,1363
2388.4293255816588,1332
2390.2769750311327,1307
2392.1242104824883,1363
2393.971032220427,1365
2395.8174405297295,1337
2397.6634356952563,1271
2399.509018001947,1399
2401.3541877348193,1352
2403.1989451789705,1400
2405.043290619576,1348
2406.8872243418905,1309
2408.730746631247,1320
2410.5738577730594,1340
2412.4165580528183,1346
2414.258847756095,1335
2416.100727168537,1375
2417.9421965758734,1354
2419.783256263912,1365
2421.623906518538,1345
2423.4641476257157,1384
2425.303979871491,1356
2427.143403541984,1287
2428.9824189233977,1343
2430.821026302012,1343
2432.6592259641866,1319
2434.497018196361,1354
2436.33440328505,1378
2438.171381516851,1330
2440.00795317844,1365
2441.844118556569,1359
2443.6798779380724,1358
2445.5152316098606,1365
2447.3501798589255,1352
2449.1847229723357,1377
2451.0188612372403,1359
2452.8525949408663,1339
2454.6859243705203,1338
2456.518849813587,1339
2458.3513715575314,1404
2460.183489889895,1370
2462.015205098301,1403
2463.8465174704493,1323
2465.67742729412,1354
2467.5079348571717,1357
2469.338040447542,1383
2471.1677443532476,1366
2472.9970468623833,1425
2474.825948263123,1419
2476.6544488437207,1436
2478.482548892508,1300
2480.310248697896,1394
2482.137548548374,1390
2483.9644487325118,1405
2485.790949538956,1412
2487.617051256433,1354
2489.44275417375,1368
2491.26805857979,1399
2493.0929647635157,1371
2494.917473013971,1442
2496.741583620276,1382
2498.5652968716304,1391
2500.3886130573137,1386
2502.2115324666834,1394
2504.0340553891765,1487
2505.856182114308,1429
2507.6779129316733,1505
2509.499248130945,1428
2511.3201880018764,1482
2513.140732834298,1443
2514.9608829181198,1433
2516.780638543331,1401
2518.6,1403
2520.418967578273,1415
2522.237541568376,1471
2524.0557222606144,1355
2525.8735099453706,1384
2527.6909049131086,1397
2529.507907454368,1437
2531.32451785977,1466
2533.140736420014,1492
2534.9565634258774,1505
2536.771999168218,1474
2538.5870439379714,1516
2540.4016980261526,1568
2542.2159617238544,1479
2544.02983532225,1536
2545.8433191125914,1550
2547.656413386209,1557
2549.4691184345115,1543
2551.2814345489874,1602
2553.093362021204,1517
2554.904901142808,1526
2556.716052205523,1566
2558.526815501153,1597
2560.3371913215824,1573
2562.147179958771,1610
2563.956781704761,1606
2565.7659968516705,1605
2567.5748256916986,1638
2569.3832685171224,1628
2571.1913256202984,1594
2572.9989972936614,1643
2574.806283829725,1662
2576.613185521084,1613
2578.4197026604074,1729
2580.2258355404483,1741
2582.031584454035,1680
2583.836949694077,1645
2585.6419315535613,1751
2587.4465303255533,1754
2589.2507463032002,1715
2591.0545797797245,1780
2592.8580310484303,1810
2594.6611004026995,1760
2596.463788135992,1806
2598.266094541849,1756
2600.0680199138874,1761
2601.869564545807,1699
2603.670728731383,1751
2605.4715127644704,1733
2607.2719169390048,1772
2609.071941548998,1782
2610.8715868885433,1788
2612.670853251811,1763
2614.469740933052,1806
2616.268250226594,1739
2618.0663814268455,1820
2619.864134828292,1809
2621.6615107255006,1721
2623.458509413115,1754
2625.2551311858597,1750
2627.0513763385347,1760
2628.8472451660223,1770
2630.6427379632833,1699
2632.4378550253564,1779
2634.232596647359,1684
2636.026963124488,1707
2637.8209547520187,1739
2639.6145718253065,1700
2641.407814639785,1650
2643.200683490966,1738
2644.9931786744414,1683
2646.7853004858807,1669
2648.577049221034,1681
2650.3684251757277,1590
2652.1594286458712,1616
2653.9500599274484,1658
2655.740319316525,1647
2657.5302071092437,1611
2659.3197236018286,1581
2661.10886909058,1574
2662.8976438718782,1509
2664.686048242183,1528
2666.4740824980327,1581
2668.2617469360443,1512
2670.0490418529134,1579
2671.8359675454153,1512
2673.622524310403,1551
2675.408712444811,1482
2677.1945322456495,1534
2678.979984010009,1495
2680.76506803506,1419
2682.5497846180497,1445
2684.334134056306,1416
2686.1181166472343,1436
2687.9017326883213,1478
2689.6849824771293,1461
2691.4678663113013,1402
2693.2503844885596,1426
2695.032537306705,1355
2696.8143250636167,1476
2698.5957480572542,1407
2700.3768065856534,1422
2702.1575009469316,1449
2703.937831439283,1400
2705.717798360982,1361
2707.4974020103837,1419
2709.276642685917,1410
2711.055520686095,1429
2712.834036309506,1435
2714.612189854819,1407
2716.389981620782,1394
2718.1674119062204,1362
2719.944481010041,1402
2721.721189231226,1309
2723.4975368688415,1339
2725.273524222027,1355
2727.0491515900053,1361
2728.824419272075,1345
2730.5993275676146,1361
2732.3738767760838,1324
2734.148067197016,1347
2735.921899130031,1405
2737.6953728748194,1352
2739.468488731156,1356
2741.2412469988926,1410
2743.0136479779617,1324
2744.785691968372,1334
2746.5573792702116,1347
2748.3287101836504,1319
2750.099685008934,1387
2751.870304046388,1294
2753.640567596418,1352
2755.4104759595057,1348
2757.1800294362156,1320
2758.949228327187,1346
2760.7180729331412,1341
2762.486563554877,1335
2764.254700493272,1328
2766.022484049284,1366
2767.789914523947,1321
2769.5569922183786,1299
2771.3237174337705,1308
2773.090090471394,1340
2774.8561116326036,1271
2776.6217812188274,1292
2778.3870995315756,1337
2780.1520668724356,1359
2781.9166835430747,1260
2783.6809498452394,1333
2785.444866080754,1338
2787.2084325515225,1350
2788.971649559527,1339
2790.73451740683,1289
2792.4970363955713,1288
2794.2592068279705,1339
2796.0210290063264,1323
2797.7825032330147,1274
2799.543629810493,1366
2801.304409041296,1331
2803.0648412280366,1293
2804.8249266734088,1343
2806.5846656801846,1313
2808.344058551212,1341
2810.1031055894246,1376
2811.8618070978273,1340
2813.6201633795085,1312
2815.378174737636,1354
2817.1358414754536,1324
2818.893163896285,1414
2820.6501423035334,1352
2822.4067770006814,1360
2824.1630682912883,1356
2825.9190164789957,1357
2827.6746218675207,1297
2829.429884760661,1314
2831.184805462294,1334
2832.9393842763743,1323
2834.693621506936,1360
2836.4475174580916,1328
2838.201072434034,1301
2839.954286739034,1321
2841.707160677441,1318
2843.459694553685,1317
2845.2118886722724,1306
2846.96374333779,1338
2848.7152588549034,1347
2850.4664355283567,1309
2852.217273662973,1358
2853.9677735636546,1346
2855.7179355353833,1377
2857.4677598832186,1306
2859.217246912299,1271
2860.9663969278427,1302
2862.715210235146,1279
2864.4636871395846,1341
2866.211827946614,1306
2867.9596329617652,1330
2869.7071024906536,1360
2871.4542368389684,1286
2873.20103631248,1294
2874.947501217038,1249
2876.6936318585695,1297
2878.4394285430812,1359
2880.1848915766604,1355
2881.9300212654707,1371
2883.6748179157553,1304
2885.4192818338374,1279
2887.1634133261173,1290
2888.907212699077,1323
2890.6506802592744,1311
2892.393816313348,1346
2894.1366211680142,1329
2895.8790951300693,1329
2897.621238506388,1294
2899.363051603925,1347
2901.1045347297118,1338
2902.8456881908596,1373
2904.58651229456,1330
2906.327007348081,1288
2908.067173658772,1330
2909.8070115340597,1295
2911.5465212814497,1375
2913.285703208527,1346
2915.0245576229563,1322
2916.7630848324807,1323
2918.5012851449196,1203
2920.2391588681758,1354
2921.976706310227,1323
2923.7139277791334,1330
2925.4508235830313,1328
2927.187394030137,1273
2928.923639428745,1363
2930.6595600872306,1357
2932.395156314046,1338
2934.1304284177218,1332
2935.8653767068713,1381
2937.6000014901815,1275
2939.3343030764227,1332
2941.068281774442,1309
2942.8019378931644,1292
2944.5352717415976,1335
2946.2682836288236,1333
2948.0009738640065,1338
2949.7333427563885,1333
2951.465390615289,1301
2953.1971177501086,1338
2954.9285244703265,1312
2956.6596110855,1334
2958.3903779052657,1318
2960.1208252393385,1352
2961.8509533975125,1261
2963.5807626896617,1284
2965.3102534257378,1352
2967.0394259157715,1328
2968.768280469873,1276
2970.496817398232,1326
2972.2250370111146,1347
2973.952939618869,1319
2975.6805255319196,1309
2977.4077950607707,1332
2979.134748516006,1372
2980.861386208289,1347
2982.587708448359,1337
2984.313715547037,1342
2986.039407815222,1334
2987.764785563891,1345
2989.489849104102,1291
2991.2145987469908,1370
2992.9390348037705,1303
2994.6631575857346,1307
2996.3869674042576,1348
2998.1104645707887,1316
2999.83364939686,1314
3001.5565221940783,1335
3003.2790832741334,1304
3005.0013329487924,1250
3006.7232715298996,1295
3008.4448993293804,1331
3010.166216659239,1311
3011.887223831558,1291
3013.607921158498,1295
3015.3283089522993,1281
3017.0483875252826,1317
3018.7681571898443,1368
3020.4876182584626,1290
3022.2067710436927,1294
3023.9256158581707,1328
3025.644153014609,1353
3027.362382825801,1367
3029.0803056046193,1352
3030.797921664012,1294
3032.5152313170106,1311
3034.2322348767225,1275
3035.9489326563353,1322
3037.665324969115,1329
3039.3814121284063,1330
3041.097194447633,1340
3042.812672240299,1320
3044.5278458199855,1369
3046.2427155003525,1317
3047.9572815951406,1353
3049.671544418167,1314
3051.38550428333,1297
3053.0991615046073,1366
3054.812516396051,1415
3056.5255692717974,1263
3058.2383204460575,1355
3059.9507702331257,1313
3061.662918947372,1282
3063.3747669032446,1336
3065.0863144152736,1348
3066.7975617980674,1325
3068.508509366309,1351
3070.219157434767,1292
3071.9295063182844,1321
3073.639556331785,1294
3075.3493077902704,1282
3077.058761008821,1301
3078.7679163025964,1330
3080.476773986837,1349
3082.1853343768594,1392
3083.89359778806,1370
3085.6015645359153,1290
3087.3092349359786,1362
3089.016609303884,1343
3090.7236879553434,1307
3092.4304712061476,1293
3094.136959372166,1350
3095.843152769349,1275
3097.5490517137237,1323
3099.2546565213966,1336
3100.959967508554,1302
3102.66498499146,1344
3104.3697092864577,1313
3106.0741407099695,1357
3107.778279578498,1366
3109.482126208622,1296
3111.1856809170004,1279
3112.8889440203716,1343
3114.5919158355528,1327
3116.294596679439,1315
3117.996986869006,1399
3119.6990867213062,1350
3121.4008965534726,1322
3123.102416682717,1387
3124.803647426329,1349
3126.5045891016784,1333
3128.205242026213,1370
3129.90560651746,1383
3131.605682893025,1419
3133.3054714705922,1362
3135.0049725679282,1315
3136.7041865028714,1334
3138.4031135933465,1353
3140.101754157353,1302
3141.800108512971,1357
3143.498176978357,1332
3145.1959598717494,1376
3146.8934575114636,1352
3148.5906702158954,1366
3150.2875983035183,1363
3151.9842420928853,1288
3153.680601902627,1323
3155.376678051456,1266
3157.07247085816,1407
3158.767980641609,1367
3160.463207720748,1343
3162.158152414606,1323
3163.8528150422862,1390
3165.5471959229726,1327
3167.2412953759303,1327
3168.9351137204976,1288
3170.628651276098,1325
3172.3219083622307,1318
3174.014885298474,1273
3175.707582404485,1286
3177.4000000000005,1368
3179.092138404835,1338
3180.7839979388846,1377
3182.47557892212,1308
3184.166881674594,1296
3185.8579065164386,1347
3187.5486537678626,1370
3189.2391237491547,1284
3190.9293167806827,1315
3192.6192331828934,1315
3194.3088732763117,1277
3195.998237381542,1300
3197.687325819268,1305
3199.376138910251,1306
3201.064676975334,1262
3202.7529403354347,1324
3204.4409293115523,1304
3206.1286442247647,1233
3207.816085396229,1277
3209.5032531471825,1277
3211.190147798936,1273
3212.8767696728846,1273
3214.5631190905015,1274
3216.2491963733373,1306
3217.9350018430214,1277
3219.6205358212637,1265
3221.305798629851,1297
3222.990790590651,1320
3224.6755120256103,1317
3226.359963256751,1302
3228.0441446061795,1272
3229.7280563960758,1320
3231.411698948703,1314
3233.0950725863995,1200
3234.778177631587,1314
3236.461014406761,1332
3238.1435832345005,1298
3239.8258844374595,1327
3241.507918338374,1311
3243.1896852600576,1314
3244.8711855254023,1354
3246.552419457381,1323
3248.233387379042,1262
3249.914089613516,1254
3251.59452648401,1318
3253.274698313813,1356
3254.95460542629,1333
3256.6342481448855,1278
3258.313626793125,1316
3259.9927416946084,1216
3261.6715931730196,1297
3263.3501815521176,1256
3265.0285071557437,1282
3266.706570307815,1246
3268.3843713323286,1256
3270.0619105533615,1291
3271.739188295068,1298
3273.4162048816834,1241
3275.0929606375184,1347
3276.769455886966,1262
3278.445690954498,1318
3280.1216661646613,1258
3281.797381842087,1285
3283.4728383114807,1301
3285.1480358976296,1350
3286.8229749253996,1280
3288.4976557197333,1283
3290.172078605655,1274
3291.846243908266,1280
3293.5201519527463,1278
3295.193803064357,1310
3296.8671975684374,1276
3298.5403357904024,1316
3300.21321805575,1270
3301.8858446900567,1292
3303.558216018975,1249
3305.23033236824,1269
3306.9021940636603,1280
3308.57380143113,1286
3310.2451547966184,1279
3311.916254486174,1293
3313.5871008259246,1303
3315.2576941420766,1314
3316.9280347609147,1280
3318.5981230088046,1284
3320.2679592121895,1234
3321.9375436975924,1223
3323.606876791612,1245
3325.27595882093,1287
3326.944790112305,1269
3328.6133709925753,1298
3330.2817017886573,1300
3331.949782827547,1276
3333.617614436319,1308
3335.2851969421245,1276
3336.952530672199,1280
3338.619615953853,1260
3340.286453114475,1326
3341.9530424815357,1270
3343.619384382583,1325
3345.2854791452437,1274
3346.951327097224,1277
3348.6169285663073,1274
3350.2822838803577,1293
3351.947393367319,1264
3353.61225735521,1290
3355.2768761721345,1308
3356.9412501462693,1276
3358.605379605873,1302
3360.2692648792827,1317
3361.9329062949146,1282
3363.596304181263,1310
