CollectionTime,7/10/2024 4:34:42 PM
ExposureUsed,3
CalibratedSpectrum
-962.7078968117929,507
-959.9714848408522,527
-957.2358232597828,533
-954.5009119013725,546
-951.7667505983302,520
-949.0333391832855,547
-946.3006774887896,551
-943.5687653473143,529
-940.837602591253,560
-938.1071890529199,540
-935.3775245645503,529
-932.6486089583007,533
-929.9204420662485,556
-927.1930237203925,583
-924.4663537526524,528
-921.7404319948689,549
-919.0152582788041,591
-916.2908324361409,602
-913.5671542984834,551
-910.8442236973568,536
-908.1220404642074,526
-905.4006044304027,556
-902.679915427231,577
-899.959973285902,519
-897.2407778375464,532
-894.5223289132158,543
-891.8046263438832,546
-889.0876699604426,532
-886.3714595937089,554
-883.6559950744183,518
-880.9412762332282,534
-878.2273029007168,545
-875.5140749073835,509
-872.8015920836489,534
-870.0898542598545,501
-867.3788612662631,493
-864.6686129330585,557
-861.9591090903457,540
-859.2503495681506,571
-856.5423341964203,544
-853.8350628050229,540
-851.1285352237478,514
-848.4227512823054,497
-845.7177108103272,509
-843.0134136373656,553
-840.3098595928943,566
-837.6070485063082,573
-834.9049802069229,531
-832.2036545239757,532
-829.5030712866244,532
-826.8032303239481,534
-824.1041314649472,520
-821.4057745385428,549
-818.7081593735775,529
-816.0112857988148,542
-813.3151536429393,525
-810.6197627345566,532
-807.9251129021936,519
-805.2312039742981,526
-802.5380357792392,527
-799.8456081453069,583
-797.1539209007124,561
-794.462973873588,568
-791.772766891987,553
-789.083299783884,543
-786.3945723771743,559
-783.7065844996748,552
-781.0193359791231,546
-778.3328266431781,545
-775.6470563194197,531
-772.9620248353489,522
-770.2777320183878,540
-767.5941776958798,568
-764.9113616950891,543
-762.2292838432011,585
-759.5479439673222,561
-756.8673418944801,500
-754.1874774516235,563
-751.5083504656222,570
-748.8299607632671,616
-746.15230817127,593
-743.475392516264,562
-740.7992136248035,580
-738.1237713233636,553
-735.4490654383407,573
-732.7750957960521,561
-730.1018622227365,560
-727.4293645445534,583
-724.7576025875837,578
-722.0865761778291,563
-719.4162851412126,571
-716.7467293035781,601
-714.0779084906909,616
-711.409822528237,593
-708.7424712418238,586
-706.0758544569796,548
-703.4099719991541,589
-700.7448236937178,654
-698.0804093659622,631
-695.4167288411002,631
-692.7537819442656,602
-690.0915685005134,569
-687.4300883348199,564
-684.7693412720819,612
-682.1093271371178,597
-679.4500457546669,636
-676.7914969493897,625
-674.1336805458676,606
-671.4765963686034,584
-668.8202442420206,601
-666.1646239904642,580
-663.5097354382001,623
-660.8555784094151,601
-658.2021527282176,625
-655.5494582186366,585
-652.8974947046223,607
-650.2462620100463,608
-647.5957599587009,606
-644.9459883742998,641
-642.2969470804776,623
-639.6486359007902,623
-637.0010546587141,654
-634.3542031776476,634
-631.7080812809096,655
-629.0626887917401,609
-626.4180255333008,641
-623.7740913286734,699
-621.1308860008619,699
-618.4884093727904,649
-615.8466612673046,658
-613.2056415071715,645
-610.5653499150785,667
-607.9257863136347,643
-605.28695052537,687
-602.6488423727357,661
-600.0114616781036,638
-597.3748082637674,660
-594.7388819519412,656
-592.1036825647604,700
-589.4692099242818,760
-586.8354638524829,754
-584.2024441712624,737
-581.5701507024403,675
-578.9385832677575,649
-576.3077416888759,711
-573.6776257873787,709
-571.0482353847704,723
-568.4195703024757,696
-565.7916303618415,712
-563.164415384135,680
-560.5379251905453,695
-557.9121596021815,654
-555.2871184400748,680
-552.6628015251767,684
-550.0392086783606,705
-547.4163397204204,720
-544.794194472071,716
-542.1727727539491,754
-539.5520743866118,773
-536.9320991905377,743
-534.3128469861261,779
-531.6943175936979,798
-529.0765108334947,855
-526.4594265256793,883
-523.8430644903358,987
-521.2274245474689,1083
-518.612506517005,1098
-515.9983102187913,1098
-513.3848354725959,1143
-510.77208209810846,1093
-508.16004991493924,1282
-505.5487387426199,1460
-502.9381484006032,1590
-500.3282787082628,1739
-497.71912948489364,1745
-495.1107005497117,1636
-492.5029917218539,1468
-489.8960028203786,1333
-487.28973366426493,1126
-484.68418407241325,1067
-482.07935386364494,1001
-479.47524285670266,914
-476.87185087025,901
-474.2691777228715,885
-471.66722323307334,929
-469.0659872192821,907
-466.4654694998459,903
-463.86566989303384,869
-461.26658821703614,856
-458.66822428996414,867
-456.07057792985,904
-453.4736489546475,850
-450.877437182231,919
-448.28194243039627,854
-445.68716451686,811
-443.09310325926003,808
-440.49975847515555,843
-437.9071299820263,867
-435.31521759727354,836
-432.72402113821954,937
-430.13354042210767,937
-427.5437752661022,891
-424.95472548728867,883
-422.36639090267386,928
-419.7787713291855,936
-417.1918665836721,944
-414.60567648290385,960
-412.0202008435715,934
-409.4354394822874,1007
-406.8513922155845,995
-404.26805885991723,949
-401.685439231661,957
-399.103533147112,901
-396.522340422488,960
-393.9418608739278,905
-391.3620943174908,955
-388.7830405691583,992
-386.2046994448317,862
-383.6270707603344,861
-381.05015433141045,809
-378.473949973725,803
-375.8984575028645,797
-373.32367673433623,744
-370.74960748356875,665
-368.1762495659117,678
-365.60360279663576,650
-363.03166699093265,573
-360.4604419639154,573
-357.8899275306178,558
-355.32012350599507,552
-352.7510297049233,536
-350.1826459421999,586
-347.61497203254316,498
-345.04800779059235,494
-342.4817530309082,533
-339.91620756797226,586
-337.35137121618743,602
-334.7872437898774,605
-332.22382510328725,578
-329.66111497058273,546
-327.09911320585127,569
-324.53781962310075,577
-321.9772340362607,540
-319.4173562591816,528
-316.8581861056348,521
-314.2997233893127,508
-311.7419679238294,481
-309.1849195227194,490
-306.62857799943856,542
-304.0729431673641,596
-301.51801483979375,644
-298.963792829947,588
-296.41027695096386,614
-293.85746701590574,676
-291.3053628377552,710
-288.7539642294155,672
-286.2032710037115,673
-283.65328297338897,581
-281.1039999511146,593
-278.5554217494762,696
-276.007548180983,695
-273.4603790580651,575
-270.9139141930734,569
-268.3681533982807,591
-265.8230964858798,613
-263.27874326798565,623
-260.7350935566336,672
-258.1921471637804,659
-255.6499039013039,618
-253.10836358100266,728
-250.56752601459698,722
-248.02739101372765,693
-245.48795838995704,741
-242.94922795476816,737
-240.41119951956557,707
-237.8738728956746,755
-235.33724789434166,804
-232.80132432673452,742
-230.2661020039418,705
-227.73158073697357,760
-225.19776033676033,809
-222.66464061415422,819
-220.1322213799284,739
-217.60050244477725,737
-215.06948361931552,671
-212.53916471408013,740
-210.00954553952818,883
-207.48062590603843,914
-204.9524056239104,816
-202.4248845033651,829
-199.8980623545441,776
-197.37193898751036,745
-194.84651421224817,832
-192.32178783866232,846
-189.79775967657952,909
-187.27442953574644,984
-184.7517972258321,1113
-182.2298625564256,1052
-179.7086253370378,932
-177.18808537710026,977
-174.66824248596583,871
-172.14909647290835,886
-169.6306471471229,961
-167.11289431772548,1046
-164.59583779375328,1190
-162.07947738416453,1075
-159.5638128978386,1051
-157.04884414357605,1158
-154.53457093009854,1183
-152.02099306604828,1163
-149.50811035998936,984
-146.99592262040665,956
-144.48442965570587,1008
-141.97363127421409,1009
-139.46352728417958,1086
-136.95411749377126,1077
-134.44540171107985,1064
-131.93737974411636,960
-129.43005140081357,1015
-126.92341648902493,1394
-124.41747481652521,1911
-121.91222619101006,2324
-119.40767042009657,2677
-116.90380731132257,2910
-114.40063667214702,3034
-111.8981583099503,3356
-109.3963720320337,2906
-106.89527764561933,2292
-104.39487495785067,2291
-101.89516377579241,3111
-99.39614390642998,5334
-96.89781515667039,6431
-94.40017733334128,5834
-91.90323024319173,4558
-89.40697369289148,4259
-86.91140748903172,5961
-84.41653143812482,7080
-81.92234534660395,8014
-79.42884902082358,8037
-76.93604226705907,10290
-74.4439248915071,17358
-71.95249670028534,28334
-69.46175749943245,33790
-66.97170709490854,33289
-64.48234529259423,29060
-61.99367189829195,21635
-59.50568671772464,13625
-57.01838955653636,7814
-54.53178022029283,8010
-52.045858514480074,7915
-49.560624244506016,8872
-47.07607721569923,11918
-44.59221723330904,14979
-42.10904410250669,15350
-39.62655762838392,14209
-37.14475761595372,15774
-34.66364387015028,17475
-32.18321619582866,18683
-29.70347439776515,19682
-27.224418280657005,21610
-24.74604764912317,22094
-22.26836230770266,22953
-19.7913620608565,33876
-17.315046712966478,55865
-14.83941606833514,65037
-12.36446993118659,65037
-9.89020810566592,65037
-7.416630395839093,65037
-4.94373660569363,65037
-2.471526539137585,65037
-6.821210263296962E-13,65037
2.47084320796705,65037
4.941003281093458,65037
7.410480415786196,65037
9.879274808531363,65037
12.347386655893956,65037
14.814816154518212,65037
17.28156350112681,65037
19.74762889252179,65037
22.21301252558385,65037
24.67771459727237,22002
27.141735304626195,5306
29.605074844762612,4182
32.06773341487792,3303
34.52971121224755,2765
36.99100843422559,3620
39.45162527824516,3677
41.91156194181792,2650
44.370818622535126,2166
46.82939551806646,1834
49.287292826160524,1882
51.74451074464503,2831
54.201049471426245,2947
56.65690920448981,2341
59.112090141899785,1926
61.56659248179983,1669
64.02041642241159,1579
66.4735621620365,1399
68.92602989905402,1259
71.37781983192338,1414
73.82893215918205,1481
76.27936707944684,1504
78.72912479141326,1602
81.17820549385567,1745
83.62660938562783,1744
86.07433666566146,1714
88.5213875329681,1291
90.96776218663751,1212
93.41346082583925,1094
95.85848364982041,1193
98.30283085790859,1576
100.7465026495089,1655
103.18949922410604,1510
105.63182078126385,1281
108.07346752062438,1174
110.51443964190923,1126
112.95473734491827,1102
115.39436082953114,1245
117.83331029570547,1305
120.27158594347827,1132
122.7091879729652,1304
125.1461165843615,1481
127.58237197794062,1304
130.01795435405518,1077
132.4528639131364,1055
134.88710085569494,1112
137.32066538231982,1079
139.75355769367923,987
142.1857779905207,1008
144.61732647366978,905
147.04820334403132,964
149.47840880258934,1025
151.90794305040674,1171
154.33680628862487,1217
156.76499871846443,1416
159.19252054122433,1539
161.61937195828352,1546
164.04555317109896,1686
166.47106438120693,1951
168.89590579022217,2099
171.320077599839,2100
173.7435800118302,2173
176.16641322804742,2238
178.58857745042144,2178
181.01007288096173,2399
183.43089972175687,2335
185.85105817497413,2312
188.27054844285988,2443
190.6893707277394,2511
193.10752523201643,2420
195.5250121581745,2438
197.9418317087751,2512
200.3579840864594,2557
202.7734694939469,2460
205.18828813403627,2572
207.6024402096051,2865
210.01592592360964,2885
212.42874547908548,2683
214.84089907914665,2784
217.2523869269868,2636
219.66320922587727,2686
222.0733661791695,2616
224.48285799029293,2613
226.8916848627572,2571
229.29984700014882,2689
231.7073446061355,2611
234.11417788446204,2600
236.520347038953,2665
238.92585227351185,2698
241.33069379212054,2593
243.73487179884035,2674
246.1383864978112,2642
248.541238093252,2678
250.9434267894609,2632
253.34495279081432,2722
255.74581630176783,2628
258.1460175268563,2648
260.54555667069314,2601
262.9444339379703,2619
265.3426495334594,2582
267.7402036620107,2649
270.1370965285529,2788
272.53332833809407,2749
274.9288992957214,2673
277.32380960660055,2570
279.718059475976,2567
282.1116491091717,2577
284.5045787115897,2583
286.89684848871195,2590
289.2884586460981,2630
291.67940938938807,2715
294.0697009242996,2642
296.4593334566299,2625
298.84830719225477,2584
301.23662233712923,2538
303.6242790972866,2536
306.01127767884,2424
308.39761828798066,2465
310.78330113097934,2462
313.16832641418534,2484
315.5526943440269,2338
317.9364051270112,2320
320.3194589697242,2347
322.70185607883093,2411
325.0835966610754,2324
327.4646809232805,2240
329.8451090723478,2286
332.2248813152577,2201
334.6039978590701,2212
336.9824589109231,2262
339.36026467803447,2259
341.7374153677,2201
344.113911187295,2277
346.48975234427337,2149
348.8649390461686,2219
351.2394715005918,2225
353.61334991523415,2207
355.9865744978655,2208
358.35914545633375,2183
360.73106299856715,2226
363.10232733257146,2208
365.47293866643247,2146
367.84289720831396,2100
370.2122031664593,2132
372.5808567491905,2163
374.9488581649083,2078
377.31620762209275,2064
379.6829053293021,2162
382.0489514951745,2114
384.4143463284262,2079
386.7790900378528,2056
389.14318283232853,2013
391.50662492080653,2095
393.86941651231916,2085
396.23155781597745,2075
398.5930490409713,2091
400.9538903965696,2143
403.3140820921202,2088
405.6736243370498,2022
408.03251734086336,2038
410.3907613131465,1998
412.74835646356166,1976
415.10530300185144,1980
417.4616011378372,1941
419.81725108141893,1980
422.1722530425758,2051
424.5266072313656,1968
426.880313857925,2059
429.2333731324701,1997
431.58578526529516,1979
433.9375504667738,1963
436.2886689473588,1923
438.63914091758113,1984
440.9889665880513,1917
443.33814616945835,1993
445.68667987257015,1983
448.03456790823395,1928
450.3818104873759,2006
452.72840782100013,1930
455.07436012019105,1914
457.41966759611057,1937
459.7643304600007,1880
462.10834892318155,1965
464.4517231970525,1899
466.79445349309174,1935
469.1365400228566,1987
471.4779829979826,1993
473.81878263018564,1967
476.15893913125876,2003
478.4984527130747,2014
480.8373235875855,2089
483.17555196682144,2111
485.5131380628919,2161
487.8500820879857,2323
490.1863842543697,2392
492.52204477439034,2584
494.8570638604725,2849
497.1914417251204,3233
499.52517858091653,3570
501.85827464052306,3801
504.19073011668036,3785
506.5225452222086,3797
508.85372017000566,3668
511.18425517304956,3615
513.514150444396,3620
515.8434061971808,4009
518.1720226446176,4941
520.4999999999999,5184
522.8273384766991,4943
525.1540382881666,4527
527.480099647932,4009
529.8055227696037,3379
532.1303078668694,2857
534.454455153496,2451
536.777964843328,2346
539.1008371502907,2173
541.4230722883866,2172
543.744670471698,2140
546.0656319143858,2145
548.3859568306899,2180
550.7056454349294,2087
553.0246979415016,2099
555.3431145648834,2012
557.6608955196306,2088
559.978041020377,2030
562.2945512818363,2077
564.6104265188006,2051
566.9256669461412,2133
569.2402727788082,2069
571.5542442318302,2061
573.8675815203156,2091
576.1802848594508,2118
578.4923544645015,2155
580.8037905508126,2135
583.114593333807,2211
585.4247630289875,2122
587.7342998519354,2203
590.0432040183106,2196
592.3514757438526,2223
594.6591152443794,2237
596.9661227357875,2175
599.2724984340531,2224
601.578242555231,2107
603.8833553154542,2183
606.1878369309362,2217
608.4916876179676,2144
610.7949075929192,2115
613.0974970722403,2077
615.3994562724587,2060
617.7007854101818,2022
620.0014847020951,2084
622.3015543649641,2058
624.6009946156324,2142
626.8998056710224,2175
629.1979877481361,2106
631.4955410640538,2078
633.7924658359349,2068
636.0887622810175,2084
638.3844306166192,2149
640.6794710601358,2079
642.9738838290426,2143
645.2676691408932,2146
647.5608272133207,2064
649.853358264037,2035
652.1452625108324,2141
654.4365401715764,2070
656.7271914642178,2133
659.0172166067838,2076
661.3066158173809,2088
663.5953893141935,2114
665.8835373154867,2002
668.1710600396028,2193
670.4579577049639,2052
672.7442305300709,2135
675.0298787335033,2067
677.3149025339197,2122
679.599302150058,2073
681.8830778007342,2057
684.1662297048437,2106
686.4487580813608,2137
688.7306631493387,2149
691.0119451279091,2156
693.2926042362834,2149
695.5726406937516,2173
697.8520547196814,2081
700.1308465335215,2062
702.4090163547982,2114
704.6865644031171,2088
706.9634908981619,2078
709.2397960596965,2047
711.5154801075631,2023
713.7905432616823,2096
716.0649857420548,2126
718.3388077687592,1998
720.612009561953,2132
722.8845913418733,2081
725.1565533288352,2111
727.427895743234,2096
729.6986188055427,2200
731.9687227363137,2096
734.238207756178,2061
736.5070740858458,2046
738.7753219461066,2043
741.0429515578281,2025
743.3099631419569,2167
745.5763569195191,2100
747.8421331116193,2081
750.1072919394409,2094
752.3718336242467,2100
754.6357583873777,2158
756.8990664502545,2145
759.1617580343765,2029
761.423833361321,2072
763.6852926527457,2011
765.9461361303862,2151
768.206364016058,2136
770.4659765316536,2079
772.7249738991469,2112
774.9833563405886,2142
777.2411240781092,2116
779.4982773339183,2069
781.7548163303044,2115
784.010741289634,2185
786.2660524343538,2201
788.5207499869881,2154
790.7748341701416,2145
793.0283052064964,2142
795.2811633188143,2186
797.5334087299362,2154
799.7850416627813,2211
802.0360623403484,2178
804.2864709857143,2146
806.5362678220353,2142
808.7854530725468,2156
811.0340269605625,2084
813.2819897094754,2132
815.5293415427581,2104
817.77608268396,2212
820.0222133567116,2200
822.2677337847211,2132
824.5126441917765,2098
826.7569448017433,2081
829.0006358385675,2108
831.2437175262731,2112
833.4861900889629,2126
835.7280537508192,2114
837.9693087361026,2119
840.2099552691533,2140
842.4499935743896,2077
844.689423876309,2048
846.9282463994886,2138
849.1664613685833,2195
851.4040690083276,2138
853.6410695435349,2089
855.877463199097,2116
858.1132501999847,2164
860.3484307712487,2118
862.5830051380175,2144
864.8169735254988,2116
867.0503361589791,2219
869.2830932638243,2174
871.5152450654786,2167
873.7467917894654,2203
875.9777336613873,2226
878.2080709069252,2244
880.4378037518389,2227
882.666932421968,2273
884.8954571432301,2171
887.1233781416219,2191
889.3506956432192,2250
891.5774098741766,2187
893.803521060728,2217
896.0290294291852,2258
898.2539352059397,2180
900.4782386174619,2128
902.7019398903011,2230
904.925039251085,2289
907.147536926521,2215
909.3694331433943,2126
911.59072812857,2203
913.8114221089921,2137
916.0315153116827,2158
918.2510079637437,2131
920.4699002923547,2172
922.6881925247761,2072
924.905884888345,2176
927.1229776104793,2069
929.3394709186747,2155
931.555365040506,2121
933.7706602036275,2120
935.9853566357709,2071
938.1994545647489,2132
940.4129542184515,2134
942.6258558248488,2098
944.8381596119883,2132
947.0498658079974,2097
949.2609746410825,2152
951.4714863395287,2108
953.6814011316998,2125
955.8907192460387,2094
958.0994409110671,2060
960.3075663553858,2020
962.5150958076741,2097
964.7220294966913,2048
966.928367651274,2036
969.1341105003388,2040
971.3392582728806,2001
973.5438111979742,2004
975.747769504772,1994
977.9511334225061,1962
980.153903180487,1986
982.3560790081052,1985
984.5576611348289,1945
986.7586497902058,1986
988.9590452038618,1913
991.158847605503,1943
993.3580572249133,1995
995.5566742919558,1942
997.7546990365728,1932
999.952131688785,1805
1002.1489724786926,1808
1004.3452216364743,1844
1006.5408793923874,1760
1008.7359459767691,1779
1010.9304216200343,1799
1013.1243065526781,1713
1015.3176010052733,1746
1017.510305208472,1744
1019.7024193930064,1704
1021.8939437896848,1681
1024.0848786293977,1786
1026.2752241431122,1731
1028.4649805618747,1674
1030.6541481168115,1704
1032.842727039127,1697
1035.0307175601051,1640
1037.2181199111074,1663
1039.4049343235752,1653
1041.591161029029,1573
1043.7768002590683,1667
1045.9618522453698,1668
1048.1463172196918,1701
1050.3301954138697,1630
1052.513487059818,1634
1054.69619238953,1737
1056.8783116350783,1613
1059.0598450286152,1593
1061.2407928023704,1627
1063.4211551886528,1662
1065.6009324198508,1686
1067.780124728432,1656
1069.9587323469414,1654
1072.1367555080046,1655
1074.314194444325,1696
1076.4910493886855,1577
1078.667320573947,1635
1080.843008233051,1662
1083.0181125990161,1635
1085.1926339049414,1655
1087.3665723840027,1628
1089.5399282694575,1640
1091.7127017946405,1582
1093.8848931929647,1656
1096.0565026979243,1625
1098.2275305430899,1614
1100.3979769621128,1607
1102.567842188722,1550
1104.737126456726,1623
1106.9058300000124,1569
1109.0739530525475,1539
1111.2414958483764,1580
1113.4084586216231,1544
1115.5748416064907,1533
1117.7406450372605,1647
1119.9058691482942,1595
1122.0705141740304,1556
1124.2345803489884,1579
1126.3980679077658,1558
1128.5609770850388,1540
1130.7233081155623,1535
1132.8850612341707,1591
1135.0462366757774,1555
1137.2068346753745,1580
1139.3668554680326,1562
1141.526299288901,1525
1143.68516637321,1508
1145.8434569562655,1607
1148.001171273455,1529
1150.158309560244,1507
1152.3148720521767,1461
1154.470858984876,1502
1156.626270594044,1468
1158.7811071154629,1469
1160.9353687849912,1521
1163.089055838569,1515
1165.242168512213,1474
1167.3947070420209,1462
1169.5466716641677,1526
1171.6980626149075,1497
1173.8488801305748,1505
1175.9991244475814,1453
1178.1487958024186,1457
1180.2978944316555,1505
1182.4464205719428,1479
1184.5943744600072,1461
1186.7417563326567,1465
1188.8885664267755,1489
1191.0348049793297,1478
1193.1804722273619,1438
1195.325568407995,1504
1197.4700937584303,1454
1199.614048515948,1503
1201.7574329179074,1515
1203.900247201746,1507
1206.042491604982,1424
1208.1841663652099,1524
1210.3252717201053,1503
1212.465807907422,1459
1214.6057751649923,1550
1216.7451737307279,1491
1218.8840038426192,1468
1221.0222657387353,1497
1223.1599596572241,1499
1225.2970858363137,1474
1227.4336445143094,1503
1229.5696359295966,1513
1231.705060320639,1535
1233.8399179259786,1466
1235.9742089842384,1512
1238.107933734118,1475
1240.2410924143974,1520
1242.373685263935,1590
1244.5057125216676,1546
1246.6371744266116,1528
1248.7680712178621,1490
1250.898403134593,1554
1253.028170416058,1510
1255.1573733015875,1461
1257.2860120305932,1504
1259.4140868425648,1521
1261.54159797707,1561
1263.6685456737569,1490
1265.7949301723515,1546
1267.9207517126597,1579
1270.046010534565,1577
1272.1707068780306,1602
1274.2948409830983,1567
1276.4184130898889,1503
1278.541423438603,1553
1280.6638722695184,1532
1282.785759822993,1550
1284.9070863394636,1592
1287.0278520594447,1567
1289.1480572235314,1568
1291.2677020723963,1537
1293.3867868467923,1573
1295.5053117875495,1600
1297.623277135579,1555
1299.740683131868,1594
1301.8575300174857,1552
1303.973818033578,1631
1306.0895474213703,1659
1308.2047184221678,1589
1310.3193312773528,1609
1312.4333862283888,1612
1314.5468835168163,1640
1316.659823384255,1620
1318.7722060724045,1698
1320.8840318230418,1655
1322.9953008780249,1580
1325.1060134792888,1576
1327.2161698688478,1609
1329.3257702887959,1599
1331.4348149813054,1619
1333.5433041886276,1621
1335.6512381530933,1571
1337.7586171171101,1562
1339.8654413231675,1628
1341.9717110138317,1595
1344.0774264317488,1634
1346.1825878196432,1629
1348.2871954203192,1562
1350.3912494766587,1550
1352.4947502316231,1564
1354.5976979282532,1666
1356.7000928096686,1608
1358.8019351190665,1622
1360.9032250997243,1585
1363.0039629949988,1571
1365.1041490483235,1535
1367.2037835032133,1559
1369.3028666032606,1594
1371.401398592137,1543
1373.4993797135926,1591
1375.5968102114575,1547
1377.6936903296396,1595
1379.7900203121262,1604
1381.8858004029835,1606
1383.9810308463561,1581
1386.075711886469,1616
1388.1698437676241,1624
1390.2634267342032,1611
1392.356461030667,1599
1394.4489469015557,1550
1396.5408845914872,1660
1398.6322743451592,1676
1400.7231164073469,1665
1402.813411022907,1639
1404.903158436773,1626
1406.9923588939578,1624
1409.0810126395531,1625
1411.1691199187303,1595
1413.2566809767386,1640
1415.343696058907,1666
1417.4301654106425,1686
1419.5160892774315,1611
1421.6014679048399,1647
1423.6863015385125,1674
1425.7705904241707,1621
1427.8543348076178,1609
1429.9375349347342,1654
1432.0201910514802,1709
1434.102303403894,1718
1436.1838722380944,1679
1438.2648978002767,1669
1440.3453803367174,1686
1442.4253200937692,1707
1444.5047173178677,1684
1446.5835722555234,1699
1448.6618851533285,1763
1450.739656257952,1796
1452.8168858161434,1699
1454.8935740747306,1750
1456.96972128062,1751
1459.045327680797,1765
1461.120393522327,1737
1463.1949190523528,1844
1465.2689045180973,1857
1467.3423501668608,1901
1469.415256246024,1870
1471.4876230030463,1877
1473.559450685465,1835
1475.6307395408976,1889
1477.7014898170391,1933
1479.771701761665,1889
1481.8413756226287,1898
1483.9105116478618,1886
1485.9791100853772,1901
1488.0471711832643,1871
1490.1146951896926,1931
1492.1816823529098,1957
1494.2481329212433,1961
1496.3140471430984,2037
1498.3794252669609,2029
1500.4442675413939,2015
1502.5085742150404,1992
1504.572345536622,2099
1506.6355817549388,2059
1508.6982831188702,2126
1510.7604498773744,2101
1512.8220822794883,2153
1514.8831805743293,2053
1516.9437450110909,2181
1519.003775839048,2105
1521.0632733075522,2161
1523.1222376660367,2210
1525.1806691640113,2228
1527.2385680510652,2238
1529.2959345768668,2251
1531.3527689911643,2297
1533.4090715437833,2281
1535.4648424846291,2382
1537.5200820636855,2420
1539.5747905310159,2411
1541.6289681367616,2390
1543.6826151311434,2498
1545.7357317644614,2521
1547.7883182870937,2461
1549.8403749494987,2550
1551.8919020022113,2516
1553.9428996958477,2594
1555.9933682811015,2650
1558.0433080087469,2731
1560.0927191296346,2749
1562.1416018946961,2780
1564.1899565549415,2849
1566.2377833614592,2897
1568.2850825654164,2812
1570.3318544180606,2776
1572.3780991707158,2802
1574.423817074788,2842
1576.4690083817595,2709
1578.5136733431923,2566
1580.5578122107272,2529
1582.601425236085,2482
1584.6445126710646,2350
1586.6870747675434,2219
1588.7291117774776,2273
1590.7706239529034,2211
1592.8116115459347,2165
1594.8520748087658,2055
1596.8920139936686,2030
1598.9314293529933,1966
1600.9703211391711,1880
1603.008689604711,1912
1605.0465350022005,1836
1607.0838575843068,1814
1609.1206576037753,1754
1611.1569353134305,1767
1613.1926909661765,1808
1615.2279248149953,1694
1617.2626371129481,1734
1619.2968281131757,1760
1621.3304980688963,1758
1623.3636472334088,1703
1625.39627586009,1710
1627.428384202396,1702
1629.459972513861,1644
1631.4910410480993,1670
1633.5215900588028,1662
1635.551619799744,1652
1637.5811305247717,1675
1639.6101224878166,1604
1641.6385959428862,1588
1643.6665511440683,1582
1645.693988345528,1625
1647.7209078015112,1619
1649.7473097663405,1599
1651.7731944944203,1665
1653.7985622402307,1567
1655.823413258333,1591
1657.847747803366,1588
1659.8715661300494,1607
1661.8948684931793,1603
1663.9176551476316,1592
1665.9399263483624,1593
1667.9616823504057,1594
1669.982923408873,1562
1672.0036497789574,1587
1674.0238617159293,1628
1676.043559475138,1652
1678.0627433120121,1603
1680.081413482059,1568
1682.0995702408654,1567
1684.117213844096,1603
1686.134344547495,1598
1688.1509626068864,1578
1690.1670682781705,1570
1692.182661817329,1615
1694.1977434804217,1615
1696.2123135235875,1547
1698.226372203043,1625
1700.2399197750851,1635
1702.2529564960905,1597
1704.2654826225112,1563
1706.277498410882,1607
1708.2890041178139,1618
1710.2999999999988,1606
1712.3104863142066,1543
1714.3204633172854,1614
1716.329931266163,1584
1718.3388904178469,1543
1720.3473410294214,1589
1722.3552833580516,1542
1724.3627176609807,1543
1726.3696441955308,1582
1728.3760632191033,1600
1730.3819749891782,1621
1732.3873797633146,1621
1734.3922777991502,1622
1736.3966693544012,1505
1738.4005546868639,1502
1740.4039340544127,1554
1742.406807715001,1567
1744.4091759266616,1590
1746.4110389475054,1521
1748.4123970357223,1573
1750.413250449582,1592
1752.4135994474318,1552
1754.4134442876993,1556
1756.4127852288902,1568
1758.4116225295893,1557
1760.4099564484595,1537
1762.407787244244,1509
1764.405115175764,1548
1766.4019405019203,1536
1768.3982634816916,1552
1770.3940843741357,1547
1772.3894034383907,1527
1774.3842209336717,1474
1776.378537119274,1554
1778.372352254571,1594
1780.3656665990156,1500
1782.3584804121397,1585
1784.3507939535534,1551
1786.3426074829463,1597
1788.3339212600863,1543
1790.3247355448211,1515
1792.3150505970766,1596
1794.3048666768573,1552
1796.2941840442477,1511
1798.2830029594106,1534
1800.2713236825884,1542
1802.2591464741004,1607
1804.2464715943465,1556
1806.2332993038058,1533
1808.2196298630352,1594
1810.2054635326708,1524
1812.190800573428,1549
1814.175641246101,1629
1816.1599858115628,1582
1818.1438345307652,1537
1820.127187664738,1622
1822.1100454745924,1590
1824.092408221516,1564
1826.0742761667766,1529
1828.055649571721,1569
1830.0365286977735,1590
1832.0169138064398,1601
1833.9968051593014,1541
1835.9762030180214,1585
1837.9551076443408,1547
1839.9335193000788,1535
1841.9114382471344,1584
1843.888864747485,1576
1845.8657990631878,1548
1847.842241456378,1574
1849.8181921892697,1570
1851.7936515241558,1560
1853.7686197234098,1522
1855.7430970494815,1605
1857.7170837649014,1504
1859.6905801322787,1574
1861.6635864143004,1562
1863.6361028737338,1569
1865.608129773424,1640
1867.5796673762961,1557
1869.5507159453537,1560
1871.521275743678,1566
1873.4913470344313,1594
1875.4609300808534,1513
1877.4300251462632,1576
1879.3986324940588,1604
1881.366752387717,1554
1883.3343850907936,1561
1885.3015308669228,1547
1887.268189979819,1577
1889.2343626932739,1547
1891.2000492711595,1497
1893.1652499774254,1562
1895.1299650761011,1513
1897.0941948312952,1581
1899.0579395071945,1564
1901.0211993680641,1526
1902.98397467825,1612
1904.9462657021745,1586
1906.9080727043415,1578
1908.869395949332,1548
1910.8302357018065,1629
1912.790592226504,1542
1914.7504657882428,1570
1916.7098566519212,1585
1918.6687650825133,1566
1920.6271913450764,1562
1922.5851357047422,1552
1924.5425984267245,1533
1926.499579776314,1521
1928.4560800188833,1537
1930.4120994198802,1648
1932.367638244833,1515
1934.32269675935,1537
1936.2772752291175,1588
1938.231373919899,1579
1940.1849930975404,1574
1942.1381330279637,1530
1944.0907939771696,1542
1946.0429762112412,1557
1947.9946799963363,1487
1949.9459055986945,1540
1951.896653284633,1597
1953.8469233205478,1539
1955.7967159729142,1490
1957.7460315082863,1540
1959.6948701932974,1568
1961.6432322946594,1449
1963.5911180791632,1484
1965.5385278136787,1484
1967.4854617651545,1492
1969.4319202006182,1544
1971.377903387176,1528
1973.3234115920136,1494
1975.268445082395,1562
1977.2130041256642,1508
1979.1570889892423,1559
1981.1006999406304,1498
1983.04383724741,1493
1984.986501177238,1454
1986.928691997853,1518
1988.8704099770712,1501
1990.811655382789,1547
1992.7524284829801,1530
1994.692729545698,1469
1996.6325588390755,1512
1998.5719166313224,1503
2000.5108031907307,1531
2002.4492187856677,1548
2004.387163684583,1494
2006.3246381560011,1489
2008.2616424685298,1489
2010.1981768908527,1532
2012.1342416917332,1522
2014.069837140014,1524
2016.0049635046162,1487
2017.9396210545406,1514
2019.8738100588666,1509
2021.8075307867502,1496
2023.740783507431,1477
2025.6735684902228,1491
2027.6058860045214,1442
2029.5377363198004,1499
2031.4691197056118,1546
2033.4000364315875,1551
2035.3304867674374,1507
2037.260470982952,1491
2039.189989347998,1492
2041.1190421325232,1486
2043.047629606554,1482
2044.9757520401945,1477
2046.9034097036288,1457
2048.8306028671195,1557
2050.7573318010086,1456
2052.683596775716,1511
2054.609398061742,1445
2056.5347359296647,1460
2058.4596106501403,1522
2060.384022493906,1459
2062.3079717317764,1434
2064.231458634646,1454
2066.1544834734873,1494
2068.077046519352,1434
2069.99914804337,1471
2071.9207883167524,1502
2073.8419676107865,1553
2075.7626861968406,1540
2077.6829443463607,1505
2079.6027423308715,1482
2081.522080421977,1553
2083.440958891362,1474
2085.359378010786,1568
2087.2773380520907,1570
2089.194839287196,1465
2091.111881988101,1539
2093.0284664268825,1510
2094.9445928756973,1432
2096.86026160678,1548
2098.775472892446,1443
2100.690227005088,1541
2102.604524217178,1489
2104.5183648012676,1538
2106.431749029985,1527
2108.34467717604,1474
2110.2571495122206,1518
2112.169166311393,1478
2114.080727846503,1509
2115.9918343905747,1553
2117.902486216711,1507
2119.8126835980956,1541
2121.722426807987,1587
2123.6317161197285,1448
2125.5405518067364,1520
2127.448934142509,1525
2129.356863400624,1546
2131.264339854737,1503
2133.1713637785815,1540
2135.077935445972,1569
2136.9840551308002,1551
2138.889723107037,1528
2140.7949396487334,1543
2142.699705030018,1556
2144.6040195250994,1605
2146.507883408264,1549
2148.4112969538774,1533
2150.3142604363848,1553
2152.2167741303097,1525
2154.1188383102535,1639
2156.0204532508997,1579
2157.9216192270064,1534
2159.822336513414,1590
2161.7226053850413,1529
2163.622426116884,1561
2165.5217989840185,1615
2167.4207242616,1584
2169.319202224862,1612
2171.2172331491165,1625
2173.1148173097563,1664
2175.0119549822507,1620
2176.90864644215,1545
2178.8048919650823,1657
2180.7006918267534,1555
2182.596046302952,1662
2184.4909556695407,1652
2186.3854202024645,1682
2188.279440177746,1643
2190.173015871487,1621
2192.066147559868,1585
2193.958835519149,1666
2195.851080025667,1671
2197.7428813558417,1611
2199.6342397861667,1569
2201.5251555932186,1610
2203.415629053651,1578
2205.3056604441986,1624
2207.19525004167,1636
2209.084398122958,1606
2210.9731049650327,1616
2212.861370844941,1638
2214.749196039812,1625
2216.636580826851,1688
2218.523525483344,1623
2220.410030286655,1648
2222.296095514226,1668
2224.1817214435805,1668
2226.066908352319,1631
2227.951656518121,1682
2229.835966218746,1608
2231.71983773203,1609
2233.6032713358913,1632
2235.486267308324,1583
2237.3688259274036,1611
2239.2509474712824,1627
2241.132632218193,1649
2243.013880446447,1647
2244.8946924344323,1675
2246.7750684606203,1593
2248.6550088035574,1640
2250.534513741871,1685
2252.413583554265,1693
2254.292218519526,1673
2256.170418916517,1633
2258.0481850241786,1626
2259.925517121534,1594
2261.8024154876825,1601
2263.678880401803,1669
2265.5549121431536,1632
2267.430510991071,1659
2269.305677224971,1610
2271.180411124348,1671
2273.0547129687766,1615
2274.9285830379076,1589
2276.8020216114737,1629
2278.6750289692845,1517
2280.5476053912294,1612
2282.4197511572766,1578
2284.2914665474727,1673
2286.162751841943,1631
2288.0336073208937,1682
2289.904033264608,1690
2291.774029953448,1653
2293.6435976678554,1639
2295.5127366883517,1581
2297.381447295534,1614
2299.2497297700825,1452
2301.1175843927526,1532
2302.9850114443825,1506
2304.852011205885,1410
2306.7185839582553,1468
2308.5847299825664,1467
2310.4504495599676,1384
2312.3157429716925,1391
2314.1806104990483,1350
2316.0450524234247,1403
2317.9090690262888,1360
2319.772660589186,1402
2321.635827393742,1327
2323.498569721661,1357
2325.3608878547248,1337
2327.2227820747967,1329
2329.0842526638157,1298
2330.945299903803,1346
2332.805924076857,1313
2334.6661254651535,1322
2336.525904350951,1341
2338.3852610165827,1358
2340.244195744464,1338
2342.102708817088,1373
2343.9608005170253,1366
2345.8184711269287,1323
2347.675720929526,1304
2349.532550207628,1350
2351.38895924412,1346
2353.24494832197,1335
2355.100517724223,1395
2356.955667734004,1341
2358.810398634514,1405
2360.664710709037,1332
2362.5186042409337,1359
2364.3720795136437,1355
2366.225136810686,1371
2368.0777764156583,1385
2369.929998612237,1428
2371.7818036841777,1332
2373.633191915315,1372
2375.484163589562,1367
2377.3347189909114,1417
2379.184858403434,1388
2381.03458211128,1397
2382.8838903986775,1357
2384.732783549936,1317
2386.5812618494406,1341
2388.4293255816588,1351
2390.2769750311327,1294
2392.1242104824883,1439
2393.971032220427,1360
2395.8174405297295,1349
2397.6634356952563,1325
2399.509018001947,1371
2401.3541877348193,1443
2403.1989451789705,1381
2405.043290619576,1334
2406.8872243418905,1340
2408.730746631247,1321
2410.5738577730594,1322
2412.4165580528183,1333
2414.258847756095,1350
2416.100727168537,1320
2417.9421965758734,1360
2419.783256263912,1358
2421.623906518538,1354
2423.4641476257157,1306
2425.303979871491,1358
2427.143403541984,1415
2428.9824189233977,1412
2430.821026302012,1370
2432.6592259641866,1400
2434.497018196361,1411
2436.33440328505,1317
2438.171381516851,1385
2440.00795317844,1354
2441.844118556569,1382
2443.6798779380724,1350
2445.5152316098606,1380
2447.3501798589255,1382
2449.1847229723357,1373
2451.0188612372403,1351
2452.8525949408663,1363
2454.6859243705203,1369
2456.518849813587,1346
2458.3513715575314,1424
2460.183489889895,1373
2462.015205098301,1349
2463.8465174704493,1399
2465.67742729412,1383
2467.5079348571717,1396
2469.338040447542,1349
2471.1677443532476,1397
2472.9970468623833,1434
2474.825948263123,1417
2476.6544488437207,1373
2478.482548892508,1390
2480.310248697896,1410
2482.137548548374,1393
2483.9644487325118,1321
2485.790949538956,1352
2487.617051256433,1442
2489.44275417375,1395
2491.26805857979,1388
2493.0929647635157,1405
2494.917473013971,1399
2496.741583620276,1375
2498.5652968716304,1415
2500.3886130573137,1382
2502.2115324666834,1375
2504.0340553891765,1381
2505.856182114308,1394
2507.6779129316733,1420
2509.499248130945,1398
2511.3201880018764,1369
2513.140732834298,1381
2514.9608829181198,1470
2516.780638543331,1417
2518.6,1375
2520.418967578273,1419
2522.237541568376,1415
2524.0557222606144,1436
2525.8735099453706,1398
2527.6909049131086,1399
2529.507907454368,1409
2531.32451785977,1453
2533.140736420014,1433
2534.9565634258774,1466
2536.771999168218,1453
2538.5870439379714,1426
2540.4016980261526,1529
2542.2159617238544,1478
2544.02983532225,1469
2545.8433191125914,1463
2547.656413386209,1431
2549.4691184345115,1498
2551.2814345489874,1539
2553.093362021204,1545
2554.904901142808,1486
2556.716052205523,1512
2558.526815501153,1500
2560.3371913215824,1520
2562.147179958771,1518
2563.956781704761,1549
2565.7659968516705,1597
2567.5748256916986,1476
2569.3832685171224,1608
2571.1913256202984,1566
2572.9989972936614,1579
2574.806283829725,1580
2576.613185521084,1586
2578.4197026604074,1559
2580.2258355404483,1600
2582.031584454035,1521
2583.836949694077,1585
2585.6419315535613,1587
2587.4465303255533,1628
2589.2507463032002,1593
2591.0545797797245,1625
2592.8580310484303,1642
2594.6611004026995,1655
2596.463788135992,1668
2598.266094541849,1658
2600.0680199138874,1608
2601.869564545807,1641
2603.670728731383,1603
2605.4715127644704,1652
2607.2719169390048,1647
2609.071941548998,1673
2610.8715868885433,1609
2612.670853251811,1682
2614.469740933052,1607
2616.268250226594,1623
2618.0663814268455,1633
2619.864134828292,1607
2621.6615107255006,1616
2623.458509413115,1626
2625.2551311858597,1597
2627.0513763385347,1605
2628.8472451660223,1635
2630.6427379632833,1562
2632.4378550253564,1638
2634.232596647359,1565
2636.026963124488,1529
2637.8209547520187,1585
2639.6145718253065,1554
2641.407814639785,1553
2643.200683490966,1511
2644.9931786744414,1545
2646.7853004858807,1592
2648.577049221034,1510
2650.3684251757277,1483
2652.1594286458712,1576
2653.9500599274484,1499
2655.740319316525,1502
2657.5302071092437,1481
2659.3197236018286,1469
2661.10886909058,1491
2662.8976438718782,1498
2664.686048242183,1499
2666.4740824980327,1407
2668.2617469360443,1454
2670.0490418529134,1409
2671.8359675454153,1473
2673.622524310403,1458
2675.408712444811,1438
2677.1945322456495,1406
2678.979984010009,1459
2680.76506803506,1414
2682.5497846180497,1400
2684.334134056306,1415
2686.1181166472343,1431
2687.9017326883213,1380
2689.6849824771293,1395
2691.4678663113013,1505
2693.2503844885596,1445
2695.032537306705,1413
2696.8143250636167,1405
2698.5957480572542,1418
2700.3768065856534,1392
2702.1575009469316,1414
2703.937831439283,1390
2705.717798360982,1401
2707.4974020103837,1324
2709.276642685917,1374
2711.055520686095,1345
2712.834036309506,1395
2714.612189854819,1405
2716.389981620782,1318
2718.1674119062204,1390
2719.944481010041,1378
2721.721189231226,1317
2723.4975368688415,1387
2725.273524222027,1373
2727.0491515900053,1316
2728.824419272075,1362
2730.5993275676146,1358
2732.3738767760838,1353
2734.148067197016,1355
2735.921899130031,1397
2737.6953728748194,1333
2739.468488731156,1347
2741.2412469988926,1337
2743.0136479779617,1350
2744.785691968372,1332
2746.5573792702116,1365
2748.3287101836504,1317
2750.099685008934,1362
2751.870304046388,1285
2753.640567596418,1340
2755.4104759595057,1362
2757.1800294362156,1339
2758.949228327187,1366
2760.7180729331412,1363
2762.486563554877,1406
2764.254700493272,1378
2766.022484049284,1329
2767.789914523947,1387
2769.5569922183786,1376
2771.3237174337705,1285
2773.090090471394,1311
2774.8561116326036,1326
2776.6217812188274,1383
2778.3870995315756,1362
2780.1520668724356,1335
2781.9166835430747,1389
2783.6809498452394,1378
2785.444866080754,1334
2787.2084325515225,1405
2788.971649559527,1354
2790.73451740683,1337
2792.4970363955713,1367
2794.2592068279705,1341
2796.0210290063264,1369
2797.7825032330147,1366
2799.543629810493,1371
2801.304409041296,1349
2803.0648412280366,1333
2804.8249266734088,1380
2806.5846656801846,1334
2808.344058551212,1320
2810.1031055894246,1386
2811.8618070978273,1356
2813.6201633795085,1374
2815.378174737636,1370
2817.1358414754536,1333
2818.893163896285,1388
2820.6501423035334,1344
2822.4067770006814,1314
2824.1630682912883,1369
2825.9190164789957,1363
2827.6746218675207,1358
2829.429884760661,1348
2831.184805462294,1342
2832.9393842763743,1319
2834.693621506936,1315
2836.4475174580916,1329
2838.201072434034,1333
2839.954286739034,1343
2841.707160677441,1388
2843.459694553685,1373
2845.2118886722724,1365
2846.96374333779,1345
2848.7152588549034,1346
2850.4664355283567,1369
2852.217273662973,1349
2853.9677735636546,1367
2855.7179355353833,1374
2857.4677598832186,1512
2859.217246912299,1401
2860.9663969278427,1322
2862.715210235146,1315
2864.4636871395846,1323
2866.211827946614,1391
2867.9596329617652,1346
2869.7071024906536,1376
2871.4542368389684,1341
2873.20103631248,1312
2874.947501217038,1320
2876.6936318585695,1342
2878.4394285430812,1327
2880.1848915766604,1347
2881.9300212654707,1336
2883.6748179157553,1365
2885.4192818338374,1368
2887.1634133261173,1408
2888.907212699077,1350
2890.6506802592744,1368
2892.393816313348,1407
2894.1366211680142,1367
2895.8790951300693,1333
2897.621238506388,1357
2899.363051603925,1329
2901.1045347297118,1303
2902.8456881908596,1373
2904.58651229456,1392
2906.327007348081,1399
2908.067173658772,1344
2909.8070115340597,1346
2911.5465212814497,1362
2913.285703208527,1389
2915.0245576229563,1335
2916.7630848324807,1322
2918.5012851449196,1370
2920.2391588681758,1342
2921.976706310227,1319
2923.7139277791334,1312
2925.4508235830313,1293
2927.187394030137,1355
2928.923639428745,1385
2930.6595600872306,1349
2932.395156314046,1390
2934.1304284177218,1334
2935.8653767068713,1357
2937.6000014901815,1349
2939.3343030764227,1373
2941.068281774442,1384
2942.8019378931644,1386
2944.5352717415976,1441
2946.2682836288236,1353
2948.0009738640065,1336
2949.7333427563885,1348
2951.465390615289,1398
2953.1971177501086,1413
2954.9285244703265,1362
2956.6596110855,1398
2958.3903779052657,1353
2960.1208252393385,1356
2961.8509533975125,1427
2963.5807626896617,1404
2965.3102534257378,1402
2967.0394259157715,1312
2968.768280469873,1404
2970.496817398232,1341
2972.2250370111146,1377
2973.952939618869,1411
2975.6805255319196,1325
2977.4077950607707,1405
2979.134748516006,1345
2980.861386208289,1390
2982.587708448359,1370
2984.313715547037,1372
2986.039407815222,1362
2987.764785563891,1348
2989.489849104102,1343
2991.2145987469908,1336
2992.9390348037705,1361
2994.6631575857346,1340
2996.3869674042576,1333
2998.1104645707887,1378
2999.83364939686,1356
3001.5565221940783,1379
3003.2790832741334,1394
3005.0013329487924,1370
3006.7232715298996,1360
3008.4448993293804,1372
3010.166216659239,1346
3011.887223831558,1340
3013.607921158498,1326
3015.3283089522993,1313
3017.0483875252826,1354
3018.7681571898443,1366
3020.4876182584626,1381
3022.2067710436927,1276
3023.9256158581707,1391
3025.644153014609,1353
3027.362382825801,1341
3029.0803056046193,1390
3030.797921664012,1342
3032.5152313170106,1340
3034.2322348767225,1345
3035.9489326563353,1299
3037.665324969115,1411
3039.3814121284063,1401
3041.097194447633,1284
3042.812672240299,1346
3044.5278458199855,1384
3046.2427155003525,1309
3047.9572815951406,1382
3049.671544418167,1362
3051.38550428333,1337
3053.0991615046073,1338
3054.812516396051,1369
3056.5255692717974,1276
3058.2383204460575,1305
3059.9507702331257,1316
3061.662918947372,1330
3063.3747669032446,1347
3065.0863144152736,1304
3066.7975617980674,1319
3068.508509366309,1337
3070.219157434767,1338
3071.9295063182844,1276
3073.639556331785,1354
3075.3493077902704,1325
3077.058761008821,1375
3078.7679163025964,1322
3080.476773986837,1292
3082.1853343768594,1331
3083.89359778806,1366
3085.6015645359153,1378
3087.3092349359786,1353
3089.016609303884,1315
3090.7236879553434,1368
3092.4304712061476,1343
3094.136959372166,1375
3095.843152769349,1327
3097.5490517137237,1377
3099.2546565213966,1351
3100.959967508554,1373
3102.66498499146,1367
3104.3697092864577,1403
3106.0741407099695,1334
3107.778279578498,1322
3109.482126208622,1325
3111.1856809170004,1362
3112.8889440203716,1339
3114.5919158355528,1317
3116.294596679439,1418
3117.996986869006,1427
3119.6990867213062,1354
3121.4008965534726,1319
3123.102416682717,1387
3124.803647426329,1352
3126.5045891016784,1333
3128.205242026213,1405
3129.90560651746,1294
3131.605682893025,1366
3133.3054714705922,1358
3135.0049725679282,1373
3136.7041865028714,1369
3138.4031135933465,1374
3140.101754157353,1348
3141.800108512971,1336
3143.498176978357,1320
3145.1959598717494,1369
3146.8934575114636,1385
3148.5906702158954,1351
3150.2875983035183,1317
3151.9842420928853,1409
3153.680601902627,1384
3155.376678051456,1300
3157.07247085816,1343
3158.767980641609,1350
3160.463207720748,1314
3162.158152414606,1337
3163.8528150422862,1347
3165.5471959229726,1384
3167.2412953759303,1408
3168.9351137204976,1331
3170.628651276098,1374
3172.3219083622307,1393
3174.014885298474,1349
3175.707582404485,1353
3177.4000000000005,1321
3179.092138404835,1349
3180.7839979388846,1369
3182.47557892212,1330
3184.166881674594,1343
3185.8579065164386,1354
3187.5486537678626,1365
3189.2391237491547,1352
3190.9293167806827,1419
3192.6192331828934,1349
3194.3088732763117,1353
3195.998237381542,1394
3197.687325819268,1360
3199.376138910251,1333
3201.064676975334,1327
3202.7529403354347,1288
3204.4409293115523,1370
3206.1286442247647,1307
3207.816085396229,1318
3209.5032531471825,1350
3211.190147798936,1386
3212.8767696728846,1355
3214.5631190905015,1302
3216.2491963733373,1328
3217.9350018430214,1327
3219.6205358212637,1315
3221.305798629851,1304
3222.990790590651,1319
3224.6755120256103,1334
3226.359963256751,1268
3228.0441446061795,1305
3229.7280563960758,1334
3231.411698948703,1342
3233.0950725863995,1346
3234.778177631587,1342
3236.461014406761,1311
3238.1435832345005,1341
3239.8258844374595,1320
3241.507918338374,1318
3243.1896852600576,1402
3244.8711855254023,1302
3246.552419457381,1366
3248.233387379042,1361
3249.914089613516,1404
3251.59452648401,1348
3253.274698313813,1385
3254.95460542629,1377
3256.6342481448855,1319
3258.313626793125,1327
3259.9927416946084,1320
3261.6715931730196,1310
3263.3501815521176,1268
3265.0285071557437,1324
3266.706570307815,1358
3268.3843713323286,1318
3270.0619105533615,1338
3271.739188295068,1322
3273.4162048816834,1338
3275.0929606375184,1362
3276.769455886966,1367
3278.445690954498,1347
3280.1216661646613,1336
3281.797381842087,1301
3283.4728383114807,1327
3285.1480358976296,1304
3286.8229749253996,1361
3288.4976557197333,1328
3290.172078605655,1283
3291.846243908266,1314
3293.5201519527463,1322
3295.193803064357,1342
3296.8671975684374,1312
3298.5403357904024,1337
3300.21321805575,1330
3301.8858446900567,1316
3303.558216018975,1326
3305.23033236824,1347
3306.9021940636603,1347
3308.57380143113,1345
3310.2451547966184,1364
3311.916254486174,1267
3313.5871008259246,1366
3315.2576941420766,1317
3316.9280347609147,1342
3318.5981230088046,1341
3320.2679592121895,1327
3321.9375436975924,1285
3323.606876791612,1312
3325.27595882093,1347
3326.944790112305,1272
3328.6133709925753,1305
3330.2817017886573,1282
3331.949782827547,1325
3333.617614436319,1308
3335.2851969421245,1305
3336.952530672199,1284
3338.619615953853,1370
3340.286453114475,1309
3341.9530424815357,1353
3343.619384382583,1351
3345.2854791452437,1365
3346.951327097224,1379
3348.6169285663073,1349
3350.2822838803577,1358
3351.947393367319,1372
3353.61225735521,1323
3355.2768761721345,1378
3356.9412501462693,1328
3358.605379605873,1270
3360.2692648792827,1339
3361.9329062949146,1316
3363.596304181263,1344
