CollectionTime,7/10/2024 4:35:41 PM
ExposureUsed,3
CalibratedSpectrum
-962.7078968117929,555
-959.9714848408522,556
-957.2358232597828,584
-954.5009119013725,574
-951.7667505983302,557
-949.0333391832855,582
-946.3006774887896,598
-943.5687653473143,580
-940.837602591253,584
-938.1071890529199,573
-935.3775245645503,560
-932.6486089583007,571
-929.9204420662485,564
-927.1930237203925,558
-924.4663537526524,564
-921.7404319948689,564
-919.0152582788041,592
-916.2908324361409,631
-913.5671542984834,602
-910.8442236973568,575
-908.1220404642074,560
-905.4006044304027,570
-902.679915427231,581
-899.959973285902,558
-897.2407778375464,565
-894.5223289132158,571
-891.8046263438832,551
-889.0876699604426,561
-886.3714595937089,596
-883.6559950744183,566
-880.9412762332282,536
-878.2273029007168,555
-875.5140749073835,546
-872.8015920836489,540
-870.0898542598545,585
-867.3788612662631,531
-864.6686129330585,573
-861.9591090903457,596
-859.2503495681506,611
-856.5423341964203,561
-853.8350628050229,542
-851.1285352237478,561
-848.4227512823054,551
-845.7177108103272,575
-843.0134136373656,598
-840.3098595928943,607
-837.6070485063082,590
-834.9049802069229,593
-832.2036545239757,568
-829.5030712866244,551
-826.8032303239481,584
-824.1041314649472,597
-821.4057745385428,593
-818.7081593735775,573
-816.0112857988148,570
-813.3151536429393,573
-810.6197627345566,563
-807.9251129021936,558
-805.2312039742981,579
-802.5380357792392,594
-799.8456081453069,620
-797.1539209007124,639
-794.462973873588,582
-791.772766891987,606
-789.083299783884,590
-786.3945723771743,587
-783.7065844996748,560
-781.0193359791231,566
-778.3328266431781,577
-775.6470563194197,565
-772.9620248353489,582
-770.2777320183878,571
-767.5941776958798,560
-764.9113616950891,545
-762.2292838432011,575
-759.5479439673222,575
-756.8673418944801,578
-754.1874774516235,609
-751.5083504656222,629
-748.8299607632671,648
-746.15230817127,629
-743.475392516264,603
-740.7992136248035,586
-738.1237713233636,629
-735.4490654383407,644
-732.7750957960521,640
-730.1018622227365,610
-727.4293645445534,651
-724.7576025875837,596
-722.0865761778291,613
-719.4162851412126,594
-716.7467293035781,628
-714.0779084906909,677
-711.409822528237,628
-708.7424712418238,620
-706.0758544569796,660
-703.4099719991541,627
-700.7448236937178,666
-698.0804093659622,687
-695.4167288411002,643
-692.7537819442656,599
-690.0915685005134,622
-687.4300883348199,593
-684.7693412720819,649
-682.1093271371178,674
-679.4500457546669,681
-676.7914969493897,654
-674.1336805458676,637
-671.4765963686034,644
-668.8202442420206,641
-666.1646239904642,658
-663.5097354382001,638
-660.8555784094151,657
-658.2021527282176,644
-655.5494582186366,665
-652.8974947046223,650
-650.2462620100463,653
-647.5957599587009,634
-644.9459883742998,660
-642.2969470804776,674
-639.6486359007902,686
-637.0010546587141,705
-634.3542031776476,722
-631.7080812809096,657
-629.0626887917401,668
-626.4180255333008,698
-623.7740913286734,702
-621.1308860008619,690
-618.4884093727904,670
-615.8466612673046,675
-613.2056415071715,671
-610.5653499150785,656
-607.9257863136347,678
-605.28695052537,746
-602.6488423727357,740
-600.0114616781036,702
-597.3748082637674,664
-594.7388819519412,646
-592.1036825647604,734
-589.4692099242818,752
-586.8354638524829,783
-584.2024441712624,711
-581.5701507024403,699
-578.9385832677575,659
-576.3077416888759,681
-573.6776257873787,754
-571.0482353847704,748
-568.4195703024757,721
-565.7916303618415,708
-563.164415384135,753
-560.5379251905453,715
-557.9121596021815,707
-555.2871184400748,729
-552.6628015251767,718
-550.0392086783606,748
-547.4163397204204,757
-544.794194472071,774
-542.1727727539491,722
-539.5520743866118,764
-536.9320991905377,798
-534.3128469861261,806
-531.6943175936979,838
-529.0765108334947,824
-526.4594265256793,881
-523.8430644903358,953
-521.2274245474689,1077
-518.612506517005,1103
-515.9983102187913,1083
-513.3848354725959,1162
-510.77208209810846,1191
-508.16004991493924,1247
-505.5487387426199,1388
-502.9381484006032,1579
-500.3282787082628,1617
-497.71912948489364,1663
-495.1107005497117,1549
-492.5029917218539,1488
-489.8960028203786,1316
-487.28973366426493,1188
-484.68418407241325,1096
-482.07935386364494,970
-479.47524285670266,970
-476.87185087025,925
-474.2691777228715,989
-471.66722323307334,933
-469.0659872192821,936
-466.4654694998459,920
-463.86566989303384,950
-461.26658821703614,896
-458.66822428996414,923
-456.07057792985,917
-453.4736489546475,908
-450.877437182231,903
-448.28194243039627,869
-445.68716451686,837
-443.09310325926003,840
-440.49975847515555,859
-437.9071299820263,884
-435.31521759727354,884
-432.72402113821954,905
-430.13354042210767,974
-427.5437752661022,929
-424.95472548728867,904
-422.36639090267386,952
-419.7787713291855,953
-417.1918665836721,1013
-414.60567648290385,1039
-412.0202008435715,1041
-409.4354394822874,985
-406.8513922155845,980
-404.26805885991723,972
-401.685439231661,966
-399.103533147112,948
-396.522340422488,953
-393.9418608739278,933
-391.3620943174908,942
-388.7830405691583,983
-386.2046994448317,888
-383.6270707603344,893
-381.05015433141045,853
-378.473949973725,860
-375.8984575028645,807
-373.32367673433623,718
-370.74960748356875,661
-368.1762495659117,657
-365.60360279663576,641
-363.03166699093265,568
-360.4604419639154,524
-357.8899275306178,545
-355.32012350599507,524
-352.7510297049233,533
-350.1826459421999,500
-347.61497203254316,465
-345.04800779059235,488
-342.4817530309082,521
-339.91620756797226,533
-337.35137121618743,557
-334.7872437898774,516
-332.22382510328725,547
-329.66111497058273,532
-327.09911320585127,534
-324.53781962310075,528
-321.9772340362607,507
-319.4173562591816,475
-316.8581861056348,483
-314.2997233893127,492
-311.7419679238294,469
-309.1849195227194,502
-306.62857799943856,553
-304.0729431673641,581
-301.51801483979375,572
-298.963792829947,609
-296.41027695096386,609
-293.85746701590574,622
-291.3053628377552,633
-288.7539642294155,642
-286.2032710037115,602
-283.65328297338897,551
-281.1039999511146,601
-278.5554217494762,675
-276.007548180983,635
-273.4603790580651,609
-270.9139141930734,594
-268.3681533982807,588
-265.8230964858798,608
-263.27874326798565,609
-260.7350935566336,614
-258.1921471637804,600
-255.6499039013039,600
-253.10836358100266,635
-250.56752601459698,649
-248.02739101372765,610
-245.48795838995704,645
-242.94922795476816,646
-240.41119951956557,624
-237.8738728956746,687
-235.33724789434166,768
-232.80132432673452,695
-230.2661020039418,672
-227.73158073697357,668
-225.19776033676033,710
-222.66464061415422,733
-220.1322213799284,664
-217.60050244477725,633
-215.06948361931552,666
-212.53916471408013,752
-210.00954553952818,834
-207.48062590603843,732
-204.9524056239104,706
-202.4248845033651,734
-199.8980623545441,691
-197.37193898751036,741
-194.84651421224817,777
-192.32178783866232,810
-189.79775967657952,845
-187.27442953574644,863
-184.7517972258321,997
-182.2298625564256,955
-179.7086253370378,836
-177.18808537710026,837
-174.66824248596583,841
-172.14909647290835,836
-169.6306471471229,889
-167.11289431772548,896
-164.59583779375328,1013
-162.07947738416453,911
-159.5638128978386,946
-157.04884414357605,929
-154.53457093009854,937
-152.02099306604828,978
-149.50811035998936,852
-146.99592262040665,834
-144.48442965570587,963
-141.97363127421409,1005
-139.46352728417958,917
-136.95411749377126,926
-134.44540171107985,910
-131.93737974411636,824
-129.43005140081357,956
-126.92341648902493,1293
-124.41747481652521,1772
-121.91222619101006,2111
-119.40767042009657,2294
-116.90380731132257,2342
-114.40063667214702,2523
-111.8981583099503,2746
-109.3963720320337,2345
-106.89527764561933,1889
-104.39487495785067,1780
-101.89516377579241,2423
-99.39614390642998,4171
-96.89781515667039,4716
-94.40017733334128,4341
-91.90323024319173,3464
-89.40697369289148,3570
-86.91140748903172,4930
-84.41653143812482,6128
-81.92234534660395,6654
-79.42884902082358,6727
-76.93604226705907,8630
-74.4439248915071,14577
-71.95249670028534,23263
-69.46175749943245,28130
-66.97170709490854,28558
-64.48234529259423,24850
-61.99367189829195,18757
-59.50568671772464,11970
-57.01838955653636,7033
-54.53178022029283,7489
-52.045858514480074,9095
-49.560624244506016,10460
-47.07607721569923,12789
-44.59221723330904,13975
-42.10904410250669,13553
-39.62655762838392,12275
-37.14475761595372,12513
-34.66364387015028,14857
-32.18321619582866,17166
-29.70347439776515,19856
-27.224418280657005,21849
-24.74604764912317,22428
-22.26836230770266,23144
-19.7913620608565,32337
-17.315046712966478,51153
-14.83941606833514,65037
-12.36446993118659,65037
-9.89020810566592,65037
-7.416630395839093,65037
-4.94373660569363,65037
-2.471526539137585,65037
-6.821210263296962E-13,65037
2.47084320796705,65037
4.941003281093458,65037
7.410480415786196,65037
9.879274808531363,65037
12.347386655893956,65037
14.814816154518212,65037
17.28156350112681,65037
19.74762889252179,65037
22.21301252558385,65037
24.67771459727237,21141
27.141735304626195,4775
29.605074844762612,3288
32.06773341487792,2470
34.52971121224755,2690
36.99100843422559,3186
39.45162527824516,2979
41.91156194181792,2205
44.370818622535126,1853
46.82939551806646,1637
49.287292826160524,1654
51.74451074464503,2081
54.201049471426245,2073
56.65690920448981,1907
59.112090141899785,1747
61.56659248179983,1422
64.02041642241159,1308
66.4735621620365,1184
68.92602989905402,1160
71.37781983192338,1285
73.82893215918205,1364
76.27936707944684,1464
78.72912479141326,1343
81.17820549385567,1329
83.62660938562783,1457
86.07433666566146,1366
88.5213875329681,1093
90.96776218663751,1022
93.41346082583925,938
95.85848364982041,1073
98.30283085790859,1414
100.7465026495089,1498
103.18949922410604,1344
105.63182078126385,1178
108.07346752062438,1162
110.51443964190923,1113
112.95473734491827,1025
115.39436082953114,1029
117.83331029570547,1097
120.27158594347827,1085
122.7091879729652,1182
125.1461165843615,1292
127.58237197794062,1264
130.01795435405518,1036
132.4528639131364,1038
134.88710085569494,1118
137.32066538231982,928
139.75355769367923,899
142.1857779905207,824
144.61732647366978,876
147.04820334403132,945
149.47840880258934,1001
151.90794305040674,1048
154.33680628862487,1089
156.76499871846443,1272
159.19252054122433,1470
161.61937195828352,1550
164.04555317109896,1615
166.47106438120693,1850
168.89590579022217,2009
171.320077599839,2225
173.7435800118302,2302
176.16641322804742,2401
178.58857745042144,2443
181.01007288096173,2726
183.43089972175687,2807
185.85105817497413,2640
188.27054844285988,2552
190.6893707277394,2513
193.10752523201643,2767
195.5250121581745,2622
197.9418317087751,2714
200.3579840864594,2760
202.7734694939469,2741
205.18828813403627,2880
207.6024402096051,3006
210.01592592360964,3101
212.42874547908548,2924
214.84089907914665,2917
217.2523869269868,2883
219.66320922587727,2800
222.0733661791695,2711
224.48285799029293,2837
226.8916848627572,2751
229.29984700014882,2798
231.7073446061355,2873
234.11417788446204,2788
236.520347038953,2842
238.92585227351185,2768
241.33069379212054,2890
243.73487179884035,2921
246.1383864978112,2892
248.541238093252,2922
250.9434267894609,2991
253.34495279081432,2946
255.74581630176783,2877
258.1460175268563,2863
260.54555667069314,2878
262.9444339379703,2835
265.3426495334594,2848
267.7402036620107,2826
270.1370965285529,2781
272.53332833809407,2835
274.9288992957214,2742
277.32380960660055,2612
279.718059475976,2666
282.1116491091717,2559
284.5045787115897,2560
286.89684848871195,2680
289.2884586460981,2636
291.67940938938807,2641
294.0697009242996,2645
296.4593334566299,2654
298.84830719225477,2641
301.23662233712923,2632
303.6242790972866,2577
306.01127767884,2483
308.39761828798066,2532
310.78330113097934,2462
313.16832641418534,2510
315.5526943440269,2406
317.9364051270112,2376
320.3194589697242,2289
322.70185607883093,2327
325.0835966610754,2330
327.4646809232805,2334
329.8451090723478,2318
332.2248813152577,2294
334.6039978590701,2300
336.9824589109231,2241
339.36026467803447,2237
341.7374153677,2253
344.113911187295,2263
346.48975234427337,2323
348.8649390461686,2184
351.2394715005918,2233
353.61334991523415,2217
355.9865744978655,2210
358.35914545633375,2114
360.73106299856715,2121
363.10232733257146,2181
365.47293866643247,2201
367.84289720831396,2102
370.2122031664593,2198
372.5808567491905,2127
374.9488581649083,2098
377.31620762209275,2006
379.6829053293021,2046
382.0489514951745,2148
384.4143463284262,2098
386.7790900378528,2001
389.14318283232853,2011
391.50662492080653,2058
393.86941651231916,2106
396.23155781597745,2160
398.5930490409713,2113
400.9538903965696,2006
403.3140820921202,2079
405.6736243370498,2090
408.03251734086336,2097
410.3907613131465,2006
412.74835646356166,2049
415.10530300185144,1983
417.4616011378372,1999
419.81725108141893,1970
422.1722530425758,1954
424.5266072313656,1969
426.880313857925,2004
429.2333731324701,2048
431.58578526529516,2017
433.9375504667738,2005
436.2886689473588,1917
438.63914091758113,2003
440.9889665880513,1911
443.33814616945835,1887
445.68667987257015,1984
448.03456790823395,1979
450.3818104873759,1999
452.72840782100013,1966
455.07436012019105,1903
457.41966759611057,1991
459.7643304600007,1944
462.10834892318155,1919
464.4517231970525,1978
466.79445349309174,1966
469.1365400228566,2013
471.4779829979826,1959
473.81878263018564,1965
476.15893913125876,2071
478.4984527130747,1989
480.8373235875855,1979
483.17555196682144,2153
485.5131380628919,2146
487.8500820879857,2237
490.1863842543697,2449
492.52204477439034,2503
494.8570638604725,2857
497.1914417251204,3103
499.52517858091653,3317
501.85827464052306,3633
504.19073011668036,3661
506.5225452222086,3558
508.85372017000566,3488
511.18425517304956,3297
513.514150444396,3470
515.8434061971808,3924
518.1720226446176,4821
520.4999999999999,5089
522.8273384766991,4807
525.1540382881666,4519
527.480099647932,3993
529.8055227696037,3382
532.1303078668694,2812
534.454455153496,2422
536.777964843328,2237
539.1008371502907,2211
541.4230722883866,2204
543.744670471698,2171
546.0656319143858,2132
548.3859568306899,2150
550.7056454349294,2063
553.0246979415016,2074
555.3431145648834,2017
557.6608955196306,1996
559.978041020377,1980
562.2945512818363,1993
564.6104265188006,2004
566.9256669461412,2080
569.2402727788082,2050
571.5542442318302,2114
573.8675815203156,2099
576.1802848594508,2061
578.4923544645015,2129
580.8037905508126,2094
583.114593333807,2103
585.4247630289875,2055
587.7342998519354,2082
590.0432040183106,2017
592.3514757438526,2110
594.6591152443794,2103
596.9661227357875,2033
599.2724984340531,2082
601.578242555231,2006
603.8833553154542,2079
606.1878369309362,2074
608.4916876179676,2014
610.7949075929192,2110
613.0974970722403,2100
615.3994562724587,2084
617.7007854101818,2036
620.0014847020951,2050
622.3015543649641,2090
624.6009946156324,2078
626.8998056710224,2046
629.1979877481361,2067
631.4955410640538,2027
633.7924658359349,2042
636.0887622810175,2030
638.3844306166192,2004
640.6794710601358,1993
642.9738838290426,2077
645.2676691408932,2113
647.5608272133207,2013
649.853358264037,2104
652.1452625108324,2065
654.4365401715764,2041
656.7271914642178,2015
659.0172166067838,2053
661.3066158173809,2141
663.5953893141935,2066
665.8835373154867,2078
668.1710600396028,2103
670.4579577049639,2079
672.7442305300709,2096
675.0298787335033,2061
677.3149025339197,2007
679.599302150058,2040
681.8830778007342,2013
684.1662297048437,2013
686.4487580813608,2064
688.7306631493387,2141
691.0119451279091,2087
693.2926042362834,2145
695.5726406937516,2048
697.8520547196814,2101
700.1308465335215,2039
702.4090163547982,2011
704.6865644031171,2041
706.9634908981619,2027
709.2397960596965,2045
711.5154801075631,2065
713.7905432616823,2024
716.0649857420548,2067
718.3388077687592,1998
720.612009561953,2022
722.8845913418733,2045
725.1565533288352,2049
727.427895743234,2050
729.6986188055427,1990
731.9687227363137,2057
734.238207756178,2031
736.5070740858458,2086
738.7753219461066,2085
741.0429515578281,2047
743.3099631419569,2094
745.5763569195191,2076
747.8421331116193,2159
750.1072919394409,2064
752.3718336242467,2050
754.6357583873777,2054
756.8990664502545,2037
759.1617580343765,2019
761.423833361321,2014
763.6852926527457,2026
765.9461361303862,2077
768.206364016058,2016
770.4659765316536,2086
772.7249738991469,2087
774.9833563405886,2048
777.2411240781092,2081
779.4982773339183,2088
781.7548163303044,2118
784.010741289634,2091
786.2660524343538,2132
788.5207499869881,2021
790.7748341701416,2085
793.0283052064964,2158
795.2811633188143,2129
797.5334087299362,2108
799.7850416627813,2119
802.0360623403484,2049
804.2864709857143,2067
806.5362678220353,2112
808.7854530725468,2068
811.0340269605625,2078
813.2819897094754,2054
815.5293415427581,2113
817.77608268396,2078
820.0222133567116,2143
822.2677337847211,2087
824.5126441917765,2057
826.7569448017433,2008
829.0006358385675,2036
831.2437175262731,2022
833.4861900889629,2098
835.7280537508192,2023
837.9693087361026,2089
840.2099552691533,2157
842.4499935743896,2019
844.689423876309,2052
846.9282463994886,2129
849.1664613685833,2114
851.4040690083276,2086
853.6410695435349,2081
855.877463199097,2032
858.1132501999847,2031
860.3484307712487,2066
862.5830051380175,2039
864.8169735254988,2186
867.0503361589791,2105
869.2830932638243,2172
871.5152450654786,2170
873.7467917894654,2122
875.9777336613873,2138
878.2080709069252,2096
880.4378037518389,2131
882.666932421968,2234
884.8954571432301,2112
887.1233781416219,2223
889.3506956432192,2119
891.5774098741766,2170
893.803521060728,2158
896.0290294291852,2189
898.2539352059397,2201
900.4782386174619,2135
902.7019398903011,2181
904.925039251085,2133
907.147536926521,2206
909.3694331433943,2097
911.59072812857,2168
913.8114221089921,2131
916.0315153116827,2057
918.2510079637437,2123
920.4699002923547,2090
922.6881925247761,2052
924.905884888345,2094
927.1229776104793,2099
929.3394709186747,2028
931.555365040506,2137
933.7706602036275,2037
935.9853566357709,2089
938.1994545647489,2070
940.4129542184515,2114
942.6258558248488,2066
944.8381596119883,2005
947.0498658079974,2040
949.2609746410825,2054
951.4714863395287,1960
953.6814011316998,2027
955.8907192460387,2081
958.0994409110671,1999
960.3075663553858,1984
962.5150958076741,1981
964.7220294966913,1958
966.928367651274,1994
969.1341105003388,1982
971.3392582728806,1994
973.5438111979742,1954
975.747769504772,1988
977.9511334225061,1940
980.153903180487,2000
982.3560790081052,1932
984.5576611348289,1930
986.7586497902058,1927
988.9590452038618,1876
991.158847605503,2037
993.3580572249133,1970
995.5566742919558,1910
997.7546990365728,1782
999.952131688785,1811
1002.1489724786926,1804
1004.3452216364743,1806
1006.5408793923874,1770
1008.7359459767691,1742
1010.9304216200343,1789
1013.1243065526781,1740
1015.3176010052733,1772
1017.510305208472,1783
1019.7024193930064,1750
1021.8939437896848,1753
1024.0848786293977,1719
1026.2752241431122,1761
1028.4649805618747,1701
1030.6541481168115,1688
1032.842727039127,1697
1035.0307175601051,1676
1037.2181199111074,1679
1039.4049343235752,1659
1041.591161029029,1611
1043.7768002590683,1663
1045.9618522453698,1637
1048.1463172196918,1625
1050.3301954138697,1635
1052.513487059818,1780
1054.69619238953,1687
1056.8783116350783,1670
1059.0598450286152,1662
1061.2407928023704,1700
1063.4211551886528,1584
1065.6009324198508,1689
1067.780124728432,1683
1069.9587323469414,1722
1072.1367555080046,1680
1074.314194444325,1621
1076.4910493886855,1615
1078.667320573947,1640
1080.843008233051,1631
1083.0181125990161,1641
1085.1926339049414,1594
1087.3665723840027,1567
1089.5399282694575,1622
1091.7127017946405,1642
1093.8848931929647,1616
1096.0565026979243,1646
1098.2275305430899,1615
1100.3979769621128,1561
1102.567842188722,1585
1104.737126456726,1572
1106.9058300000124,1638
1109.0739530525475,1598
1111.2414958483764,1558
1113.4084586216231,1529
1115.5748416064907,1586
1117.7406450372605,1545
1119.9058691482942,1509
1122.0705141740304,1516
1124.2345803489884,1525
1126.3980679077658,1659
1128.5609770850388,1554
1130.7233081155623,1616
1132.8850612341707,1572
1135.0462366757774,1618
1137.2068346753745,1552
1139.3668554680326,1562
1141.526299288901,1547
1143.68516637321,1508
1145.8434569562655,1513
1148.001171273455,1531
1150.158309560244,1494
1152.3148720521767,1545
1154.470858984876,1472
1156.626270594044,1547
1158.7811071154629,1536
1160.9353687849912,1497
1163.089055838569,1552
1165.242168512213,1570
1167.3947070420209,1519
1169.5466716641677,1480
1171.6980626149075,1477
1173.8488801305748,1485
1175.9991244475814,1542
1178.1487958024186,1495
1180.2978944316555,1512
1182.4464205719428,1517
1184.5943744600072,1503
1186.7417563326567,1456
1188.8885664267755,1503
1191.0348049793297,1438
1193.1804722273619,1508
1195.325568407995,1438
1197.4700937584303,1527
1199.614048515948,1551
1201.7574329179074,1515
1203.900247201746,1483
1206.042491604982,1546
1208.1841663652099,1525
1210.3252717201053,1501
1212.465807907422,1509
1214.6057751649923,1474
1216.7451737307279,1519
1218.8840038426192,1522
1221.0222657387353,1489
1223.1599596572241,1542
1225.2970858363137,1511
1227.4336445143094,1562
1229.5696359295966,1493
1231.705060320639,1575
1233.8399179259786,1548
1235.9742089842384,1482
1238.107933734118,1501
1240.2410924143974,1509
1242.373685263935,1589
1244.5057125216676,1567
1246.6371744266116,1516
1248.7680712178621,1503
1250.898403134593,1569
1253.028170416058,1571
1255.1573733015875,1558
1257.2860120305932,1552
1259.4140868425648,1559
1261.54159797707,1524
1263.6685456737569,1597
1265.7949301723515,1534
1267.9207517126597,1589
1270.046010534565,1526
1272.1707068780306,1607
1274.2948409830983,1545
1276.4184130898889,1527
1278.541423438603,1565
1280.6638722695184,1583
1282.785759822993,1592
1284.9070863394636,1584
1287.0278520594447,1660
1289.1480572235314,1568
1291.2677020723963,1608
1293.3867868467923,1615
1295.5053117875495,1688
1297.623277135579,1613
1299.740683131868,1622
1301.8575300174857,1610
1303.973818033578,1701
1306.0895474213703,1647
1308.2047184221678,1652
1310.3193312773528,1686
1312.4333862283888,1663
1314.5468835168163,1676
1316.659823384255,1697
1318.7722060724045,1647
1320.8840318230418,1647
1322.9953008780249,1622
1325.1060134792888,1678
1327.2161698688478,1681
1329.3257702887959,1588
1331.4348149813054,1635
1333.5433041886276,1559
1335.6512381530933,1630
1337.7586171171101,1589
1339.8654413231675,1671
1341.9717110138317,1619
1344.0774264317488,1668
1346.1825878196432,1607
1348.2871954203192,1594
1350.3912494766587,1621
1352.4947502316231,1641
1354.5976979282532,1643
1356.7000928096686,1684
1358.8019351190665,1640
1360.9032250997243,1643
1363.0039629949988,1685
1365.1041490483235,1633
1367.2037835032133,1605
1369.3028666032606,1647
1371.401398592137,1633
1373.4993797135926,1616
1375.5968102114575,1681
1377.6936903296396,1649
1379.7900203121262,1602
1381.8858004029835,1624
1383.9810308463561,1611
1386.075711886469,1658
1388.1698437676241,1675
1390.2634267342032,1669
1392.356461030667,1653
1394.4489469015557,1637
1396.5408845914872,1740
1398.6322743451592,1683
1400.7231164073469,1671
1402.813411022907,1667
1404.903158436773,1675
1406.9923588939578,1705
1409.0810126395531,1746
1411.1691199187303,1708
1413.2566809767386,1776
1415.343696058907,1708
1417.4301654106425,1693
1419.5160892774315,1722
1421.6014679048399,1695
1423.6863015385125,1682
1425.7705904241707,1751
1427.8543348076178,1759
1429.9375349347342,1793
1432.0201910514802,1785
1434.102303403894,1763
1436.1838722380944,1819
1438.2648978002767,1803
1440.3453803367174,1776
1442.4253200937692,1814
1444.5047173178677,1900
1446.5835722555234,1856
1448.6618851533285,1954
1450.739656257952,1937
1452.8168858161434,1846
1454.8935740747306,1911
1456.96972128062,1963
1459.045327680797,2050
1461.120393522327,2007
1463.1949190523528,2010
1465.2689045180973,2114
1467.3423501668608,2003
1469.415256246024,2069
1471.4876230030463,2123
1473.559450685465,2141
1475.6307395408976,2213
1477.7014898170391,2259
1479.771701761665,2296
1481.8413756226287,2284
1483.9105116478618,2200
1485.9791100853772,2318
1488.0471711832643,2305
1490.1146951896926,2324
1492.1816823529098,2321
1494.2481329212433,2373
1496.3140471430984,2432
1498.3794252669609,2494
1500.4442675413939,2492
1502.5085742150404,2483
1504.572345536622,2483
1506.6355817549388,2556
1508.6982831188702,2464
1510.7604498773744,2592
1512.8220822794883,2617
1514.8831805743293,2585
1516.9437450110909,2600
1519.003775839048,2703
1521.0632733075522,2696
1523.1222376660367,2756
1525.1806691640113,2757
1527.2385680510652,2858
1529.2959345768668,2829
1531.3527689911643,2885
1533.4090715437833,2928
1535.4648424846291,2937
1537.5200820636855,3002
1539.5747905310159,3043
1541.6289681367616,3073
1543.6826151311434,3095
1545.7357317644614,3170
1547.7883182870937,3201
1549.8403749494987,3271
1551.8919020022113,3255
1553.9428996958477,3317
1555.9933682811015,3349
1558.0433080087469,3466
1560.0927191296346,3538
1562.1416018946961,3558
1564.1899565549415,3569
1566.2377833614592,3635
1568.2850825654164,3487
1570.3318544180606,3495
1572.3780991707158,3425
1574.423817074788,3281
1576.4690083817595,3125
1578.5136733431923,3143
1580.5578122107272,2860
1582.601425236085,2752
1584.6445126710646,2689
1586.6870747675434,2564
1588.7291117774776,2558
1590.7706239529034,2362
1592.8116115459347,2352
1594.8520748087658,2263
1596.8920139936686,2157
1598.9314293529933,2151
1600.9703211391711,2072
1603.008689604711,2003
1605.0465350022005,1972
1607.0838575843068,1957
1609.1206576037753,1913
1611.1569353134305,1891
1613.1926909661765,1835
1615.2279248149953,1824
1617.2626371129481,1802
1619.2968281131757,1725
1621.3304980688963,1828
1623.3636472334088,1863
1625.39627586009,1800
1627.428384202396,1703
1629.459972513861,1680
1631.4910410480993,1697
1633.5215900588028,1694
1635.551619799744,1702
1637.5811305247717,1695
1639.6101224878166,1697
1641.6385959428862,1709
1643.6665511440683,1655
1645.693988345528,1634
1647.7209078015112,1646
1649.7473097663405,1669
1651.7731944944203,1696
1653.7985622402307,1653
1655.823413258333,1592
1657.847747803366,1604
1659.8715661300494,1659
1661.8948684931793,1633
1663.9176551476316,1616
1665.9399263483624,1674
1667.9616823504057,1646
1669.982923408873,1582
1672.0036497789574,1625
1674.0238617159293,1606
1676.043559475138,1603
1678.0627433120121,1607
1680.081413482059,1579
1682.0995702408654,1649
1684.117213844096,1612
1686.134344547495,1619
1688.1509626068864,1601
1690.1670682781705,1585
1692.182661817329,1633
1694.1977434804217,1612
1696.2123135235875,1662
1698.226372203043,1582
1700.2399197750851,1654
1702.2529564960905,1639
1704.2654826225112,1651
1706.277498410882,1621
1708.2890041178139,1600
1710.2999999999988,1631
1712.3104863142066,1566
1714.3204633172854,1567
1716.329931266163,1565
1718.3388904178469,1601
1720.3473410294214,1538
1722.3552833580516,1648
1724.3627176609807,1609
1726.3696441955308,1576
1728.3760632191033,1587
1730.3819749891782,1624
1732.3873797633146,1593
1734.3922777991502,1566
1736.3966693544012,1524
1738.4005546868639,1514
1740.4039340544127,1544
1742.406807715001,1568
1744.4091759266616,1591
1746.4110389475054,1531
1748.4123970357223,1540
1750.413250449582,1628
1752.4135994474318,1554
1754.4134442876993,1531
1756.4127852288902,1575
1758.4116225295893,1560
1760.4099564484595,1525
1762.407787244244,1532
1764.405115175764,1536
1766.4019405019203,1553
1768.3982634816916,1511
1770.3940843741357,1531
1772.3894034383907,1508
1774.3842209336717,1521
1776.378537119274,1503
1778.372352254571,1585
1780.3656665990156,1536
1782.3584804121397,1543
1784.3507939535534,1540
1786.3426074829463,1565
1788.3339212600863,1498
1790.3247355448211,1493
1792.3150505970766,1559
1794.3048666768573,1531
1796.2941840442477,1513
1798.2830029594106,1474
1800.2713236825884,1494
1802.2591464741004,1525
1804.2464715943465,1483
1806.2332993038058,1541
1808.2196298630352,1478
1810.2054635326708,1482
1812.190800573428,1527
1814.175641246101,1556
1816.1599858115628,1501
1818.1438345307652,1460
1820.127187664738,1542
1822.1100454745924,1487
1824.092408221516,1489
1826.0742761667766,1508
1828.055649571721,1521
1830.0365286977735,1540
1832.0169138064398,1468
1833.9968051593014,1576
1835.9762030180214,1532
1837.9551076443408,1531
1839.9335193000788,1488
1841.9114382471344,1552
1843.888864747485,1467
1845.8657990631878,1506
1847.842241456378,1540
1849.8181921892697,1522
1851.7936515241558,1502
1853.7686197234098,1565
1855.7430970494815,1532
1857.7170837649014,1467
1859.6905801322787,1476
1861.6635864143004,1532
1863.6361028737338,1537
1865.608129773424,1518
1867.5796673762961,1443
1869.5507159453537,1531
1871.521275743678,1501
1873.4913470344313,1510
1875.4609300808534,1496
1877.4300251462632,1537
1879.3986324940588,1495
1881.366752387717,1538
1883.3343850907936,1597
1885.3015308669228,1516
1887.268189979819,1507
1889.2343626932739,1571
1891.2000492711595,1493
1893.1652499774254,1519
1895.1299650761011,1482
1897.0941948312952,1474
1899.0579395071945,1515
1901.0211993680641,1478
1902.98397467825,1540
1904.9462657021745,1471
1906.9080727043415,1451
1908.869395949332,1501
1910.8302357018065,1464
1912.790592226504,1483
1914.7504657882428,1457
1916.7098566519212,1516
1918.6687650825133,1513
1920.6271913450764,1512
1922.5851357047422,1513
1924.5425984267245,1514
1926.499579776314,1439
1928.4560800188833,1496
1930.4120994198802,1438
1932.367638244833,1560
1934.32269675935,1510
1936.2772752291175,1491
1938.231373919899,1486
1940.1849930975404,1545
1942.1381330279637,1501
1944.0907939771696,1529
1946.0429762112412,1514
1947.9946799963363,1484
1949.9459055986945,1426
1951.896653284633,1431
1953.8469233205478,1545
1955.7967159729142,1431
1957.7460315082863,1464
1959.6948701932974,1483
1961.6432322946594,1441
1963.5911180791632,1468
1965.5385278136787,1524
1967.4854617651545,1433
1969.4319202006182,1454
1971.377903387176,1453
1973.3234115920136,1501
1975.268445082395,1474
1977.2130041256642,1483
1979.1570889892423,1524
1981.1006999406304,1538
1983.04383724741,1481
1984.986501177238,1521
1986.928691997853,1498
1988.8704099770712,1528
1990.811655382789,1484
1992.7524284829801,1500
1994.692729545698,1441
1996.6325588390755,1493
1998.5719166313224,1452
2000.5108031907307,1457
2002.4492187856677,1473
2004.387163684583,1487
2006.3246381560011,1479
2008.2616424685298,1488
2010.1981768908527,1509
2012.1342416917332,1538
2014.069837140014,1491
2016.0049635046162,1515
2017.9396210545406,1504
2019.8738100588666,1504
2021.8075307867502,1476
2023.740783507431,1507
2025.6735684902228,1490
2027.6058860045214,1422
2029.5377363198004,1482
2031.4691197056118,1484
2033.4000364315875,1401
2035.3304867674374,1434
2037.260470982952,1427
2039.189989347998,1440
2041.1190421325232,1500
2043.047629606554,1456
2044.9757520401945,1469
2046.9034097036288,1483
2048.8306028671195,1459
2050.7573318010086,1449
2052.683596775716,1504
2054.609398061742,1480
2056.5347359296647,1420
2058.4596106501403,1444
2060.384022493906,1523
2062.3079717317764,1426
2064.231458634646,1416
2066.1544834734873,1449
2068.077046519352,1465
2069.99914804337,1460
2071.9207883167524,1445
2073.8419676107865,1436
2075.7626861968406,1414
2077.6829443463607,1458
2079.6027423308715,1444
2081.522080421977,1458
2083.440958891362,1455
2085.359378010786,1436
2087.2773380520907,1451
2089.194839287196,1441
2091.111881988101,1417
2093.0284664268825,1441
2094.9445928756973,1459
2096.86026160678,1406
2098.775472892446,1503
2100.690227005088,1505
2102.604524217178,1415
2104.5183648012676,1501
2106.431749029985,1457
2108.34467717604,1461
2110.2571495122206,1436
2112.169166311393,1388
2114.080727846503,1482
2115.9918343905747,1489
2117.902486216711,1444
2119.8126835980956,1439
2121.722426807987,1459
2123.6317161197285,1422
2125.5405518067364,1476
2127.448934142509,1426
2129.356863400624,1482
2131.264339854737,1469
2133.1713637785815,1446
2135.077935445972,1459
2136.9840551308002,1495
2138.889723107037,1453
2140.7949396487334,1477
2142.699705030018,1503
2144.6040195250994,1454
2146.507883408264,1509
2148.4112969538774,1488
2150.3142604363848,1513
2152.2167741303097,1450
2154.1188383102535,1541
2156.0204532508997,1474
2157.9216192270064,1509
2159.822336513414,1469
2161.7226053850413,1463
2163.622426116884,1456
2165.5217989840185,1450
2167.4207242616,1522
2169.319202224862,1512
2171.2172331491165,1508
2173.1148173097563,1456
2175.0119549822507,1437
2176.90864644215,1537
2178.8048919650823,1547
2180.7006918267534,1574
2182.596046302952,1557
2184.4909556695407,1591
2186.3854202024645,1566
2188.279440177746,1519
2190.173015871487,1551
2192.066147559868,1505
2193.958835519149,1506
2195.851080025667,1508
2197.7428813558417,1494
2199.6342397861667,1597
2201.5251555932186,1533
2203.415629053651,1568
2205.3056604441986,1514
2207.19525004167,1571
2209.084398122958,1570
2210.9731049650327,1571
2212.861370844941,1492
2214.749196039812,1567
2216.636580826851,1556
2218.523525483344,1569
2220.410030286655,1522
2222.296095514226,1555
2224.1817214435805,1558
2226.066908352319,1556
2227.951656518121,1525
2229.835966218746,1539
2231.71983773203,1503
2233.6032713358913,1488
2235.486267308324,1614
2237.3688259274036,1497
2239.2509474712824,1505
2241.132632218193,1500
2243.013880446447,1606
2244.8946924344323,1574
2246.7750684606203,1584
2248.6550088035574,1601
2250.534513741871,1577
2252.413583554265,1505
2254.292218519526,1490
2256.170418916517,1507
2258.0481850241786,1578
2259.925517121534,1526
2261.8024154876825,1563
2263.678880401803,1506
2265.5549121431536,1527
2267.430510991071,1583
2269.305677224971,1524
2271.180411124348,1530
2273.0547129687766,1537
2274.9285830379076,1568
2276.8020216114737,1546
2278.6750289692845,1486
2280.5476053912294,1471
2282.4197511572766,1557
2284.2914665474727,1605
2286.162751841943,1600
2288.0336073208937,1611
2289.904033264608,1577
2291.774029953448,1525
2293.6435976678554,1586
2295.5127366883517,1490
2297.381447295534,1479
2299.2497297700825,1528
2301.1175843927526,1448
2302.9850114443825,1397
2304.852011205885,1382
2306.7185839582553,1396
2308.5847299825664,1388
2310.4504495599676,1373
2312.3157429716925,1312
2314.1806104990483,1340
2316.0450524234247,1329
2317.9090690262888,1292
2319.772660589186,1330
2321.635827393742,1334
2323.498569721661,1343
2325.3608878547248,1278
2327.2227820747967,1290
2329.0842526638157,1310
2330.945299903803,1297
2332.805924076857,1350
2334.6661254651535,1256
2336.525904350951,1265
2338.3852610165827,1305
2340.244195744464,1347
2342.102708817088,1325
2343.9608005170253,1296
2345.8184711269287,1334
2347.675720929526,1354
2349.532550207628,1359
2351.38895924412,1292
2353.24494832197,1308
2355.100517724223,1263
2356.955667734004,1332
2358.810398634514,1337
2360.664710709037,1281
2362.5186042409337,1324
2364.3720795136437,1318
2366.225136810686,1304
2368.0777764156583,1355
2369.929998612237,1376
2371.7818036841777,1280
2373.633191915315,1308
2375.484163589562,1315
2377.3347189909114,1336
2379.184858403434,1334
2381.03458211128,1395
2382.8838903986775,1286
2384.732783549936,1335
2386.5812618494406,1401
2388.4293255816588,1336
2390.2769750311327,1356
2392.1242104824883,1318
2393.971032220427,1274
2395.8174405297295,1341
2397.6634356952563,1327
2399.509018001947,1349
2401.3541877348193,1382
2403.1989451789705,1400
2405.043290619576,1360
2406.8872243418905,1370
2408.730746631247,1344
2410.5738577730594,1331
2412.4165580528183,1379
2414.258847756095,1361
2416.100727168537,1335
2417.9421965758734,1347
2419.783256263912,1389
2421.623906518538,1332
2423.4641476257157,1354
2425.303979871491,1324
2427.143403541984,1330
2428.9824189233977,1347
2430.821026302012,1326
2432.6592259641866,1318
2434.497018196361,1301
2436.33440328505,1370
2438.171381516851,1319
2440.00795317844,1394
2441.844118556569,1363
2443.6798779380724,1278
2445.5152316098606,1326
2447.3501798589255,1359
2449.1847229723357,1363
2451.0188612372403,1330
2452.8525949408663,1363
2454.6859243705203,1311
2456.518849813587,1333
2458.3513715575314,1381
2460.183489889895,1375
2462.015205098301,1362
2463.8465174704493,1406
2465.67742729412,1356
2467.5079348571717,1396
2469.338040447542,1313
2471.1677443532476,1405
2472.9970468623833,1329
2474.825948263123,1340
2476.6544488437207,1363
2478.482548892508,1342
2480.310248697896,1409
2482.137548548374,1397
2483.9644487325118,1422
2485.790949538956,1311
2487.617051256433,1376
2489.44275417375,1424
2491.26805857979,1421
2493.0929647635157,1383
2494.917473013971,1406
2496.741583620276,1366
2498.5652968716304,1374
2500.3886130573137,1405
2502.2115324666834,1421
2504.0340553891765,1352
2505.856182114308,1386
2507.6779129316733,1397
2509.499248130945,1434
2511.3201880018764,1466
2513.140732834298,1385
2514.9608829181198,1420
2516.780638543331,1436
2518.6,1434
2520.418967578273,1422
2522.237541568376,1410
2524.0557222606144,1406
2525.8735099453706,1425
2527.6909049131086,1399
2529.507907454368,1497
2531.32451785977,1422
2533.140736420014,1472
2534.9565634258774,1437
2536.771999168218,1481
2538.5870439379714,1530
2540.4016980261526,1486
2542.2159617238544,1423
2544.02983532225,1479
2545.8433191125914,1552
2547.656413386209,1552
2549.4691184345115,1526
2551.2814345489874,1491
2553.093362021204,1502
2554.904901142808,1532
2556.716052205523,1463
2558.526815501153,1498
2560.3371913215824,1533
2562.147179958771,1513
2563.956781704761,1481
2565.7659968516705,1568
2567.5748256916986,1633
2569.3832685171224,1553
2571.1913256202984,1578
2572.9989972936614,1607
2574.806283829725,1621
2576.613185521084,1577
2578.4197026604074,1582
2580.2258355404483,1664
2582.031584454035,1570
2583.836949694077,1640
2585.6419315535613,1626
2587.4465303255533,1711
2589.2507463032002,1670
2591.0545797797245,1675
2592.8580310484303,1726
2594.6611004026995,1767
2596.463788135992,1747
2598.266094541849,1750
2600.0680199138874,1628
2601.869564545807,1726
2603.670728731383,1693
2605.4715127644704,1709
2607.2719169390048,1695
2609.071941548998,1759
2610.8715868885433,1734
2612.670853251811,1718
2614.469740933052,1710
2616.268250226594,1689
2618.0663814268455,1672
2619.864134828292,1709
2621.6615107255006,1617
2623.458509413115,1679
2625.2551311858597,1763
2627.0513763385347,1679
2628.8472451660223,1668
2630.6427379632833,1686
2632.4378550253564,1635
2634.232596647359,1653
2636.026963124488,1642
2637.8209547520187,1659
2639.6145718253065,1639
2641.407814639785,1631
2643.200683490966,1545
2644.9931786744414,1618
2646.7853004858807,1563
2648.577049221034,1514
2650.3684251757277,1478
2652.1594286458712,1521
2653.9500599274484,1629
2655.740319316525,1472
2657.5302071092437,1498
2659.3197236018286,1527
2661.10886909058,1472
2662.8976438718782,1491
2664.686048242183,1503
2666.4740824980327,1570
2668.2617469360443,1483
2670.0490418529134,1424
2671.8359675454153,1500
2673.622524310403,1454
2675.408712444811,1454
2677.1945322456495,1440
2678.979984010009,1391
2680.76506803506,1464
2682.5497846180497,1428
2684.334134056306,1319
2686.1181166472343,1398
2687.9017326883213,1375
2689.6849824771293,1443
2691.4678663113013,1451
2693.2503844885596,1420
2695.032537306705,1433
2696.8143250636167,1373
2698.5957480572542,1422
2700.3768065856534,1393
2702.1575009469316,1362
2703.937831439283,1391
2705.717798360982,1357
2707.4974020103837,1427
2709.276642685917,1318
2711.055520686095,1329
2712.834036309506,1354
2714.612189854819,1358
2716.389981620782,1335
2718.1674119062204,1348
2719.944481010041,1323
2721.721189231226,1351
2723.4975368688415,1315
2725.273524222027,1314
2727.0491515900053,1367
2728.824419272075,1339
2730.5993275676146,1356
2732.3738767760838,1329
2734.148067197016,1339
2735.921899130031,1321
2737.6953728748194,1381
2739.468488731156,1353
2741.2412469988926,1343
2743.0136479779617,1336
2744.785691968372,1329
2746.5573792702116,1301
2748.3287101836504,1333
2750.099685008934,1351
2751.870304046388,1319
2753.640567596418,1351
2755.4104759595057,1303
2757.1800294362156,1354
2758.949228327187,1302
2760.7180729331412,1287
2762.486563554877,1341
2764.254700493272,1316
2766.022484049284,1374
2767.789914523947,1342
2769.5569922183786,1346
2771.3237174337705,1324
2773.090090471394,1298
2774.8561116326036,1394
2776.6217812188274,1340
2778.3870995315756,1302
2780.1520668724356,1326
2781.9166835430747,1330
2783.6809498452394,1340
2785.444866080754,1320
2787.2084325515225,1277
2788.971649559527,1258
2790.73451740683,1307
2792.4970363955713,1326
2794.2592068279705,1388
2796.0210290063264,1315
2797.7825032330147,1285
2799.543629810493,1325
2801.304409041296,1369
2803.0648412280366,1314
2804.8249266734088,1309
2806.5846656801846,1357
2808.344058551212,1345
2810.1031055894246,1347
2811.8618070978273,1322
2813.6201633795085,1331
2815.378174737636,1293
2817.1358414754536,1310
2818.893163896285,1352
2820.6501423035334,1304
2822.4067770006814,1308
2824.1630682912883,1330
2825.9190164789957,1355
2827.6746218675207,1357
2829.429884760661,1339
2831.184805462294,1338
2832.9393842763743,1289
2834.693621506936,1275
2836.4475174580916,1320
2838.201072434034,1373
2839.954286739034,1332
2841.707160677441,1325
2843.459694553685,1316
2845.2118886722724,1388
2846.96374333779,1329
2848.7152588549034,1294
2850.4664355283567,1360
2852.217273662973,1411
2853.9677735636546,1338
2855.7179355353833,1332
2857.4677598832186,1338
2859.217246912299,1345
2860.9663969278427,1352
2862.715210235146,1345
2864.4636871395846,1349
2866.211827946614,1313
2867.9596329617652,1368
2869.7071024906536,1345
2871.4542368389684,1347
2873.20103631248,1350
2874.947501217038,1344
2876.6936318585695,1300
2878.4394285430812,1311
2880.1848915766604,1362
2881.9300212654707,1342
2883.6748179157553,1325
2885.4192818338374,1316
2887.1634133261173,1348
2888.907212699077,1335
2890.6506802592744,1318
2892.393816313348,1314
2894.1366211680142,1323
2895.8790951300693,1337
2897.621238506388,1345
2899.363051603925,1282
2901.1045347297118,1276
2902.8456881908596,1350
2904.58651229456,1302
2906.327007348081,1328
2908.067173658772,1323
2909.8070115340597,1301
2911.5465212814497,1347
2913.285703208527,1280
2915.0245576229563,1321
2916.7630848324807,1319
2918.5012851449196,1296
2920.2391588681758,1309
2921.976706310227,1385
2923.7139277791334,1326
2925.4508235830313,1327
2927.187394030137,1321
2928.923639428745,1301
2930.6595600872306,1347
2932.395156314046,1347
2934.1304284177218,1339
2935.8653767068713,1314
2937.6000014901815,1360
2939.3343030764227,1377
2941.068281774442,1350
2942.8019378931644,1303
2944.5352717415976,1341
2946.2682836288236,1339
2948.0009738640065,1335
2949.7333427563885,1354
2951.465390615289,1335
2953.1971177501086,1360
2954.9285244703265,1357
2956.6596110855,1383
2958.3903779052657,1393
2960.1208252393385,1344
2961.8509533975125,1357
2963.5807626896617,1325
2965.3102534257378,1287
2967.0394259157715,1270
2968.768280469873,1290
2970.496817398232,1323
2972.2250370111146,1306
2973.952939618869,1383
2975.6805255319196,1385
2977.4077950607707,1321
2979.134748516006,1313
2980.861386208289,1353
2982.587708448359,1314
2984.313715547037,1319
2986.039407815222,1361
2987.764785563891,1365
2989.489849104102,1310
2991.2145987469908,1299
2992.9390348037705,1314
2994.6631575857346,1315
2996.3869674042576,1293
2998.1104645707887,1338
2999.83364939686,1355
3001.5565221940783,1316
3003.2790832741334,1385
3005.0013329487924,1338
3006.7232715298996,1291
3008.4448993293804,1253
3010.166216659239,1300
3011.887223831558,1280
3013.607921158498,1327
3015.3283089522993,1310
3017.0483875252826,1337
3018.7681571898443,1280
3020.4876182584626,1267
3022.2067710436927,1335
3023.9256158581707,1294
3025.644153014609,1321
3027.362382825801,1371
3029.0803056046193,1320
3030.797921664012,1325
3032.5152313170106,1336
3034.2322348767225,1303
3035.9489326563353,1306
3037.665324969115,1267
3039.3814121284063,1309
3041.097194447633,1304
3042.812672240299,1293
3044.5278458199855,1318
3046.2427155003525,1303
3047.9572815951406,1326
3049.671544418167,1309
3051.38550428333,1331
3053.0991615046073,1299
3054.812516396051,1249
3056.5255692717974,1320
3058.2383204460575,1316
3059.9507702331257,1337
3061.662918947372,1322
3063.3747669032446,1335
3065.0863144152736,1307
3066.7975617980674,1360
3068.508509366309,1332
3070.219157434767,1321
3071.9295063182844,1268
3073.639556331785,1287
3075.3493077902704,1288
3077.058761008821,1309
3078.7679163025964,1355
3080.476773986837,1361
3082.1853343768594,1310
3083.89359778806,1291
3085.6015645359153,1364
3087.3092349359786,1356
3089.016609303884,1306
3090.7236879553434,1283
3092.4304712061476,1297
3094.136959372166,1313
3095.843152769349,1315
3097.5490517137237,1349
3099.2546565213966,1391
3100.959967508554,1289
3102.66498499146,1310
3104.3697092864577,1328
3106.0741407099695,1369
3107.778279578498,1385
3109.482126208622,1313
3111.1856809170004,1340
3112.8889440203716,1367
3114.5919158355528,1381
3116.294596679439,1380
3117.996986869006,1304
3119.6990867213062,1381
3121.4008965534726,1337
3123.102416682717,1307
3124.803647426329,1361
3126.5045891016784,1346
3128.205242026213,1341
3129.90560651746,1349
3131.605682893025,1272
3133.3054714705922,1362
3135.0049725679282,1369
3136.7041865028714,1308
3138.4031135933465,1326
3140.101754157353,1329
3141.800108512971,1325
3143.498176978357,1329
3145.1959598717494,1354
3146.8934575114636,1284
3148.5906702158954,1379
3150.2875983035183,1328
3151.9842420928853,1317
3153.680601902627,1336
3155.376678051456,1305
3157.07247085816,1319
3158.767980641609,1355
3160.463207720748,1334
3162.158152414606,1327
3163.8528150422862,1346
3165.5471959229726,1309
3167.2412953759303,1376
3168.9351137204976,1288
3170.628651276098,1301
3172.3219083622307,1316
3174.014885298474,1330
3175.707582404485,1251
3177.4000000000005,1307
3179.092138404835,1278
3180.7839979388846,1285
3182.47557892212,1345
3184.166881674594,1337
3185.8579065164386,1309
3187.5486537678626,1308
3189.2391237491547,1312
3190.9293167806827,1306
3192.6192331828934,1272
3194.3088732763117,1332
3195.998237381542,1361
3197.687325819268,1240
3199.376138910251,1288
3201.064676975334,1330
3202.7529403354347,1321
3204.4409293115523,1310
3206.1286442247647,1280
3207.816085396229,1308
3209.5032531471825,1292
3211.190147798936,1234
3212.8767696728846,1289
3214.5631190905015,1283
3216.2491963733373,1306
3217.9350018430214,1338
3219.6205358212637,1300
3221.305798629851,1290
3222.990790590651,1315
3224.6755120256103,1249
3226.359963256751,1295
3228.0441446061795,1240
3229.7280563960758,1296
3231.411698948703,1257
3233.0950725863995,1311
3234.778177631587,1290
3236.461014406761,1340
3238.1435832345005,1328
3239.8258844374595,1293
3241.507918338374,1333
3243.1896852600576,1327
3244.8711855254023,1336
3246.552419457381,1295
3248.233387379042,1313
3249.914089613516,1298
3251.59452648401,1333
3253.274698313813,1290
3254.95460542629,1317
3256.6342481448855,1317
3258.313626793125,1256
3259.9927416946084,1308
3261.6715931730196,1328
3263.3501815521176,1306
3265.0285071557437,1233
3266.706570307815,1258
3268.3843713323286,1285
3270.0619105533615,1290
3271.739188295068,1299
3273.4162048816834,1265
3275.0929606375184,1241
3276.769455886966,1297
3278.445690954498,1295
3280.1216661646613,1297
3281.797381842087,1358
3283.4728383114807,1304
3285.1480358976296,1301
3286.8229749253996,1270
3288.4976557197333,1285
3290.172078605655,1294
3291.846243908266,1289
3293.5201519527463,1288
3295.193803064357,1243
3296.8671975684374,1302
3298.5403357904024,1317
3300.21321805575,1310
3301.8858446900567,1255
3303.558216018975,1312
3305.23033236824,1311
3306.9021940636603,1299
3308.57380143113,1332
3310.2451547966184,1362
3311.916254486174,1306
3313.5871008259246,1275
3315.2576941420766,1257
3316.9280347609147,1208
3318.5981230088046,1260
3320.2679592121895,1309
3321.9375436975924,1316
3323.606876791612,1313
3325.27595882093,1288
3326.944790112305,1294
3328.6133709925753,1326
3330.2817017886573,1310
3331.949782827547,1270
3333.617614436319,1331
3335.2851969421245,1303
3336.952530672199,1342
3338.619615953853,1300
3340.286453114475,1360
3341.9530424815357,1277
3343.619384382583,1290
3345.2854791452437,1266
3346.951327097224,1280
3348.6169285663073,1303
3350.2822838803577,1249
3351.947393367319,1315
3353.61225735521,1247
3355.2768761721345,1330
3356.9412501462693,1278
3358.605379605873,1299
3360.2692648792827,1337
3361.9329062949146,1326
3363.596304181263,1291
