CollectionTime,7/10/2024 4:37:23 PM
ExposureUsed,3
CalibratedSpectrum
-962.7078968117929,513
-959.9714848408522,573
-957.2358232597828,580
-954.5009119013725,570
-951.7667505983302,558
-949.0333391832855,584
-946.3006774887896,570
-943.5687653473143,573
-940.837602591253,594
-938.1071890529199,579
-935.3775245645503,577
-932.6486089583007,598
-929.9204420662485,599
-927.1930237203925,593
-924.4663537526524,563
-921.7404319948689,625
-919.0152582788041,576
-916.2908324361409,646
-913.5671542984834,600
-910.8442236973568,554
-908.1220404642074,567
-905.4006044304027,582
-902.679915427231,616
-899.959973285902,587
-897.2407778375464,589
-894.5223289132158,567
-891.8046263438832,565
-889.0876699604426,588
-886.3714595937089,581
-883.6559950744183,584
-880.9412762332282,565
-878.2273029007168,567
-875.5140749073835,558
-872.8015920836489,555
-870.0898542598545,575
-867.3788612662631,550
-864.6686129330585,563
-861.9591090903457,572
-859.2503495681506,550
-856.5423341964203,583
-853.8350628050229,545
-851.1285352237478,540
-848.4227512823054,575
-845.7177108103272,573
-843.0134136373656,562
-840.3098595928943,588
-837.6070485063082,609
-834.9049802069229,588
-832.2036545239757,582
-829.5030712866244,563
-826.8032303239481,590
-824.1041314649472,607
-821.4057745385428,582
-818.7081593735775,577
-816.0112857988148,589
-813.3151536429393,574
-810.6197627345566,590
-807.9251129021936,553
-805.2312039742981,589
-802.5380357792392,562
-799.8456081453069,560
-797.1539209007124,549
-794.462973873588,604
-791.772766891987,598
-789.083299783884,624
-786.3945723771743,581
-783.7065844996748,591
-781.0193359791231,556
-778.3328266431781,585
-775.6470563194197,584
-772.9620248353489,556
-770.2777320183878,579
-767.5941776958798,598
-764.9113616950891,618
-762.2292838432011,596
-759.5479439673222,574
-756.8673418944801,568
-754.1874774516235,609
-751.5083504656222,601
-748.8299607632671,616
-746.15230817127,627
-743.475392516264,579
-740.7992136248035,592
-738.1237713233636,591
-735.4490654383407,593
-732.7750957960521,594
-730.1018622227365,629
-727.4293645445534,607
-724.7576025875837,618
-722.0865761778291,621
-719.4162851412126,624
-716.7467293035781,637
-714.0779084906909,624
-711.409822528237,669
-708.7424712418238,613
-706.0758544569796,599
-703.4099719991541,622
-700.7448236937178,655
-698.0804093659622,610
-695.4167288411002,642
-692.7537819442656,652
-690.0915685005134,622
-687.4300883348199,616
-684.7693412720819,631
-682.1093271371178,658
-679.4500457546669,662
-676.7914969493897,654
-674.1336805458676,666
-671.4765963686034,656
-668.8202442420206,664
-666.1646239904642,672
-663.5097354382001,660
-660.8555784094151,633
-658.2021527282176,643
-655.5494582186366,669
-652.8974947046223,661
-650.2462620100463,663
-647.5957599587009,640
-644.9459883742998,661
-642.2969470804776,664
-639.6486359007902,697
-637.0010546587141,701
-634.3542031776476,684
-631.7080812809096,697
-629.0626887917401,686
-626.4180255333008,694
-623.7740913286734,709
-621.1308860008619,715
-618.4884093727904,678
-615.8466612673046,671
-613.2056415071715,687
-610.5653499150785,672
-607.9257863136347,661
-605.28695052537,704
-602.6488423727357,709
-600.0114616781036,651
-597.3748082637674,677
-594.7388819519412,730
-592.1036825647604,747
-589.4692099242818,765
-586.8354638524829,720
-584.2024441712624,733
-581.5701507024403,756
-578.9385832677575,713
-576.3077416888759,724
-573.6776257873787,716
-571.0482353847704,726
-568.4195703024757,725
-565.7916303618415,747
-563.164415384135,749
-560.5379251905453,695
-557.9121596021815,731
-555.2871184400748,716
-552.6628015251767,692
-550.0392086783606,724
-547.4163397204204,741
-544.794194472071,789
-542.1727727539491,720
-539.5520743866118,789
-536.9320991905377,756
-534.3128469861261,776
-531.6943175936979,793
-529.0765108334947,808
-526.4594265256793,847
-523.8430644903358,1008
-521.2274245474689,1098
-518.612506517005,1137
-515.9983102187913,1113
-513.3848354725959,1172
-510.77208209810846,1187
-508.16004991493924,1278
-505.5487387426199,1361
-502.9381484006032,1565
-500.3282787082628,1599
-497.71912948489364,1538
-495.1107005497117,1536
-492.5029917218539,1353
-489.8960028203786,1158
-487.28973366426493,1138
-484.68418407241325,1017
-482.07935386364494,934
-479.47524285670266,921
-476.87185087025,885
-474.2691777228715,920
-471.66722323307334,921
-469.0659872192821,908
-466.4654694998459,913
-463.86566989303384,871
-461.26658821703614,930
-458.66822428996414,912
-456.07057792985,852
-453.4736489546475,891
-450.877437182231,905
-448.28194243039627,878
-445.68716451686,869
-443.09310325926003,873
-440.49975847515555,851
-437.9071299820263,868
-435.31521759727354,877
-432.72402113821954,882
-430.13354042210767,893
-427.5437752661022,914
-424.95472548728867,939
-422.36639090267386,920
-419.7787713291855,995
-417.1918665836721,961
-414.60567648290385,969
-412.0202008435715,993
-409.4354394822874,963
-406.8513922155845,1056
-404.26805885991723,1025
-401.685439231661,1014
-399.103533147112,1021
-396.522340422488,925
-393.9418608739278,948
-391.3620943174908,958
-388.7830405691583,953
-386.2046994448317,925
-383.6270707603344,869
-381.05015433141045,819
-378.473949973725,734
-375.8984575028645,727
-373.32367673433623,698
-370.74960748356875,693
-368.1762495659117,686
-365.60360279663576,652
-363.03166699093265,536
-360.4604419639154,558
-357.8899275306178,553
-355.32012350599507,529
-352.7510297049233,500
-350.1826459421999,489
-347.61497203254316,490
-345.04800779059235,478
-342.4817530309082,479
-339.91620756797226,492
-337.35137121618743,534
-334.7872437898774,550
-332.22382510328725,572
-329.66111497058273,514
-327.09911320585127,498
-324.53781962310075,509
-321.9772340362607,499
-319.4173562591816,468
-316.8581861056348,478
-314.2997233893127,505
-311.7419679238294,483
-309.1849195227194,497
-306.62857799943856,515
-304.0729431673641,525
-301.51801483979375,526
-298.963792829947,560
-296.41027695096386,521
-293.85746701590574,605
-291.3053628377552,630
-288.7539642294155,579
-286.2032710037115,589
-283.65328297338897,567
-281.1039999511146,573
-278.5554217494762,593
-276.007548180983,609
-273.4603790580651,549
-270.9139141930734,565
-268.3681533982807,577
-265.8230964858798,547
-263.27874326798565,563
-260.7350935566336,570
-258.1921471637804,602
-255.6499039013039,577
-253.10836358100266,604
-250.56752601459698,632
-248.02739101372765,583
-245.48795838995704,632
-242.94922795476816,662
-240.41119951956557,630
-237.8738728956746,741
-235.33724789434166,712
-232.80132432673452,628
-230.2661020039418,605
-227.73158073697357,602
-225.19776033676033,656
-222.66464061415422,647
-220.1322213799284,637
-217.60050244477725,629
-215.06948361931552,614
-212.53916471408013,645
-210.00954553952818,703
-207.48062590603843,763
-204.9524056239104,747
-202.4248845033651,767
-199.8980623545441,705
-197.37193898751036,746
-194.84651421224817,725
-192.32178783866232,704
-189.79775967657952,684
-187.27442953574644,837
-184.7517972258321,897
-182.2298625564256,885
-179.7086253370378,811
-177.18808537710026,840
-174.66824248596583,818
-172.14909647290835,778
-169.6306471471229,761
-167.11289431772548,762
-164.59583779375328,903
-162.07947738416453,849
-159.5638128978386,834
-157.04884414357605,855
-154.53457093009854,870
-152.02099306604828,961
-149.50811035998936,913
-146.99592262040665,876
-144.48442965570587,886
-141.97363127421409,849
-139.46352728417958,998
-136.95411749377126,1053
-134.44540171107985,925
-131.93737974411636,860
-129.43005140081357,872
-126.92341648902493,1166
-124.41747481652521,1568
-121.91222619101006,1806
-119.40767042009657,1936
-116.90380731132257,2073
-114.40063667214702,2369
-111.8981583099503,2529
-109.3963720320337,2218
-106.89527764561933,1698
-104.39487495785067,1797
-101.89516377579241,2263
-99.39614390642998,3364
-96.89781515667039,4016
-94.40017733334128,3547
-91.90323024319173,3005
-89.40697369289148,3010
-86.91140748903172,4128
-84.41653143812482,4825
-81.92234534660395,5738
-79.42884902082358,5781
-76.93604226705907,7074
-74.4439248915071,11711
-71.95249670028534,18870
-69.46175749943245,23684
-66.97170709490854,24552
-64.48234529259423,22383
-61.99367189829195,17052
-59.50568671772464,10716
-57.01838955653636,6367
-54.53178022029283,6208
-52.045858514480074,6277
-49.560624244506016,6798
-47.07607721569923,7691
-44.59221723330904,9019
-42.10904410250669,9634
-39.62655762838392,8672
-37.14475761595372,9298
-34.66364387015028,9929
-32.18321619582866,10176
-29.70347439776515,9750
-27.224418280657005,9470
-24.74604764912317,10675
-22.26836230770266,13434
-19.7913620608565,23689
-17.315046712966478,39720
-14.83941606833514,53054
-12.36446993118659,65037
-9.89020810566592,65037
-7.416630395839093,65037
-4.94373660569363,65037
-2.471526539137585,65037
-6.821210263296962E-13,65037
2.47084320796705,65037
4.941003281093458,65037
7.410480415786196,65037
9.879274808531363,65037
12.347386655893956,65037
14.814816154518212,65037
17.28156350112681,65037
19.74762889252179,65037
22.21301252558385,65037
24.67771459727237,22646
27.141735304626195,5230
29.605074844762612,3295
32.06773341487792,2958
34.52971121224755,2611
36.99100843422559,2854
39.45162527824516,3135
41.91156194181792,2422
44.370818622535126,1855
46.82939551806646,1544
49.287292826160524,1573
51.74451074464503,2212
54.201049471426245,2418
56.65690920448981,2295
59.112090141899785,1764
61.56659248179983,1469
64.02041642241159,1259
66.4735621620365,1221
68.92602989905402,1214
71.37781983192338,1338
73.82893215918205,1454
76.27936707944684,1411
78.72912479141326,1399
81.17820549385567,1435
83.62660938562783,1546
86.07433666566146,1696
88.5213875329681,1302
90.96776218663751,1039
93.41346082583925,976
95.85848364982041,982
98.30283085790859,1235
100.7465026495089,1298
103.18949922410604,1220
105.63182078126385,1232
108.07346752062438,1232
110.51443964190923,1113
112.95473734491827,1059
115.39436082953114,1015
117.83331029570547,1033
120.27158594347827,1122
122.7091879729652,1162
125.1461165843615,1219
127.58237197794062,1097
130.01795435405518,913
132.4528639131364,850
134.88710085569494,1070
137.32066538231982,1001
139.75355769367923,1008
142.1857779905207,930
144.61732647366978,870
147.04820334403132,805
149.47840880258934,869
151.90794305040674,935
154.33680628862487,1147
156.76499871846443,1417
159.19252054122433,1463
161.61937195828352,1477
164.04555317109896,1586
166.47106438120693,1889
168.89590579022217,2023
171.320077599839,2215
173.7435800118302,2288
176.16641322804742,2374
178.58857745042144,2461
181.01007288096173,2640
183.43089972175687,2603
185.85105817497413,2498
188.27054844285988,2568
190.6893707277394,2591
193.10752523201643,2624
195.5250121581745,2743
197.9418317087751,2738
200.3579840864594,2715
202.7734694939469,2718
205.18828813403627,2770
207.6024402096051,2897
210.01592592360964,3006
212.42874547908548,2777
214.84089907914665,2946
217.2523869269868,2754
219.66320922587727,2826
222.0733661791695,2806
224.48285799029293,2722
226.8916848627572,2691
229.29984700014882,2781
231.7073446061355,2865
234.11417788446204,2772
236.520347038953,2724
238.92585227351185,2764
241.33069379212054,2856
243.73487179884035,2861
246.1383864978112,2961
248.541238093252,2952
250.9434267894609,2908
253.34495279081432,2982
255.74581630176783,2892
258.1460175268563,3001
260.54555667069314,2908
262.9444339379703,2937
265.3426495334594,2874
267.7402036620107,2857
270.1370965285529,2814
272.53332833809407,2787
274.9288992957214,2790
277.32380960660055,2637
279.718059475976,2559
282.1116491091717,2589
284.5045787115897,2581
286.89684848871195,2584
289.2884586460981,2533
291.67940938938807,2638
294.0697009242996,2677
296.4593334566299,2600
298.84830719225477,2485
301.23662233712923,2555
303.6242790972866,2516
306.01127767884,2423
308.39761828798066,2520
310.78330113097934,2512
313.16832641418534,2353
315.5526943440269,2371
317.9364051270112,2393
320.3194589697242,2394
322.70185607883093,2298
325.0835966610754,2368
327.4646809232805,2269
329.8451090723478,2270
332.2248813152577,2235
334.6039978590701,2231
336.9824589109231,2240
339.36026467803447,2186
341.7374153677,2223
344.113911187295,2157
346.48975234427337,2207
348.8649390461686,2197
351.2394715005918,2132
353.61334991523415,2228
355.9865744978655,2162
358.35914545633375,2141
360.73106299856715,2104
363.10232733257146,2184
365.47293866643247,2117
367.84289720831396,2045
370.2122031664593,2148
372.5808567491905,2114
374.9488581649083,2071
377.31620762209275,2030
379.6829053293021,2078
382.0489514951745,2035
384.4143463284262,2085
386.7790900378528,1983
389.14318283232853,2068
391.50662492080653,2082
393.86941651231916,2058
396.23155781597745,2071
398.5930490409713,2011
400.9538903965696,1991
403.3140820921202,2046
405.6736243370498,2093
408.03251734086336,2008
410.3907613131465,1964
412.74835646356166,1976
415.10530300185144,1977
417.4616011378372,2035
419.81725108141893,1962
422.1722530425758,1944
424.5266072313656,1947
426.880313857925,2011
429.2333731324701,1959
431.58578526529516,2008
433.9375504667738,1936
436.2886689473588,1950
438.63914091758113,1966
440.9889665880513,1961
443.33814616945835,1880
445.68667987257015,1883
448.03456790823395,1858
450.3818104873759,1845
452.72840782100013,1945
455.07436012019105,1916
457.41966759611057,1936
459.7643304600007,1907
462.10834892318155,1942
464.4517231970525,1932
466.79445349309174,1883
469.1365400228566,1941
471.4779829979826,1819
473.81878263018564,1938
476.15893913125876,1948
478.4984527130747,2046
480.8373235875855,2064
483.17555196682144,2051
485.5131380628919,2057
487.8500820879857,2205
490.1863842543697,2253
492.52204477439034,2377
494.8570638604725,2686
497.1914417251204,2900
499.52517858091653,3192
501.85827464052306,3413
504.19073011668036,3495
506.5225452222086,3430
508.85372017000566,3360
511.18425517304956,3257
513.514150444396,3337
515.8434061971808,3980
518.1720226446176,4752
520.4999999999999,5065
522.8273384766991,4809
525.1540382881666,4374
527.480099647932,3913
529.8055227696037,3343
532.1303078668694,2750
534.454455153496,2356
536.777964843328,2161
539.1008371502907,2177
541.4230722883866,2154
543.744670471698,2041
546.0656319143858,2173
548.3859568306899,2093
550.7056454349294,2051
553.0246979415016,2038
555.3431145648834,1997
557.6608955196306,1998
559.978041020377,2011
562.2945512818363,1977
564.6104265188006,1991
566.9256669461412,2110
569.2402727788082,2105
571.5542442318302,2074
573.8675815203156,2041
576.1802848594508,2133
578.4923544645015,2077
580.8037905508126,2075
583.114593333807,2051
585.4247630289875,2134
587.7342998519354,2050
590.0432040183106,2038
592.3514757438526,2110
594.6591152443794,2099
596.9661227357875,2072
599.2724984340531,2011
601.578242555231,2090
603.8833553154542,2048
606.1878369309362,2081
608.4916876179676,2012
610.7949075929192,2056
613.0974970722403,1977
615.3994562724587,2051
617.7007854101818,2090
620.0014847020951,2030
622.3015543649641,2027
624.6009946156324,2053
626.8998056710224,1998
629.1979877481361,2094
631.4955410640538,2078
633.7924658359349,2054
636.0887622810175,2102
638.3844306166192,2031
640.6794710601358,2043
642.9738838290426,2010
645.2676691408932,2048
647.5608272133207,2033
649.853358264037,1980
652.1452625108324,2034
654.4365401715764,2018
656.7271914642178,2003
659.0172166067838,2046
661.3066158173809,2050
663.5953893141935,2028
665.8835373154867,2064
668.1710600396028,2044
670.4579577049639,2025
672.7442305300709,2110
675.0298787335033,2097
677.3149025339197,1956
679.599302150058,2045
681.8830778007342,2045
684.1662297048437,1962
686.4487580813608,2077
688.7306631493387,2146
691.0119451279091,2051
693.2926042362834,1977
695.5726406937516,2167
697.8520547196814,2028
700.1308465335215,2129
702.4090163547982,1964
704.6865644031171,1957
706.9634908981619,2009
709.2397960596965,1985
711.5154801075631,2062
713.7905432616823,1999
716.0649857420548,1958
718.3388077687592,2018
720.612009561953,2030
722.8845913418733,2060
725.1565533288352,2056
727.427895743234,2041
729.6986188055427,1972
731.9687227363137,2117
734.238207756178,1991
736.5070740858458,2009
738.7753219461066,2058
741.0429515578281,2056
743.3099631419569,1988
745.5763569195191,1999
747.8421331116193,2028
750.1072919394409,1993
752.3718336242467,2023
754.6357583873777,2027
756.8990664502545,2016
759.1617580343765,2076
761.423833361321,2004
763.6852926527457,2036
765.9461361303862,2061
768.206364016058,2025
770.4659765316536,2038
772.7249738991469,2006
774.9833563405886,2027
777.2411240781092,2069
779.4982773339183,1997
781.7548163303044,2008
784.010741289634,1973
786.2660524343538,2143
788.5207499869881,2059
790.7748341701416,2060
793.0283052064964,2024
795.2811633188143,2008
797.5334087299362,2038
799.7850416627813,2058
802.0360623403484,2076
804.2864709857143,2043
806.5362678220353,2057
808.7854530725468,2053
811.0340269605625,2081
813.2819897094754,2103
815.5293415427581,2048
817.77608268396,2033
820.0222133567116,2091
822.2677337847211,2092
824.5126441917765,2034
826.7569448017433,2021
829.0006358385675,2101
831.2437175262731,2073
833.4861900889629,2074
835.7280537508192,2040
837.9693087361026,2049
840.2099552691533,2104
842.4499935743896,2109
844.689423876309,2101
846.9282463994886,2051
849.1664613685833,2048
851.4040690083276,2075
853.6410695435349,2101
855.877463199097,2032
858.1132501999847,2063
860.3484307712487,2024
862.5830051380175,1983
864.8169735254988,2129
867.0503361589791,2129
869.2830932638243,2090
871.5152450654786,2141
873.7467917894654,2054
875.9777336613873,2067
878.2080709069252,2155
880.4378037518389,2145
882.666932421968,2121
884.8954571432301,2132
887.1233781416219,2098
889.3506956432192,2119
891.5774098741766,2128
893.803521060728,2127
896.0290294291852,2116
898.2539352059397,2078
900.4782386174619,2097
902.7019398903011,2153
904.925039251085,2104
907.147536926521,2122
909.3694331433943,2057
911.59072812857,2078
913.8114221089921,2073
916.0315153116827,2053
918.2510079637437,2082
920.4699002923547,2024
922.6881925247761,2099
924.905884888345,2021
927.1229776104793,2049
929.3394709186747,2040
931.555365040506,2052
933.7706602036275,2081
935.9853566357709,2071
938.1994545647489,2053
940.4129542184515,2012
942.6258558248488,2037
944.8381596119883,2076
947.0498658079974,2058
949.2609746410825,2001
951.4714863395287,2024
953.6814011316998,1991
955.8907192460387,2028
958.0994409110671,1980
960.3075663553858,1942
962.5150958076741,1975
964.7220294966913,2004
966.928367651274,1988
969.1341105003388,1982
971.3392582728806,1962
973.5438111979742,1985
975.747769504772,1941
977.9511334225061,1924
980.153903180487,1961
982.3560790081052,1936
984.5576611348289,1935
986.7586497902058,1828
988.9590452038618,1866
991.158847605503,1887
993.3580572249133,1819
995.5566742919558,1818
997.7546990365728,1799
999.952131688785,1742
1002.1489724786926,1744
1004.3452216364743,1751
1006.5408793923874,1774
1008.7359459767691,1703
1010.9304216200343,1729
1013.1243065526781,1706
1015.3176010052733,1757
1017.510305208472,1765
1019.7024193930064,1657
1021.8939437896848,1655
1024.0848786293977,1636
1026.2752241431122,1592
1028.4649805618747,1655
1030.6541481168115,1757
1032.842727039127,1646
1035.0307175601051,1662
1037.2181199111074,1572
1039.4049343235752,1670
1041.591161029029,1573
1043.7768002590683,1658
1045.9618522453698,1628
1048.1463172196918,1648
1050.3301954138697,1648
1052.513487059818,1648
1054.69619238953,1684
1056.8783116350783,1650
1059.0598450286152,1632
1061.2407928023704,1614
1063.4211551886528,1635
1065.6009324198508,1692
1067.780124728432,1572
1069.9587323469414,1603
1072.1367555080046,1663
1074.314194444325,1617
1076.4910493886855,1597
1078.667320573947,1580
1080.843008233051,1628
1083.0181125990161,1590
1085.1926339049414,1614
1087.3665723840027,1617
1089.5399282694575,1568
1091.7127017946405,1619
1093.8848931929647,1583
1096.0565026979243,1595
1098.2275305430899,1592
1100.3979769621128,1537
1102.567842188722,1565
1104.737126456726,1511
1106.9058300000124,1492
1109.0739530525475,1546
1111.2414958483764,1540
1113.4084586216231,1540
1115.5748416064907,1566
1117.7406450372605,1502
1119.9058691482942,1511
1122.0705141740304,1522
1124.2345803489884,1513
1126.3980679077658,1592
1128.5609770850388,1522
1130.7233081155623,1510
1132.8850612341707,1586
1135.0462366757774,1533
1137.2068346753745,1534
1139.3668554680326,1469
1141.526299288901,1492
1143.68516637321,1499
1145.8434569562655,1482
1148.001171273455,1490
1150.158309560244,1415
1152.3148720521767,1526
1154.470858984876,1447
1156.626270594044,1493
1158.7811071154629,1487
1160.9353687849912,1514
1163.089055838569,1494
1165.242168512213,1535
1167.3947070420209,1428
1169.5466716641677,1507
1171.6980626149075,1467
1173.8488801305748,1443
1175.9991244475814,1511
1178.1487958024186,1501
1180.2978944316555,1484
1182.4464205719428,1478
1184.5943744600072,1481
1186.7417563326567,1478
1188.8885664267755,1466
1191.0348049793297,1408
1193.1804722273619,1445
1195.325568407995,1489
1197.4700937584303,1498
1199.614048515948,1460
1201.7574329179074,1441
1203.900247201746,1429
1206.042491604982,1437
1208.1841663652099,1480
1210.3252717201053,1461
1212.465807907422,1537
1214.6057751649923,1425
1216.7451737307279,1481
1218.8840038426192,1477
1221.0222657387353,1499
1223.1599596572241,1504
1225.2970858363137,1527
1227.4336445143094,1501
1229.5696359295966,1531
1231.705060320639,1479
1233.8399179259786,1534
1235.9742089842384,1491
1238.107933734118,1422
1240.2410924143974,1474
1242.373685263935,1511
1244.5057125216676,1460
1246.6371744266116,1585
1248.7680712178621,1534
1250.898403134593,1531
1253.028170416058,1487
1255.1573733015875,1532
1257.2860120305932,1499
1259.4140868425648,1512
1261.54159797707,1509
1263.6685456737569,1501
1265.7949301723515,1498
1267.9207517126597,1539
1270.046010534565,1600
1272.1707068780306,1525
1274.2948409830983,1555
1276.4184130898889,1527
1278.541423438603,1641
1280.6638722695184,1594
1282.785759822993,1533
1284.9070863394636,1622
1287.0278520594447,1629
1289.1480572235314,1586
1291.2677020723963,1535
1293.3867868467923,1613
1295.5053117875495,1567
1297.623277135579,1616
1299.740683131868,1587
1301.8575300174857,1636
1303.973818033578,1583
1306.0895474213703,1620
1308.2047184221678,1655
1310.3193312773528,1585
1312.4333862283888,1636
1314.5468835168163,1625
1316.659823384255,1621
1318.7722060724045,1593
1320.8840318230418,1637
1322.9953008780249,1616
1325.1060134792888,1620
1327.2161698688478,1661
1329.3257702887959,1690
1331.4348149813054,1708
1333.5433041886276,1663
1335.6512381530933,1674
1337.7586171171101,1610
1339.8654413231675,1620
1341.9717110138317,1637
1344.0774264317488,1610
1346.1825878196432,1645
1348.2871954203192,1614
1350.3912494766587,1610
1352.4947502316231,1601
1354.5976979282532,1573
1356.7000928096686,1594
1358.8019351190665,1626
1360.9032250997243,1584
1363.0039629949988,1625
1365.1041490483235,1676
1367.2037835032133,1570
1369.3028666032606,1598
1371.401398592137,1692
1373.4993797135926,1640
1375.5968102114575,1595
1377.6936903296396,1637
1379.7900203121262,1698
1381.8858004029835,1615
1383.9810308463561,1649
1386.075711886469,1623
1388.1698437676241,1593
1390.2634267342032,1676
1392.356461030667,1724
1394.4489469015557,1628
1396.5408845914872,1691
1398.6322743451592,1681
1400.7231164073469,1670
1402.813411022907,1723
1404.903158436773,1704
1406.9923588939578,1623
1409.0810126395531,1751
1411.1691199187303,1737
1413.2566809767386,1761
1415.343696058907,1741
1417.4301654106425,1702
1419.5160892774315,1793
1421.6014679048399,1724
1423.6863015385125,1811
1425.7705904241707,1727
1427.8543348076178,1796
1429.9375349347342,1728
1432.0201910514802,1783
1434.102303403894,1738
1436.1838722380944,1831
1438.2648978002767,1765
1440.3453803367174,1900
1442.4253200937692,1817
1444.5047173178677,1884
1446.5835722555234,1904
1448.6618851533285,1980
1450.739656257952,1935
1452.8168858161434,1959
1454.8935740747306,1980
1456.96972128062,1988
1459.045327680797,2059
1461.120393522327,2084
1463.1949190523528,2122
1465.2689045180973,2117
1467.3423501668608,2111
1469.415256246024,2275
1471.4876230030463,2253
1473.559450685465,2307
1475.6307395408976,2161
1477.7014898170391,2262
1479.771701761665,2347
1481.8413756226287,2466
1483.9105116478618,2395
1485.9791100853772,2430
1488.0471711832643,2424
1490.1146951896926,2517
1492.1816823529098,2551
1494.2481329212433,2567
1496.3140471430984,2464
1498.3794252669609,2563
1500.4442675413939,2678
1502.5085742150404,2722
1504.572345536622,2722
1506.6355817549388,2740
1508.6982831188702,2796
1510.7604498773744,2680
1512.8220822794883,2862
1514.8831805743293,2820
1516.9437450110909,2811
1519.003775839048,2848
1521.0632733075522,2958
1523.1222376660367,2986
1525.1806691640113,3000
1527.2385680510652,3057
1529.2959345768668,3062
1531.3527689911643,3050
1533.4090715437833,3192
1535.4648424846291,3200
1537.5200820636855,3342
1539.5747905310159,3342
1541.6289681367616,3389
1543.6826151311434,3458
1545.7357317644614,3434
1547.7883182870937,3518
1549.8403749494987,3426
1551.8919020022113,3570
1553.9428996958477,3582
1555.9933682811015,3694
1558.0433080087469,3874
1560.0927191296346,3910
1562.1416018946961,3901
1564.1899565549415,3924
1566.2377833614592,3911
1568.2850825654164,3963
1570.3318544180606,3855
1572.3780991707158,3733
1574.423817074788,3604
1576.4690083817595,3448
1578.5136733431923,3393
1580.5578122107272,3222
1582.601425236085,3001
1584.6445126710646,3003
1586.6870747675434,2789
1588.7291117774776,2700
1590.7706239529034,2579
1592.8116115459347,2509
1594.8520748087658,2329
1596.8920139936686,2319
1598.9314293529933,2210
1600.9703211391711,2208
1603.008689604711,2083
1605.0465350022005,2044
1607.0838575843068,2012
1609.1206576037753,1951
1611.1569353134305,1988
1613.1926909661765,1887
1615.2279248149953,1784
1617.2626371129481,1908
1619.2968281131757,1885
1621.3304980688963,1850
1623.3636472334088,1824
1625.39627586009,1831
1627.428384202396,1712
1629.459972513861,1732
1631.4910410480993,1736
1633.5215900588028,1761
1635.551619799744,1705
1637.5811305247717,1629
1639.6101224878166,1727
1641.6385959428862,1735
1643.6665511440683,1720
1645.693988345528,1666
1647.7209078015112,1606
1649.7473097663405,1703
1651.7731944944203,1684
1653.7985622402307,1664
1655.823413258333,1668
1657.847747803366,1606
1659.8715661300494,1603
1661.8948684931793,1687
1663.9176551476316,1623
1665.9399263483624,1641
1667.9616823504057,1616
1669.982923408873,1550
1672.0036497789574,1717
1674.0238617159293,1644
1676.043559475138,1674
1678.0627433120121,1619
1680.081413482059,1598
1682.0995702408654,1555
1684.117213844096,1673
1686.134344547495,1608
1688.1509626068864,1671
1690.1670682781705,1642
1692.182661817329,1631
1694.1977434804217,1628
1696.2123135235875,1659
1698.226372203043,1654
1700.2399197750851,1650
1702.2529564960905,1600
1704.2654826225112,1592
1706.277498410882,1625
1708.2890041178139,1605
1710.2999999999988,1577
1712.3104863142066,1622
1714.3204633172854,1640
1716.329931266163,1608
1718.3388904178469,1599
1720.3473410294214,1587
1722.3552833580516,1602
1724.3627176609807,1590
1726.3696441955308,1567
1728.3760632191033,1571
1730.3819749891782,1576
1732.3873797633146,1602
1734.3922777991502,1611
1736.3966693544012,1562
1738.4005546868639,1561
1740.4039340544127,1544
1742.406807715001,1560
1744.4091759266616,1524
1746.4110389475054,1548
1748.4123970357223,1513
1750.413250449582,1574
1752.4135994474318,1533
1754.4134442876993,1540
1756.4127852288902,1514
1758.4116225295893,1519
1760.4099564484595,1534
1762.407787244244,1519
1764.405115175764,1552
1766.4019405019203,1533
1768.3982634816916,1582
1770.3940843741357,1496
1772.3894034383907,1509
1774.3842209336717,1513
1776.378537119274,1517
1778.372352254571,1495
1780.3656665990156,1518
1782.3584804121397,1524
1784.3507939535534,1522
1786.3426074829463,1577
1788.3339212600863,1514
1790.3247355448211,1517
1792.3150505970766,1552
1794.3048666768573,1495
1796.2941840442477,1502
1798.2830029594106,1518
1800.2713236825884,1537
1802.2591464741004,1407
1804.2464715943465,1477
1806.2332993038058,1510
1808.2196298630352,1449
1810.2054635326708,1507
1812.190800573428,1506
1814.175641246101,1520
1816.1599858115628,1507
1818.1438345307652,1492
1820.127187664738,1430
1822.1100454745924,1564
1824.092408221516,1502
1826.0742761667766,1478
1828.055649571721,1509
1830.0365286977735,1496
1832.0169138064398,1445
1833.9968051593014,1460
1835.9762030180214,1489
1837.9551076443408,1463
1839.9335193000788,1468
1841.9114382471344,1436
1843.888864747485,1488
1845.8657990631878,1474
1847.842241456378,1456
1849.8181921892697,1486
1851.7936515241558,1461
1853.7686197234098,1414
1855.7430970494815,1374
1857.7170837649014,1461
1859.6905801322787,1424
1861.6635864143004,1422
1863.6361028737338,1489
1865.608129773424,1430
1867.5796673762961,1382
1869.5507159453537,1485
1871.521275743678,1470
1873.4913470344313,1451
1875.4609300808534,1530
1877.4300251462632,1471
1879.3986324940588,1444
1881.366752387717,1469
1883.3343850907936,1500
1885.3015308669228,1464
1887.268189979819,1415
1889.2343626932739,1455
1891.2000492711595,1408
1893.1652499774254,1528
1895.1299650761011,1477
1897.0941948312952,1533
1899.0579395071945,1418
1901.0211993680641,1442
1902.98397467825,1497
1904.9462657021745,1480
1906.9080727043415,1435
1908.869395949332,1389
1910.8302357018065,1449
1912.790592226504,1487
1914.7504657882428,1446
1916.7098566519212,1472
1918.6687650825133,1451
1920.6271913450764,1474
1922.5851357047422,1502
1924.5425984267245,1454
1926.499579776314,1492
1928.4560800188833,1501
1930.4120994198802,1403
1932.367638244833,1426
1934.32269675935,1464
1936.2772752291175,1482
1938.231373919899,1453
1940.1849930975404,1471
1942.1381330279637,1431
1944.0907939771696,1431
1946.0429762112412,1471
1947.9946799963363,1442
1949.9459055986945,1434
1951.896653284633,1473
1953.8469233205478,1450
1955.7967159729142,1421
1957.7460315082863,1437
1959.6948701932974,1455
1961.6432322946594,1463
1963.5911180791632,1445
1965.5385278136787,1480
1967.4854617651545,1397
1969.4319202006182,1401
1971.377903387176,1425
1973.3234115920136,1416
1975.268445082395,1422
1977.2130041256642,1451
1979.1570889892423,1461
1981.1006999406304,1422
1983.04383724741,1391
1984.986501177238,1394
1986.928691997853,1395
1988.8704099770712,1363
1990.811655382789,1433
1992.7524284829801,1394
1994.692729545698,1434
1996.6325588390755,1409
1998.5719166313224,1466
2000.5108031907307,1389
2002.4492187856677,1412
2004.387163684583,1425
2006.3246381560011,1418
2008.2616424685298,1377
2010.1981768908527,1412
2012.1342416917332,1412
2014.069837140014,1403
2016.0049635046162,1388
2017.9396210545406,1373
2019.8738100588666,1351
2021.8075307867502,1379
2023.740783507431,1410
2025.6735684902228,1420
2027.6058860045214,1422
2029.5377363198004,1424
2031.4691197056118,1405
2033.4000364315875,1373
2035.3304867674374,1387
2037.260470982952,1334
2039.189989347998,1391
2041.1190421325232,1415
2043.047629606554,1437
2044.9757520401945,1366
2046.9034097036288,1390
2048.8306028671195,1353
2050.7573318010086,1404
2052.683596775716,1395
2054.609398061742,1363
2056.5347359296647,1392
2058.4596106501403,1369
2060.384022493906,1470
2062.3079717317764,1359
2064.231458634646,1413
2066.1544834734873,1372
2068.077046519352,1365
2069.99914804337,1361
2071.9207883167524,1378
2073.8419676107865,1384
2075.7626861968406,1422
2077.6829443463607,1411
2079.6027423308715,1417
2081.522080421977,1428
2083.440958891362,1398
2085.359378010786,1368
2087.2773380520907,1363
2089.194839287196,1413
2091.111881988101,1399
2093.0284664268825,1386
2094.9445928756973,1401
2096.86026160678,1431
2098.775472892446,1444
2100.690227005088,1393
2102.604524217178,1331
2104.5183648012676,1403
2106.431749029985,1412
2108.34467717604,1445
2110.2571495122206,1440
2112.169166311393,1383
2114.080727846503,1388
2115.9918343905747,1392
2117.902486216711,1477
2119.8126835980956,1503
2121.722426807987,1389
2123.6317161197285,1419
2125.5405518067364,1424
2127.448934142509,1430
2129.356863400624,1425
2131.264339854737,1477
2133.1713637785815,1460
2135.077935445972,1457
2136.9840551308002,1369
2138.889723107037,1416
2140.7949396487334,1449
2142.699705030018,1444
2144.6040195250994,1438
2146.507883408264,1467
2148.4112969538774,1407
2150.3142604363848,1480
2152.2167741303097,1378
2154.1188383102535,1443
2156.0204532508997,1425
2157.9216192270064,1433
2159.822336513414,1460
2161.7226053850413,1447
2163.622426116884,1447
2165.5217989840185,1510
2167.4207242616,1510
2169.319202224862,1482
2171.2172331491165,1507
2173.1148173097563,1469
2175.0119549822507,1481
2176.90864644215,1503
2178.8048919650823,1468
2180.7006918267534,1457
2182.596046302952,1560
2184.4909556695407,1516
2186.3854202024645,1540
2188.279440177746,1527
2190.173015871487,1520
2192.066147559868,1494
2193.958835519149,1499
2195.851080025667,1481
2197.7428813558417,1521
2199.6342397861667,1548
2201.5251555932186,1511
2203.415629053651,1562
2205.3056604441986,1462
2207.19525004167,1524
2209.084398122958,1513
2210.9731049650327,1564
2212.861370844941,1539
2214.749196039812,1540
2216.636580826851,1593
2218.523525483344,1540
2220.410030286655,1558
2222.296095514226,1555
2224.1817214435805,1553
2226.066908352319,1559
2227.951656518121,1487
2229.835966218746,1533
2231.71983773203,1520
2233.6032713358913,1496
2235.486267308324,1531
2237.3688259274036,1499
2239.2509474712824,1524
2241.132632218193,1490
2243.013880446447,1565
2244.8946924344323,1517
2246.7750684606203,1533
2248.6550088035574,1513
2250.534513741871,1534
2252.413583554265,1550
2254.292218519526,1526
2256.170418916517,1515
2258.0481850241786,1515
2259.925517121534,1469
2261.8024154876825,1602
2263.678880401803,1542
2265.5549121431536,1548
2267.430510991071,1524
2269.305677224971,1552
2271.180411124348,1479
2273.0547129687766,1533
2274.9285830379076,1477
2276.8020216114737,1508
2278.6750289692845,1530
2280.5476053912294,1490
2282.4197511572766,1519
2284.2914665474727,1520
2286.162751841943,1561
2288.0336073208937,1494
2289.904033264608,1578
2291.774029953448,1560
2293.6435976678554,1566
2295.5127366883517,1486
2297.381447295534,1452
2299.2497297700825,1477
2301.1175843927526,1425
2302.9850114443825,1407
2304.852011205885,1355
2306.7185839582553,1346
2308.5847299825664,1332
2310.4504495599676,1303
2312.3157429716925,1353
2314.1806104990483,1308
2316.0450524234247,1299
2317.9090690262888,1290
2319.772660589186,1336
2321.635827393742,1297
2323.498569721661,1340
2325.3608878547248,1367
2327.2227820747967,1288
2329.0842526638157,1311
2330.945299903803,1294
2332.805924076857,1333
2334.6661254651535,1268
2336.525904350951,1309
2338.3852610165827,1238
2340.244195744464,1285
2342.102708817088,1255
2343.9608005170253,1306
2345.8184711269287,1221
2347.675720929526,1262
2349.532550207628,1326
2351.38895924412,1341
2353.24494832197,1299
2355.100517724223,1274
2356.955667734004,1296
2358.810398634514,1275
2360.664710709037,1355
2362.5186042409337,1293
2364.3720795136437,1309
2366.225136810686,1352
2368.0777764156583,1359
2369.929998612237,1313
2371.7818036841777,1253
2373.633191915315,1280
2375.484163589562,1319
2377.3347189909114,1330
2379.184858403434,1306
2381.03458211128,1368
2382.8838903986775,1313
2384.732783549936,1304
2386.5812618494406,1313
2388.4293255816588,1322
2390.2769750311327,1298
2392.1242104824883,1316
2393.971032220427,1322
2395.8174405297295,1335
2397.6634356952563,1320
2399.509018001947,1340
2401.3541877348193,1343
2403.1989451789705,1291
2405.043290619576,1366
2406.8872243418905,1280
2408.730746631247,1274
2410.5738577730594,1330
2412.4165580528183,1327
2414.258847756095,1279
2416.100727168537,1313
2417.9421965758734,1303
2419.783256263912,1300
2421.623906518538,1278
2423.4641476257157,1355
2425.303979871491,1327
2427.143403541984,1297
2428.9824189233977,1279
2430.821026302012,1300
2432.6592259641866,1312
2434.497018196361,1343
2436.33440328505,1288
2438.171381516851,1300
2440.00795317844,1310
2441.844118556569,1311
2443.6798779380724,1363
2445.5152316098606,1306
2447.3501798589255,1340
2449.1847229723357,1341
2451.0188612372403,1318
2452.8525949408663,1245
2454.6859243705203,1346
2456.518849813587,1316
2458.3513715575314,1316
2460.183489889895,1318
2462.015205098301,1343
2463.8465174704493,1341
2465.67742729412,1335
2467.5079348571717,1265
2469.338040447542,1344
2471.1677443532476,1310
2472.9970468623833,1356
2474.825948263123,1316
2476.6544488437207,1313
2478.482548892508,1339
2480.310248697896,1314
2482.137548548374,1317
2483.9644487325118,1308
2485.790949538956,1315
2487.617051256433,1336
2489.44275417375,1392
2491.26805857979,1385
2493.0929647635157,1297
2494.917473013971,1347
2496.741583620276,1397
2498.5652968716304,1386
2500.3886130573137,1397
2502.2115324666834,1378
2504.0340553891765,1400
2505.856182114308,1417
2507.6779129316733,1355
2509.499248130945,1365
2511.3201880018764,1383
2513.140732834298,1376
2514.9608829181198,1409
2516.780638543331,1368
2518.6,1455
2520.418967578273,1437
2522.237541568376,1395
2524.0557222606144,1426
2525.8735099453706,1362
2527.6909049131086,1402
2529.507907454368,1470
2531.32451785977,1537
2533.140736420014,1415
2534.9565634258774,1420
2536.771999168218,1471
2538.5870439379714,1465
2540.4016980261526,1477
2542.2159617238544,1452
2544.02983532225,1445
2545.8433191125914,1446
2547.656413386209,1489
2549.4691184345115,1536
2551.2814345489874,1497
2553.093362021204,1595
2554.904901142808,1554
2556.716052205523,1521
2558.526815501153,1501
2560.3371913215824,1508
2562.147179958771,1597
2563.956781704761,1548
2565.7659968516705,1562
2567.5748256916986,1570
2569.3832685171224,1605
2571.1913256202984,1554
2572.9989972936614,1596
2574.806283829725,1619
2576.613185521084,1617
2578.4197026604074,1712
2580.2258355404483,1678
2582.031584454035,1659
2583.836949694077,1666
2585.6419315535613,1649
2587.4465303255533,1657
2589.2507463032002,1795
2591.0545797797245,1702
2592.8580310484303,1757
2594.6611004026995,1717
2596.463788135992,1670
2598.266094541849,1752
2600.0680199138874,1748
2601.869564545807,1738
2603.670728731383,1737
2605.4715127644704,1723
2607.2719169390048,1685
2609.071941548998,1669
2610.8715868885433,1697
2612.670853251811,1755
2614.469740933052,1781
2616.268250226594,1776
2618.0663814268455,1736
2619.864134828292,1695
2621.6615107255006,1729
2623.458509413115,1739
2625.2551311858597,1689
2627.0513763385347,1689
2628.8472451660223,1685
2630.6427379632833,1683
2632.4378550253564,1637
2634.232596647359,1654
2636.026963124488,1649
2637.8209547520187,1632
2639.6145718253065,1641
2641.407814639785,1552
2643.200683490966,1596
2644.9931786744414,1599
2646.7853004858807,1580
2648.577049221034,1563
2650.3684251757277,1575
2652.1594286458712,1530
2653.9500599274484,1538
2655.740319316525,1564
2657.5302071092437,1487
2659.3197236018286,1540
2661.10886909058,1519
2662.8976438718782,1524
2664.686048242183,1548
2666.4740824980327,1427
2668.2617469360443,1492
2670.0490418529134,1532
2671.8359675454153,1448
2673.622524310403,1500
2675.408712444811,1446
2677.1945322456495,1386
2678.979984010009,1449
2680.76506803506,1412
2682.5497846180497,1422
2684.334134056306,1420
2686.1181166472343,1409
2687.9017326883213,1395
2689.6849824771293,1373
2691.4678663113013,1460
2693.2503844885596,1376
2695.032537306705,1431
2696.8143250636167,1330
2698.5957480572542,1379
2700.3768065856534,1430
2702.1575009469316,1391
2703.937831439283,1370
2705.717798360982,1377
2707.4974020103837,1400
2709.276642685917,1381
2711.055520686095,1356
2712.834036309506,1302
2714.612189854819,1341
2716.389981620782,1361
2718.1674119062204,1405
2719.944481010041,1376
2721.721189231226,1399
2723.4975368688415,1329
2725.273524222027,1303
2727.0491515900053,1312
2728.824419272075,1303
2730.5993275676146,1324
2732.3738767760838,1331
2734.148067197016,1305
2735.921899130031,1329
2737.6953728748194,1288
2739.468488731156,1268
2741.2412469988926,1274
2743.0136479779617,1274
2744.785691968372,1305
2746.5573792702116,1283
2748.3287101836504,1263
2750.099685008934,1308
2751.870304046388,1359
2753.640567596418,1322
2755.4104759595057,1304
2757.1800294362156,1259
2758.949228327187,1318
2760.7180729331412,1306
2762.486563554877,1296
2764.254700493272,1339
2766.022484049284,1373
2767.789914523947,1312
2769.5569922183786,1302
2771.3237174337705,1270
2773.090090471394,1349
2774.8561116326036,1358
2776.6217812188274,1277
2778.3870995315756,1312
2780.1520668724356,1300
2781.9166835430747,1258
2783.6809498452394,1254
2785.444866080754,1301
2787.2084325515225,1294
2788.971649559527,1273
2790.73451740683,1256
2792.4970363955713,1292
2794.2592068279705,1292
2796.0210290063264,1294
2797.7825032330147,1339
2799.543629810493,1328
2801.304409041296,1317
2803.0648412280366,1244
2804.8249266734088,1337
2806.5846656801846,1299
2808.344058551212,1321
2810.1031055894246,1279
2811.8618070978273,1275
2813.6201633795085,1260
2815.378174737636,1268
2817.1358414754536,1286
2818.893163896285,1291
2820.6501423035334,1315
2822.4067770006814,1321
2824.1630682912883,1287
2825.9190164789957,1270
2827.6746218675207,1348
2829.429884760661,1282
2831.184805462294,1312
2832.9393842763743,1295
2834.693621506936,1296
2836.4475174580916,1309
2838.201072434034,1263
2839.954286739034,1310
2841.707160677441,1250
2843.459694553685,1312
2845.2118886722724,1306
2846.96374333779,1260
2848.7152588549034,1256
2850.4664355283567,1298
2852.217273662973,1304
2853.9677735636546,1321
2855.7179355353833,1315
2857.4677598832186,1306
2859.217246912299,1273
2860.9663969278427,1318
2862.715210235146,1267
2864.4636871395846,1272
2866.211827946614,1285
2867.9596329617652,1263
2869.7071024906536,1277
2871.4542368389684,1269
2873.20103631248,1296
2874.947501217038,1236
2876.6936318585695,1293
2878.4394285430812,1293
2880.1848915766604,1298
2881.9300212654707,1272
2883.6748179157553,1268
2885.4192818338374,1266
2887.1634133261173,1283
2888.907212699077,1219
2890.6506802592744,1243
2892.393816313348,1274
2894.1366211680142,1268
2895.8790951300693,1307
2897.621238506388,1276
2899.363051603925,1320
2901.1045347297118,1256
2902.8456881908596,1300
2904.58651229456,1293
2906.327007348081,1257
2908.067173658772,1321
2909.8070115340597,1294
2911.5465212814497,1280
2913.285703208527,1305
2915.0245576229563,1327
2916.7630848324807,1273
2918.5012851449196,1237
2920.2391588681758,1267
2921.976706310227,1278
2923.7139277791334,1279
2925.4508235830313,1277
2927.187394030137,1256
2928.923639428745,1303
2930.6595600872306,1271
2932.395156314046,1322
2934.1304284177218,1220
2935.8653767068713,1258
2937.6000014901815,1321
2939.3343030764227,1239
2941.068281774442,1275
2942.8019378931644,1309
2944.5352717415976,1314
2946.2682836288236,1293
2948.0009738640065,1322
2949.7333427563885,1292
2951.465390615289,1313
2953.1971177501086,1248
2954.9285244703265,1303
2956.6596110855,1283
2958.3903779052657,1299
2960.1208252393385,1284
2961.8509533975125,1278
2963.5807626896617,1277
2965.3102534257378,1300
2967.0394259157715,1263
2968.768280469873,1251
2970.496817398232,1267
2972.2250370111146,1313
2973.952939618869,1289
2975.6805255319196,1313
2977.4077950607707,1325
2979.134748516006,1268
2980.861386208289,1348
2982.587708448359,1314
2984.313715547037,1285
2986.039407815222,1300
2987.764785563891,1265
2989.489849104102,1310
2991.2145987469908,1260
2992.9390348037705,1225
2994.6631575857346,1233
2996.3869674042576,1273
2998.1104645707887,1308
2999.83364939686,1258
3001.5565221940783,1271
3003.2790832741334,1302
3005.0013329487924,1246
3006.7232715298996,1292
3008.4448993293804,1296
3010.166216659239,1277
3011.887223831558,1255
3013.607921158498,1280
3015.3283089522993,1290
3017.0483875252826,1300
3018.7681571898443,1228
3020.4876182584626,1273
3022.2067710436927,1235
3023.9256158581707,1280
3025.644153014609,1273
3027.362382825801,1303
3029.0803056046193,1247
3030.797921664012,1265
3032.5152313170106,1313
3034.2322348767225,1243
3035.9489326563353,1221
3037.665324969115,1255
3039.3814121284063,1270
3041.097194447633,1223
3042.812672240299,1266
3044.5278458199855,1300
3046.2427155003525,1240
3047.9572815951406,1305
3049.671544418167,1218
3051.38550428333,1315
3053.0991615046073,1241
3054.812516396051,1282
3056.5255692717974,1256
3058.2383204460575,1294
3059.9507702331257,1299
3061.662918947372,1310
3063.3747669032446,1250
3065.0863144152736,1295
3066.7975617980674,1277
3068.508509366309,1318
3070.219157434767,1341
3071.9295063182844,1296
3073.639556331785,1290
3075.3493077902704,1278
3077.058761008821,1297
3078.7679163025964,1213
3080.476773986837,1269
3082.1853343768594,1254
3083.89359778806,1247
3085.6015645359153,1294
3087.3092349359786,1317
3089.016609303884,1325
3090.7236879553434,1295
3092.4304712061476,1256
3094.136959372166,1260
3095.843152769349,1311
3097.5490517137237,1317
3099.2546565213966,1260
3100.959967508554,1331
3102.66498499146,1285
3104.3697092864577,1288
3106.0741407099695,1277
3107.778279578498,1330
3109.482126208622,1263
3111.1856809170004,1298
3112.8889440203716,1316
3114.5919158355528,1304
3116.294596679439,1281
3117.996986869006,1283
3119.6990867213062,1323
3121.4008965534726,1297
3123.102416682717,1281
3124.803647426329,1309
3126.5045891016784,1318
3128.205242026213,1310
3129.90560651746,1309
3131.605682893025,1334
3133.3054714705922,1294
3135.0049725679282,1299
3136.7041865028714,1297
3138.4031135933465,1339
3140.101754157353,1307
3141.800108512971,1308
3143.498176978357,1267
3145.1959598717494,1294
3146.8934575114636,1249
3148.5906702158954,1355
3150.2875983035183,1275
3151.9842420928853,1269
3153.680601902627,1347
3155.376678051456,1280
3157.07247085816,1274
3158.767980641609,1284
3160.463207720748,1309
3162.158152414606,1342
3163.8528150422862,1285
3165.5471959229726,1265
3167.2412953759303,1305
3168.9351137204976,1327
3170.628651276098,1266
3172.3219083622307,1266
3174.014885298474,1281
3175.707582404485,1237
3177.4000000000005,1300
3179.092138404835,1252
3180.7839979388846,1211
3182.47557892212,1226
3184.166881674594,1304
3185.8579065164386,1249
3187.5486537678626,1264
3189.2391237491547,1264
3190.9293167806827,1288
3192.6192331828934,1286
3194.3088732763117,1340
3195.998237381542,1294
3197.687325819268,1265
3199.376138910251,1279
3201.064676975334,1246
3202.7529403354347,1321
3204.4409293115523,1296
3206.1286442247647,1263
3207.816085396229,1203
3209.5032531471825,1244
3211.190147798936,1210
3212.8767696728846,1273
3214.5631190905015,1216
3216.2491963733373,1249
3217.9350018430214,1216
3219.6205358212637,1285
3221.305798629851,1201
3222.990790590651,1211
3224.6755120256103,1225
3226.359963256751,1223
3228.0441446061795,1292
3229.7280563960758,1222
3231.411698948703,1222
3233.0950725863995,1204
3234.778177631587,1275
3236.461014406761,1274
3238.1435832345005,1280
3239.8258844374595,1248
3241.507918338374,1308
3243.1896852600576,1253
3244.8711855254023,1242
3246.552419457381,1194
3248.233387379042,1284
3249.914089613516,1254
3251.59452648401,1308
3253.274698313813,1273
3254.95460542629,1284
3256.6342481448855,1278
3258.313626793125,1253
3259.9927416946084,1237
3261.6715931730196,1238
3263.3501815521176,1203
3265.0285071557437,1234
3266.706570307815,1220
3268.3843713323286,1216
3270.0619105533615,1234
3271.739188295068,1237
3273.4162048816834,1242
3275.0929606375184,1257
3276.769455886966,1219
3278.445690954498,1320
3280.1216661646613,1281
3281.797381842087,1244
3283.4728383114807,1249
3285.1480358976296,1267
3286.8229749253996,1240
3288.4976557197333,1218
3290.172078605655,1218
3291.846243908266,1224
3293.5201519527463,1233
3295.193803064357,1252
3296.8671975684374,1264
3298.5403357904024,1255
3300.21321805575,1290
3301.8858446900567,1205
3303.558216018975,1246
3305.23033236824,1250
3306.9021940636603,1304
3308.57380143113,1294
3310.2451547966184,1225
3311.916254486174,1226
3313.5871008259246,1291
3315.2576941420766,1334
3316.9280347609147,1268
3318.5981230088046,1248
3320.2679592121895,1192
3321.9375436975924,1230
3323.606876791612,1271
3325.27595882093,1283
3326.944790112305,1186
3328.6133709925753,1226
3330.2817017886573,1163
3331.949782827547,1226
3333.617614436319,1288
3335.2851969421245,1284
3336.952530672199,1267
3338.619615953853,1227
3340.286453114475,1221
3341.9530424815357,1278
3343.619384382583,1232
3345.2854791452437,1273
3346.951327097224,1339
3348.6169285663073,1227
3350.2822838803577,1257
3351.947393367319,1254
3353.61225735521,1180
3355.2768761721345,1264
3356.9412501462693,1208
3358.605379605873,1249
3360.2692648792827,1226
3361.9329062949146,1255
3363.596304181263,1202
