CollectionTime,7/10/2024 4:39:25 PM
ExposureUsed,3
CalibratedSpectrum
-962.7078968117929,549
-959.9714848408522,555
-957.2358232597828,609
-954.5009119013725,593
-951.7667505983302,578
-949.0333391832855,605
-946.3006774887896,606
-943.5687653473143,593
-940.837602591253,588
-938.1071890529199,603
-935.3775245645503,576
-932.6486089583007,586
-929.9204420662485,607
-927.1930237203925,613
-924.4663537526524,568
-921.7404319948689,610
-919.0152582788041,594
-916.2908324361409,641
-913.5671542984834,644
-910.8442236973568,587
-908.1220404642074,580
-905.4006044304027,624
-902.679915427231,620
-899.959973285902,593
-897.2407778375464,591
-894.5223289132158,569
-891.8046263438832,577
-889.0876699604426,569
-886.3714595937089,584
-883.6559950744183,586
-880.9412762332282,594
-878.2273029007168,575
-875.5140749073835,545
-872.8015920836489,569
-870.0898542598545,556
-867.3788612662631,540
-864.6686129330585,594
-861.9591090903457,591
-859.2503495681506,592
-856.5423341964203,570
-853.8350628050229,558
-851.1285352237478,543
-848.4227512823054,578
-845.7177108103272,559
-843.0134136373656,603
-840.3098595928943,604
-837.6070485063082,598
-834.9049802069229,624
-832.2036545239757,582
-829.5030712866244,579
-826.8032303239481,578
-824.1041314649472,594
-821.4057745385428,590
-818.7081593735775,568
-816.0112857988148,617
-813.3151536429393,578
-810.6197627345566,623
-807.9251129021936,599
-805.2312039742981,575
-802.5380357792392,601
-799.8456081453069,611
-797.1539209007124,603
-794.462973873588,587
-791.772766891987,612
-789.083299783884,597
-786.3945723771743,593
-783.7065844996748,582
-781.0193359791231,612
-778.3328266431781,610
-775.6470563194197,613
-772.9620248353489,565
-770.2777320183878,579
-767.5941776958798,581
-764.9113616950891,594
-762.2292838432011,575
-759.5479439673222,585
-756.8673418944801,591
-754.1874774516235,634
-751.5083504656222,615
-748.8299607632671,633
-746.15230817127,612
-743.475392516264,610
-740.7992136248035,596
-738.1237713233636,597
-735.4490654383407,615
-732.7750957960521,619
-730.1018622227365,622
-727.4293645445534,644
-724.7576025875837,637
-722.0865761778291,616
-719.4162851412126,624
-716.7467293035781,619
-714.0779084906909,663
-711.409822528237,666
-708.7424712418238,655
-706.0758544569796,627
-703.4099719991541,676
-700.7448236937178,664
-698.0804093659622,662
-695.4167288411002,675
-692.7537819442656,623
-690.0915685005134,637
-687.4300883348199,607
-684.7693412720819,687
-682.1093271371178,675
-679.4500457546669,697
-676.7914969493897,670
-674.1336805458676,670
-671.4765963686034,666
-668.8202442420206,637
-666.1646239904642,620
-663.5097354382001,641
-660.8555784094151,657
-658.2021527282176,676
-655.5494582186366,654
-652.8974947046223,669
-650.2462620100463,665
-647.5957599587009,667
-644.9459883742998,703
-642.2969470804776,686
-639.6486359007902,698
-637.0010546587141,669
-634.3542031776476,690
-631.7080812809096,669
-629.0626887917401,698
-626.4180255333008,672
-623.7740913286734,742
-621.1308860008619,710
-618.4884093727904,707
-615.8466612673046,708
-613.2056415071715,695
-610.5653499150785,645
-607.9257863136347,715
-605.28695052537,752
-602.6488423727357,711
-600.0114616781036,691
-597.3748082637674,705
-594.7388819519412,695
-592.1036825647604,719
-589.4692099242818,767
-586.8354638524829,753
-584.2024441712624,717
-581.5701507024403,731
-578.9385832677575,696
-576.3077416888759,723
-573.6776257873787,739
-571.0482353847704,709
-568.4195703024757,736
-565.7916303618415,729
-563.164415384135,729
-560.5379251905453,722
-557.9121596021815,687
-555.2871184400748,733
-552.6628015251767,726
-550.0392086783606,726
-547.4163397204204,753
-544.794194472071,778
-542.1727727539491,776
-539.5520743866118,779
-536.9320991905377,791
-534.3128469861261,772
-531.6943175936979,840
-529.0765108334947,824
-526.4594265256793,891
-523.8430644903358,1004
-521.2274245474689,1049
-518.612506517005,1132
-515.9983102187913,1141
-513.3848354725959,1123
-510.77208209810846,1191
-508.16004991493924,1202
-505.5487387426199,1305
-502.9381484006032,1514
-500.3282787082628,1595
-497.71912948489364,1555
-495.1107005497117,1499
-492.5029917218539,1411
-489.8960028203786,1303
-487.28973366426493,1184
-484.68418407241325,1060
-482.07935386364494,998
-479.47524285670266,947
-476.87185087025,992
-474.2691777228715,944
-471.66722323307334,900
-469.0659872192821,950
-466.4654694998459,969
-463.86566989303384,962
-461.26658821703614,936
-458.66822428996414,904
-456.07057792985,939
-453.4736489546475,927
-450.877437182231,937
-448.28194243039627,892
-445.68716451686,884
-443.09310325926003,926
-440.49975847515555,896
-437.9071299820263,913
-435.31521759727354,878
-432.72402113821954,917
-430.13354042210767,980
-427.5437752661022,937
-424.95472548728867,925
-422.36639090267386,920
-419.7787713291855,933
-417.1918665836721,1047
-414.60567648290385,1008
-412.0202008435715,992
-409.4354394822874,1014
-406.8513922155845,991
-404.26805885991723,997
-401.685439231661,966
-399.103533147112,987
-396.522340422488,985
-393.9418608739278,997
-391.3620943174908,979
-388.7830405691583,950
-386.2046994448317,897
-383.6270707603344,869
-381.05015433141045,793
-378.473949973725,785
-375.8984575028645,802
-373.32367673433623,688
-370.74960748356875,673
-368.1762495659117,648
-365.60360279663576,617
-363.03166699093265,562
-360.4604419639154,532
-357.8899275306178,533
-355.32012350599507,486
-352.7510297049233,524
-350.1826459421999,494
-347.61497203254316,495
-345.04800779059235,504
-342.4817530309082,499
-339.91620756797226,493
-337.35137121618743,499
-334.7872437898774,499
-332.22382510328725,508
-329.66111497058273,507
-327.09911320585127,520
-324.53781962310075,519
-321.9772340362607,534
-319.4173562591816,479
-316.8581861056348,460
-314.2997233893127,451
-311.7419679238294,457
-309.1849195227194,478
-306.62857799943856,503
-304.0729431673641,514
-301.51801483979375,520
-298.963792829947,508
-296.41027695096386,552
-293.85746701590574,575
-291.3053628377552,566
-288.7539642294155,561
-286.2032710037115,544
-283.65328297338897,526
-281.1039999511146,583
-278.5554217494762,593
-276.007548180983,594
-273.4603790580651,576
-270.9139141930734,578
-268.3681533982807,554
-265.8230964858798,548
-263.27874326798565,535
-260.7350935566336,542
-258.1921471637804,550
-255.6499039013039,558
-253.10836358100266,599
-250.56752601459698,605
-248.02739101372765,592
-245.48795838995704,614
-242.94922795476816,613
-240.41119951956557,549
-237.8738728956746,614
-235.33724789434166,642
-232.80132432673452,625
-230.2661020039418,601
-227.73158073697357,660
-225.19776033676033,666
-222.66464061415422,690
-220.1322213799284,660
-217.60050244477725,598
-215.06948361931552,677
-212.53916471408013,705
-210.00954553952818,770
-207.48062590603843,699
-204.9524056239104,682
-202.4248845033651,686
-199.8980623545441,664
-197.37193898751036,707
-194.84651421224817,701
-192.32178783866232,750
-189.79775967657952,756
-187.27442953574644,835
-184.7517972258321,868
-182.2298625564256,842
-179.7086253370378,768
-177.18808537710026,802
-174.66824248596583,785
-172.14909647290835,779
-169.6306471471229,805
-167.11289431772548,820
-164.59583779375328,936
-162.07947738416453,905
-159.5638128978386,930
-157.04884414357605,947
-154.53457093009854,902
-152.02099306604828,900
-149.50811035998936,826
-146.99592262040665,736
-144.48442965570587,800
-141.97363127421409,863
-139.46352728417958,851
-136.95411749377126,835
-134.44540171107985,841
-131.93737974411636,802
-129.43005140081357,872
-126.92341648902493,1154
-124.41747481652521,1584
-121.91222619101006,1894
-119.40767042009657,2086
-116.90380731132257,2110
-114.40063667214702,2167
-111.8981583099503,2196
-109.3963720320337,1869
-106.89527764561933,1546
-104.39487495785067,1694
-101.89516377579241,2128
-99.39614390642998,3522
-96.89781515667039,3927
-94.40017733334128,3731
-91.90323024319173,3019
-89.40697369289148,2658
-86.91140748903172,3271
-84.41653143812482,4323
-81.92234534660395,5139
-79.42884902082358,5389
-76.93604226705907,6600
-74.4439248915071,10576
-71.95249670028534,16933
-69.46175749943245,20652
-66.97170709490854,21603
-64.48234529259423,20369
-61.99367189829195,15921
-59.50568671772464,9940
-57.01838955653636,6114
-54.53178022029283,7143
-52.045858514480074,9514
-49.560624244506016,11070
-47.07607721569923,13012
-44.59221723330904,13537
-42.10904410250669,12474
-39.62655762838392,10505
-37.14475761595372,10488
-34.66364387015028,12865
-32.18321619582866,15484
-29.70347439776515,18397
-27.224418280657005,20579
-24.74604764912317,20815
-22.26836230770266,20921
-19.7913620608565,28829
-17.315046712966478,45586
-14.83941606833514,59246
-12.36446993118659,65037
-9.89020810566592,65037
-7.416630395839093,65037
-4.94373660569363,65037
-2.471526539137585,65037
-6.821210263296962E-13,65037
2.47084320796705,65037
4.941003281093458,65037
7.410480415786196,65037
9.879274808531363,65037
12.347386655893956,65037
14.814816154518212,65037
17.28156350112681,65037
19.74762889252179,65037
22.21301252558385,65037
24.67771459727237,20718
27.141735304626195,4229
29.605074844762612,2801
32.06773341487792,2131
34.52971121224755,2296
36.99100843422559,2591
39.45162527824516,2496
41.91156194181792,1870
44.370818622535126,1480
46.82939551806646,1417
49.287292826160524,1452
51.74451074464503,1758
54.201049471426245,1694
56.65690920448981,1577
59.112090141899785,1587
61.56659248179983,1403
64.02041642241159,1205
66.4735621620365,1137
68.92602989905402,1044
71.37781983192338,1130
73.82893215918205,1151
76.27936707944684,1177
78.72912479141326,1146
81.17820549385567,1146
83.62660938562783,1264
86.07433666566146,1222
88.5213875329681,1002
90.96776218663751,960
93.41346082583925,871
95.85848364982041,933
98.30283085790859,1205
100.7465026495089,1213
103.18949922410604,1130
105.63182078126385,1074
108.07346752062438,1076
110.51443964190923,1084
112.95473734491827,929
115.39436082953114,987
117.83331029570547,975
120.27158594347827,918
122.7091879729652,1027
125.1461165843615,1060
127.58237197794062,949
130.01795435405518,912
132.4528639131364,917
134.88710085569494,998
137.32066538231982,851
139.75355769367923,797
142.1857779905207,741
144.61732647366978,798
147.04820334403132,858
149.47840880258934,948
151.90794305040674,1028
154.33680628862487,1029
156.76499871846443,1199
159.19252054122433,1373
161.61937195828352,1519
164.04555317109896,1600
166.47106438120693,1734
168.89590579022217,1988
171.320077599839,2138
173.7435800118302,2265
176.16641322804742,2444
178.58857745042144,2576
181.01007288096173,2730
183.43089972175687,2750
185.85105817497413,2506
188.27054844285988,2572
190.6893707277394,2692
193.10752523201643,2641
195.5250121581745,2697
197.9418317087751,2834
200.3579840864594,2881
202.7734694939469,2777
205.18828813403627,2894
207.6024402096051,3081
210.01592592360964,3046
212.42874547908548,2921
214.84089907914665,3094
217.2523869269868,2939
219.66320922587727,2831
222.0733661791695,2860
224.48285799029293,2846
226.8916848627572,2742
229.29984700014882,2772
231.7073446061355,2860
234.11417788446204,2861
236.520347038953,2867
238.92585227351185,2857
241.33069379212054,2941
243.73487179884035,2964
246.1383864978112,3047
248.541238093252,3024
250.9434267894609,2999
253.34495279081432,3046
255.74581630176783,3041
258.1460175268563,2990
260.54555667069314,2969
262.9444339379703,2860
265.3426495334594,2948
267.7402036620107,2972
270.1370965285529,2906
272.53332833809407,2781
274.9288992957214,2766
277.32380960660055,2586
279.718059475976,2643
282.1116491091717,2727
284.5045787115897,2657
286.89684848871195,2527
289.2884586460981,2627
291.67940938938807,2663
294.0697009242996,2592
296.4593334566299,2611
298.84830719225477,2541
301.23662233712923,2570
303.6242790972866,2513
306.01127767884,2481
308.39761828798066,2402
310.78330113097934,2397
313.16832641418534,2491
315.5526943440269,2453
317.9364051270112,2395
320.3194589697242,2408
322.70185607883093,2355
325.0835966610754,2356
327.4646809232805,2342
329.8451090723478,2259
332.2248813152577,2302
334.6039978590701,2307
336.9824589109231,2228
339.36026467803447,2252
341.7374153677,2244
344.113911187295,2173
346.48975234427337,2188
348.8649390461686,2198
351.2394715005918,2217
353.61334991523415,2179
355.9865744978655,2129
358.35914545633375,2200
360.73106299856715,2180
363.10232733257146,2141
365.47293866643247,2128
367.84289720831396,2191
370.2122031664593,2129
372.5808567491905,2122
374.9488581649083,2075
377.31620762209275,2072
379.6829053293021,2120
382.0489514951745,2019
384.4143463284262,2011
386.7790900378528,2046
389.14318283232853,2074
391.50662492080653,2029
393.86941651231916,2062
396.23155781597745,2012
398.5930490409713,2063
400.9538903965696,2069
403.3140820921202,2030
405.6736243370498,2065
408.03251734086336,2051
410.3907613131465,2052
412.74835646356166,1949
415.10530300185144,2036
417.4616011378372,2047
419.81725108141893,1984
422.1722530425758,2003
424.5266072313656,1978
426.880313857925,1991
429.2333731324701,1951
431.58578526529516,1978
433.9375504667738,2001
436.2886689473588,2001
438.63914091758113,1960
440.9889665880513,1941
443.33814616945835,1983
445.68667987257015,1925
448.03456790823395,1925
450.3818104873759,2062
452.72840782100013,1921
455.07436012019105,1945
457.41966759611057,1904
459.7643304600007,1940
462.10834892318155,1892
464.4517231970525,1891
466.79445349309174,1935
469.1365400228566,1937
471.4779829979826,1961
473.81878263018564,2005
476.15893913125876,1962
478.4984527130747,1973
480.8373235875855,2060
483.17555196682144,2056
485.5131380628919,2109
487.8500820879857,2202
490.1863842543697,2250
492.52204477439034,2464
494.8570638604725,2672
497.1914417251204,2917
499.52517858091653,3225
501.85827464052306,3342
504.19073011668036,3426
506.5225452222086,3397
508.85372017000566,3231
511.18425517304956,3218
513.514150444396,3261
515.8434061971808,3835
518.1720226446176,4738
520.4999999999999,4873
522.8273384766991,4672
525.1540382881666,4277
527.480099647932,4011
529.8055227696037,3269
532.1303078668694,2727
534.454455153496,2310
536.777964843328,2191
539.1008371502907,2160
541.4230722883866,2150
543.744670471698,2099
546.0656319143858,2095
548.3859568306899,2103
550.7056454349294,2099
553.0246979415016,2084
555.3431145648834,2030
557.6608955196306,2052
559.978041020377,1982
562.2945512818363,2026
564.6104265188006,2013
566.9256669461412,2103
569.2402727788082,2073
571.5542442318302,2072
573.8675815203156,2076
576.1802848594508,2080
578.4923544645015,2150
580.8037905508126,2109
583.114593333807,2116
585.4247630289875,2099
587.7342998519354,2067
590.0432040183106,2025
592.3514757438526,2076
594.6591152443794,2072
596.9661227357875,2046
599.2724984340531,2065
601.578242555231,2072
603.8833553154542,2064
606.1878369309362,2050
608.4916876179676,2018
610.7949075929192,2010
613.0974970722403,1968
615.3994562724587,2043
617.7007854101818,2022
620.0014847020951,2015
622.3015543649641,2032
624.6009946156324,2055
626.8998056710224,2070
629.1979877481361,2058
631.4955410640538,2029
633.7924658359349,1967
636.0887622810175,2058
638.3844306166192,2025
640.6794710601358,2004
642.9738838290426,2118
645.2676691408932,2065
647.5608272133207,2092
649.853358264037,2042
652.1452625108324,1981
654.4365401715764,2085
656.7271914642178,2107
659.0172166067838,2003
661.3066158173809,2089
663.5953893141935,2078
665.8835373154867,2040
668.1710600396028,2043
670.4579577049639,2128
672.7442305300709,2054
675.0298787335033,2096
677.3149025339197,2034
679.599302150058,2018
681.8830778007342,2043
684.1662297048437,1980
686.4487580813608,2041
688.7306631493387,2140
691.0119451279091,2123
693.2926042362834,2115
695.5726406937516,2007
697.8520547196814,2036
700.1308465335215,2004
702.4090163547982,1972
704.6865644031171,2051
706.9634908981619,2002
709.2397960596965,2067
711.5154801075631,2038
713.7905432616823,2057
716.0649857420548,1972
718.3388077687592,2030
720.612009561953,2040
722.8845913418733,2018
725.1565533288352,2059
727.427895743234,2050
729.6986188055427,1976
731.9687227363137,1995
734.238207756178,2028
736.5070740858458,1979
738.7753219461066,1997
741.0429515578281,1950
743.3099631419569,2037
745.5763569195191,1966
747.8421331116193,2050
750.1072919394409,2067
752.3718336242467,2109
754.6357583873777,2150
756.8990664502545,2018
759.1617580343765,2024
761.423833361321,1978
763.6852926527457,1977
765.9461361303862,2047
768.206364016058,2104
770.4659765316536,2032
772.7249738991469,2046
774.9833563405886,2079
777.2411240781092,2014
779.4982773339183,2037
781.7548163303044,2066
784.010741289634,2086
786.2660524343538,2115
788.5207499869881,2077
790.7748341701416,2073
793.0283052064964,2059
795.2811633188143,2041
797.5334087299362,1988
799.7850416627813,2068
802.0360623403484,2043
804.2864709857143,2104
806.5362678220353,2047
808.7854530725468,2078
811.0340269605625,2130
813.2819897094754,2064
815.5293415427581,2067
817.77608268396,2082
820.0222133567116,2112
822.2677337847211,2049
824.5126441917765,2061
826.7569448017433,2035
829.0006358385675,2036
831.2437175262731,2044
833.4861900889629,2068
835.7280537508192,1972
837.9693087361026,2120
840.2099552691533,2058
842.4499935743896,2087
844.689423876309,2063
846.9282463994886,2046
849.1664613685833,2097
851.4040690083276,2089
853.6410695435349,2086
855.877463199097,2062
858.1132501999847,2018
860.3484307712487,2009
862.5830051380175,2047
864.8169735254988,2106
867.0503361589791,2156
869.2830932638243,2148
871.5152450654786,2109
873.7467917894654,2060
875.9777336613873,2099
878.2080709069252,2082
880.4378037518389,2254
882.666932421968,2191
884.8954571432301,2084
887.1233781416219,2221
889.3506956432192,2162
891.5774098741766,2171
893.803521060728,2130
896.0290294291852,2155
898.2539352059397,2165
900.4782386174619,2165
902.7019398903011,2077
904.925039251085,2181
907.147536926521,2164
909.3694331433943,2079
911.59072812857,2134
913.8114221089921,2113
916.0315153116827,2090
918.2510079637437,2087
920.4699002923547,2129
922.6881925247761,2133
924.905884888345,2162
927.1229776104793,2127
929.3394709186747,2099
931.555365040506,2043
933.7706602036275,2087
935.9853566357709,2034
938.1994545647489,2069
940.4129542184515,2014
942.6258558248488,2113
944.8381596119883,2020
947.0498658079974,2036
949.2609746410825,1990
951.4714863395287,1981
953.6814011316998,1946
955.8907192460387,2029
958.0994409110671,2021
960.3075663553858,2007
962.5150958076741,2050
964.7220294966913,2003
966.928367651274,1944
969.1341105003388,2027
971.3392582728806,1999
973.5438111979742,1961
975.747769504772,1987
977.9511334225061,1954
980.153903180487,1929
982.3560790081052,1960
984.5576611348289,1897
986.7586497902058,1928
988.9590452038618,1917
991.158847605503,1952
993.3580572249133,1851
995.5566742919558,1845
997.7546990365728,1871
999.952131688785,1848
1002.1489724786926,1827
1004.3452216364743,1768
1006.5408793923874,1819
1008.7359459767691,1798
1010.9304216200343,1758
1013.1243065526781,1720
1015.3176010052733,1732
1017.510305208472,1742
1019.7024193930064,1712
1021.8939437896848,1673
1024.0848786293977,1645
1026.2752241431122,1704
1028.4649805618747,1690
1030.6541481168115,1650
1032.842727039127,1688
1035.0307175601051,1660
1037.2181199111074,1672
1039.4049343235752,1670
1041.591161029029,1667
1043.7768002590683,1661
1045.9618522453698,1662
1048.1463172196918,1691
1050.3301954138697,1672
1052.513487059818,1653
1054.69619238953,1657
1056.8783116350783,1666
1059.0598450286152,1605
1061.2407928023704,1684
1063.4211551886528,1714
1065.6009324198508,1716
1067.780124728432,1629
1069.9587323469414,1653
1072.1367555080046,1649
1074.314194444325,1705
1076.4910493886855,1667
1078.667320573947,1682
1080.843008233051,1638
1083.0181125990161,1565
1085.1926339049414,1600
1087.3665723840027,1603
1089.5399282694575,1615
1091.7127017946405,1641
1093.8848931929647,1619
1096.0565026979243,1619
1098.2275305430899,1608
1100.3979769621128,1567
1102.567842188722,1577
1104.737126456726,1536
1106.9058300000124,1570
1109.0739530525475,1584
1111.2414958483764,1565
1113.4084586216231,1577
1115.5748416064907,1554
1117.7406450372605,1577
1119.9058691482942,1569
1122.0705141740304,1567
1124.2345803489884,1561
1126.3980679077658,1551
1128.5609770850388,1532
1130.7233081155623,1531
1132.8850612341707,1518
1135.0462366757774,1548
1137.2068346753745,1538
1139.3668554680326,1539
1141.526299288901,1476
1143.68516637321,1510
1145.8434569562655,1531
1148.001171273455,1528
1150.158309560244,1456
1152.3148720521767,1469
1154.470858984876,1534
1156.626270594044,1464
1158.7811071154629,1487
1160.9353687849912,1478
1163.089055838569,1548
1165.242168512213,1520
1167.3947070420209,1545
1169.5466716641677,1469
1171.6980626149075,1475
1173.8488801305748,1515
1175.9991244475814,1450
1178.1487958024186,1505
1180.2978944316555,1508
1182.4464205719428,1498
1184.5943744600072,1486
1186.7417563326567,1471
1188.8885664267755,1465
1191.0348049793297,1439
1193.1804722273619,1475
1195.325568407995,1481
1197.4700937584303,1487
1199.614048515948,1484
1201.7574329179074,1505
1203.900247201746,1471
1206.042491604982,1476
1208.1841663652099,1489
1210.3252717201053,1545
1212.465807907422,1520
1214.6057751649923,1481
1216.7451737307279,1479
1218.8840038426192,1544
1221.0222657387353,1531
1223.1599596572241,1488
1225.2970858363137,1477
1227.4336445143094,1495
1229.5696359295966,1526
1231.705060320639,1566
1233.8399179259786,1562
1235.9742089842384,1520
1238.107933734118,1558
1240.2410924143974,1507
1242.373685263935,1552
1244.5057125216676,1579
1246.6371744266116,1614
1248.7680712178621,1608
1250.898403134593,1519
1253.028170416058,1622
1255.1573733015875,1496
1257.2860120305932,1535
1259.4140868425648,1522
1261.54159797707,1496
1263.6685456737569,1610
1265.7949301723515,1567
1267.9207517126597,1551
1270.046010534565,1607
1272.1707068780306,1625
1274.2948409830983,1631
1276.4184130898889,1512
1278.541423438603,1558
1280.6638722695184,1555
1282.785759822993,1544
1284.9070863394636,1579
1287.0278520594447,1618
1289.1480572235314,1629
1291.2677020723963,1630
1293.3867868467923,1651
1295.5053117875495,1636
1297.623277135579,1644
1299.740683131868,1604
1301.8575300174857,1633
1303.973818033578,1670
1306.0895474213703,1698
1308.2047184221678,1599
1310.3193312773528,1680
1312.4333862283888,1676
1314.5468835168163,1688
1316.659823384255,1636
1318.7722060724045,1641
1320.8840318230418,1650
1322.9953008780249,1678
1325.1060134792888,1719
1327.2161698688478,1683
1329.3257702887959,1661
1331.4348149813054,1633
1333.5433041886276,1686
1335.6512381530933,1680
1337.7586171171101,1638
1339.8654413231675,1619
1341.9717110138317,1650
1344.0774264317488,1605
1346.1825878196432,1626
1348.2871954203192,1730
1350.3912494766587,1641
1352.4947502316231,1577
1354.5976979282532,1677
1356.7000928096686,1652
1358.8019351190665,1631
1360.9032250997243,1675
1363.0039629949988,1669
1365.1041490483235,1651
1367.2037835032133,1629
1369.3028666032606,1652
1371.401398592137,1682
1373.4993797135926,1691
1375.5968102114575,1618
1377.6936903296396,1703
1379.7900203121262,1644
1381.8858004029835,1606
1383.9810308463561,1657
1386.075711886469,1655
1388.1698437676241,1717
1390.2634267342032,1714
1392.356461030667,1692
1394.4489469015557,1684
1396.5408845914872,1684
1398.6322743451592,1775
1400.7231164073469,1760
1402.813411022907,1747
1404.903158436773,1725
1406.9923588939578,1728
1409.0810126395531,1726
1411.1691199187303,1760
1413.2566809767386,1796
1415.343696058907,1812
1417.4301654106425,1774
1419.5160892774315,1733
1421.6014679048399,1780
1423.6863015385125,1796
1425.7705904241707,1782
1427.8543348076178,1836
1429.9375349347342,1821
1432.0201910514802,1829
1434.102303403894,1940
1436.1838722380944,1885
1438.2648978002767,1808
1440.3453803367174,1916
1442.4253200937692,1884
1444.5047173178677,1942
1446.5835722555234,1945
1448.6618851533285,2060
1450.739656257952,2053
1452.8168858161434,1961
1454.8935740747306,2049
1456.96972128062,2126
1459.045327680797,2113
1461.120393522327,2159
1463.1949190523528,2160
1465.2689045180973,2184
1467.3423501668608,2220
1469.415256246024,2265
1471.4876230030463,2366
1473.559450685465,2326
1475.6307395408976,2342
1477.7014898170391,2443
1479.771701761665,2335
1481.8413756226287,2434
1483.9105116478618,2498
1485.9791100853772,2521
1488.0471711832643,2502
1490.1146951896926,2585
1492.1816823529098,2651
1494.2481329212433,2639
1496.3140471430984,2720
1498.3794252669609,2726
1500.4442675413939,2686
1502.5085742150404,2714
1504.572345536622,2760
1506.6355817549388,2853
1508.6982831188702,2803
1510.7604498773744,2843
1512.8220822794883,2906
1514.8831805743293,2929
1516.9437450110909,2966
1519.003775839048,2993
1521.0632733075522,3023
1523.1222376660367,3112
1525.1806691640113,3149
1527.2385680510652,3124
1529.2959345768668,3187
1531.3527689911643,3273
1533.4090715437833,3353
1535.4648424846291,3292
1537.5200820636855,3450
1539.5747905310159,3465
1541.6289681367616,3529
1543.6826151311434,3461
1545.7357317644614,3600
1547.7883182870937,3610
1549.8403749494987,3808
1551.8919020022113,3779
1553.9428996958477,3840
1555.9933682811015,3969
1558.0433080087469,3973
1560.0927191296346,4061
1562.1416018946961,4269
1564.1899565549415,4179
1566.2377833614592,4080
1568.2850825654164,4143
1570.3318544180606,4009
1572.3780991707158,3751
1574.423817074788,3692
1576.4690083817595,3463
1578.5136733431923,3316
1580.5578122107272,3217
1582.601425236085,3039
1584.6445126710646,2999
1586.6870747675434,2817
1588.7291117774776,2640
1590.7706239529034,2634
1592.8116115459347,2471
1594.8520748087658,2390
1596.8920139936686,2307
1598.9314293529933,2247
1600.9703211391711,2181
1603.008689604711,2151
1605.0465350022005,2070
1607.0838575843068,2016
1609.1206576037753,1979
1611.1569353134305,1948
1613.1926909661765,1902
1615.2279248149953,1891
1617.2626371129481,1836
1619.2968281131757,1918
1621.3304980688963,1860
1623.3636472334088,1783
1625.39627586009,1766
1627.428384202396,1742
1629.459972513861,1743
1631.4910410480993,1720
1633.5215900588028,1756
1635.551619799744,1697
1637.5811305247717,1653
1639.6101224878166,1684
1641.6385959428862,1683
1643.6665511440683,1699
1645.693988345528,1625
1647.7209078015112,1647
1649.7473097663405,1697
1651.7731944944203,1708
1653.7985622402307,1651
1655.823413258333,1688
1657.847747803366,1685
1659.8715661300494,1628
1661.8948684931793,1649
1663.9176551476316,1689
1665.9399263483624,1629
1667.9616823504057,1657
1669.982923408873,1678
1672.0036497789574,1607
1674.0238617159293,1621
1676.043559475138,1627
1678.0627433120121,1621
1680.081413482059,1619
1682.0995702408654,1559
1684.117213844096,1640
1686.134344547495,1614
1688.1509626068864,1630
1690.1670682781705,1578
1692.182661817329,1676
1694.1977434804217,1629
1696.2123135235875,1619
1698.226372203043,1626
1700.2399197750851,1687
1702.2529564960905,1648
1704.2654826225112,1606
1706.277498410882,1583
1708.2890041178139,1621
1710.2999999999988,1567
1712.3104863142066,1520
1714.3204633172854,1570
1716.329931266163,1569
1718.3388904178469,1570
1720.3473410294214,1569
1722.3552833580516,1585
1724.3627176609807,1629
1726.3696441955308,1636
1728.3760632191033,1584
1730.3819749891782,1521
1732.3873797633146,1553
1734.3922777991502,1578
1736.3966693544012,1536
1738.4005546868639,1533
1740.4039340544127,1580
1742.406807715001,1519
1744.4091759266616,1558
1746.4110389475054,1605
1748.4123970357223,1523
1750.413250449582,1574
1752.4135994474318,1531
1754.4134442876993,1520
1756.4127852288902,1563
1758.4116225295893,1502
1760.4099564484595,1541
1762.407787244244,1498
1764.405115175764,1521
1766.4019405019203,1450
1768.3982634816916,1494
1770.3940843741357,1478
1772.3894034383907,1469
1774.3842209336717,1481
1776.378537119274,1486
1778.372352254571,1423
1780.3656665990156,1483
1782.3584804121397,1381
1784.3507939535534,1466
1786.3426074829463,1493
1788.3339212600863,1455
1790.3247355448211,1400
1792.3150505970766,1499
1794.3048666768573,1504
1796.2941840442477,1499
1798.2830029594106,1450
1800.2713236825884,1522
1802.2591464741004,1434
1804.2464715943465,1462
1806.2332993038058,1457
1808.2196298630352,1452
1810.2054635326708,1497
1812.190800573428,1400
1814.175641246101,1481
1816.1599858115628,1474
1818.1438345307652,1500
1820.127187664738,1487
1822.1100454745924,1491
1824.092408221516,1545
1826.0742761667766,1450
1828.055649571721,1474
1830.0365286977735,1469
1832.0169138064398,1458
1833.9968051593014,1513
1835.9762030180214,1576
1837.9551076443408,1491
1839.9335193000788,1451
1841.9114382471344,1494
1843.888864747485,1466
1845.8657990631878,1451
1847.842241456378,1418
1849.8181921892697,1435
1851.7936515241558,1497
1853.7686197234098,1465
1855.7430970494815,1479
1857.7170837649014,1443
1859.6905801322787,1422
1861.6635864143004,1503
1863.6361028737338,1457
1865.608129773424,1428
1867.5796673762961,1461
1869.5507159453537,1469
1871.521275743678,1463
1873.4913470344313,1497
1875.4609300808534,1504
1877.4300251462632,1478
1879.3986324940588,1554
1881.366752387717,1547
1883.3343850907936,1465
1885.3015308669228,1526
1887.268189979819,1466
1889.2343626932739,1554
1891.2000492711595,1528
1893.1652499774254,1514
1895.1299650761011,1494
1897.0941948312952,1495
1899.0579395071945,1518
1901.0211993680641,1449
1902.98397467825,1452
1904.9462657021745,1493
1906.9080727043415,1506
1908.869395949332,1477
1910.8302357018065,1465
1912.790592226504,1493
1914.7504657882428,1470
1916.7098566519212,1498
1918.6687650825133,1489
1920.6271913450764,1433
1922.5851357047422,1484
1924.5425984267245,1463
1926.499579776314,1511
1928.4560800188833,1514
1930.4120994198802,1478
1932.367638244833,1429
1934.32269675935,1483
1936.2772752291175,1501
1938.231373919899,1470
1940.1849930975404,1547
1942.1381330279637,1472
1944.0907939771696,1467
1946.0429762112412,1405
1947.9946799963363,1500
1949.9459055986945,1504
1951.896653284633,1507
1953.8469233205478,1473
1955.7967159729142,1464
1957.7460315082863,1458
1959.6948701932974,1472
1961.6432322946594,1441
1963.5911180791632,1446
1965.5385278136787,1398
1967.4854617651545,1414
1969.4319202006182,1464
1971.377903387176,1475
1973.3234115920136,1478
1975.268445082395,1504
1977.2130041256642,1455
1979.1570889892423,1435
1981.1006999406304,1431
1983.04383724741,1437
1984.986501177238,1515
1986.928691997853,1448
1988.8704099770712,1400
1990.811655382789,1486
1992.7524284829801,1471
1994.692729545698,1442
1996.6325588390755,1498
1998.5719166313224,1510
2000.5108031907307,1461
2002.4492187856677,1448
2004.387163684583,1455
2006.3246381560011,1421
2008.2616424685298,1452
2010.1981768908527,1463
2012.1342416917332,1426
2014.069837140014,1409
2016.0049635046162,1369
2017.9396210545406,1394
2019.8738100588666,1442
2021.8075307867502,1438
2023.740783507431,1477
2025.6735684902228,1385
2027.6058860045214,1402
2029.5377363198004,1406
2031.4691197056118,1396
2033.4000364315875,1406
2035.3304867674374,1387
2037.260470982952,1394
2039.189989347998,1417
2041.1190421325232,1391
2043.047629606554,1424
2044.9757520401945,1409
2046.9034097036288,1369
2048.8306028671195,1430
2050.7573318010086,1430
2052.683596775716,1345
2054.609398061742,1402
2056.5347359296647,1390
2058.4596106501403,1391
2060.384022493906,1348
2062.3079717317764,1359
2064.231458634646,1329
2066.1544834734873,1430
2068.077046519352,1465
2069.99914804337,1450
2071.9207883167524,1404
2073.8419676107865,1461
2075.7626861968406,1406
2077.6829443463607,1340
2079.6027423308715,1462
2081.522080421977,1488
2083.440958891362,1404
2085.359378010786,1424
2087.2773380520907,1447
2089.194839287196,1436
2091.111881988101,1385
2093.0284664268825,1414
2094.9445928756973,1447
2096.86026160678,1366
2098.775472892446,1365
2100.690227005088,1411
2102.604524217178,1418
2104.5183648012676,1468
2106.431749029985,1384
2108.34467717604,1427
2110.2571495122206,1398
2112.169166311393,1428
2114.080727846503,1477
2115.9918343905747,1434
2117.902486216711,1455
2119.8126835980956,1441
2121.722426807987,1437
2123.6317161197285,1417
2125.5405518067364,1389
2127.448934142509,1368
2129.356863400624,1469
2131.264339854737,1479
2133.1713637785815,1426
2135.077935445972,1418
2136.9840551308002,1410
2138.889723107037,1441
2140.7949396487334,1439
2142.699705030018,1400
2144.6040195250994,1472
2146.507883408264,1520
2148.4112969538774,1464
2150.3142604363848,1450
2152.2167741303097,1424
2154.1188383102535,1408
2156.0204532508997,1406
2157.9216192270064,1459
2159.822336513414,1443
2161.7226053850413,1407
2163.622426116884,1440
2165.5217989840185,1456
2167.4207242616,1456
2169.319202224862,1478
2171.2172331491165,1467
2173.1148173097563,1497
2175.0119549822507,1443
2176.90864644215,1465
2178.8048919650823,1473
2180.7006918267534,1483
2182.596046302952,1548
2184.4909556695407,1491
2186.3854202024645,1464
2188.279440177746,1530
2190.173015871487,1485
2192.066147559868,1475
2193.958835519149,1455
2195.851080025667,1460
2197.7428813558417,1437
2199.6342397861667,1491
2201.5251555932186,1477
2203.415629053651,1540
2205.3056604441986,1506
2207.19525004167,1501
2209.084398122958,1546
2210.9731049650327,1501
2212.861370844941,1514
2214.749196039812,1417
2216.636580826851,1537
2218.523525483344,1569
2220.410030286655,1545
2222.296095514226,1572
2224.1817214435805,1485
2226.066908352319,1477
2227.951656518121,1486
2229.835966218746,1434
2231.71983773203,1546
2233.6032713358913,1522
2235.486267308324,1520
2237.3688259274036,1598
2239.2509474712824,1488
2241.132632218193,1449
2243.013880446447,1546
2244.8946924344323,1525
2246.7750684606203,1492
2248.6550088035574,1560
2250.534513741871,1516
2252.413583554265,1533
2254.292218519526,1479
2256.170418916517,1504
2258.0481850241786,1435
2259.925517121534,1568
2261.8024154876825,1531
2263.678880401803,1512
2265.5549121431536,1553
2267.430510991071,1529
2269.305677224971,1560
2271.180411124348,1525
2273.0547129687766,1472
2274.9285830379076,1487
2276.8020216114737,1466
2278.6750289692845,1484
2280.5476053912294,1452
2282.4197511572766,1507
2284.2914665474727,1583
2286.162751841943,1524
2288.0336073208937,1551
2289.904033264608,1538
2291.774029953448,1548
2293.6435976678554,1494
2295.5127366883517,1479
2297.381447295534,1447
2299.2497297700825,1414
2301.1175843927526,1428
2302.9850114443825,1408
2304.852011205885,1360
2306.7185839582553,1344
2308.5847299825664,1299
2310.4504495599676,1276
2312.3157429716925,1308
2314.1806104990483,1312
2316.0450524234247,1310
2317.9090690262888,1337
2319.772660589186,1336
2321.635827393742,1343
2323.498569721661,1351
2325.3608878547248,1314
2327.2227820747967,1291
2329.0842526638157,1256
2330.945299903803,1324
2332.805924076857,1313
2334.6661254651535,1319
2336.525904350951,1287
2338.3852610165827,1275
2340.244195744464,1293
2342.102708817088,1318
2343.9608005170253,1328
2345.8184711269287,1325
2347.675720929526,1273
2349.532550207628,1290
2351.38895924412,1344
2353.24494832197,1300
2355.100517724223,1264
2356.955667734004,1291
2358.810398634514,1285
2360.664710709037,1322
2362.5186042409337,1263
2364.3720795136437,1337
2366.225136810686,1328
2368.0777764156583,1326
2369.929998612237,1380
2371.7818036841777,1342
2373.633191915315,1353
2375.484163589562,1344
2377.3347189909114,1351
2379.184858403434,1320
2381.03458211128,1313
2382.8838903986775,1331
2384.732783549936,1331
2386.5812618494406,1332
2388.4293255816588,1349
2390.2769750311327,1353
2392.1242104824883,1318
2393.971032220427,1332
2395.8174405297295,1355
2397.6634356952563,1295
2399.509018001947,1300
2401.3541877348193,1379
2403.1989451789705,1347
2405.043290619576,1308
2406.8872243418905,1321
2408.730746631247,1294
2410.5738577730594,1317
2412.4165580528183,1309
2414.258847756095,1288
2416.100727168537,1317
2417.9421965758734,1295
2419.783256263912,1344
2421.623906518538,1287
2423.4641476257157,1395
2425.303979871491,1354
2427.143403541984,1328
2428.9824189233977,1351
2430.821026302012,1308
2432.6592259641866,1331
2434.497018196361,1372
2436.33440328505,1389
2438.171381516851,1352
2440.00795317844,1353
2441.844118556569,1337
2443.6798779380724,1329
2445.5152316098606,1361
2447.3501798589255,1386
2449.1847229723357,1375
2451.0188612372403,1349
2452.8525949408663,1314
2454.6859243705203,1317
2456.518849813587,1405
2458.3513715575314,1356
2460.183489889895,1369
2462.015205098301,1352
2463.8465174704493,1296
2465.67742729412,1340
2467.5079348571717,1370
2469.338040447542,1320
2471.1677443532476,1359
2472.9970468623833,1340
2474.825948263123,1328
2476.6544488437207,1380
2478.482548892508,1443
2480.310248697896,1340
2482.137548548374,1396
2483.9644487325118,1341
2485.790949538956,1320
2487.617051256433,1365
2489.44275417375,1377
2491.26805857979,1351
2493.0929647635157,1396
2494.917473013971,1408
2496.741583620276,1405
2498.5652968716304,1363
2500.3886130573137,1412
2502.2115324666834,1433
2504.0340553891765,1368
2505.856182114308,1364
2507.6779129316733,1451
2509.499248130945,1422
2511.3201880018764,1379
2513.140732834298,1452
2514.9608829181198,1477
2516.780638543331,1424
2518.6,1451
2520.418967578273,1441
2522.237541568376,1449
2524.0557222606144,1456
2525.8735099453706,1469
2527.6909049131086,1435
2529.507907454368,1413
2531.32451785977,1430
2533.140736420014,1476
2534.9565634258774,1467
2536.771999168218,1487
2538.5870439379714,1469
2540.4016980261526,1457
2542.2159617238544,1482
2544.02983532225,1483
2545.8433191125914,1485
2547.656413386209,1553
2549.4691184345115,1534
2551.2814345489874,1533
2553.093362021204,1500
2554.904901142808,1601
2556.716052205523,1547
2558.526815501153,1586
2560.3371913215824,1516
2562.147179958771,1586
2563.956781704761,1644
2565.7659968516705,1622
2567.5748256916986,1642
2569.3832685171224,1695
2571.1913256202984,1604
2572.9989972936614,1654
2574.806283829725,1678
2576.613185521084,1661
2578.4197026604074,1731
2580.2258355404483,1620
2582.031584454035,1739
2583.836949694077,1645
2585.6419315535613,1713
2587.4465303255533,1730
2589.2507463032002,1736
2591.0545797797245,1737
2592.8580310484303,1712
2594.6611004026995,1714
2596.463788135992,1712
2598.266094541849,1759
2600.0680199138874,1735
2601.869564545807,1788
2603.670728731383,1801
2605.4715127644704,1710
2607.2719169390048,1777
2609.071941548998,1760
2610.8715868885433,1753
2612.670853251811,1805
2614.469740933052,1753
2616.268250226594,1736
2618.0663814268455,1817
2619.864134828292,1742
2621.6615107255006,1771
2623.458509413115,1735
2625.2551311858597,1732
2627.0513763385347,1749
2628.8472451660223,1712
2630.6427379632833,1698
2632.4378550253564,1687
2634.232596647359,1668
2636.026963124488,1672
2637.8209547520187,1647
2639.6145718253065,1659
2641.407814639785,1615
2643.200683490966,1585
2644.9931786744414,1651
2646.7853004858807,1557
2648.577049221034,1615
2650.3684251757277,1547
2652.1594286458712,1578
2653.9500599274484,1503
2655.740319316525,1522
2657.5302071092437,1529
2659.3197236018286,1551
2661.10886909058,1480
2662.8976438718782,1544
2664.686048242183,1489
2666.4740824980327,1516
2668.2617469360443,1528
2670.0490418529134,1522
2671.8359675454153,1500
2673.622524310403,1478
2675.408712444811,1476
2677.1945322456495,1398
2678.979984010009,1425
2680.76506803506,1488
2682.5497846180497,1439
2684.334134056306,1435
2686.1181166472343,1471
2687.9017326883213,1407
2689.6849824771293,1430
2691.4678663113013,1408
2693.2503844885596,1384
2695.032537306705,1441
2696.8143250636167,1410
2698.5957480572542,1393
2700.3768065856534,1394
2702.1575009469316,1334
2703.937831439283,1406
2705.717798360982,1371
2707.4974020103837,1341
2709.276642685917,1385
2711.055520686095,1349
2712.834036309506,1344
2714.612189854819,1336
2716.389981620782,1392
2718.1674119062204,1332
2719.944481010041,1359
2721.721189231226,1316
2723.4975368688415,1380
2725.273524222027,1345
2727.0491515900053,1322
2728.824419272075,1345
2730.5993275676146,1326
2732.3738767760838,1310
2734.148067197016,1326
2735.921899130031,1365
2737.6953728748194,1295
2739.468488731156,1286
2741.2412469988926,1303
2743.0136479779617,1324
2744.785691968372,1316
2746.5573792702116,1275
2748.3287101836504,1296
2750.099685008934,1310
2751.870304046388,1283
2753.640567596418,1328
2755.4104759595057,1309
2757.1800294362156,1310
2758.949228327187,1336
2760.7180729331412,1314
2762.486563554877,1321
2764.254700493272,1291
2766.022484049284,1355
2767.789914523947,1354
2769.5569922183786,1398
2771.3237174337705,1303
2773.090090471394,1337
2774.8561116326036,1369
2776.6217812188274,1365
2778.3870995315756,1289
2780.1520668724356,1337
2781.9166835430747,1290
2783.6809498452394,1294
2785.444866080754,1307
2787.2084325515225,1295
2788.971649559527,1230
2790.73451740683,1284
2792.4970363955713,1260
2794.2592068279705,1284
2796.0210290063264,1270
2797.7825032330147,1265
2799.543629810493,1292
2801.304409041296,1268
2803.0648412280366,1252
2804.8249266734088,1295
2806.5846656801846,1305
2808.344058551212,1281
2810.1031055894246,1377
2811.8618070978273,1270
2813.6201633795085,1323
2815.378174737636,1280
2817.1358414754536,1298
2818.893163896285,1289
2820.6501423035334,1313
2822.4067770006814,1254
2824.1630682912883,1360
2825.9190164789957,1386
2827.6746218675207,1284
2829.429884760661,1358
2831.184805462294,1189
2832.9393842763743,1374
2834.693621506936,1300
2836.4475174580916,1341
2838.201072434034,1284
2839.954286739034,1310
2841.707160677441,1307
2843.459694553685,1320
2845.2118886722724,1271
2846.96374333779,1351
2848.7152588549034,1337
2850.4664355283567,1280
2852.217273662973,1319
2853.9677735636546,1315
2855.7179355353833,1314
2857.4677598832186,1291
2859.217246912299,1323
2860.9663969278427,1321
2862.715210235146,1282
2864.4636871395846,1308
2866.211827946614,1294
2867.9596329617652,1273
2869.7071024906536,1293
2871.4542368389684,1305
2873.20103631248,1268
2874.947501217038,1295
2876.6936318585695,1331
2878.4394285430812,1395
2880.1848915766604,1288
2881.9300212654707,1331
2883.6748179157553,1346
2885.4192818338374,1280
2887.1634133261173,1305
2888.907212699077,1277
2890.6506802592744,1278
2892.393816313348,1244
2894.1366211680142,1246
2895.8790951300693,1293
2897.621238506388,1314
2899.363051603925,1288
2901.1045347297118,1273
2902.8456881908596,1375
2904.58651229456,1314
2906.327007348081,1300
2908.067173658772,1272
2909.8070115340597,1313
2911.5465212814497,1367
2913.285703208527,1312
2915.0245576229563,1300
2916.7630848324807,1277
2918.5012851449196,1291
2920.2391588681758,1228
2921.976706310227,1321
2923.7139277791334,1271
2925.4508235830313,1290
2927.187394030137,1296
2928.923639428745,1329
2930.6595600872306,1321
2932.395156314046,1296
2934.1304284177218,1305
2935.8653767068713,1298
2937.6000014901815,1274
2939.3343030764227,1312
2941.068281774442,1287
2942.8019378931644,1298
2944.5352717415976,1354
2946.2682836288236,1307
2948.0009738640065,1354
2949.7333427563885,1361
2951.465390615289,1296
2953.1971177501086,1331
2954.9285244703265,1316
2956.6596110855,1278
2958.3903779052657,1322
2960.1208252393385,1313
2961.8509533975125,1307
2963.5807626896617,1304
2965.3102534257378,1243
2967.0394259157715,1288
2968.768280469873,1250
2970.496817398232,1282
2972.2250370111146,1334
2973.952939618869,1341
2975.6805255319196,1306
2977.4077950607707,1286
2979.134748516006,1335
2980.861386208289,1299
2982.587708448359,1341
2984.313715547037,1351
2986.039407815222,1315
2987.764785563891,1305
2989.489849104102,1316
2991.2145987469908,1315
2992.9390348037705,1277
2994.6631575857346,1295
2996.3869674042576,1340
2998.1104645707887,1331
2999.83364939686,1318
3001.5565221940783,1328
3003.2790832741334,1296
3005.0013329487924,1280
3006.7232715298996,1281
3008.4448993293804,1295
3010.166216659239,1252
3011.887223831558,1287
3013.607921158498,1305
3015.3283089522993,1320
3017.0483875252826,1276
3018.7681571898443,1274
3020.4876182584626,1326
3022.2067710436927,1305
3023.9256158581707,1264
3025.644153014609,1227
3027.362382825801,1276
3029.0803056046193,1308
3030.797921664012,1244
3032.5152313170106,1307
3034.2322348767225,1281
3035.9489326563353,1275
3037.665324969115,1245
3039.3814121284063,1227
3041.097194447633,1266
3042.812672240299,1306
3044.5278458199855,1306
3046.2427155003525,1297
3047.9572815951406,1266
3049.671544418167,1275
3051.38550428333,1297
3053.0991615046073,1298
3054.812516396051,1329
3056.5255692717974,1337
3058.2383204460575,1315
3059.9507702331257,1299
3061.662918947372,1330
3063.3747669032446,1259
3065.0863144152736,1301
3066.7975617980674,1314
3068.508509366309,1295
3070.219157434767,1299
3071.9295063182844,1272
3073.639556331785,1315
3075.3493077902704,1292
3077.058761008821,1350
3078.7679163025964,1284
3080.476773986837,1211
3082.1853343768594,1287
3083.89359778806,1313
3085.6015645359153,1279
3087.3092349359786,1266
3089.016609303884,1297
3090.7236879553434,1303
3092.4304712061476,1316
3094.136959372166,1334
3095.843152769349,1387
3097.5490517137237,1303
3099.2546565213966,1356
3100.959967508554,1270
3102.66498499146,1308
3104.3697092864577,1331
3106.0741407099695,1340
3107.778279578498,1315
3109.482126208622,1319
3111.1856809170004,1310
3112.8889440203716,1407
3114.5919158355528,1363
3116.294596679439,1321
3117.996986869006,1305
3119.6990867213062,1364
3121.4008965534726,1326
3123.102416682717,1364
3124.803647426329,1339
3126.5045891016784,1367
3128.205242026213,1315
3129.90560651746,1304
3131.605682893025,1331
3133.3054714705922,1299
3135.0049725679282,1344
3136.7041865028714,1329
3138.4031135933465,1245
3140.101754157353,1372
3141.800108512971,1303
3143.498176978357,1256
3145.1959598717494,1331
3146.8934575114636,1318
3148.5906702158954,1296
3150.2875983035183,1272
3151.9842420928853,1248
3153.680601902627,1336
3155.376678051456,1257
3157.07247085816,1301
3158.767980641609,1260
3160.463207720748,1280
3162.158152414606,1258
3163.8528150422862,1299
3165.5471959229726,1292
3167.2412953759303,1305
3168.9351137204976,1321
3170.628651276098,1280
3172.3219083622307,1351
3174.014885298474,1331
3175.707582404485,1297
3177.4000000000005,1244
3179.092138404835,1334
3180.7839979388846,1269
3182.47557892212,1324
3184.166881674594,1317
3185.8579065164386,1287
3187.5486537678626,1312
3189.2391237491547,1321
3190.9293167806827,1294
3192.6192331828934,1295
3194.3088732763117,1365
3195.998237381542,1304
3197.687325819268,1324
3199.376138910251,1303
3201.064676975334,1341
3202.7529403354347,1254
3204.4409293115523,1232
3206.1286442247647,1286
3207.816085396229,1245
3209.5032531471825,1267
3211.190147798936,1289
3212.8767696728846,1269
3214.5631190905015,1309
3216.2491963733373,1350
3217.9350018430214,1285
3219.6205358212637,1223
3221.305798629851,1246
3222.990790590651,1233
3224.6755120256103,1301
3226.359963256751,1254
3228.0441446061795,1209
3229.7280563960758,1243
3231.411698948703,1238
3233.0950725863995,1333
3234.778177631587,1303
3236.461014406761,1329
3238.1435832345005,1273
3239.8258844374595,1286
3241.507918338374,1278
3243.1896852600576,1272
3244.8711855254023,1263
3246.552419457381,1298
3248.233387379042,1253
3249.914089613516,1321
3251.59452648401,1286
3253.274698313813,1265
3254.95460542629,1283
3256.6342481448855,1303
3258.313626793125,1325
3259.9927416946084,1253
3261.6715931730196,1284
3263.3501815521176,1282
3265.0285071557437,1305
3266.706570307815,1239
3268.3843713323286,1201
3270.0619105533615,1263
3271.739188295068,1259
3273.4162048816834,1275
3275.0929606375184,1313
3276.769455886966,1242
3278.445690954498,1277
3280.1216661646613,1235
3281.797381842087,1292
3283.4728383114807,1301
3285.1480358976296,1270
3286.8229749253996,1263
3288.4976557197333,1243
3290.172078605655,1287
3291.846243908266,1275
3293.5201519527463,1241
3295.193803064357,1208
3296.8671975684374,1252
3298.5403357904024,1251
3300.21321805575,1252
3301.8858446900567,1249
3303.558216018975,1224
3305.23033236824,1208
3306.9021940636603,1295
3308.57380143113,1323
3310.2451547966184,1294
3311.916254486174,1238
3313.5871008259246,1255
3315.2576941420766,1295
3316.9280347609147,1288
3318.5981230088046,1296
3320.2679592121895,1268
3321.9375436975924,1219
3323.606876791612,1260
3325.27595882093,1253
3326.944790112305,1279
3328.6133709925753,1264
3330.2817017886573,1270
3331.949782827547,1236
3333.617614436319,1247
3335.2851969421245,1256
3336.952530672199,1260
3338.619615953853,1256
3340.286453114475,1286
3341.9530424815357,1252
3343.619384382583,1255
3345.2854791452437,1288
3346.951327097224,1297
3348.6169285663073,1309
3350.2822838803577,1290
3351.947393367319,1298
3353.61225735521,1274
3355.2768761721345,1270
3356.9412501462693,1251
3358.605379605873,1232
3360.2692648792827,1223
3361.9329062949146,1251
3363.596304181263,1214
