CollectionTime,7/10/2024 4:35:08 PM
ExposureUsed,3
CalibratedSpectrum
-962.7078968117929,498
-959.9714848408522,546
-957.2358232597828,576
-954.5009119013725,577
-951.7667505983302,552
-949.0333391832855,591
-946.3006774887896,564
-943.5687653473143,581
-940.837602591253,540
-938.1071890529199,551
-935.3775245645503,560
-932.6486089583007,552
-929.9204420662485,564
-927.1930237203925,592
-924.4663537526524,567
-921.7404319948689,565
-919.0152582788041,571
-916.2908324361409,635
-913.5671542984834,587
-910.8442236973568,554
-908.1220404642074,562
-905.4006044304027,552
-902.679915427231,580
-899.959973285902,574
-897.2407778375464,568
-894.5223289132158,549
-891.8046263438832,576
-889.0876699604426,565
-886.3714595937089,552
-883.6559950744183,551
-880.9412762332282,550
-878.2273029007168,546
-875.5140749073835,529
-872.8015920836489,533
-870.0898542598545,568
-867.3788612662631,555
-864.6686129330585,571
-861.9591090903457,580
-859.2503495681506,589
-856.5423341964203,555
-853.8350628050229,569
-851.1285352237478,531
-848.4227512823054,534
-845.7177108103272,563
-843.0134136373656,581
-840.3098595928943,579
-837.6070485063082,594
-834.9049802069229,580
-832.2036545239757,533
-829.5030712866244,534
-826.8032303239481,539
-824.1041314649472,574
-821.4057745385428,578
-818.7081593735775,542
-816.0112857988148,562
-813.3151536429393,582
-810.6197627345566,564
-807.9251129021936,582
-805.2312039742981,579
-802.5380357792392,571
-799.8456081453069,592
-797.1539209007124,598
-794.462973873588,563
-791.772766891987,581
-789.083299783884,566
-786.3945723771743,566
-783.7065844996748,595
-781.0193359791231,572
-778.3328266431781,569
-775.6470563194197,563
-772.9620248353489,532
-770.2777320183878,578
-767.5941776958798,575
-764.9113616950891,564
-762.2292838432011,596
-759.5479439673222,547
-756.8673418944801,563
-754.1874774516235,580
-751.5083504656222,605
-748.8299607632671,612
-746.15230817127,586
-743.475392516264,574
-740.7992136248035,590
-738.1237713233636,609
-735.4490654383407,593
-732.7750957960521,605
-730.1018622227365,592
-727.4293645445534,605
-724.7576025875837,614
-722.0865761778291,594
-719.4162851412126,588
-716.7467293035781,609
-714.0779084906909,599
-711.409822528237,659
-708.7424712418238,632
-706.0758544569796,625
-703.4099719991541,640
-700.7448236937178,616
-698.0804093659622,652
-695.4167288411002,659
-692.7537819442656,635
-690.0915685005134,599
-687.4300883348199,599
-684.7693412720819,647
-682.1093271371178,626
-679.4500457546669,631
-676.7914969493897,665
-674.1336805458676,680
-671.4765963686034,616
-668.8202442420206,663
-666.1646239904642,686
-663.5097354382001,646
-660.8555784094151,626
-658.2021527282176,606
-655.5494582186366,626
-652.8974947046223,650
-650.2462620100463,636
-647.5957599587009,643
-644.9459883742998,642
-642.2969470804776,623
-639.6486359007902,660
-637.0010546587141,680
-634.3542031776476,699
-631.7080812809096,676
-629.0626887917401,679
-626.4180255333008,638
-623.7740913286734,711
-621.1308860008619,679
-618.4884093727904,641
-615.8466612673046,648
-613.2056415071715,681
-610.5653499150785,680
-607.9257863136347,727
-605.28695052537,704
-602.6488423727357,699
-600.0114616781036,686
-597.3748082637674,652
-594.7388819519412,679
-592.1036825647604,704
-589.4692099242818,745
-586.8354638524829,750
-584.2024441712624,683
-581.5701507024403,676
-578.9385832677575,692
-576.3077416888759,716
-573.6776257873787,738
-571.0482353847704,735
-568.4195703024757,714
-565.7916303618415,702
-563.164415384135,733
-560.5379251905453,694
-557.9121596021815,700
-555.2871184400748,712
-552.6628015251767,739
-550.0392086783606,742
-547.4163397204204,713
-544.794194472071,712
-542.1727727539491,729
-539.5520743866118,779
-536.9320991905377,770
-534.3128469861261,811
-531.6943175936979,866
-529.0765108334947,823
-526.4594265256793,837
-523.8430644903358,988
-521.2274245474689,1072
-518.612506517005,1105
-515.9983102187913,1130
-513.3848354725959,1110
-510.77208209810846,1182
-508.16004991493924,1252
-505.5487387426199,1435
-502.9381484006032,1600
-500.3282787082628,1691
-497.71912948489364,1678
-495.1107005497117,1592
-492.5029917218539,1447
-489.8960028203786,1303
-487.28973366426493,1167
-484.68418407241325,1067
-482.07935386364494,1019
-479.47524285670266,952
-476.87185087025,951
-474.2691777228715,938
-471.66722323307334,921
-469.0659872192821,918
-466.4654694998459,925
-463.86566989303384,937
-461.26658821703614,880
-458.66822428996414,912
-456.07057792985,896
-453.4736489546475,903
-450.877437182231,884
-448.28194243039627,892
-445.68716451686,836
-443.09310325926003,852
-440.49975847515555,886
-437.9071299820263,877
-435.31521759727354,848
-432.72402113821954,903
-430.13354042210767,901
-427.5437752661022,985
-424.95472548728867,902
-422.36639090267386,958
-419.7787713291855,936
-417.1918665836721,977
-414.60567648290385,1014
-412.0202008435715,1002
-409.4354394822874,969
-406.8513922155845,987
-404.26805885991723,1045
-401.685439231661,989
-399.103533147112,942
-396.522340422488,966
-393.9418608739278,968
-391.3620943174908,952
-388.7830405691583,1072
-386.2046994448317,910
-383.6270707603344,905
-381.05015433141045,850
-378.473949973725,820
-375.8984575028645,782
-373.32367673433623,733
-370.74960748356875,692
-368.1762495659117,686
-365.60360279663576,647
-363.03166699093265,560
-360.4604419639154,566
-357.8899275306178,546
-355.32012350599507,534
-352.7510297049233,553
-350.1826459421999,521
-347.61497203254316,501
-345.04800779059235,485
-342.4817530309082,515
-339.91620756797226,548
-337.35137121618743,596
-334.7872437898774,572
-332.22382510328725,563
-329.66111497058273,552
-327.09911320585127,540
-324.53781962310075,548
-321.9772340362607,525
-319.4173562591816,512
-316.8581861056348,509
-314.2997233893127,512
-311.7419679238294,476
-309.1849195227194,506
-306.62857799943856,546
-304.0729431673641,560
-301.51801483979375,600
-298.963792829947,568
-296.41027695096386,575
-293.85746701590574,663
-291.3053628377552,635
-288.7539642294155,629
-286.2032710037115,601
-283.65328297338897,550
-281.1039999511146,567
-278.5554217494762,650
-276.007548180983,682
-273.4603790580651,580
-270.9139141930734,562
-268.3681533982807,540
-265.8230964858798,566
-263.27874326798565,650
-260.7350935566336,606
-258.1921471637804,617
-255.6499039013039,578
-253.10836358100266,700
-250.56752601459698,674
-248.02739101372765,626
-245.48795838995704,691
-242.94922795476816,732
-240.41119951956557,656
-237.8738728956746,699
-235.33724789434166,825
-232.80132432673452,708
-230.2661020039418,644
-227.73158073697357,694
-225.19776033676033,747
-222.66464061415422,755
-220.1322213799284,697
-217.60050244477725,676
-215.06948361931552,679
-212.53916471408013,730
-210.00954553952818,848
-207.48062590603843,855
-204.9524056239104,757
-202.4248845033651,777
-199.8980623545441,705
-197.37193898751036,742
-194.84651421224817,756
-192.32178783866232,785
-189.79775967657952,862
-187.27442953574644,977
-184.7517972258321,1061
-182.2298625564256,974
-179.7086253370378,886
-177.18808537710026,928
-174.66824248596583,793
-172.14909647290835,846
-169.6306471471229,848
-167.11289431772548,1039
-164.59583779375328,1134
-162.07947738416453,1020
-159.5638128978386,996
-157.04884414357605,1109
-154.53457093009854,1100
-152.02099306604828,1026
-149.50811035998936,947
-146.99592262040665,910
-144.48442965570587,909
-141.97363127421409,1007
-139.46352728417958,1061
-136.95411749377126,1071
-134.44540171107985,981
-131.93737974411636,871
-129.43005140081357,998
-126.92341648902493,1362
-124.41747481652521,1869
-121.91222619101006,2211
-119.40767042009657,2379
-116.90380731132257,2529
-114.40063667214702,2797
-111.8981583099503,3217
-109.3963720320337,2661
-106.89527764561933,2158
-104.39487495785067,2103
-101.89516377579241,2757
-99.39614390642998,4653
-96.89781515667039,5575
-94.40017733334128,5261
-91.90323024319173,4146
-89.40697369289148,3751
-86.91140748903172,5053
-84.41653143812482,6392
-81.92234534660395,7481
-79.42884902082358,7387
-76.93604226705907,8922
-74.4439248915071,14766
-71.95249670028534,23847
-69.46175749943245,29545
-66.97170709490854,29816
-64.48234529259423,26737
-61.99367189829195,19993
-59.50568671772464,12534
-57.01838955653636,7400
-54.53178022029283,7491
-52.045858514480074,7706
-49.560624244506016,8700
-47.07607721569923,11545
-44.59221723330904,13902
-42.10904410250669,14497
-39.62655762838392,13564
-37.14475761595372,14454
-34.66364387015028,16578
-32.18321619582866,17305
-29.70347439776515,18524
-27.224418280657005,19881
-24.74604764912317,20264
-22.26836230770266,20688
-19.7913620608565,30093
-17.315046712966478,48809
-14.83941606833514,63791
-12.36446993118659,65036
-9.89020810566592,65036
-7.416630395839093,65036
-4.94373660569363,65036
-2.471526539137585,65036
-6.821210263296962E-13,65036
2.47084320796705,65036
4.941003281093458,65036
7.410480415786196,65036
9.879274808531363,65036
12.347386655893956,65036
14.814816154518212,65036
17.28156350112681,65036
19.74762889252179,65036
22.21301252558385,65036
24.67771459727237,21632
27.141735304626195,4906
29.605074844762612,3896
32.06773341487792,2988
34.52971121224755,2539
36.99100843422559,3227
39.45162527824516,3458
41.91156194181792,2519
44.370818622535126,2036
46.82939551806646,1718
49.287292826160524,1767
51.74451074464503,2563
54.201049471426245,2718
56.65690920448981,2194
59.112090141899785,1785
61.56659248179983,1572
64.02041642241159,1424
66.4735621620365,1360
68.92602989905402,1208
71.37781983192338,1316
73.82893215918205,1375
76.27936707944684,1411
78.72912479141326,1550
81.17820549385567,1534
83.62660938562783,1663
86.07433666566146,1700
88.5213875329681,1265
90.96776218663751,1113
93.41346082583925,1033
95.85848364982041,1145
98.30283085790859,1542
100.7465026495089,1569
103.18949922410604,1533
105.63182078126385,1231
108.07346752062438,1187
110.51443964190923,1140
112.95473734491827,1052
115.39436082953114,1146
117.83331029570547,1163
120.27158594347827,1153
122.7091879729652,1278
125.1461165843615,1387
127.58237197794062,1348
130.01795435405518,1107
132.4528639131364,999
134.88710085569494,1065
137.32066538231982,1055
139.75355769367923,996
142.1857779905207,938
144.61732647366978,858
147.04820334403132,913
149.47840880258934,995
151.90794305040674,1084
154.33680628862487,1130
156.76499871846443,1437
159.19252054122433,1501
161.61937195828352,1499
164.04555317109896,1670
166.47106438120693,1876
168.89590579022217,2068
171.320077599839,2171
173.7435800118302,2234
176.16641322804742,2378
178.58857745042144,2322
181.01007288096173,2550
183.43089972175687,2577
185.85105817497413,2447
188.27054844285988,2490
190.6893707277394,2482
193.10752523201643,2659
195.5250121581745,2531
197.9418317087751,2566
200.3579840864594,2562
202.7734694939469,2633
205.18828813403627,2615
207.6024402096051,2932
210.01592592360964,2950
212.42874547908548,2852
214.84089907914665,2875
217.2523869269868,2879
219.66320922587727,2780
222.0733661791695,2789
224.48285799029293,2670
226.8916848627572,2648
229.29984700014882,2686
231.7073446061355,2750
234.11417788446204,2692
236.520347038953,2742
238.92585227351185,2873
241.33069379212054,2787
243.73487179884035,2789
246.1383864978112,2865
248.541238093252,2782
250.9434267894609,2753
253.34495279081432,2977
255.74581630176783,2844
258.1460175268563,2849
260.54555667069314,2813
262.9444339379703,2788
265.3426495334594,2723
267.7402036620107,2772
270.1370965285529,2847
272.53332833809407,2786
274.9288992957214,2728
277.32380960660055,2594
279.718059475976,2483
282.1116491091717,2661
284.5045787115897,2576
286.89684848871195,2639
289.2884586460981,2636
291.67940938938807,2590
294.0697009242996,2644
296.4593334566299,2580
298.84830719225477,2597
301.23662233712923,2493
303.6242790972866,2529
306.01127767884,2536
308.39761828798066,2504
310.78330113097934,2472
313.16832641418534,2431
315.5526943440269,2386
317.9364051270112,2371
320.3194589697242,2336
322.70185607883093,2431
325.0835966610754,2341
327.4646809232805,2343
329.8451090723478,2242
332.2248813152577,2317
334.6039978590701,2329
336.9824589109231,2194
339.36026467803447,2239
341.7374153677,2260
344.113911187295,2205
346.48975234427337,2208
348.8649390461686,2240
351.2394715005918,2208
353.61334991523415,2152
355.9865744978655,2201
358.35914545633375,2139
360.73106299856715,2180
363.10232733257146,2193
365.47293866643247,2128
367.84289720831396,2145
370.2122031664593,2085
372.5808567491905,2102
374.9488581649083,2106
377.31620762209275,2111
379.6829053293021,2053
382.0489514951745,2072
384.4143463284262,2085
386.7790900378528,2025
389.14318283232853,2051
391.50662492080653,2093
393.86941651231916,2106
396.23155781597745,2127
398.5930490409713,2080
400.9538903965696,2110
403.3140820921202,2064
405.6736243370498,2015
408.03251734086336,2027
410.3907613131465,1981
412.74835646356166,1973
415.10530300185144,2066
417.4616011378372,2035
419.81725108141893,2016
422.1722530425758,1961
424.5266072313656,2003
426.880313857925,1945
429.2333731324701,2004
431.58578526529516,1997
433.9375504667738,1963
436.2886689473588,1957
438.63914091758113,1995
440.9889665880513,1950
443.33814616945835,1959
445.68667987257015,1882
448.03456790823395,1931
450.3818104873759,1967
452.72840782100013,1965
455.07436012019105,1933
457.41966759611057,1939
459.7643304600007,1931
462.10834892318155,1930
464.4517231970525,1860
466.79445349309174,1946
469.1365400228566,1981
471.4779829979826,1979
473.81878263018564,1986
476.15893913125876,1956
478.4984527130747,2053
480.8373235875855,1971
483.17555196682144,2118
485.5131380628919,2166
487.8500820879857,2291
490.1863842543697,2366
492.52204477439034,2568
494.8570638604725,2796
497.1914417251204,3036
499.52517858091653,3388
501.85827464052306,3604
504.19073011668036,3775
506.5225452222086,3647
508.85372017000566,3577
511.18425517304956,3442
513.514150444396,3451
515.8434061971808,4082
518.1720226446176,4823
520.4999999999999,4992
522.8273384766991,4896
525.1540382881666,4555
527.480099647932,4057
529.8055227696037,3450
532.1303078668694,2786
534.454455153496,2347
536.777964843328,2267
539.1008371502907,2227
541.4230722883866,2139
543.744670471698,2152
546.0656319143858,2164
548.3859568306899,2149
550.7056454349294,2127
553.0246979415016,2040
555.3431145648834,2041
557.6608955196306,2008
559.978041020377,2079
562.2945512818363,2043
564.6104265188006,2087
566.9256669461412,2064
569.2402727788082,2041
571.5542442318302,2100
573.8675815203156,2125
576.1802848594508,2124
578.4923544645015,2104
580.8037905508126,2079
583.114593333807,2157
585.4247630289875,2067
587.7342998519354,2084
590.0432040183106,2025
592.3514757438526,2153
594.6591152443794,2149
596.9661227357875,2224
599.2724984340531,2128
601.578242555231,2115
603.8833553154542,2128
606.1878369309362,2141
608.4916876179676,2106
610.7949075929192,2046
613.0974970722403,2105
615.3994562724587,2043
617.7007854101818,2092
620.0014847020951,2057
622.3015543649641,2084
624.6009946156324,2211
626.8998056710224,2119
629.1979877481361,2147
631.4955410640538,2116
633.7924658359349,2138
636.0887622810175,2078
638.3844306166192,2025
640.6794710601358,2073
642.9738838290426,2163
645.2676691408932,2110
647.5608272133207,2159
649.853358264037,2080
652.1452625108324,2024
654.4365401715764,2023
656.7271914642178,2061
659.0172166067838,2039
661.3066158173809,2139
663.5953893141935,2086
665.8835373154867,2060
668.1710600396028,2083
670.4579577049639,2103
672.7442305300709,2178
675.0298787335033,2060
677.3149025339197,2018
679.599302150058,2029
681.8830778007342,2137
684.1662297048437,2079
686.4487580813608,2055
688.7306631493387,2097
691.0119451279091,2063
693.2926042362834,2045
695.5726406937516,2149
697.8520547196814,2112
700.1308465335215,2017
702.4090163547982,2072
704.6865644031171,2053
706.9634908981619,2056
709.2397960596965,1950
711.5154801075631,2012
713.7905432616823,2098
716.0649857420548,2072
718.3388077687592,2099
720.612009561953,2011
722.8845913418733,2020
725.1565533288352,2053
727.427895743234,2098
729.6986188055427,2091
731.9687227363137,2022
734.238207756178,2081
736.5070740858458,2103
738.7753219461066,2112
741.0429515578281,2123
743.3099631419569,2118
745.5763569195191,2019
747.8421331116193,2076
750.1072919394409,2076
752.3718336242467,2073
754.6357583873777,2114
756.8990664502545,2077
759.1617580343765,2061
761.423833361321,2119
763.6852926527457,2061
765.9461361303862,2036
768.206364016058,2027
770.4659765316536,2001
772.7249738991469,2026
774.9833563405886,2083
777.2411240781092,2038
779.4982773339183,2087
781.7548163303044,2088
784.010741289634,2153
786.2660524343538,2191
788.5207499869881,2164
790.7748341701416,2104
793.0283052064964,2108
795.2811633188143,2160
797.5334087299362,2161
799.7850416627813,2111
802.0360623403484,2115
804.2864709857143,2094
806.5362678220353,2174
808.7854530725468,2125
811.0340269605625,2162
813.2819897094754,2059
815.5293415427581,2049
817.77608268396,2124
820.0222133567116,2136
822.2677337847211,2085
824.5126441917765,2161
826.7569448017433,2093
829.0006358385675,2095
831.2437175262731,2018
833.4861900889629,2125
835.7280537508192,2066
837.9693087361026,2098
840.2099552691533,2131
842.4499935743896,2146
844.689423876309,2139
846.9282463994886,2004
849.1664613685833,2047
851.4040690083276,2113
853.6410695435349,2111
855.877463199097,2079
858.1132501999847,2118
860.3484307712487,2106
862.5830051380175,2097
864.8169735254988,2101
867.0503361589791,2022
869.2830932638243,2075
871.5152450654786,2151
873.7467917894654,2012
875.9777336613873,2083
878.2080709069252,2164
880.4378037518389,2224
882.666932421968,2193
884.8954571432301,2180
887.1233781416219,2193
889.3506956432192,2165
891.5774098741766,2163
893.803521060728,2193
896.0290294291852,2287
898.2539352059397,2217
900.4782386174619,2207
902.7019398903011,2112
904.925039251085,2108
907.147536926521,2182
909.3694331433943,2134
911.59072812857,2170
913.8114221089921,2129
916.0315153116827,2119
918.2510079637437,2183
920.4699002923547,2122
922.6881925247761,2075
924.905884888345,2113
927.1229776104793,2076
929.3394709186747,2025
931.555365040506,2100
933.7706602036275,2087
935.9853566357709,2077
938.1994545647489,2093
940.4129542184515,2170
942.6258558248488,2159
944.8381596119883,2043
947.0498658079974,2064
949.2609746410825,2052
951.4714863395287,2036
953.6814011316998,2069
955.8907192460387,2075
958.0994409110671,1963
960.3075663553858,2002
962.5150958076741,2008
964.7220294966913,2059
966.928367651274,1980
969.1341105003388,1933
971.3392582728806,1958
973.5438111979742,1984
975.747769504772,1980
977.9511334225061,1920
980.153903180487,1930
982.3560790081052,1900
984.5576611348289,1944
986.7586497902058,1837
988.9590452038618,1903
991.158847605503,1871
993.3580572249133,1943
995.5566742919558,1934
997.7546990365728,1955
999.952131688785,1832
1002.1489724786926,1761
1004.3452216364743,1814
1006.5408793923874,1744
1008.7359459767691,1761
1010.9304216200343,1724
1013.1243065526781,1685
1015.3176010052733,1688
1017.510305208472,1653
1019.7024193930064,1699
1021.8939437896848,1706
1024.0848786293977,1679
1026.2752241431122,1717
1028.4649805618747,1679
1030.6541481168115,1690
1032.842727039127,1692
1035.0307175601051,1705
1037.2181199111074,1661
1039.4049343235752,1664
1041.591161029029,1650
1043.7768002590683,1594
1045.9618522453698,1587
1048.1463172196918,1576
1050.3301954138697,1660
1052.513487059818,1715
1054.69619238953,1637
1056.8783116350783,1687
1059.0598450286152,1641
1061.2407928023704,1651
1063.4211551886528,1606
1065.6009324198508,1561
1067.780124728432,1655
1069.9587323469414,1647
1072.1367555080046,1606
1074.314194444325,1664
1076.4910493886855,1693
1078.667320573947,1623
1080.843008233051,1615
1083.0181125990161,1583
1085.1926339049414,1638
1087.3665723840027,1657
1089.5399282694575,1612
1091.7127017946405,1584
1093.8848931929647,1628
1096.0565026979243,1585
1098.2275305430899,1543
1100.3979769621128,1556
1102.567842188722,1586
1104.737126456726,1556
1106.9058300000124,1530
1109.0739530525475,1596
1111.2414958483764,1576
1113.4084586216231,1584
1115.5748416064907,1557
1117.7406450372605,1532
1119.9058691482942,1544
1122.0705141740304,1567
1124.2345803489884,1578
1126.3980679077658,1580
1128.5609770850388,1575
1130.7233081155623,1537
1132.8850612341707,1552
1135.0462366757774,1608
1137.2068346753745,1537
1139.3668554680326,1552
1141.526299288901,1504
1143.68516637321,1512
1145.8434569562655,1508
1148.001171273455,1485
1150.158309560244,1444
1152.3148720521767,1528
1154.470858984876,1539
1156.626270594044,1508
1158.7811071154629,1504
1160.9353687849912,1497
1163.089055838569,1542
1165.242168512213,1559
1167.3947070420209,1520
1169.5466716641677,1436
1171.6980626149075,1453
1173.8488801305748,1484
1175.9991244475814,1503
1178.1487958024186,1558
1180.2978944316555,1585
1182.4464205719428,1548
1184.5943744600072,1527
1186.7417563326567,1486
1188.8885664267755,1498
1191.0348049793297,1498
1193.1804722273619,1469
1195.325568407995,1543
1197.4700937584303,1429
1199.614048515948,1454
1201.7574329179074,1534
1203.900247201746,1469
1206.042491604982,1487
1208.1841663652099,1506
1210.3252717201053,1485
1212.465807907422,1517
1214.6057751649923,1431
1216.7451737307279,1488
1218.8840038426192,1435
1221.0222657387353,1457
1223.1599596572241,1454
1225.2970858363137,1505
1227.4336445143094,1536
1229.5696359295966,1536
1231.705060320639,1493
1233.8399179259786,1550
1235.9742089842384,1573
1238.107933734118,1473
1240.2410924143974,1521
1242.373685263935,1630
1244.5057125216676,1604
1246.6371744266116,1549
1248.7680712178621,1596
1250.898403134593,1574
1253.028170416058,1544
1255.1573733015875,1574
1257.2860120305932,1511
1259.4140868425648,1534
1261.54159797707,1550
1263.6685456737569,1570
1265.7949301723515,1618
1267.9207517126597,1564
1270.046010534565,1613
1272.1707068780306,1569
1274.2948409830983,1630
1276.4184130898889,1580
1278.541423438603,1566
1280.6638722695184,1610
1282.785759822993,1623
1284.9070863394636,1573
1287.0278520594447,1632
1289.1480572235314,1638
1291.2677020723963,1618
1293.3867868467923,1627
1295.5053117875495,1595
1297.623277135579,1647
1299.740683131868,1671
1301.8575300174857,1643
1303.973818033578,1706
1306.0895474213703,1737
1308.2047184221678,1667
1310.3193312773528,1724
1312.4333862283888,1686
1314.5468835168163,1624
1316.659823384255,1641
1318.7722060724045,1634
1320.8840318230418,1677
1322.9953008780249,1629
1325.1060134792888,1651
1327.2161698688478,1636
1329.3257702887959,1689
1331.4348149813054,1627
1333.5433041886276,1699
1335.6512381530933,1646
1337.7586171171101,1573
1339.8654413231675,1660
1341.9717110138317,1638
1344.0774264317488,1667
1346.1825878196432,1575
1348.2871954203192,1626
1350.3912494766587,1600
1352.4947502316231,1596
1354.5976979282532,1618
1356.7000928096686,1659
1358.8019351190665,1684
1360.9032250997243,1665
1363.0039629949988,1625
1365.1041490483235,1618
1367.2037835032133,1596
1369.3028666032606,1607
1371.401398592137,1652
1373.4993797135926,1618
1375.5968102114575,1674
1377.6936903296396,1640
1379.7900203121262,1671
1381.8858004029835,1619
1383.9810308463561,1560
1386.075711886469,1618
1388.1698437676241,1619
1390.2634267342032,1620
1392.356461030667,1678
1394.4489469015557,1676
1396.5408845914872,1650
1398.6322743451592,1663
1400.7231164073469,1661
1402.813411022907,1684
1404.903158436773,1633
1406.9923588939578,1682
1409.0810126395531,1689
1411.1691199187303,1672
1413.2566809767386,1680
1415.343696058907,1672
1417.4301654106425,1654
1419.5160892774315,1703
1421.6014679048399,1724
1423.6863015385125,1693
1425.7705904241707,1723
1427.8543348076178,1773
1429.9375349347342,1756
1432.0201910514802,1824
1434.102303403894,1739
1436.1838722380944,1789
1438.2648978002767,1810
1440.3453803367174,1752
1442.4253200937692,1842
1444.5047173178677,1812
1446.5835722555234,1767
1448.6618851533285,1854
1450.739656257952,1826
1452.8168858161434,1830
1454.8935740747306,1824
1456.96972128062,1856
1459.045327680797,1931
1461.120393522327,1961
1463.1949190523528,1919
1465.2689045180973,1998
1467.3423501668608,1927
1469.415256246024,1953
1471.4876230030463,2071
1473.559450685465,2067
1475.6307395408976,2148
1477.7014898170391,2108
1479.771701761665,2050
1481.8413756226287,2146
1483.9105116478618,2165
1485.9791100853772,2133
1488.0471711832643,2143
1490.1146951896926,2178
1492.1816823529098,2222
1494.2481329212433,2208
1496.3140471430984,2236
1498.3794252669609,2287
1500.4442675413939,2244
1502.5085742150404,2333
1504.572345536622,2397
1506.6355817549388,2387
1508.6982831188702,2374
1510.7604498773744,2393
1512.8220822794883,2396
1514.8831805743293,2527
1516.9437450110909,2423
1519.003775839048,2517
1521.0632733075522,2539
1523.1222376660367,2500
1525.1806691640113,2573
1527.2385680510652,2563
1529.2959345768668,2644
1531.3527689911643,2691
1533.4090715437833,2682
1535.4648424846291,2771
1537.5200820636855,2734
1539.5747905310159,2905
1541.6289681367616,2765
1543.6826151311434,2992
1545.7357317644614,2920
1547.7883182870937,2918
1549.8403749494987,2941
1551.8919020022113,2987
1553.9428996958477,3080
1555.9933682811015,3074
1558.0433080087469,3189
1560.0927191296346,3280
1562.1416018946961,3285
1564.1899565549415,3249
1566.2377833614592,3326
1568.2850825654164,3313
1570.3318544180606,3284
1572.3780991707158,3198
1574.423817074788,3139
1576.4690083817595,3051
1578.5136733431923,2945
1580.5578122107272,2850
1582.601425236085,2739
1584.6445126710646,2650
1586.6870747675434,2498
1588.7291117774776,2420
1590.7706239529034,2353
1592.8116115459347,2258
1594.8520748087658,2256
1596.8920139936686,2113
1598.9314293529933,2108
1600.9703211391711,2041
1603.008689604711,2010
1605.0465350022005,1969
1607.0838575843068,1966
1609.1206576037753,1884
1611.1569353134305,1911
1613.1926909661765,1848
1615.2279248149953,1818
1617.2626371129481,1793
1619.2968281131757,1803
1621.3304980688963,1799
1623.3636472334088,1738
1625.39627586009,1760
1627.428384202396,1801
1629.459972513861,1687
1631.4910410480993,1660
1633.5215900588028,1716
1635.551619799744,1688
1637.5811305247717,1685
1639.6101224878166,1643
1641.6385959428862,1704
1643.6665511440683,1686
1645.693988345528,1645
1647.7209078015112,1660
1649.7473097663405,1645
1651.7731944944203,1679
1653.7985622402307,1622
1655.823413258333,1642
1657.847747803366,1638
1659.8715661300494,1658
1661.8948684931793,1613
1663.9176551476316,1638
1665.9399263483624,1667
1667.9616823504057,1651
1669.982923408873,1630
1672.0036497789574,1606
1674.0238617159293,1611
1676.043559475138,1611
1678.0627433120121,1568
1680.081413482059,1604
1682.0995702408654,1634
1684.117213844096,1664
1686.134344547495,1639
1688.1509626068864,1698
1690.1670682781705,1586
1692.182661817329,1577
1694.1977434804217,1590
1696.2123135235875,1580
1698.226372203043,1671
1700.2399197750851,1717
1702.2529564960905,1642
1704.2654826225112,1629
1706.277498410882,1645
1708.2890041178139,1629
1710.2999999999988,1709
1712.3104863142066,1590
1714.3204633172854,1582
1716.329931266163,1614
1718.3388904178469,1662
1720.3473410294214,1620
1722.3552833580516,1632
1724.3627176609807,1653
1726.3696441955308,1613
1728.3760632191033,1640
1730.3819749891782,1570
1732.3873797633146,1640
1734.3922777991502,1617
1736.3966693544012,1599
1738.4005546868639,1570
1740.4039340544127,1501
1742.406807715001,1577
1744.4091759266616,1647
1746.4110389475054,1595
1748.4123970357223,1582
1750.413250449582,1565
1752.4135994474318,1584
1754.4134442876993,1624
1756.4127852288902,1556
1758.4116225295893,1513
1760.4099564484595,1557
1762.407787244244,1543
1764.405115175764,1569
1766.4019405019203,1648
1768.3982634816916,1614
1770.3940843741357,1526
1772.3894034383907,1547
1774.3842209336717,1537
1776.378537119274,1582
1778.372352254571,1530
1780.3656665990156,1559
1782.3584804121397,1525
1784.3507939535534,1604
1786.3426074829463,1510
1788.3339212600863,1502
1790.3247355448211,1607
1792.3150505970766,1536
1794.3048666768573,1607
1796.2941840442477,1524
1798.2830029594106,1511
1800.2713236825884,1579
1802.2591464741004,1514
1804.2464715943465,1567
1806.2332993038058,1534
1808.2196298630352,1511
1810.2054635326708,1531
1812.190800573428,1531
1814.175641246101,1551
1816.1599858115628,1528
1818.1438345307652,1594
1820.127187664738,1610
1822.1100454745924,1551
1824.092408221516,1512
1826.0742761667766,1543
1828.055649571721,1577
1830.0365286977735,1539
1832.0169138064398,1564
1833.9968051593014,1591
1835.9762030180214,1617
1837.9551076443408,1570
1839.9335193000788,1563
1841.9114382471344,1524
1843.888864747485,1553
1845.8657990631878,1497
1847.842241456378,1503
1849.8181921892697,1497
1851.7936515241558,1498
1853.7686197234098,1561
1855.7430970494815,1545
1857.7170837649014,1528
1859.6905801322787,1566
1861.6635864143004,1515
1863.6361028737338,1555
1865.608129773424,1585
1867.5796673762961,1522
1869.5507159453537,1552
1871.521275743678,1521
1873.4913470344313,1515
1875.4609300808534,1485
1877.4300251462632,1457
1879.3986324940588,1568
1881.366752387717,1532
1883.3343850907936,1550
1885.3015308669228,1564
1887.268189979819,1527
1889.2343626932739,1512
1891.2000492711595,1530
1893.1652499774254,1508
1895.1299650761011,1509
1897.0941948312952,1488
1899.0579395071945,1499
1901.0211993680641,1540
1902.98397467825,1538
1904.9462657021745,1517
1906.9080727043415,1549
1908.869395949332,1600
1910.8302357018065,1551
1912.790592226504,1553
1914.7504657882428,1533
1916.7098566519212,1540
1918.6687650825133,1491
1920.6271913450764,1465
1922.5851357047422,1528
1924.5425984267245,1548
1926.499579776314,1551
1928.4560800188833,1553
1930.4120994198802,1507
1932.367638244833,1496
1934.32269675935,1523
1936.2772752291175,1499
1938.231373919899,1577
1940.1849930975404,1555
1942.1381330279637,1523
1944.0907939771696,1536
1946.0429762112412,1493
1947.9946799963363,1514
1949.9459055986945,1479
1951.896653284633,1557
1953.8469233205478,1484
1955.7967159729142,1438
1957.7460315082863,1487
1959.6948701932974,1430
1961.6432322946594,1502
1963.5911180791632,1485
1965.5385278136787,1479
1967.4854617651545,1541
1969.4319202006182,1463
1971.377903387176,1468
1973.3234115920136,1541
1975.268445082395,1444
1977.2130041256642,1524
1979.1570889892423,1466
1981.1006999406304,1469
1983.04383724741,1506
1984.986501177238,1493
1986.928691997853,1493
1988.8704099770712,1430
1990.811655382789,1536
1992.7524284829801,1560
1994.692729545698,1456
1996.6325588390755,1575
1998.5719166313224,1506
2000.5108031907307,1499
2002.4492187856677,1532
2004.387163684583,1462
2006.3246381560011,1514
2008.2616424685298,1464
2010.1981768908527,1558
2012.1342416917332,1523
2014.069837140014,1520
2016.0049635046162,1537
2017.9396210545406,1488
2019.8738100588666,1476
2021.8075307867502,1443
2023.740783507431,1470
2025.6735684902228,1496
2027.6058860045214,1453
2029.5377363198004,1487
2031.4691197056118,1452
2033.4000364315875,1487
2035.3304867674374,1488
2037.260470982952,1495
2039.189989347998,1423
2041.1190421325232,1459
2043.047629606554,1491
2044.9757520401945,1437
2046.9034097036288,1472
2048.8306028671195,1408
2050.7573318010086,1471
2052.683596775716,1443
2054.609398061742,1409
2056.5347359296647,1473
2058.4596106501403,1453
2060.384022493906,1453
2062.3079717317764,1436
2064.231458634646,1515
2066.1544834734873,1447
2068.077046519352,1427
2069.99914804337,1424
2071.9207883167524,1457
2073.8419676107865,1430
2075.7626861968406,1413
2077.6829443463607,1461
2079.6027423308715,1415
2081.522080421977,1438
2083.440958891362,1426
2085.359378010786,1400
2087.2773380520907,1405
2089.194839287196,1450
2091.111881988101,1468
2093.0284664268825,1431
2094.9445928756973,1466
2096.86026160678,1396
2098.775472892446,1508
2100.690227005088,1451
2102.604524217178,1520
2104.5183648012676,1426
2106.431749029985,1480
2108.34467717604,1463
2110.2571495122206,1468
2112.169166311393,1522
2114.080727846503,1434
2115.9918343905747,1444
2117.902486216711,1417
2119.8126835980956,1488
2121.722426807987,1501
2123.6317161197285,1461
2125.5405518067364,1501
2127.448934142509,1485
2129.356863400624,1465
2131.264339854737,1526
2133.1713637785815,1485
2135.077935445972,1445
2136.9840551308002,1491
2138.889723107037,1495
2140.7949396487334,1456
2142.699705030018,1497
2144.6040195250994,1564
2146.507883408264,1549
2148.4112969538774,1496
2150.3142604363848,1511
2152.2167741303097,1505
2154.1188383102535,1523
2156.0204532508997,1563
2157.9216192270064,1531
2159.822336513414,1545
2161.7226053850413,1524
2163.622426116884,1563
2165.5217989840185,1516
2167.4207242616,1570
2169.319202224862,1567
2171.2172331491165,1582
2173.1148173097563,1556
2175.0119549822507,1498
2176.90864644215,1604
2178.8048919650823,1621
2180.7006918267534,1531
2182.596046302952,1630
2184.4909556695407,1568
2186.3854202024645,1614
2188.279440177746,1559
2190.173015871487,1567
2192.066147559868,1587
2193.958835519149,1596
2195.851080025667,1511
2197.7428813558417,1546
2199.6342397861667,1586
2201.5251555932186,1535
2203.415629053651,1615
2205.3056604441986,1550
2207.19525004167,1624
2209.084398122958,1638
2210.9731049650327,1600
2212.861370844941,1612
2214.749196039812,1611
2216.636580826851,1610
2218.523525483344,1622
2220.410030286655,1617
2222.296095514226,1607
2224.1817214435805,1569
2226.066908352319,1606
2227.951656518121,1608
2229.835966218746,1590
2231.71983773203,1603
2233.6032713358913,1552
2235.486267308324,1629
2237.3688259274036,1598
2239.2509474712824,1554
2241.132632218193,1663
2243.013880446447,1617
2244.8946924344323,1593
2246.7750684606203,1600
2248.6550088035574,1636
2250.534513741871,1597
2252.413583554265,1564
2254.292218519526,1543
2256.170418916517,1578
2258.0481850241786,1568
2259.925517121534,1574
2261.8024154876825,1577
2263.678880401803,1598
2265.5549121431536,1631
2267.430510991071,1640
2269.305677224971,1640
2271.180411124348,1633
2273.0547129687766,1617
2274.9285830379076,1512
2276.8020216114737,1559
2278.6750289692845,1517
2280.5476053912294,1535
2282.4197511572766,1625
2284.2914665474727,1631
2286.162751841943,1680
2288.0336073208937,1658
2289.904033264608,1658
2291.774029953448,1608
2293.6435976678554,1639
2295.5127366883517,1597
2297.381447295534,1579
2299.2497297700825,1496
2301.1175843927526,1483
2302.9850114443825,1412
2304.852011205885,1464
2306.7185839582553,1377
2308.5847299825664,1414
2310.4504495599676,1385
2312.3157429716925,1319
2314.1806104990483,1332
2316.0450524234247,1320
2317.9090690262888,1353
2319.772660589186,1305
2321.635827393742,1304
2323.498569721661,1345
2325.3608878547248,1339
2327.2227820747967,1311
2329.0842526638157,1306
2330.945299903803,1363
2332.805924076857,1293
2334.6661254651535,1328
2336.525904350951,1312
2338.3852610165827,1334
2340.244195744464,1313
2342.102708817088,1300
2343.9608005170253,1337
2345.8184711269287,1323
2347.675720929526,1334
2349.532550207628,1325
2351.38895924412,1286
2353.24494832197,1302
2355.100517724223,1336
2356.955667734004,1293
2358.810398634514,1328
2360.664710709037,1287
2362.5186042409337,1323
2364.3720795136437,1313
2366.225136810686,1391
2368.0777764156583,1380
2369.929998612237,1389
2371.7818036841777,1353
2373.633191915315,1303
2375.484163589562,1346
2377.3347189909114,1304
2379.184858403434,1247
2381.03458211128,1323
2382.8838903986775,1334
2384.732783549936,1323
2386.5812618494406,1322
2388.4293255816588,1404
2390.2769750311327,1366
2392.1242104824883,1362
2393.971032220427,1336
2395.8174405297295,1378
2397.6634356952563,1380
2399.509018001947,1373
2401.3541877348193,1352
2403.1989451789705,1343
2405.043290619576,1403
2406.8872243418905,1335
2408.730746631247,1365
2410.5738577730594,1337
2412.4165580528183,1321
2414.258847756095,1337
2416.100727168537,1331
2417.9421965758734,1343
2419.783256263912,1323
2421.623906518538,1392
2423.4641476257157,1392
2425.303979871491,1330
2427.143403541984,1332
2428.9824189233977,1297
2430.821026302012,1358
2432.6592259641866,1300
2434.497018196361,1394
2436.33440328505,1353
2438.171381516851,1338
2440.00795317844,1299
2441.844118556569,1378
2443.6798779380724,1397
2445.5152316098606,1373
2447.3501798589255,1319
2449.1847229723357,1343
2451.0188612372403,1367
2452.8525949408663,1370
2454.6859243705203,1347
2456.518849813587,1390
2458.3513715575314,1380
2460.183489889895,1375
2462.015205098301,1342
2463.8465174704493,1359
2465.67742729412,1325
2467.5079348571717,1360
2469.338040447542,1406
2471.1677443532476,1389
2472.9970468623833,1363
2474.825948263123,1384
2476.6544488437207,1366
2478.482548892508,1385
2480.310248697896,1374
2482.137548548374,1311
2483.9644487325118,1387
2485.790949538956,1359
2487.617051256433,1411
2489.44275417375,1350
2491.26805857979,1361
2493.0929647635157,1407
2494.917473013971,1352
2496.741583620276,1383
2498.5652968716304,1406
2500.3886130573137,1329
2502.2115324666834,1375
2504.0340553891765,1378
2505.856182114308,1409
2507.6779129316733,1427
2509.499248130945,1419
2511.3201880018764,1406
2513.140732834298,1415
2514.9608829181198,1445
2516.780638543331,1412
2518.6,1417
2520.418967578273,1411
2522.237541568376,1403
2524.0557222606144,1440
2525.8735099453706,1369
2527.6909049131086,1370
2529.507907454368,1419
2531.32451785977,1486
2533.140736420014,1397
2534.9565634258774,1446
2536.771999168218,1477
2538.5870439379714,1475
2540.4016980261526,1471
2542.2159617238544,1476
2544.02983532225,1487
2545.8433191125914,1452
2547.656413386209,1520
2549.4691184345115,1432
2551.2814345489874,1485
2553.093362021204,1584
2554.904901142808,1519
2556.716052205523,1497
2558.526815501153,1491
2560.3371913215824,1538
2562.147179958771,1508
2563.956781704761,1567
2565.7659968516705,1532
2567.5748256916986,1501
2569.3832685171224,1568
2571.1913256202984,1606
2572.9989972936614,1568
2574.806283829725,1612
2576.613185521084,1650
2578.4197026604074,1618
2580.2258355404483,1637
2582.031584454035,1583
2583.836949694077,1605
2585.6419315535613,1639
2587.4465303255533,1664
2589.2507463032002,1633
2591.0545797797245,1640
2592.8580310484303,1665
2594.6611004026995,1688
2596.463788135992,1690
2598.266094541849,1712
2600.0680199138874,1652
2601.869564545807,1709
2603.670728731383,1658
2605.4715127644704,1684
2607.2719169390048,1760
2609.071941548998,1716
2610.8715868885433,1683
2612.670853251811,1692
2614.469740933052,1676
2616.268250226594,1654
2618.0663814268455,1761
2619.864134828292,1743
2621.6615107255006,1659
2623.458509413115,1749
2625.2551311858597,1678
2627.0513763385347,1637
2628.8472451660223,1566
2630.6427379632833,1591
2632.4378550253564,1641
2634.232596647359,1590
2636.026963124488,1596
2637.8209547520187,1551
2639.6145718253065,1576
2641.407814639785,1570
2643.200683490966,1587
2644.9931786744414,1568
2646.7853004858807,1583
2648.577049221034,1566
2650.3684251757277,1505
2652.1594286458712,1499
2653.9500599274484,1500
2655.740319316525,1531
2657.5302071092437,1500
2659.3197236018286,1510
2661.10886909058,1485
2662.8976438718782,1469
2664.686048242183,1527
2666.4740824980327,1466
2668.2617469360443,1516
2670.0490418529134,1423
2671.8359675454153,1485
2673.622524310403,1421
2675.408712444811,1398
2677.1945322456495,1493
2678.979984010009,1449
2680.76506803506,1415
2682.5497846180497,1475
2684.334134056306,1408
2686.1181166472343,1443
2687.9017326883213,1438
2689.6849824771293,1397
2691.4678663113013,1402
2693.2503844885596,1425
2695.032537306705,1428
2696.8143250636167,1389
2698.5957480572542,1397
2700.3768065856534,1372
2702.1575009469316,1381
2703.937831439283,1361
2705.717798360982,1381
2707.4974020103837,1379
2709.276642685917,1375
2711.055520686095,1358
2712.834036309506,1365
2714.612189854819,1402
2716.389981620782,1407
2718.1674119062204,1366
2719.944481010041,1316
2721.721189231226,1317
2723.4975368688415,1334
2725.273524222027,1324
2727.0491515900053,1384
2728.824419272075,1316
2730.5993275676146,1298
2732.3738767760838,1305
2734.148067197016,1330
2735.921899130031,1361
2737.6953728748194,1336
2739.468488731156,1329
2741.2412469988926,1331
2743.0136479779617,1332
2744.785691968372,1367
2746.5573792702116,1300
2748.3287101836504,1300
2750.099685008934,1295
2751.870304046388,1326
2753.640567596418,1322
2755.4104759595057,1292
2757.1800294362156,1294
2758.949228327187,1335
2760.7180729331412,1310
2762.486563554877,1341
2764.254700493272,1306
2766.022484049284,1295
2767.789914523947,1313
2769.5569922183786,1372
2771.3237174337705,1358
2773.090090471394,1331
2774.8561116326036,1305
2776.6217812188274,1360
2778.3870995315756,1322
2780.1520668724356,1346
2781.9166835430747,1331
2783.6809498452394,1342
2785.444866080754,1306
2787.2084325515225,1368
2788.971649559527,1302
2790.73451740683,1288
2792.4970363955713,1329
2794.2592068279705,1331
2796.0210290063264,1354
2797.7825032330147,1323
2799.543629810493,1288
2801.304409041296,1349
2803.0648412280366,1317
2804.8249266734088,1362
2806.5846656801846,1357
2808.344058551212,1317
2810.1031055894246,1387
2811.8618070978273,1316
2813.6201633795085,1336
2815.378174737636,1301
2817.1358414754536,1364
2818.893163896285,1332
2820.6501423035334,1352
2822.4067770006814,1379
2824.1630682912883,1345
2825.9190164789957,1286
2827.6746218675207,1356
2829.429884760661,1335
2831.184805462294,1382
2832.9393842763743,1336
2834.693621506936,1316
2836.4475174580916,1337
2838.201072434034,1296
2839.954286739034,1346
2841.707160677441,1358
2843.459694553685,1320
2845.2118886722724,1358
2846.96374333779,1328
2848.7152588549034,1301
2850.4664355283567,1349
2852.217273662973,1331
2853.9677735636546,1304
2855.7179355353833,1331
2857.4677598832186,1369
2859.217246912299,1400
2860.9663969278427,1342
2862.715210235146,1320
2864.4636871395846,1287
2866.211827946614,1344
2867.9596329617652,1396
2869.7071024906536,1247
2871.4542368389684,1329
2873.20103631248,1293
2874.947501217038,1283
2876.6936318585695,1318
2878.4394285430812,1329
2880.1848915766604,1328
2881.9300212654707,1385
2883.6748179157553,1372
2885.4192818338374,1319
2887.1634133261173,1320
2888.907212699077,1357
2890.6506802592744,1305
2892.393816313348,1350
2894.1366211680142,1301
2895.8790951300693,1312
2897.621238506388,1325
2899.363051603925,1294
2901.1045347297118,1354
2902.8456881908596,1331
2904.58651229456,1266
2906.327007348081,1334
2908.067173658772,1331
2909.8070115340597,1336
2911.5465212814497,1324
2913.285703208527,1315
2915.0245576229563,1253
2916.7630848324807,1297
2918.5012851449196,1284
2920.2391588681758,1317
2921.976706310227,1268
2923.7139277791334,1275
2925.4508235830313,1316
2927.187394030137,1290
2928.923639428745,1352
2930.6595600872306,1345
2932.395156314046,1383
2934.1304284177218,1354
2935.8653767068713,1368
2937.6000014901815,1343
2939.3343030764227,1341
2941.068281774442,1333
2942.8019378931644,1381
2944.5352717415976,1414
2946.2682836288236,1332
2948.0009738640065,1338
2949.7333427563885,1318
2951.465390615289,1370
2953.1971177501086,1333
2954.9285244703265,1410
2956.6596110855,1363
2958.3903779052657,1374
2960.1208252393385,1340
2961.8509533975125,1320
2963.5807626896617,1331
2965.3102534257378,1322
2967.0394259157715,1351
2968.768280469873,1387
2970.496817398232,1369
2972.2250370111146,1402
2973.952939618869,1341
2975.6805255319196,1320
2977.4077950607707,1319
2979.134748516006,1360
2980.861386208289,1365
2982.587708448359,1315
2984.313715547037,1348
2986.039407815222,1404
2987.764785563891,1410
2989.489849104102,1338
2991.2145987469908,1268
2992.9390348037705,1277
2994.6631575857346,1344
2996.3869674042576,1361
2998.1104645707887,1322
2999.83364939686,1303
3001.5565221940783,1316
3003.2790832741334,1376
3005.0013329487924,1304
3006.7232715298996,1303
3008.4448993293804,1245
3010.166216659239,1309
3011.887223831558,1288
3013.607921158498,1311
3015.3283089522993,1332
3017.0483875252826,1286
3018.7681571898443,1320
3020.4876182584626,1319
3022.2067710436927,1347
3023.9256158581707,1268
3025.644153014609,1353
3027.362382825801,1357
3029.0803056046193,1331
3030.797921664012,1313
3032.5152313170106,1318
3034.2322348767225,1332
3035.9489326563353,1307
3037.665324969115,1310
3039.3814121284063,1335
3041.097194447633,1298
3042.812672240299,1330
3044.5278458199855,1314
3046.2427155003525,1310
3047.9572815951406,1367
3049.671544418167,1304
3051.38550428333,1314
3053.0991615046073,1333
3054.812516396051,1332
3056.5255692717974,1316
3058.2383204460575,1267
3059.9507702331257,1273
3061.662918947372,1322
3063.3747669032446,1280
3065.0863144152736,1293
3066.7975617980674,1350
3068.508509366309,1327
3070.219157434767,1276
3071.9295063182844,1325
3073.639556331785,1295
3075.3493077902704,1328
3077.058761008821,1316
3078.7679163025964,1322
3080.476773986837,1343
3082.1853343768594,1362
3083.89359778806,1333
3085.6015645359153,1302
3087.3092349359786,1305
3089.016609303884,1355
3090.7236879553434,1317
3092.4304712061476,1357
3094.136959372166,1374
3095.843152769349,1269
3097.5490517137237,1288
3099.2546565213966,1276
3100.959967508554,1297
3102.66498499146,1309
3104.3697092864577,1359
3106.0741407099695,1305
3107.778279578498,1283
3109.482126208622,1373
3111.1856809170004,1387
3112.8889440203716,1363
3114.5919158355528,1359
3116.294596679439,1311
3117.996986869006,1345
3119.6990867213062,1378
3121.4008965534726,1334
3123.102416682717,1381
3124.803647426329,1364
3126.5045891016784,1310
3128.205242026213,1314
3129.90560651746,1305
3131.605682893025,1323
3133.3054714705922,1344
3135.0049725679282,1336
3136.7041865028714,1287
3138.4031135933465,1332
3140.101754157353,1369
3141.800108512971,1362
3143.498176978357,1296
3145.1959598717494,1333
3146.8934575114636,1347
3148.5906702158954,1317
3150.2875983035183,1308
3151.9842420928853,1343
3153.680601902627,1310
3155.376678051456,1305
3157.07247085816,1268
3158.767980641609,1337
3160.463207720748,1263
3162.158152414606,1374
3163.8528150422862,1340
3165.5471959229726,1353
3167.2412953759303,1373
3168.9351137204976,1328
3170.628651276098,1318
3172.3219083622307,1306
3174.014885298474,1359
3175.707582404485,1324
3177.4000000000005,1331
3179.092138404835,1301
3180.7839979388846,1313
3182.47557892212,1330
3184.166881674594,1319
3185.8579065164386,1280
3187.5486537678626,1336
3189.2391237491547,1318
3190.9293167806827,1316
3192.6192331828934,1308
3194.3088732763117,1318
3195.998237381542,1293
3197.687325819268,1306
3199.376138910251,1304
3201.064676975334,1337
3202.7529403354347,1342
3204.4409293115523,1274
3206.1286442247647,1272
3207.816085396229,1288
3209.5032531471825,1292
3211.190147798936,1318
3212.8767696728846,1321
3214.5631190905015,1297
3216.2491963733373,1305
3217.9350018430214,1264
3219.6205358212637,1240
3221.305798629851,1241
3222.990790590651,1276
3224.6755120256103,1288
3226.359963256751,1224
3228.0441446061795,1259
3229.7280563960758,1278
3231.411698948703,1268
3233.0950725863995,1285
3234.778177631587,1254
3236.461014406761,1316
3238.1435832345005,1342
3239.8258844374595,1298
3241.507918338374,1286
3243.1896852600576,1274
3244.8711855254023,1296
3246.552419457381,1276
3248.233387379042,1314
3249.914089613516,1357
3251.59452648401,1329
3253.274698313813,1345
3254.95460542629,1298
3256.6342481448855,1315
3258.313626793125,1304
3259.9927416946084,1281
3261.6715931730196,1314
3263.3501815521176,1221
3265.0285071557437,1258
3266.706570307815,1265
3268.3843713323286,1276
3270.0619105533615,1231
3271.739188295068,1285
3273.4162048816834,1287
3275.0929606375184,1266
3276.769455886966,1285
3278.445690954498,1310
3280.1216661646613,1276
3281.797381842087,1298
3283.4728383114807,1333
3285.1480358976296,1344
3286.8229749253996,1294
3288.4976557197333,1282
3290.172078605655,1291
3291.846243908266,1298
3293.5201519527463,1283
3295.193803064357,1278
3296.8671975684374,1326
3298.5403357904024,1371
3300.21321805575,1309
3301.8858446900567,1300
3303.558216018975,1289
3305.23033236824,1303
3306.9021940636603,1302
3308.57380143113,1312
3310.2451547966184,1285
3311.916254486174,1287
3313.5871008259246,1378
3315.2576941420766,1297
3316.9280347609147,1243
3318.5981230088046,1281
3320.2679592121895,1270
3321.9375436975924,1313
3323.606876791612,1335
3325.27595882093,1271
3326.944790112305,1276
3328.6133709925753,1280
3330.2817017886573,1298
3331.949782827547,1328
3333.617614436319,1348
3335.2851969421245,1285
3336.952530672199,1325
3338.619615953853,1312
3340.286453114475,1300
3341.9530424815357,1265
3343.619384382583,1267
3345.2854791452437,1272
3346.951327097224,1300
3348.6169285663073,1306
3350.2822838803577,1340
3351.947393367319,1268
3353.61225735521,1307
3355.2768761721345,1319
3356.9412501462693,1290
3358.605379605873,1278
3360.2692648792827,1307
3361.9329062949146,1323
3363.596304181263,1266
