CollectionTime,7/10/2024 4:35:05 PM
ExposureUsed,3
CalibratedSpectrum
-962.7078968117929,524
-959.9714848408522,535
-957.2358232597828,567
-954.5009119013725,562
-951.7667505983302,542
-949.0333391832855,558
-946.3006774887896,554
-943.5687653473143,543
-940.837602591253,541
-938.1071890529199,546
-935.3775245645503,549
-932.6486089583007,550
-929.9204420662485,544
-927.1930237203925,583
-924.4663537526524,554
-921.7404319948689,563
-919.0152582788041,582
-916.2908324361409,617
-913.5671542984834,565
-910.8442236973568,563
-908.1220404642074,543
-905.4006044304027,565
-902.679915427231,600
-899.959973285902,553
-897.2407778375464,563
-894.5223289132158,547
-891.8046263438832,550
-889.0876699604426,551
-886.3714595937089,557
-883.6559950744183,562
-880.9412762332282,551
-878.2273029007168,562
-875.5140749073835,523
-872.8015920836489,537
-870.0898542598545,540
-867.3788612662631,547
-864.6686129330585,558
-861.9591090903457,548
-859.2503495681506,593
-856.5423341964203,549
-853.8350628050229,551
-851.1285352237478,543
-848.4227512823054,539
-845.7177108103272,551
-843.0134136373656,573
-840.3098595928943,579
-837.6070485063082,608
-834.9049802069229,579
-832.2036545239757,538
-829.5030712866244,534
-826.8032303239481,549
-824.1041314649472,547
-821.4057745385428,538
-818.7081593735775,545
-816.0112857988148,551
-813.3151536429393,534
-810.6197627345566,581
-807.9251129021936,551
-805.2312039742981,583
-802.5380357792392,558
-799.8456081453069,590
-797.1539209007124,588
-794.462973873588,580
-791.772766891987,612
-789.083299783884,587
-786.3945723771743,565
-783.7065844996748,565
-781.0193359791231,539
-778.3328266431781,556
-775.6470563194197,545
-772.9620248353489,562
-770.2777320183878,553
-767.5941776958798,569
-764.9113616950891,584
-762.2292838432011,587
-759.5479439673222,562
-756.8673418944801,592
-754.1874774516235,559
-751.5083504656222,581
-748.8299607632671,621
-746.15230817127,614
-743.475392516264,586
-740.7992136248035,608
-738.1237713233636,598
-735.4490654383407,599
-732.7750957960521,597
-730.1018622227365,591
-727.4293645445534,628
-724.7576025875837,596
-722.0865761778291,596
-719.4162851412126,600
-716.7467293035781,627
-714.0779084906909,644
-711.409822528237,640
-708.7424712418238,625
-706.0758544569796,579
-703.4099719991541,621
-700.7448236937178,644
-698.0804093659622,654
-695.4167288411002,616
-692.7537819442656,600
-690.0915685005134,598
-687.4300883348199,601
-684.7693412720819,609
-682.1093271371178,587
-679.4500457546669,610
-676.7914969493897,623
-674.1336805458676,641
-671.4765963686034,605
-668.8202442420206,654
-666.1646239904642,647
-663.5097354382001,628
-660.8555784094151,625
-658.2021527282176,620
-655.5494582186366,623
-652.8974947046223,660
-650.2462620100463,647
-647.5957599587009,639
-644.9459883742998,641
-642.2969470804776,633
-639.6486359007902,611
-637.0010546587141,710
-634.3542031776476,662
-631.7080812809096,650
-629.0626887917401,661
-626.4180255333008,670
-623.7740913286734,690
-621.1308860008619,733
-618.4884093727904,707
-615.8466612673046,687
-613.2056415071715,700
-610.5653499150785,656
-607.9257863136347,688
-605.28695052537,700
-602.6488423727357,696
-600.0114616781036,667
-597.3748082637674,624
-594.7388819519412,689
-592.1036825647604,685
-589.4692099242818,740
-586.8354638524829,772
-584.2024441712624,721
-581.5701507024403,728
-578.9385832677575,687
-576.3077416888759,694
-573.6776257873787,708
-571.0482353847704,708
-568.4195703024757,710
-565.7916303618415,741
-563.164415384135,710
-560.5379251905453,740
-557.9121596021815,657
-555.2871184400748,748
-552.6628015251767,704
-550.0392086783606,724
-547.4163397204204,735
-544.794194472071,706
-542.1727727539491,753
-539.5520743866118,757
-536.9320991905377,795
-534.3128469861261,777
-531.6943175936979,800
-529.0765108334947,810
-526.4594265256793,810
-523.8430644903358,948
-521.2274245474689,1129
-518.612506517005,1179
-515.9983102187913,1092
-513.3848354725959,1141
-510.77208209810846,1150
-508.16004991493924,1281
-505.5487387426199,1430
-502.9381484006032,1524
-500.3282787082628,1661
-497.71912948489364,1658
-495.1107005497117,1597
-492.5029917218539,1472
-489.8960028203786,1226
-487.28973366426493,1104
-484.68418407241325,1042
-482.07935386364494,994
-479.47524285670266,932
-476.87185087025,900
-474.2691777228715,928
-471.66722323307334,925
-469.0659872192821,917
-466.4654694998459,911
-463.86566989303384,899
-461.26658821703614,862
-458.66822428996414,882
-456.07057792985,925
-453.4736489546475,886
-450.877437182231,838
-448.28194243039627,872
-445.68716451686,867
-443.09310325926003,848
-440.49975847515555,880
-437.9071299820263,873
-435.31521759727354,864
-432.72402113821954,872
-430.13354042210767,913
-427.5437752661022,966
-424.95472548728867,943
-422.36639090267386,985
-419.7787713291855,956
-417.1918665836721,948
-414.60567648290385,1024
-412.0202008435715,908
-409.4354394822874,1001
-406.8513922155845,992
-404.26805885991723,1004
-401.685439231661,935
-399.103533147112,951
-396.522340422488,954
-393.9418608739278,935
-391.3620943174908,1001
-388.7830405691583,1002
-386.2046994448317,916
-383.6270707603344,865
-381.05015433141045,842
-378.473949973725,755
-375.8984575028645,773
-373.32367673433623,759
-370.74960748356875,684
-368.1762495659117,713
-365.60360279663576,639
-363.03166699093265,566
-360.4604419639154,564
-357.8899275306178,593
-355.32012350599507,549
-352.7510297049233,544
-350.1826459421999,529
-347.61497203254316,507
-345.04800779059235,479
-342.4817530309082,506
-339.91620756797226,533
-337.35137121618743,563
-334.7872437898774,577
-332.22382510328725,540
-329.66111497058273,541
-327.09911320585127,535
-324.53781962310075,546
-321.9772340362607,547
-319.4173562591816,520
-316.8581861056348,480
-314.2997233893127,505
-311.7419679238294,484
-309.1849195227194,489
-306.62857799943856,531
-304.0729431673641,563
-301.51801483979375,552
-298.963792829947,548
-296.41027695096386,602
-293.85746701590574,688
-291.3053628377552,645
-288.7539642294155,643
-286.2032710037115,671
-283.65328297338897,607
-281.1039999511146,568
-278.5554217494762,651
-276.007548180983,643
-273.4603790580651,573
-270.9139141930734,570
-268.3681533982807,554
-265.8230964858798,562
-263.27874326798565,629
-260.7350935566336,622
-258.1921471637804,590
-255.6499039013039,608
-253.10836358100266,698
-250.56752601459698,690
-248.02739101372765,670
-245.48795838995704,694
-242.94922795476816,678
-240.41119951956557,651
-237.8738728956746,718
-235.33724789434166,747
-232.80132432673452,692
-230.2661020039418,633
-227.73158073697357,699
-225.19776033676033,712
-222.66464061415422,681
-220.1322213799284,660
-217.60050244477725,649
-215.06948361931552,662
-212.53916471408013,696
-210.00954553952818,822
-207.48062590603843,876
-204.9524056239104,779
-202.4248845033651,804
-199.8980623545441,741
-197.37193898751036,732
-194.84651421224817,769
-192.32178783866232,790
-189.79775967657952,819
-187.27442953574644,964
-184.7517972258321,1039
-182.2298625564256,951
-179.7086253370378,905
-177.18808537710026,928
-174.66824248596583,816
-172.14909647290835,812
-169.6306471471229,851
-167.11289431772548,993
-164.59583779375328,1057
-162.07947738416453,992
-159.5638128978386,981
-157.04884414357605,1079
-154.53457093009854,1120
-152.02099306604828,1056
-149.50811035998936,997
-146.99592262040665,896
-144.48442965570587,905
-141.97363127421409,979
-139.46352728417958,1099
-136.95411749377126,1128
-134.44540171107985,1027
-131.93737974411636,888
-129.43005140081357,919
-126.92341648902493,1273
-124.41747481652521,1773
-121.91222619101006,2107
-119.40767042009657,2376
-116.90380731132257,2507
-114.40063667214702,2762
-111.8981583099503,3185
-109.3963720320337,2801
-106.89527764561933,2076
-104.39487495785067,2047
-101.89516377579241,2728
-99.39614390642998,4774
-96.89781515667039,5616
-94.40017733334128,5094
-91.90323024319173,4079
-89.40697369289148,3576
-86.91140748903172,4921
-84.41653143812482,6045
-81.92234534660395,7423
-79.42884902082358,7536
-76.93604226705907,8842
-74.4439248915071,14546
-71.95249670028534,23749
-69.46175749943245,29194
-66.97170709490854,29700
-64.48234529259423,26437
-61.99367189829195,19928
-59.50568671772464,12500
-57.01838955653636,7138
-54.53178022029283,6945
-52.045858514480074,6685
-49.560624244506016,7501
-47.07607721569923,9853
-44.59221723330904,12505
-42.10904410250669,13206
-39.62655762838392,12257
-37.14475761595372,13724
-34.66364387015028,15044
-32.18321619582866,15201
-29.70347439776515,15325
-27.224418280657005,15901
-24.74604764912317,16129
-22.26836230770266,16929
-19.7913620608565,25918
-17.315046712966478,42118
-14.83941606833514,54197
-12.36446993118659,65036
-9.89020810566592,65036
-7.416630395839093,65036
-4.94373660569363,65036
-2.471526539137585,65036
-6.821210263296962E-13,65036
2.47084320796705,65036
4.941003281093458,65036
7.410480415786196,65036
9.879274808531363,65036
12.347386655893956,65036
14.814816154518212,65036
17.28156350112681,65036
19.74762889252179,65036
22.21301252558385,65036
24.67771459727237,22178
27.141735304626195,5249
29.605074844762612,3930
32.06773341487792,3429
34.52971121224755,2632
36.99100843422559,3145
39.45162527824516,3592
41.91156194181792,2605
44.370818622535126,2091
46.82939551806646,1761
49.287292826160524,1795
51.74451074464503,2861
54.201049471426245,2891
56.65690920448981,2377
59.112090141899785,1822
61.56659248179983,1634
64.02041642241159,1464
66.4735621620365,1345
68.92602989905402,1245
71.37781983192338,1365
73.82893215918205,1476
76.27936707944684,1470
78.72912479141326,1656
81.17820549385567,1655
83.62660938562783,1684
86.07433666566146,1699
88.5213875329681,1293
90.96776218663751,1172
93.41346082583925,1052
95.85848364982041,1072
98.30283085790859,1431
100.7465026495089,1452
103.18949922410604,1366
105.63182078126385,1291
108.07346752062438,1207
110.51443964190923,1126
112.95473734491827,1103
115.39436082953114,1225
117.83331029570547,1190
120.27158594347827,1064
122.7091879729652,1256
125.1461165843615,1435
127.58237197794062,1287
130.01795435405518,1091
132.4528639131364,963
134.88710085569494,1093
137.32066538231982,1081
139.75355769367923,1025
142.1857779905207,1024
144.61732647366978,881
147.04820334403132,927
149.47840880258934,974
151.90794305040674,1075
154.33680628862487,1216
156.76499871846443,1453
159.19252054122433,1547
161.61937195828352,1491
164.04555317109896,1642
166.47106438120693,1847
168.89590579022217,2155
171.320077599839,2104
173.7435800118302,2254
176.16641322804742,2274
178.58857745042144,2432
181.01007288096173,2447
183.43089972175687,2540
185.85105817497413,2459
188.27054844285988,2491
190.6893707277394,2517
193.10752523201643,2591
195.5250121581745,2499
197.9418317087751,2617
200.3579840864594,2608
202.7734694939469,2622
205.18828813403627,2686
207.6024402096051,2901
210.01592592360964,2973
212.42874547908548,2837
214.84089907914665,2952
217.2523869269868,2851
219.66320922587727,2647
222.0733661791695,2739
224.48285799029293,2643
226.8916848627572,2649
229.29984700014882,2660
231.7073446061355,2783
234.11417788446204,2671
236.520347038953,2716
238.92585227351185,2775
241.33069379212054,2855
243.73487179884035,2770
246.1383864978112,2833
248.541238093252,2786
250.9434267894609,2718
253.34495279081432,2812
255.74581630176783,2824
258.1460175268563,2685
260.54555667069314,2738
262.9444339379703,2857
265.3426495334594,2772
267.7402036620107,2691
270.1370965285529,2848
272.53332833809407,2864
274.9288992957214,2716
277.32380960660055,2627
279.718059475976,2571
282.1116491091717,2604
284.5045787115897,2659
286.89684848871195,2605
289.2884586460981,2574
291.67940938938807,2609
294.0697009242996,2667
296.4593334566299,2714
298.84830719225477,2555
301.23662233712923,2436
303.6242790972866,2440
306.01127767884,2376
308.39761828798066,2491
310.78330113097934,2417
313.16832641418534,2441
315.5526943440269,2395
317.9364051270112,2371
320.3194589697242,2399
322.70185607883093,2442
325.0835966610754,2358
327.4646809232805,2360
329.8451090723478,2308
332.2248813152577,2225
334.6039978590701,2273
336.9824589109231,2384
339.36026467803447,2257
341.7374153677,2209
344.113911187295,2131
346.48975234427337,2225
348.8649390461686,2262
351.2394715005918,2224
353.61334991523415,2223
355.9865744978655,2221
358.35914545633375,2232
360.73106299856715,2117
363.10232733257146,2133
365.47293866643247,2185
367.84289720831396,2068
370.2122031664593,2122
372.5808567491905,2126
374.9488581649083,2134
377.31620762209275,2064
379.6829053293021,2031
382.0489514951745,2075
384.4143463284262,2088
386.7790900378528,2048
389.14318283232853,2042
391.50662492080653,2048
393.86941651231916,1991
396.23155781597745,2054
398.5930490409713,2057
400.9538903965696,2147
403.3140820921202,2084
405.6736243370498,2064
408.03251734086336,2014
410.3907613131465,2013
412.74835646356166,1978
415.10530300185144,2062
417.4616011378372,2003
419.81725108141893,1963
422.1722530425758,1976
424.5266072313656,2032
426.880313857925,2056
429.2333731324701,1977
431.58578526529516,1945
433.9375504667738,2020
436.2886689473588,1949
438.63914091758113,2009
440.9889665880513,1995
443.33814616945835,1844
445.68667987257015,1930
448.03456790823395,2012
450.3818104873759,1910
452.72840782100013,1908
455.07436012019105,1889
457.41966759611057,1959
459.7643304600007,1980
462.10834892318155,1927
464.4517231970525,1983
466.79445349309174,1911
469.1365400228566,1949
471.4779829979826,1955
473.81878263018564,1974
476.15893913125876,2012
478.4984527130747,1970
480.8373235875855,2074
483.17555196682144,2159
485.5131380628919,2122
487.8500820879857,2312
490.1863842543697,2286
492.52204477439034,2516
494.8570638604725,2692
497.1914417251204,3074
499.52517858091653,3279
501.85827464052306,3677
504.19073011668036,3702
506.5225452222086,3722
508.85372017000566,3490
511.18425517304956,3525
513.514150444396,3566
515.8434061971808,4029
518.1720226446176,4844
520.4999999999999,5044
522.8273384766991,4908
525.1540382881666,4519
527.480099647932,4036
529.8055227696037,3478
532.1303078668694,2843
534.454455153496,2397
536.777964843328,2197
539.1008371502907,2179
541.4230722883866,2109
543.744670471698,2104
546.0656319143858,2062
548.3859568306899,2092
550.7056454349294,2040
553.0246979415016,2106
555.3431145648834,1992
557.6608955196306,2037
559.978041020377,2117
562.2945512818363,2021
564.6104265188006,2060
566.9256669461412,2044
569.2402727788082,2062
571.5542442318302,2056
573.8675815203156,2120
576.1802848594508,2168
578.4923544645015,2157
580.8037905508126,2118
583.114593333807,2167
585.4247630289875,2098
587.7342998519354,2101
590.0432040183106,2099
592.3514757438526,2260
594.6591152443794,2179
596.9661227357875,2098
599.2724984340531,1989
601.578242555231,2133
603.8833553154542,2121
606.1878369309362,2136
608.4916876179676,2175
610.7949075929192,2113
613.0974970722403,2096
615.3994562724587,2056
617.7007854101818,2039
620.0014847020951,2065
622.3015543649641,2053
624.6009946156324,2165
626.8998056710224,2079
629.1979877481361,2067
631.4955410640538,2066
633.7924658359349,2090
636.0887622810175,2079
638.3844306166192,2129
640.6794710601358,2090
642.9738838290426,2136
645.2676691408932,2098
647.5608272133207,2063
649.853358264037,2060
652.1452625108324,2095
654.4365401715764,2146
656.7271914642178,2095
659.0172166067838,2207
661.3066158173809,2102
663.5953893141935,2103
665.8835373154867,2100
668.1710600396028,2093
670.4579577049639,2087
672.7442305300709,2079
675.0298787335033,2097
677.3149025339197,2125
679.599302150058,2050
681.8830778007342,2094
684.1662297048437,2040
686.4487580813608,2035
688.7306631493387,2067
691.0119451279091,2062
693.2926042362834,2066
695.5726406937516,2144
697.8520547196814,2230
700.1308465335215,2042
702.4090163547982,2048
704.6865644031171,2119
706.9634908981619,2072
709.2397960596965,2051
711.5154801075631,2061
713.7905432616823,2095
716.0649857420548,2007
718.3388077687592,2076
720.612009561953,2053
722.8845913418733,2114
725.1565533288352,2044
727.427895743234,2075
729.6986188055427,2078
731.9687227363137,2036
734.238207756178,2072
736.5070740858458,2074
738.7753219461066,2011
741.0429515578281,2081
743.3099631419569,2080
745.5763569195191,2112
747.8421331116193,2054
750.1072919394409,2165
752.3718336242467,2116
754.6357583873777,2033
756.8990664502545,2010
759.1617580343765,2037
761.423833361321,2123
763.6852926527457,2080
765.9461361303862,2062
768.206364016058,2070
770.4659765316536,2101
772.7249738991469,2100
774.9833563405886,2120
777.2411240781092,2082
779.4982773339183,2142
781.7548163303044,2082
784.010741289634,2124
786.2660524343538,2143
788.5207499869881,2185
790.7748341701416,2027
793.0283052064964,2167
795.2811633188143,2123
797.5334087299362,2146
799.7850416627813,2116
802.0360623403484,2088
804.2864709857143,2064
806.5362678220353,2044
808.7854530725468,2044
811.0340269605625,2133
813.2819897094754,2138
815.5293415427581,2146
817.77608268396,2118
820.0222133567116,2124
822.2677337847211,2113
824.5126441917765,2072
826.7569448017433,2103
829.0006358385675,2073
831.2437175262731,2076
833.4861900889629,2030
835.7280537508192,2139
837.9693087361026,2088
840.2099552691533,2104
842.4499935743896,2059
844.689423876309,2224
846.9282463994886,2121
849.1664613685833,2174
851.4040690083276,2139
853.6410695435349,2031
855.877463199097,2092
858.1132501999847,1991
860.3484307712487,2086
862.5830051380175,2165
864.8169735254988,2065
867.0503361589791,2128
869.2830932638243,2153
871.5152450654786,2171
873.7467917894654,2106
875.9777336613873,2160
878.2080709069252,2114
880.4378037518389,2146
882.666932421968,2155
884.8954571432301,2133
887.1233781416219,2184
889.3506956432192,2216
891.5774098741766,2211
893.803521060728,2224
896.0290294291852,2192
898.2539352059397,2188
900.4782386174619,2130
902.7019398903011,2114
904.925039251085,2189
907.147536926521,2155
909.3694331433943,2167
911.59072812857,2088
913.8114221089921,2075
916.0315153116827,2122
918.2510079637437,2082
920.4699002923547,2076
922.6881925247761,2065
924.905884888345,2082
927.1229776104793,2135
929.3394709186747,2067
931.555365040506,2075
933.7706602036275,2032
935.9853566357709,2106
938.1994545647489,2088
940.4129542184515,2178
942.6258558248488,2067
944.8381596119883,2121
947.0498658079974,2036
949.2609746410825,2013
951.4714863395287,2076
953.6814011316998,2007
955.8907192460387,2029
958.0994409110671,1992
960.3075663553858,2012
962.5150958076741,2003
964.7220294966913,1967
966.928367651274,1960
969.1341105003388,1912
971.3392582728806,2003
973.5438111979742,1979
975.747769504772,2014
977.9511334225061,1975
980.153903180487,1948
982.3560790081052,1900
984.5576611348289,1907
986.7586497902058,1882
988.9590452038618,1903
991.158847605503,1888
993.3580572249133,1888
995.5566742919558,1845
997.7546990365728,1825
999.952131688785,1830
1002.1489724786926,1766
1004.3452216364743,1764
1006.5408793923874,1761
1008.7359459767691,1717
1010.9304216200343,1748
1013.1243065526781,1694
1015.3176010052733,1723
1017.510305208472,1736
1019.7024193930064,1717
1021.8939437896848,1726
1024.0848786293977,1768
1026.2752241431122,1623
1028.4649805618747,1649
1030.6541481168115,1689
1032.842727039127,1709
1035.0307175601051,1637
1037.2181199111074,1648
1039.4049343235752,1661
1041.591161029029,1627
1043.7768002590683,1637
1045.9618522453698,1692
1048.1463172196918,1634
1050.3301954138697,1642
1052.513487059818,1599
1054.69619238953,1688
1056.8783116350783,1657
1059.0598450286152,1616
1061.2407928023704,1657
1063.4211551886528,1580
1065.6009324198508,1641
1067.780124728432,1697
1069.9587323469414,1688
1072.1367555080046,1646
1074.314194444325,1657
1076.4910493886855,1558
1078.667320573947,1651
1080.843008233051,1629
1083.0181125990161,1676
1085.1926339049414,1557
1087.3665723840027,1571
1089.5399282694575,1583
1091.7127017946405,1615
1093.8848931929647,1635
1096.0565026979243,1578
1098.2275305430899,1661
1100.3979769621128,1662
1102.567842188722,1570
1104.737126456726,1584
1106.9058300000124,1575
1109.0739530525475,1581
1111.2414958483764,1534
1113.4084586216231,1576
1115.5748416064907,1595
1117.7406450372605,1568
1119.9058691482942,1570
1122.0705141740304,1549
1124.2345803489884,1564
1126.3980679077658,1532
1128.5609770850388,1560
1130.7233081155623,1532
1132.8850612341707,1601
1135.0462366757774,1470
1137.2068346753745,1533
1139.3668554680326,1567
1141.526299288901,1547
1143.68516637321,1475
1145.8434569562655,1506
1148.001171273455,1455
1150.158309560244,1496
1152.3148720521767,1428
1154.470858984876,1444
1156.626270594044,1539
1158.7811071154629,1514
1160.9353687849912,1492
1163.089055838569,1498
1165.242168512213,1517
1167.3947070420209,1561
1169.5466716641677,1485
1171.6980626149075,1436
1173.8488801305748,1473
1175.9991244475814,1476
1178.1487958024186,1485
1180.2978944316555,1486
1182.4464205719428,1471
1184.5943744600072,1481
1186.7417563326567,1527
1188.8885664267755,1452
1191.0348049793297,1520
1193.1804722273619,1502
1195.325568407995,1451
1197.4700937584303,1487
1199.614048515948,1493
1201.7574329179074,1467
1203.900247201746,1480
1206.042491604982,1504
1208.1841663652099,1484
1210.3252717201053,1514
1212.465807907422,1412
1214.6057751649923,1471
1216.7451737307279,1488
1218.8840038426192,1503
1221.0222657387353,1564
1223.1599596572241,1537
1225.2970858363137,1535
1227.4336445143094,1487
1229.5696359295966,1503
1231.705060320639,1532
1233.8399179259786,1579
1235.9742089842384,1574
1238.107933734118,1503
1240.2410924143974,1522
1242.373685263935,1508
1244.5057125216676,1488
1246.6371744266116,1550
1248.7680712178621,1509
1250.898403134593,1518
1253.028170416058,1532
1255.1573733015875,1536
1257.2860120305932,1586
1259.4140868425648,1511
1261.54159797707,1542
1263.6685456737569,1538
1265.7949301723515,1550
1267.9207517126597,1553
1270.046010534565,1579
1272.1707068780306,1590
1274.2948409830983,1543
1276.4184130898889,1617
1278.541423438603,1507
1280.6638722695184,1542
1282.785759822993,1607
1284.9070863394636,1599
1287.0278520594447,1604
1289.1480572235314,1635
1291.2677020723963,1606
1293.3867868467923,1599
1295.5053117875495,1594
1297.623277135579,1622
1299.740683131868,1603
1301.8575300174857,1650
1303.973818033578,1647
1306.0895474213703,1756
1308.2047184221678,1606
1310.3193312773528,1682
1312.4333862283888,1652
1314.5468835168163,1606
1316.659823384255,1563
1318.7722060724045,1637
1320.8840318230418,1668
1322.9953008780249,1708
1325.1060134792888,1635
1327.2161698688478,1706
1329.3257702887959,1673
1331.4348149813054,1625
1333.5433041886276,1532
1335.6512381530933,1615
1337.7586171171101,1669
1339.8654413231675,1637
1341.9717110138317,1588
1344.0774264317488,1613
1346.1825878196432,1599
1348.2871954203192,1640
1350.3912494766587,1577
1352.4947502316231,1578
1354.5976979282532,1646
1356.7000928096686,1583
1358.8019351190665,1637
1360.9032250997243,1641
1363.0039629949988,1668
1365.1041490483235,1566
1367.2037835032133,1605
1369.3028666032606,1620
1371.401398592137,1636
1373.4993797135926,1602
1375.5968102114575,1700
1377.6936903296396,1633
1379.7900203121262,1669
1381.8858004029835,1729
1383.9810308463561,1640
1386.075711886469,1666
1388.1698437676241,1576
1390.2634267342032,1589
1392.356461030667,1668
1394.4489469015557,1694
1396.5408845914872,1667
1398.6322743451592,1668
1400.7231164073469,1622
1402.813411022907,1704
1404.903158436773,1653
1406.9923588939578,1626
1409.0810126395531,1695
1411.1691199187303,1682
1413.2566809767386,1673
1415.343696058907,1689
1417.4301654106425,1661
1419.5160892774315,1640
1421.6014679048399,1704
1423.6863015385125,1779
1425.7705904241707,1712
1427.8543348076178,1732
1429.9375349347342,1725
1432.0201910514802,1730
1434.102303403894,1781
1436.1838722380944,1753
1438.2648978002767,1806
1440.3453803367174,1833
1442.4253200937692,1776
1444.5047173178677,1766
1446.5835722555234,1776
1448.6618851533285,1838
1450.739656257952,1825
1452.8168858161434,1781
1454.8935740747306,1876
1456.96972128062,1896
1459.045327680797,1883
1461.120393522327,1852
1463.1949190523528,1921
1465.2689045180973,1939
1467.3423501668608,1860
1469.415256246024,1946
1471.4876230030463,1948
1473.559450685465,2045
1475.6307395408976,2025
1477.7014898170391,2091
1479.771701761665,2122
1481.8413756226287,2125
1483.9105116478618,2188
1485.9791100853772,2125
1488.0471711832643,2124
1490.1146951896926,2134
1492.1816823529098,2203
1494.2481329212433,2212
1496.3140471430984,2261
1498.3794252669609,2315
1500.4442675413939,2255
1502.5085742150404,2264
1504.572345536622,2427
1506.6355817549388,2394
1508.6982831188702,2408
1510.7604498773744,2374
1512.8220822794883,2349
1514.8831805743293,2430
1516.9437450110909,2435
1519.003775839048,2513
1521.0632733075522,2461
1523.1222376660367,2521
1525.1806691640113,2529
1527.2385680510652,2634
1529.2959345768668,2594
1531.3527689911643,2651
1533.4090715437833,2687
1535.4648424846291,2708
1537.5200820636855,2841
1539.5747905310159,2774
1541.6289681367616,2820
1543.6826151311434,2929
1545.7357317644614,2863
1547.7883182870937,2856
1549.8403749494987,2960
1551.8919020022113,2957
1553.9428996958477,3021
1555.9933682811015,3063
1558.0433080087469,3122
1560.0927191296346,3292
1562.1416018946961,3272
1564.1899565549415,3291
1566.2377833614592,3312
1568.2850825654164,3200
1570.3318544180606,3254
1572.3780991707158,3178
1574.423817074788,3019
1576.4690083817595,3037
1578.5136733431923,2845
1580.5578122107272,2747
1582.601425236085,2706
1584.6445126710646,2534
1586.6870747675434,2490
1588.7291117774776,2428
1590.7706239529034,2373
1592.8116115459347,2216
1594.8520748087658,2203
1596.8920139936686,2148
1598.9314293529933,2069
1600.9703211391711,1993
1603.008689604711,1929
1605.0465350022005,1994
1607.0838575843068,1917
1609.1206576037753,1848
1611.1569353134305,1839
1613.1926909661765,1753
1615.2279248149953,1800
1617.2626371129481,1790
1619.2968281131757,1764
1621.3304980688963,1777
1623.3636472334088,1769
1625.39627586009,1701
1627.428384202396,1660
1629.459972513861,1721
1631.4910410480993,1727
1633.5215900588028,1679
1635.551619799744,1714
1637.5811305247717,1660
1639.6101224878166,1721
1641.6385959428862,1660
1643.6665511440683,1685
1645.693988345528,1611
1647.7209078015112,1643
1649.7473097663405,1687
1651.7731944944203,1669
1653.7985622402307,1669
1655.823413258333,1695
1657.847747803366,1616
1659.8715661300494,1594
1661.8948684931793,1587
1663.9176551476316,1569
1665.9399263483624,1623
1667.9616823504057,1612
1669.982923408873,1692
1672.0036497789574,1591
1674.0238617159293,1672
1676.043559475138,1555
1678.0627433120121,1604
1680.081413482059,1589
1682.0995702408654,1594
1684.117213844096,1643
1686.134344547495,1551
1688.1509626068864,1590
1690.1670682781705,1661
1692.182661817329,1626
1694.1977434804217,1617
1696.2123135235875,1616
1698.226372203043,1556
1700.2399197750851,1571
1702.2529564960905,1605
1704.2654826225112,1681
1706.277498410882,1638
1708.2890041178139,1603
1710.2999999999988,1609
1712.3104863142066,1582
1714.3204633172854,1619
1716.329931266163,1640
1718.3388904178469,1563
1720.3473410294214,1543
1722.3552833580516,1595
1724.3627176609807,1609
1726.3696441955308,1570
1728.3760632191033,1560
1730.3819749891782,1581
1732.3873797633146,1504
1734.3922777991502,1567
1736.3966693544012,1606
1738.4005546868639,1535
1740.4039340544127,1544
1742.406807715001,1592
1744.4091759266616,1557
1746.4110389475054,1567
1748.4123970357223,1551
1750.413250449582,1570
1752.4135994474318,1490
1754.4134442876993,1588
1756.4127852288902,1465
1758.4116225295893,1545
1760.4099564484595,1536
1762.407787244244,1553
1764.405115175764,1540
1766.4019405019203,1506
1768.3982634816916,1595
1770.3940843741357,1587
1772.3894034383907,1491
1774.3842209336717,1563
1776.378537119274,1515
1778.372352254571,1542
1780.3656665990156,1544
1782.3584804121397,1501
1784.3507939535534,1510
1786.3426074829463,1477
1788.3339212600863,1486
1790.3247355448211,1528
1792.3150505970766,1566
1794.3048666768573,1542
1796.2941840442477,1540
1798.2830029594106,1552
1800.2713236825884,1474
1802.2591464741004,1571
1804.2464715943465,1584
1806.2332993038058,1515
1808.2196298630352,1522
1810.2054635326708,1580
1812.190800573428,1520
1814.175641246101,1583
1816.1599858115628,1499
1818.1438345307652,1504
1820.127187664738,1593
1822.1100454745924,1586
1824.092408221516,1556
1826.0742761667766,1549
1828.055649571721,1503
1830.0365286977735,1562
1832.0169138064398,1567
1833.9968051593014,1495
1835.9762030180214,1536
1837.9551076443408,1607
1839.9335193000788,1564
1841.9114382471344,1524
1843.888864747485,1542
1845.8657990631878,1564
1847.842241456378,1470
1849.8181921892697,1486
1851.7936515241558,1571
1853.7686197234098,1486
1855.7430970494815,1488
1857.7170837649014,1524
1859.6905801322787,1537
1861.6635864143004,1499
1863.6361028737338,1505
1865.608129773424,1552
1867.5796673762961,1575
1869.5507159453537,1542
1871.521275743678,1514
1873.4913470344313,1536
1875.4609300808534,1545
1877.4300251462632,1517
1879.3986324940588,1503
1881.366752387717,1528
1883.3343850907936,1549
1885.3015308669228,1611
1887.268189979819,1598
1889.2343626932739,1512
1891.2000492711595,1508
1893.1652499774254,1511
1895.1299650761011,1547
1897.0941948312952,1513
1899.0579395071945,1476
1901.0211993680641,1564
1902.98397467825,1564
1904.9462657021745,1595
1906.9080727043415,1491
1908.869395949332,1510
1910.8302357018065,1618
1912.790592226504,1546
1914.7504657882428,1556
1916.7098566519212,1500
1918.6687650825133,1482
1920.6271913450764,1528
1922.5851357047422,1468
1924.5425984267245,1503
1926.499579776314,1524
1928.4560800188833,1485
1930.4120994198802,1503
1932.367638244833,1512
1934.32269675935,1495
1936.2772752291175,1472
1938.231373919899,1512
1940.1849930975404,1571
1942.1381330279637,1529
1944.0907939771696,1514
1946.0429762112412,1504
1947.9946799963363,1549
1949.9459055986945,1533
1951.896653284633,1519
1953.8469233205478,1472
1955.7967159729142,1491
1957.7460315082863,1528
1959.6948701932974,1493
1961.6432322946594,1488
1963.5911180791632,1483
1965.5385278136787,1513
1967.4854617651545,1527
1969.4319202006182,1488
1971.377903387176,1489
1973.3234115920136,1487
1975.268445082395,1530
1977.2130041256642,1511
1979.1570889892423,1463
1981.1006999406304,1453
1983.04383724741,1492
1984.986501177238,1521
1986.928691997853,1486
1988.8704099770712,1451
1990.811655382789,1481
1992.7524284829801,1482
1994.692729545698,1468
1996.6325588390755,1554
1998.5719166313224,1445
2000.5108031907307,1485
2002.4492187856677,1532
2004.387163684583,1523
2006.3246381560011,1477
2008.2616424685298,1468
2010.1981768908527,1447
2012.1342416917332,1443
2014.069837140014,1421
2016.0049635046162,1451
2017.9396210545406,1473
2019.8738100588666,1472
2021.8075307867502,1454
2023.740783507431,1491
2025.6735684902228,1473
2027.6058860045214,1465
2029.5377363198004,1489
2031.4691197056118,1495
2033.4000364315875,1493
2035.3304867674374,1417
2037.260470982952,1518
2039.189989347998,1450
2041.1190421325232,1442
2043.047629606554,1421
2044.9757520401945,1481
2046.9034097036288,1429
2048.8306028671195,1453
2050.7573318010086,1475
2052.683596775716,1436
2054.609398061742,1435
2056.5347359296647,1431
2058.4596106501403,1459
2060.384022493906,1432
2062.3079717317764,1415
2064.231458634646,1494
2066.1544834734873,1529
2068.077046519352,1401
2069.99914804337,1398
2071.9207883167524,1450
2073.8419676107865,1464
2075.7626861968406,1446
2077.6829443463607,1500
2079.6027423308715,1473
2081.522080421977,1464
2083.440958891362,1357
2085.359378010786,1425
2087.2773380520907,1401
2089.194839287196,1423
2091.111881988101,1397
2093.0284664268825,1434
2094.9445928756973,1460
2096.86026160678,1510
2098.775472892446,1467
2100.690227005088,1405
2102.604524217178,1479
2104.5183648012676,1507
2106.431749029985,1469
2108.34467717604,1454
2110.2571495122206,1464
2112.169166311393,1497
2114.080727846503,1402
2115.9918343905747,1470
2117.902486216711,1480
2119.8126835980956,1473
2121.722426807987,1466
2123.6317161197285,1488
2125.5405518067364,1507
2127.448934142509,1470
2129.356863400624,1511
2131.264339854737,1554
2133.1713637785815,1530
2135.077935445972,1485
2136.9840551308002,1502
2138.889723107037,1523
2140.7949396487334,1536
2142.699705030018,1526
2144.6040195250994,1541
2146.507883408264,1491
2148.4112969538774,1434
2150.3142604363848,1495
2152.2167741303097,1552
2154.1188383102535,1508
2156.0204532508997,1543
2157.9216192270064,1572
2159.822336513414,1543
2161.7226053850413,1555
2163.622426116884,1512
2165.5217989840185,1558
2167.4207242616,1527
2169.319202224862,1514
2171.2172331491165,1551
2173.1148173097563,1518
2175.0119549822507,1531
2176.90864644215,1548
2178.8048919650823,1560
2180.7006918267534,1630
2182.596046302952,1563
2184.4909556695407,1599
2186.3854202024645,1593
2188.279440177746,1595
2190.173015871487,1593
2192.066147559868,1582
2193.958835519149,1600
2195.851080025667,1685
2197.7428813558417,1588
2199.6342397861667,1549
2201.5251555932186,1554
2203.415629053651,1577
2205.3056604441986,1562
2207.19525004167,1618
2209.084398122958,1638
2210.9731049650327,1544
2212.861370844941,1623
2214.749196039812,1602
2216.636580826851,1704
2218.523525483344,1632
2220.410030286655,1583
2222.296095514226,1623
2224.1817214435805,1675
2226.066908352319,1606
2227.951656518121,1639
2229.835966218746,1587
2231.71983773203,1613
2233.6032713358913,1623
2235.486267308324,1655
2237.3688259274036,1621
2239.2509474712824,1611
2241.132632218193,1576
2243.013880446447,1615
2244.8946924344323,1595
2246.7750684606203,1614
2248.6550088035574,1614
2250.534513741871,1592
2252.413583554265,1600
2254.292218519526,1643
2256.170418916517,1665
2258.0481850241786,1568
2259.925517121534,1606
2261.8024154876825,1648
2263.678880401803,1594
2265.5549121431536,1653
2267.430510991071,1645
2269.305677224971,1589
2271.180411124348,1624
2273.0547129687766,1585
2274.9285830379076,1634
2276.8020216114737,1600
2278.6750289692845,1633
2280.5476053912294,1596
2282.4197511572766,1600
2284.2914665474727,1559
2286.162751841943,1693
2288.0336073208937,1674
2289.904033264608,1655
2291.774029953448,1622
2293.6435976678554,1591
2295.5127366883517,1570
2297.381447295534,1590
2299.2497297700825,1533
2301.1175843927526,1440
2302.9850114443825,1467
2304.852011205885,1416
2306.7185839582553,1386
2308.5847299825664,1368
2310.4504495599676,1359
2312.3157429716925,1276
2314.1806104990483,1297
2316.0450524234247,1342
2317.9090690262888,1319
2319.772660589186,1322
2321.635827393742,1294
2323.498569721661,1276
2325.3608878547248,1329
2327.2227820747967,1317
2329.0842526638157,1357
2330.945299903803,1299
2332.805924076857,1320
2334.6661254651535,1346
2336.525904350951,1235
2338.3852610165827,1262
2340.244195744464,1298
2342.102708817088,1311
2343.9608005170253,1275
2345.8184711269287,1267
2347.675720929526,1287
2349.532550207628,1346
2351.38895924412,1305
2353.24494832197,1341
2355.100517724223,1303
2356.955667734004,1346
2358.810398634514,1328
2360.664710709037,1299
2362.5186042409337,1356
2364.3720795136437,1308
2366.225136810686,1311
2368.0777764156583,1315
2369.929998612237,1359
2371.7818036841777,1370
2373.633191915315,1308
2375.484163589562,1306
2377.3347189909114,1293
2379.184858403434,1365
2381.03458211128,1357
2382.8838903986775,1289
2384.732783549936,1311
2386.5812618494406,1311
2388.4293255816588,1361
2390.2769750311327,1336
2392.1242104824883,1402
2393.971032220427,1365
2395.8174405297295,1347
2397.6634356952563,1343
2399.509018001947,1376
2401.3541877348193,1315
2403.1989451789705,1361
2405.043290619576,1368
2406.8872243418905,1351
2408.730746631247,1315
2410.5738577730594,1302
2412.4165580528183,1298
2414.258847756095,1355
2416.100727168537,1337
2417.9421965758734,1363
2419.783256263912,1278
2421.623906518538,1297
2423.4641476257157,1367
2425.303979871491,1303
2427.143403541984,1334
2428.9824189233977,1345
2430.821026302012,1368
2432.6592259641866,1322
2434.497018196361,1363
2436.33440328505,1332
2438.171381516851,1353
2440.00795317844,1280
2441.844118556569,1387
2443.6798779380724,1313
2445.5152316098606,1337
2447.3501798589255,1313
2449.1847229723357,1338
2451.0188612372403,1357
2452.8525949408663,1326
2454.6859243705203,1387
2456.518849813587,1331
2458.3513715575314,1346
2460.183489889895,1364
2462.015205098301,1332
2463.8465174704493,1404
2465.67742729412,1335
2467.5079348571717,1405
2469.338040447542,1407
2471.1677443532476,1416
2472.9970468623833,1349
2474.825948263123,1364
2476.6544488437207,1338
2478.482548892508,1343
2480.310248697896,1317
2482.137548548374,1347
2483.9644487325118,1336
2485.790949538956,1335
2487.617051256433,1330
2489.44275417375,1340
2491.26805857979,1365
2493.0929647635157,1386
2494.917473013971,1365
2496.741583620276,1457
2498.5652968716304,1409
2500.3886130573137,1431
2502.2115324666834,1409
2504.0340553891765,1448
2505.856182114308,1401
2507.6779129316733,1381
2509.499248130945,1393
2511.3201880018764,1348
2513.140732834298,1422
2514.9608829181198,1405
2516.780638543331,1370
2518.6,1428
2520.418967578273,1341
2522.237541568376,1404
2524.0557222606144,1404
2525.8735099453706,1392
2527.6909049131086,1432
2529.507907454368,1395
2531.32451785977,1404
2533.140736420014,1470
2534.9565634258774,1417
2536.771999168218,1488
2538.5870439379714,1458
2540.4016980261526,1512
2542.2159617238544,1436
2544.02983532225,1471
2545.8433191125914,1469
2547.656413386209,1557
2549.4691184345115,1510
2551.2814345489874,1522
2553.093362021204,1500
2554.904901142808,1558
2556.716052205523,1480
2558.526815501153,1466
2560.3371913215824,1472
2562.147179958771,1545
2563.956781704761,1575
2565.7659968516705,1600
2567.5748256916986,1558
2569.3832685171224,1561
2571.1913256202984,1559
2572.9989972936614,1618
2574.806283829725,1585
2576.613185521084,1565
2578.4197026604074,1539
2580.2258355404483,1600
2582.031584454035,1637
2583.836949694077,1640
2585.6419315535613,1609
2587.4465303255533,1715
2589.2507463032002,1696
2591.0545797797245,1635
2592.8580310484303,1648
2594.6611004026995,1659
2596.463788135992,1691
2598.266094541849,1752
2600.0680199138874,1686
2601.869564545807,1663
2603.670728731383,1657
2605.4715127644704,1704
2607.2719169390048,1655
2609.071941548998,1723
2610.8715868885433,1674
2612.670853251811,1670
2614.469740933052,1725
2616.268250226594,1703
2618.0663814268455,1684
2619.864134828292,1700
2621.6615107255006,1659
2623.458509413115,1668
2625.2551311858597,1637
2627.0513763385347,1604
2628.8472451660223,1561
2630.6427379632833,1673
2632.4378550253564,1675
2634.232596647359,1582
2636.026963124488,1599
2637.8209547520187,1600
2639.6145718253065,1532
2641.407814639785,1551
2643.200683490966,1542
2644.9931786744414,1613
2646.7853004858807,1513
2648.577049221034,1516
2650.3684251757277,1528
2652.1594286458712,1568
2653.9500599274484,1515
2655.740319316525,1508
2657.5302071092437,1458
2659.3197236018286,1484
2661.10886909058,1495
2662.8976438718782,1453
2664.686048242183,1457
2666.4740824980327,1530
2668.2617469360443,1489
2670.0490418529134,1480
2671.8359675454153,1470
2673.622524310403,1457
2675.408712444811,1448
2677.1945322456495,1422
2678.979984010009,1463
2680.76506803506,1450
2682.5497846180497,1442
2684.334134056306,1410
2686.1181166472343,1438
2687.9017326883213,1391
2689.6849824771293,1397
2691.4678663113013,1391
2693.2503844885596,1440
2695.032537306705,1371
2696.8143250636167,1391
2698.5957480572542,1362
2700.3768065856534,1406
2702.1575009469316,1397
2703.937831439283,1373
2705.717798360982,1419
2707.4974020103837,1370
2709.276642685917,1383
2711.055520686095,1379
2712.834036309506,1354
2714.612189854819,1397
2716.389981620782,1355
2718.1674119062204,1367
2719.944481010041,1331
2721.721189231226,1383
2723.4975368688415,1368
2725.273524222027,1307
2727.0491515900053,1364
2728.824419272075,1370
2730.5993275676146,1348
2732.3738767760838,1326
2734.148067197016,1364
2735.921899130031,1361
2737.6953728748194,1334
2739.468488731156,1336
2741.2412469988926,1295
2743.0136479779617,1330
2744.785691968372,1306
2746.5573792702116,1307
2748.3287101836504,1284
2750.099685008934,1277
2751.870304046388,1362
2753.640567596418,1349
2755.4104759595057,1308
2757.1800294362156,1324
2758.949228327187,1346
2760.7180729331412,1302
2762.486563554877,1315
2764.254700493272,1295
2766.022484049284,1327
2767.789914523947,1337
2769.5569922183786,1371
2771.3237174337705,1335
2773.090090471394,1283
2774.8561116326036,1351
2776.6217812188274,1297
2778.3870995315756,1297
2780.1520668724356,1334
2781.9166835430747,1345
2783.6809498452394,1347
2785.444866080754,1346
2787.2084325515225,1333
2788.971649559527,1315
2790.73451740683,1319
2792.4970363955713,1252
2794.2592068279705,1293
2796.0210290063264,1267
2797.7825032330147,1309
2799.543629810493,1371
2801.304409041296,1332
2803.0648412280366,1341
2804.8249266734088,1340
2806.5846656801846,1302
2808.344058551212,1290
2810.1031055894246,1337
2811.8618070978273,1335
2813.6201633795085,1341
2815.378174737636,1354
2817.1358414754536,1320
2818.893163896285,1326
2820.6501423035334,1376
2822.4067770006814,1342
2824.1630682912883,1341
2825.9190164789957,1361
2827.6746218675207,1352
2829.429884760661,1290
2831.184805462294,1316
2832.9393842763743,1362
2834.693621506936,1400
2836.4475174580916,1330
2838.201072434034,1348
2839.954286739034,1367
2841.707160677441,1331
2843.459694553685,1311
2845.2118886722724,1283
2846.96374333779,1335
2848.7152588549034,1373
2850.4664355283567,1315
2852.217273662973,1348
2853.9677735636546,1364
2855.7179355353833,1364
2857.4677598832186,1336
2859.217246912299,1282
2860.9663969278427,1384
2862.715210235146,1322
2864.4636871395846,1258
2866.211827946614,1299
2867.9596329617652,1262
2869.7071024906536,1310
2871.4542368389684,1324
2873.20103631248,1291
2874.947501217038,1301
2876.6936318585695,1264
2878.4394285430812,1376
2880.1848915766604,1301
2881.9300212654707,1340
2883.6748179157553,1295
2885.4192818338374,1336
2887.1634133261173,1340
2888.907212699077,1276
2890.6506802592744,1341
2892.393816313348,1316
2894.1366211680142,1315
2895.8790951300693,1335
2897.621238506388,1291
2899.363051603925,1291
2901.1045347297118,1327
2902.8456881908596,1369
2904.58651229456,1291
2906.327007348081,1288
2908.067173658772,1302
2909.8070115340597,1328
2911.5465212814497,1324
2913.285703208527,1328
2915.0245576229563,1289
2916.7630848324807,1333
2918.5012851449196,1360
2920.2391588681758,1309
2921.976706310227,1298
2923.7139277791334,1353
2925.4508235830313,1329
2927.187394030137,1288
2928.923639428745,1259
2930.6595600872306,1347
2932.395156314046,1348
2934.1304284177218,1291
2935.8653767068713,1368
2937.6000014901815,1325
2939.3343030764227,1368
2941.068281774442,1301
2942.8019378931644,1283
2944.5352717415976,1376
2946.2682836288236,1386
2948.0009738640065,1400
2949.7333427563885,1375
2951.465390615289,1331
2953.1971177501086,1317
2954.9285244703265,1350
2956.6596110855,1305
2958.3903779052657,1350
2960.1208252393385,1342
2961.8509533975125,1378
2963.5807626896617,1300
2965.3102534257378,1308
2967.0394259157715,1310
2968.768280469873,1333
2970.496817398232,1343
2972.2250370111146,1358
2973.952939618869,1344
2975.6805255319196,1275
2977.4077950607707,1344
2979.134748516006,1394
2980.861386208289,1345
2982.587708448359,1389
2984.313715547037,1329
2986.039407815222,1347
2987.764785563891,1336
2989.489849104102,1324
2991.2145987469908,1284
2992.9390348037705,1272
2994.6631575857346,1327
2996.3869674042576,1298
2998.1104645707887,1325
2999.83364939686,1335
3001.5565221940783,1297
3003.2790832741334,1313
3005.0013329487924,1369
3006.7232715298996,1336
3008.4448993293804,1299
3010.166216659239,1315
3011.887223831558,1271
3013.607921158498,1272
3015.3283089522993,1293
3017.0483875252826,1340
3018.7681571898443,1317
3020.4876182584626,1308
3022.2067710436927,1302
3023.9256158581707,1281
3025.644153014609,1305
3027.362382825801,1301
3029.0803056046193,1300
3030.797921664012,1286
3032.5152313170106,1351
3034.2322348767225,1370
3035.9489326563353,1308
3037.665324969115,1284
3039.3814121284063,1300
3041.097194447633,1230
3042.812672240299,1276
3044.5278458199855,1329
3046.2427155003525,1364
3047.9572815951406,1313
3049.671544418167,1340
3051.38550428333,1308
3053.0991615046073,1303
3054.812516396051,1312
3056.5255692717974,1290
3058.2383204460575,1313
3059.9507702331257,1313
3061.662918947372,1313
3063.3747669032446,1323
3065.0863144152736,1335
3066.7975617980674,1262
3068.508509366309,1356
3070.219157434767,1312
3071.9295063182844,1321
3073.639556331785,1341
3075.3493077902704,1341
3077.058761008821,1297
3078.7679163025964,1297
3080.476773986837,1285
3082.1853343768594,1348
3083.89359778806,1304
3085.6015645359153,1335
3087.3092349359786,1306
3089.016609303884,1278
3090.7236879553434,1302
3092.4304712061476,1304
3094.136959372166,1302
3095.843152769349,1326
3097.5490517137237,1326
3099.2546565213966,1280
3100.959967508554,1325
3102.66498499146,1283
3104.3697092864577,1303
3106.0741407099695,1311
3107.778279578498,1311
3109.482126208622,1333
3111.1856809170004,1320
3112.8889440203716,1284
3114.5919158355528,1322
3116.294596679439,1401
3117.996986869006,1373
3119.6990867213062,1352
3121.4008965534726,1358
3123.102416682717,1328
3124.803647426329,1267
3126.5045891016784,1368
3128.205242026213,1348
3129.90560651746,1346
3131.605682893025,1304
3133.3054714705922,1328
3135.0049725679282,1342
3136.7041865028714,1308
3138.4031135933465,1308
3140.101754157353,1378
3141.800108512971,1300
3143.498176978357,1282
3145.1959598717494,1316
3146.8934575114636,1337
3148.5906702158954,1278
3150.2875983035183,1291
3151.9842420928853,1274
3153.680601902627,1296
3155.376678051456,1317
3157.07247085816,1305
3158.767980641609,1303
3160.463207720748,1327
3162.158152414606,1315
3163.8528150422862,1323
3165.5471959229726,1355
3167.2412953759303,1346
3168.9351137204976,1366
3170.628651276098,1358
3172.3219083622307,1321
3174.014885298474,1281
3175.707582404485,1372
3177.4000000000005,1314
3179.092138404835,1315
3180.7839979388846,1320
3182.47557892212,1239
3184.166881674594,1298
3185.8579065164386,1267
3187.5486537678626,1353
3189.2391237491547,1251
3190.9293167806827,1311
3192.6192331828934,1309
3194.3088732763117,1332
3195.998237381542,1320
3197.687325819268,1253
3199.376138910251,1340
3201.064676975334,1309
3202.7529403354347,1343
3204.4409293115523,1340
3206.1286442247647,1301
3207.816085396229,1283
3209.5032531471825,1259
3211.190147798936,1254
3212.8767696728846,1254
3214.5631190905015,1284
3216.2491963733373,1269
3217.9350018430214,1250
3219.6205358212637,1328
3221.305798629851,1215
3222.990790590651,1306
3224.6755120256103,1272
3226.359963256751,1233
3228.0441446061795,1241
3229.7280563960758,1301
3231.411698948703,1279
3233.0950725863995,1260
3234.778177631587,1268
3236.461014406761,1280
3238.1435832345005,1281
3239.8258844374595,1336
3241.507918338374,1328
3243.1896852600576,1313
3244.8711855254023,1337
3246.552419457381,1327
3248.233387379042,1250
3249.914089613516,1302
3251.59452648401,1326
3253.274698313813,1336
3254.95460542629,1253
3256.6342481448855,1256
3258.313626793125,1294
3259.9927416946084,1269
3261.6715931730196,1284
3263.3501815521176,1253
3265.0285071557437,1325
3266.706570307815,1270
3268.3843713323286,1251
3270.0619105533615,1245
3271.739188295068,1265
3273.4162048816834,1253
3275.0929606375184,1285
3276.769455886966,1273
3278.445690954498,1340
3280.1216661646613,1328
3281.797381842087,1355
3283.4728383114807,1318
3285.1480358976296,1270
3286.8229749253996,1274
3288.4976557197333,1288
3290.172078605655,1237
3291.846243908266,1280
3293.5201519527463,1279
3295.193803064357,1299
3296.8671975684374,1296
3298.5403357904024,1327
3300.21321805575,1319
3301.8858446900567,1292
3303.558216018975,1242
3305.23033236824,1316
3306.9021940636603,1288
3308.57380143113,1248
3310.2451547966184,1292
3311.916254486174,1240
3313.5871008259246,1302
3315.2576941420766,1335
3316.9280347609147,1259
3318.5981230088046,1266
3320.2679592121895,1180
3321.9375436975924,1261
3323.606876791612,1278
3325.27595882093,1308
3326.944790112305,1266
3328.6133709925753,1237
3330.2817017886573,1310
3331.949782827547,1310
3333.617614436319,1301
3335.2851969421245,1291
3336.952530672199,1289
3338.619615953853,1231
3340.286453114475,1246
3341.9530424815357,1264
3343.619384382583,1282
3345.2854791452437,1297
3346.951327097224,1290
3348.6169285663073,1290
3350.2822838803577,1280
3351.947393367319,1323
3353.61225735521,1355
3355.2768761721345,1313
3356.9412501462693,1269
3358.605379605873,1252
3360.2692648792827,1261
3361.9329062949146,1288
3363.596304181263,1279
