CollectionTime,7/10/2024 4:37:43 PM
ExposureUsed,3
CalibratedSpectrum
-962.7078968117929,531
-959.9714848408522,560
-957.2358232597828,593
-954.5009119013725,571
-951.7667505983302,586
-949.0333391832855,589
-946.3006774887896,612
-943.5687653473143,637
-940.837602591253,566
-938.1071890529199,581
-935.3775245645503,584
-932.6486089583007,593
-929.9204420662485,580
-927.1930237203925,558
-924.4663537526524,567
-921.7404319948689,625
-919.0152582788041,594
-916.2908324361409,642
-913.5671542984834,593
-910.8442236973568,606
-908.1220404642074,590
-905.4006044304027,616
-902.679915427231,567
-899.959973285902,560
-897.2407778375464,549
-894.5223289132158,573
-891.8046263438832,586
-889.0876699604426,589
-886.3714595937089,584
-883.6559950744183,571
-880.9412762332282,614
-878.2273029007168,566
-875.5140749073835,564
-872.8015920836489,550
-870.0898542598545,571
-867.3788612662631,574
-864.6686129330585,583
-861.9591090903457,573
-859.2503495681506,577
-856.5423341964203,588
-853.8350628050229,568
-851.1285352237478,572
-848.4227512823054,562
-845.7177108103272,584
-843.0134136373656,579
-840.3098595928943,590
-837.6070485063082,587
-834.9049802069229,587
-832.2036545239757,570
-829.5030712866244,562
-826.8032303239481,584
-824.1041314649472,598
-821.4057745385428,606
-818.7081593735775,586
-816.0112857988148,633
-813.3151536429393,594
-810.6197627345566,592
-807.9251129021936,610
-805.2312039742981,563
-802.5380357792392,601
-799.8456081453069,595
-797.1539209007124,592
-794.462973873588,573
-791.772766891987,616
-789.083299783884,591
-786.3945723771743,582
-783.7065844996748,587
-781.0193359791231,590
-778.3328266431781,582
-775.6470563194197,597
-772.9620248353489,570
-770.2777320183878,552
-767.5941776958798,567
-764.9113616950891,558
-762.2292838432011,573
-759.5479439673222,626
-756.8673418944801,594
-754.1874774516235,611
-751.5083504656222,612
-748.8299607632671,628
-746.15230817127,629
-743.475392516264,598
-740.7992136248035,612
-738.1237713233636,613
-735.4490654383407,625
-732.7750957960521,591
-730.1018622227365,615
-727.4293645445534,641
-724.7576025875837,627
-722.0865761778291,630
-719.4162851412126,614
-716.7467293035781,641
-714.0779084906909,651
-711.409822528237,634
-708.7424712418238,638
-706.0758544569796,628
-703.4099719991541,633
-700.7448236937178,663
-698.0804093659622,660
-695.4167288411002,666
-692.7537819442656,636
-690.0915685005134,619
-687.4300883348199,651
-684.7693412720819,670
-682.1093271371178,656
-679.4500457546669,664
-676.7914969493897,656
-674.1336805458676,666
-671.4765963686034,674
-668.8202442420206,661
-666.1646239904642,699
-663.5097354382001,679
-660.8555784094151,649
-658.2021527282176,673
-655.5494582186366,673
-652.8974947046223,660
-650.2462620100463,664
-647.5957599587009,699
-644.9459883742998,694
-642.2969470804776,664
-639.6486359007902,667
-637.0010546587141,704
-634.3542031776476,713
-631.7080812809096,689
-629.0626887917401,667
-626.4180255333008,675
-623.7740913286734,709
-621.1308860008619,720
-618.4884093727904,654
-615.8466612673046,663
-613.2056415071715,679
-610.5653499150785,692
-607.9257863136347,730
-605.28695052537,711
-602.6488423727357,710
-600.0114616781036,725
-597.3748082637674,703
-594.7388819519412,643
-592.1036825647604,740
-589.4692099242818,776
-586.8354638524829,769
-584.2024441712624,730
-581.5701507024403,729
-578.9385832677575,731
-576.3077416888759,672
-573.6776257873787,760
-571.0482353847704,740
-568.4195703024757,743
-565.7916303618415,772
-563.164415384135,732
-560.5379251905453,715
-557.9121596021815,693
-555.2871184400748,740
-552.6628015251767,728
-550.0392086783606,769
-547.4163397204204,741
-544.794194472071,774
-542.1727727539491,757
-539.5520743866118,777
-536.9320991905377,814
-534.3128469861261,846
-531.6943175936979,830
-529.0765108334947,857
-526.4594265256793,873
-523.8430644903358,971
-521.2274245474689,1044
-518.612506517005,1156
-515.9983102187913,1077
-513.3848354725959,1135
-510.77208209810846,1172
-508.16004991493924,1243
-505.5487387426199,1378
-502.9381484006032,1493
-500.3282787082628,1562
-497.71912948489364,1568
-495.1107005497117,1501
-492.5029917218539,1379
-489.8960028203786,1249
-487.28973366426493,1119
-484.68418407241325,1034
-482.07935386364494,995
-479.47524285670266,969
-476.87185087025,912
-474.2691777228715,946
-471.66722323307334,952
-469.0659872192821,925
-466.4654694998459,935
-463.86566989303384,926
-461.26658821703614,919
-458.66822428996414,948
-456.07057792985,972
-453.4736489546475,924
-450.877437182231,906
-448.28194243039627,925
-445.68716451686,882
-443.09310325926003,912
-440.49975847515555,913
-437.9071299820263,921
-435.31521759727354,872
-432.72402113821954,908
-430.13354042210767,970
-427.5437752661022,932
-424.95472548728867,958
-422.36639090267386,965
-419.7787713291855,958
-417.1918665836721,993
-414.60567648290385,997
-412.0202008435715,970
-409.4354394822874,978
-406.8513922155845,1026
-404.26805885991723,973
-401.685439231661,970
-399.103533147112,1010
-396.522340422488,956
-393.9418608739278,973
-391.3620943174908,941
-388.7830405691583,1001
-386.2046994448317,905
-383.6270707603344,886
-381.05015433141045,851
-378.473949973725,770
-375.8984575028645,778
-373.32367673433623,704
-370.74960748356875,674
-368.1762495659117,635
-365.60360279663576,633
-363.03166699093265,573
-360.4604419639154,540
-357.8899275306178,522
-355.32012350599507,495
-352.7510297049233,521
-350.1826459421999,489
-347.61497203254316,473
-345.04800779059235,474
-342.4817530309082,513
-339.91620756797226,531
-337.35137121618743,538
-334.7872437898774,520
-332.22382510328725,513
-329.66111497058273,549
-327.09911320585127,509
-324.53781962310075,551
-321.9772340362607,534
-319.4173562591816,492
-316.8581861056348,465
-314.2997233893127,483
-311.7419679238294,465
-309.1849195227194,495
-306.62857799943856,517
-304.0729431673641,532
-301.51801483979375,551
-298.963792829947,536
-296.41027695096386,571
-293.85746701590574,604
-291.3053628377552,617
-288.7539642294155,607
-286.2032710037115,592
-283.65328297338897,535
-281.1039999511146,568
-278.5554217494762,649
-276.007548180983,614
-273.4603790580651,550
-270.9139141930734,559
-268.3681533982807,564
-265.8230964858798,547
-263.27874326798565,547
-260.7350935566336,556
-258.1921471637804,548
-255.6499039013039,552
-253.10836358100266,620
-250.56752601459698,643
-248.02739101372765,593
-245.48795838995704,658
-242.94922795476816,653
-240.41119951956557,615
-237.8738728956746,689
-235.33724789434166,690
-232.80132432673452,685
-230.2661020039418,595
-227.73158073697357,667
-225.19776033676033,700
-222.66464061415422,708
-220.1322213799284,687
-217.60050244477725,624
-215.06948361931552,640
-212.53916471408013,701
-210.00954553952818,812
-207.48062590603843,757
-204.9524056239104,734
-202.4248845033651,762
-199.8980623545441,702
-197.37193898751036,745
-194.84651421224817,713
-192.32178783866232,747
-189.79775967657952,802
-187.27442953574644,857
-184.7517972258321,894
-182.2298625564256,925
-179.7086253370378,800
-177.18808537710026,823
-174.66824248596583,790
-172.14909647290835,842
-169.6306471471229,885
-167.11289431772548,900
-164.59583779375328,976
-162.07947738416453,963
-159.5638128978386,975
-157.04884414357605,996
-154.53457093009854,980
-152.02099306604828,927
-149.50811035998936,881
-146.99592262040665,794
-144.48442965570587,852
-141.97363127421409,845
-139.46352728417958,900
-136.95411749377126,937
-134.44540171107985,853
-131.93737974411636,847
-129.43005140081357,865
-126.92341648902493,1139
-124.41747481652521,1533
-121.91222619101006,1868
-119.40767042009657,2022
-116.90380731132257,2047
-114.40063667214702,2213
-111.8981583099503,2399
-109.3963720320337,2005
-106.89527764561933,1627
-104.39487495785067,1751
-101.89516377579241,2206
-99.39614390642998,3502
-96.89781515667039,3985
-94.40017733334128,3770
-91.90323024319173,3057
-89.40697369289148,3037
-86.91140748903172,3932
-84.41653143812482,5097
-81.92234534660395,6005
-79.42884902082358,5939
-76.93604226705907,7250
-74.4439248915071,11916
-71.95249670028534,19861
-69.46175749943245,24345
-66.97170709490854,25728
-64.48234529259423,23833
-61.99367189829195,18208
-59.50568671772464,11483
-57.01838955653636,6505
-54.53178022029283,7129
-52.045858514480074,8454
-49.560624244506016,9912
-47.07607721569923,12571
-44.59221723330904,14458
-42.10904410250669,14297
-39.62655762838392,12742
-37.14475761595372,13273
-34.66364387015028,14788
-32.18321619582866,16759
-29.70347439776515,18904
-27.224418280657005,20432
-24.74604764912317,20464
-22.26836230770266,20841
-19.7913620608565,29205
-17.315046712966478,46831
-14.83941606833514,63470
-12.36446993118659,65037
-9.89020810566592,65037
-7.416630395839093,65037
-4.94373660569363,65037
-2.471526539137585,65037
-6.821210263296962E-13,65037
2.47084320796705,65037
4.941003281093458,65037
7.410480415786196,65037
9.879274808531363,65037
12.347386655893956,65037
14.814816154518212,65037
17.28156350112681,65037
19.74762889252179,65037
22.21301252558385,65037
24.67771459727237,20934
27.141735304626195,4275
29.605074844762612,3125
32.06773341487792,2600
34.52971121224755,2385
36.99100843422559,2784
39.45162527824516,2877
41.91156194181792,2202
44.370818622535126,1648
46.82939551806646,1432
49.287292826160524,1448
51.74451074464503,1968
54.201049471426245,2046
56.65690920448981,1793
59.112090141899785,1633
61.56659248179983,1449
64.02041642241159,1246
66.4735621620365,1187
68.92602989905402,1089
71.37781983192338,1224
73.82893215918205,1280
76.27936707944684,1279
78.72912479141326,1300
81.17820549385567,1326
83.62660938562783,1321
86.07433666566146,1384
88.5213875329681,1160
90.96776218663751,995
93.41346082583925,949
95.85848364982041,1013
98.30283085790859,1288
100.7465026495089,1332
103.18949922410604,1253
105.63182078126385,1049
108.07346752062438,1062
110.51443964190923,1029
112.95473734491827,913
115.39436082953114,922
117.83331029570547,1032
120.27158594347827,1041
122.7091879729652,1057
125.1461165843615,1218
127.58237197794062,1164
130.01795435405518,1001
132.4528639131364,921
134.88710085569494,972
137.32066538231982,945
139.75355769367923,832
142.1857779905207,855
144.61732647366978,829
147.04820334403132,892
149.47840880258934,950
151.90794305040674,1016
154.33680628862487,1094
156.76499871846443,1288
159.19252054122433,1429
161.61937195828352,1478
164.04555317109896,1551
166.47106438120693,1825
168.89590579022217,2074
171.320077599839,2228
173.7435800118302,2265
176.16641322804742,2366
178.58857745042144,2538
181.01007288096173,2630
183.43089972175687,2677
185.85105817497413,2581
188.27054844285988,2626
190.6893707277394,2640
193.10752523201643,2738
195.5250121581745,2637
197.9418317087751,2717
200.3579840864594,2805
202.7734694939469,2798
205.18828813403627,2859
207.6024402096051,3187
210.01592592360964,3168
212.42874547908548,2981
214.84089907914665,2968
217.2523869269868,2923
219.66320922587727,2873
222.0733661791695,2788
224.48285799029293,2781
226.8916848627572,2729
229.29984700014882,2792
231.7073446061355,2800
234.11417788446204,2777
236.520347038953,2859
238.92585227351185,2903
241.33069379212054,2863
243.73487179884035,2941
246.1383864978112,2832
248.541238093252,3018
250.9434267894609,2974
253.34495279081432,3071
255.74581630176783,2943
258.1460175268563,3006
260.54555667069314,2917
262.9444339379703,3004
265.3426495334594,2838
267.7402036620107,2869
270.1370965285529,2852
272.53332833809407,2774
274.9288992957214,2780
277.32380960660055,2584
279.718059475976,2611
282.1116491091717,2551
284.5045787115897,2615
286.89684848871195,2580
289.2884586460981,2641
291.67940938938807,2606
294.0697009242996,2679
296.4593334566299,2642
298.84830719225477,2600
301.23662233712923,2631
303.6242790972866,2482
306.01127767884,2556
308.39761828798066,2490
310.78330113097934,2493
313.16832641418534,2444
315.5526943440269,2348
317.9364051270112,2438
320.3194589697242,2443
322.70185607883093,2425
325.0835966610754,2374
327.4646809232805,2268
329.8451090723478,2303
332.2248813152577,2240
334.6039978590701,2269
336.9824589109231,2241
339.36026467803447,2163
341.7374153677,2234
344.113911187295,2150
346.48975234427337,2195
348.8649390461686,2192
351.2394715005918,2229
353.61334991523415,2273
355.9865744978655,2173
358.35914545633375,2124
360.73106299856715,2225
363.10232733257146,2213
365.47293866643247,2142
367.84289720831396,2079
370.2122031664593,2082
372.5808567491905,2140
374.9488581649083,2094
377.31620762209275,2089
379.6829053293021,2105
382.0489514951745,2086
384.4143463284262,2053
386.7790900378528,2021
389.14318283232853,2045
391.50662492080653,1987
393.86941651231916,1996
396.23155781597745,2021
398.5930490409713,2088
400.9538903965696,2041
403.3140820921202,2076
405.6736243370498,2072
408.03251734086336,2024
410.3907613131465,2039
412.74835646356166,1963
415.10530300185144,2016
417.4616011378372,1969
419.81725108141893,1992
422.1722530425758,1940
424.5266072313656,2017
426.880313857925,2005
429.2333731324701,1889
431.58578526529516,2057
433.9375504667738,2022
436.2886689473588,1996
438.63914091758113,1973
440.9889665880513,1973
443.33814616945835,1931
445.68667987257015,1903
448.03456790823395,1992
450.3818104873759,1877
452.72840782100013,1853
455.07436012019105,1865
457.41966759611057,1928
459.7643304600007,1899
462.10834892318155,1909
464.4517231970525,1924
466.79445349309174,1855
469.1365400228566,1881
471.4779829979826,1875
473.81878263018564,2014
476.15893913125876,1927
478.4984527130747,1974
480.8373235875855,1945
483.17555196682144,2063
485.5131380628919,2126
487.8500820879857,2228
490.1863842543697,2295
492.52204477439034,2415
494.8570638604725,2600
497.1914417251204,2891
499.52517858091653,3212
501.85827464052306,3319
504.19073011668036,3482
506.5225452222086,3411
508.85372017000566,3327
511.18425517304956,3262
513.514150444396,3344
515.8434061971808,3881
518.1720226446176,4543
520.4999999999999,4956
522.8273384766991,4721
525.1540382881666,4256
527.480099647932,3926
529.8055227696037,3307
532.1303078668694,2709
534.454455153496,2371
536.777964843328,2127
539.1008371502907,2163
541.4230722883866,2104
543.744670471698,2059
546.0656319143858,2088
548.3859568306899,2161
550.7056454349294,2073
553.0246979415016,2085
555.3431145648834,1998
557.6608955196306,1963
559.978041020377,1994
562.2945512818363,2084
564.6104265188006,1970
566.9256669461412,2063
569.2402727788082,1930
571.5542442318302,2112
573.8675815203156,2056
576.1802848594508,2058
578.4923544645015,2025
580.8037905508126,2142
583.114593333807,2092
585.4247630289875,2077
587.7342998519354,1983
590.0432040183106,2057
592.3514757438526,2103
594.6591152443794,2067
596.9661227357875,2117
599.2724984340531,2072
601.578242555231,2017
603.8833553154542,2020
606.1878369309362,2030
608.4916876179676,1992
610.7949075929192,1976
613.0974970722403,2017
615.3994562724587,2014
617.7007854101818,2028
620.0014847020951,2035
622.3015543649641,2024
624.6009946156324,2053
626.8998056710224,2038
629.1979877481361,1990
631.4955410640538,2004
633.7924658359349,2040
636.0887622810175,2091
638.3844306166192,2111
640.6794710601358,1972
642.9738838290426,1966
645.2676691408932,2064
647.5608272133207,2130
649.853358264037,2042
652.1452625108324,2055
654.4365401715764,2002
656.7271914642178,2104
659.0172166067838,2095
661.3066158173809,2064
663.5953893141935,2076
665.8835373154867,2014
668.1710600396028,2030
670.4579577049639,2056
672.7442305300709,2070
675.0298787335033,2063
677.3149025339197,2026
679.599302150058,2041
681.8830778007342,2051
684.1662297048437,2021
686.4487580813608,2044
688.7306631493387,2136
691.0119451279091,2073
693.2926042362834,2005
695.5726406937516,2035
697.8520547196814,2098
700.1308465335215,2086
702.4090163547982,1950
704.6865644031171,1997
706.9634908981619,2025
709.2397960596965,2042
711.5154801075631,2064
713.7905432616823,2038
716.0649857420548,2056
718.3388077687592,1991
720.612009561953,2042
722.8845913418733,2063
725.1565533288352,2049
727.427895743234,2134
729.6986188055427,2022
731.9687227363137,1995
734.238207756178,2034
736.5070740858458,2069
738.7753219461066,1998
741.0429515578281,1942
743.3099631419569,2082
745.5763569195191,2077
747.8421331116193,2108
750.1072919394409,2053
752.3718336242467,2087
754.6357583873777,2012
756.8990664502545,1997
759.1617580343765,2022
761.423833361321,2034
763.6852926527457,2055
765.9461361303862,2055
768.206364016058,2035
770.4659765316536,2025
772.7249738991469,2073
774.9833563405886,2113
777.2411240781092,2081
779.4982773339183,2003
781.7548163303044,2113
784.010741289634,2083
786.2660524343538,2154
788.5207499869881,2084
790.7748341701416,2131
793.0283052064964,2088
795.2811633188143,2108
797.5334087299362,2105
799.7850416627813,2081
802.0360623403484,2112
804.2864709857143,2095
806.5362678220353,2075
808.7854530725468,2076
811.0340269605625,2101
813.2819897094754,2115
815.5293415427581,2055
817.77608268396,2104
820.0222133567116,2072
822.2677337847211,2108
824.5126441917765,2012
826.7569448017433,2047
829.0006358385675,2030
831.2437175262731,2077
833.4861900889629,2028
835.7280537508192,1994
837.9693087361026,2039
840.2099552691533,2152
842.4499935743896,2108
844.689423876309,2034
846.9282463994886,2094
849.1664613685833,2095
851.4040690083276,2122
853.6410695435349,2053
855.877463199097,2044
858.1132501999847,2056
860.3484307712487,2010
862.5830051380175,2132
864.8169735254988,2078
867.0503361589791,2138
869.2830932638243,2053
871.5152450654786,2108
873.7467917894654,2099
875.9777336613873,2188
878.2080709069252,2121
880.4378037518389,2180
882.666932421968,2170
884.8954571432301,2161
887.1233781416219,2159
889.3506956432192,2167
891.5774098741766,2217
893.803521060728,2154
896.0290294291852,2098
898.2539352059397,2098
900.4782386174619,2080
902.7019398903011,2135
904.925039251085,2123
907.147536926521,2076
909.3694331433943,2090
911.59072812857,2093
913.8114221089921,2107
916.0315153116827,2076
918.2510079637437,2069
920.4699002923547,2084
922.6881925247761,2100
924.905884888345,2055
927.1229776104793,2073
929.3394709186747,2068
931.555365040506,2057
933.7706602036275,2093
935.9853566357709,2057
938.1994545647489,2049
940.4129542184515,2152
942.6258558248488,2109
944.8381596119883,2038
947.0498658079974,1994
949.2609746410825,2024
951.4714863395287,2003
953.6814011316998,2020
955.8907192460387,1993
958.0994409110671,2019
960.3075663553858,2014
962.5150958076741,1956
964.7220294966913,1997
966.928367651274,1978
969.1341105003388,1963
971.3392582728806,1968
973.5438111979742,1949
975.747769504772,1894
977.9511334225061,1955
980.153903180487,1945
982.3560790081052,1916
984.5576611348289,1954
986.7586497902058,1909
988.9590452038618,1952
991.158847605503,1961
993.3580572249133,1873
995.5566742919558,1962
997.7546990365728,1804
999.952131688785,1813
1002.1489724786926,1807
1004.3452216364743,1808
1006.5408793923874,1768
1008.7359459767691,1735
1010.9304216200343,1705
1013.1243065526781,1690
1015.3176010052733,1752
1017.510305208472,1704
1019.7024193930064,1700
1021.8939437896848,1739
1024.0848786293977,1713
1026.2752241431122,1761
1028.4649805618747,1731
1030.6541481168115,1721
1032.842727039127,1707
1035.0307175601051,1697
1037.2181199111074,1612
1039.4049343235752,1689
1041.591161029029,1654
1043.7768002590683,1612
1045.9618522453698,1675
1048.1463172196918,1653
1050.3301954138697,1661
1052.513487059818,1649
1054.69619238953,1631
1056.8783116350783,1670
1059.0598450286152,1715
1061.2407928023704,1687
1063.4211551886528,1695
1065.6009324198508,1726
1067.780124728432,1637
1069.9587323469414,1604
1072.1367555080046,1720
1074.314194444325,1702
1076.4910493886855,1653
1078.667320573947,1638
1080.843008233051,1661
1083.0181125990161,1592
1085.1926339049414,1587
1087.3665723840027,1662
1089.5399282694575,1619
1091.7127017946405,1606
1093.8848931929647,1634
1096.0565026979243,1591
1098.2275305430899,1569
1100.3979769621128,1604
1102.567842188722,1539
1104.737126456726,1573
1106.9058300000124,1594
1109.0739530525475,1579
1111.2414958483764,1567
1113.4084586216231,1537
1115.5748416064907,1560
1117.7406450372605,1567
1119.9058691482942,1589
1122.0705141740304,1534
1124.2345803489884,1604
1126.3980679077658,1497
1128.5609770850388,1562
1130.7233081155623,1558
1132.8850612341707,1519
1135.0462366757774,1453
1137.2068346753745,1510
1139.3668554680326,1543
1141.526299288901,1554
1143.68516637321,1531
1145.8434569562655,1574
1148.001171273455,1524
1150.158309560244,1515
1152.3148720521767,1553
1154.470858984876,1513
1156.626270594044,1485
1158.7811071154629,1568
1160.9353687849912,1529
1163.089055838569,1484
1165.242168512213,1533
1167.3947070420209,1498
1169.5466716641677,1516
1171.6980626149075,1497
1173.8488801305748,1463
1175.9991244475814,1484
1178.1487958024186,1438
1180.2978944316555,1512
1182.4464205719428,1501
1184.5943744600072,1543
1186.7417563326567,1468
1188.8885664267755,1497
1191.0348049793297,1501
1193.1804722273619,1470
1195.325568407995,1510
1197.4700937584303,1474
1199.614048515948,1481
1201.7574329179074,1475
1203.900247201746,1473
1206.042491604982,1528
1208.1841663652099,1494
1210.3252717201053,1509
1212.465807907422,1466
1214.6057751649923,1560
1216.7451737307279,1476
1218.8840038426192,1512
1221.0222657387353,1495
1223.1599596572241,1525
1225.2970858363137,1543
1227.4336445143094,1513
1229.5696359295966,1546
1231.705060320639,1470
1233.8399179259786,1501
1235.9742089842384,1498
1238.107933734118,1522
1240.2410924143974,1562
1242.373685263935,1543
1244.5057125216676,1520
1246.6371744266116,1556
1248.7680712178621,1547
1250.898403134593,1584
1253.028170416058,1541
1255.1573733015875,1561
1257.2860120305932,1592
1259.4140868425648,1525
1261.54159797707,1530
1263.6685456737569,1553
1265.7949301723515,1628
1267.9207517126597,1683
1270.046010534565,1539
1272.1707068780306,1584
1274.2948409830983,1523
1276.4184130898889,1579
1278.541423438603,1571
1280.6638722695184,1550
1282.785759822993,1580
1284.9070863394636,1557
1287.0278520594447,1578
1289.1480572235314,1710
1291.2677020723963,1664
1293.3867868467923,1620
1295.5053117875495,1602
1297.623277135579,1650
1299.740683131868,1655
1301.8575300174857,1636
1303.973818033578,1636
1306.0895474213703,1736
1308.2047184221678,1711
1310.3193312773528,1647
1312.4333862283888,1638
1314.5468835168163,1626
1316.659823384255,1620
1318.7722060724045,1646
1320.8840318230418,1644
1322.9953008780249,1653
1325.1060134792888,1670
1327.2161698688478,1673
1329.3257702887959,1685
1331.4348149813054,1685
1333.5433041886276,1602
1335.6512381530933,1670
1337.7586171171101,1622
1339.8654413231675,1680
1341.9717110138317,1600
1344.0774264317488,1621
1346.1825878196432,1672
1348.2871954203192,1618
1350.3912494766587,1635
1352.4947502316231,1638
1354.5976979282532,1595
1356.7000928096686,1657
1358.8019351190665,1636
1360.9032250997243,1607
1363.0039629949988,1617
1365.1041490483235,1602
1367.2037835032133,1610
1369.3028666032606,1629
1371.401398592137,1632
1373.4993797135926,1658
1375.5968102114575,1574
1377.6936903296396,1661
1379.7900203121262,1623
1381.8858004029835,1700
1383.9810308463561,1685
1386.075711886469,1695
1388.1698437676241,1643
1390.2634267342032,1648
1392.356461030667,1673
1394.4489469015557,1615
1396.5408845914872,1713
1398.6322743451592,1706
1400.7231164073469,1706
1402.813411022907,1670
1404.903158436773,1690
1406.9923588939578,1710
1409.0810126395531,1740
1411.1691199187303,1743
1413.2566809767386,1713
1415.343696058907,1737
1417.4301654106425,1780
1419.5160892774315,1793
1421.6014679048399,1798
1423.6863015385125,1804
1425.7705904241707,1766
1427.8543348076178,1808
1429.9375349347342,1847
1432.0201910514802,1833
1434.102303403894,1874
1436.1838722380944,1799
1438.2648978002767,1879
1440.3453803367174,1841
1442.4253200937692,1906
1444.5047173178677,1930
1446.5835722555234,1961
1448.6618851533285,1953
1450.739656257952,2016
1452.8168858161434,1962
1454.8935740747306,2021
1456.96972128062,1970
1459.045327680797,2033
1461.120393522327,2147
1463.1949190523528,2148
1465.2689045180973,2154
1467.3423501668608,2198
1469.415256246024,2303
1471.4876230030463,2261
1473.559450685465,2294
1475.6307395408976,2297
1477.7014898170391,2327
1479.771701761665,2330
1481.8413756226287,2411
1483.9105116478618,2471
1485.9791100853772,2448
1488.0471711832643,2486
1490.1146951896926,2601
1492.1816823529098,2643
1494.2481329212433,2564
1496.3140471430984,2579
1498.3794252669609,2673
1500.4442675413939,2769
1502.5085742150404,2715
1504.572345536622,2786
1506.6355817549388,2712
1508.6982831188702,2777
1510.7604498773744,2712
1512.8220822794883,2807
1514.8831805743293,2822
1516.9437450110909,2905
1519.003775839048,3000
1521.0632733075522,2915
1523.1222376660367,3066
1525.1806691640113,2993
1527.2385680510652,3129
1529.2959345768668,3160
1531.3527689911643,3148
1533.4090715437833,3161
1535.4648424846291,3134
1537.5200820636855,3288
1539.5747905310159,3357
1541.6289681367616,3395
1543.6826151311434,3500
1545.7357317644614,3437
1547.7883182870937,3528
1549.8403749494987,3586
1551.8919020022113,3714
1553.9428996958477,3718
1555.9933682811015,3856
1558.0433080087469,3845
1560.0927191296346,3977
1562.1416018946961,3859
1564.1899565549415,3971
1566.2377833614592,3946
1568.2850825654164,3912
1570.3318544180606,3777
1572.3780991707158,3693
1574.423817074788,3551
1576.4690083817595,3493
1578.5136733431923,3374
1580.5578122107272,3138
1582.601425236085,3191
1584.6445126710646,2925
1586.6870747675434,2774
1588.7291117774776,2603
1590.7706239529034,2516
1592.8116115459347,2483
1594.8520748087658,2440
1596.8920139936686,2305
1598.9314293529933,2196
1600.9703211391711,2155
1603.008689604711,2140
1605.0465350022005,2060
1607.0838575843068,1954
1609.1206576037753,1971
1611.1569353134305,1949
1613.1926909661765,1911
1615.2279248149953,1870
1617.2626371129481,1926
1619.2968281131757,1916
1621.3304980688963,1811
1623.3636472334088,1848
1625.39627586009,1819
1627.428384202396,1801
1629.459972513861,1759
1631.4910410480993,1697
1633.5215900588028,1686
1635.551619799744,1731
1637.5811305247717,1745
1639.6101224878166,1676
1641.6385959428862,1666
1643.6665511440683,1621
1645.693988345528,1668
1647.7209078015112,1719
1649.7473097663405,1680
1651.7731944944203,1613
1653.7985622402307,1643
1655.823413258333,1656
1657.847747803366,1631
1659.8715661300494,1667
1661.8948684931793,1659
1663.9176551476316,1669
1665.9399263483624,1612
1667.9616823504057,1605
1669.982923408873,1596
1672.0036497789574,1624
1674.0238617159293,1607
1676.043559475138,1673
1678.0627433120121,1570
1680.081413482059,1597
1682.0995702408654,1633
1684.117213844096,1644
1686.134344547495,1572
1688.1509626068864,1633
1690.1670682781705,1637
1692.182661817329,1624
1694.1977434804217,1580
1696.2123135235875,1629
1698.226372203043,1655
1700.2399197750851,1646
1702.2529564960905,1594
1704.2654826225112,1681
1706.277498410882,1667
1708.2890041178139,1602
1710.2999999999988,1633
1712.3104863142066,1597
1714.3204633172854,1550
1716.329931266163,1547
1718.3388904178469,1631
1720.3473410294214,1558
1722.3552833580516,1509
1724.3627176609807,1581
1726.3696441955308,1560
1728.3760632191033,1614
1730.3819749891782,1538
1732.3873797633146,1552
1734.3922777991502,1607
1736.3966693544012,1644
1738.4005546868639,1574
1740.4039340544127,1528
1742.406807715001,1523
1744.4091759266616,1507
1746.4110389475054,1544
1748.4123970357223,1544
1750.413250449582,1560
1752.4135994474318,1517
1754.4134442876993,1457
1756.4127852288902,1491
1758.4116225295893,1584
1760.4099564484595,1522
1762.407787244244,1539
1764.405115175764,1543
1766.4019405019203,1514
1768.3982634816916,1551
1770.3940843741357,1433
1772.3894034383907,1425
1774.3842209336717,1579
1776.378537119274,1457
1778.372352254571,1498
1780.3656665990156,1508
1782.3584804121397,1528
1784.3507939535534,1415
1786.3426074829463,1458
1788.3339212600863,1495
1790.3247355448211,1491
1792.3150505970766,1507
1794.3048666768573,1483
1796.2941840442477,1458
1798.2830029594106,1481
1800.2713236825884,1487
1802.2591464741004,1473
1804.2464715943465,1412
1806.2332993038058,1497
1808.2196298630352,1477
1810.2054635326708,1436
1812.190800573428,1448
1814.175641246101,1443
1816.1599858115628,1480
1818.1438345307652,1465
1820.127187664738,1556
1822.1100454745924,1475
1824.092408221516,1518
1826.0742761667766,1518
1828.055649571721,1504
1830.0365286977735,1487
1832.0169138064398,1549
1833.9968051593014,1497
1835.9762030180214,1530
1837.9551076443408,1512
1839.9335193000788,1511
1841.9114382471344,1470
1843.888864747485,1450
1845.8657990631878,1486
1847.842241456378,1461
1849.8181921892697,1462
1851.7936515241558,1424
1853.7686197234098,1471
1855.7430970494815,1461
1857.7170837649014,1473
1859.6905801322787,1445
1861.6635864143004,1485
1863.6361028737338,1516
1865.608129773424,1385
1867.5796673762961,1437
1869.5507159453537,1464
1871.521275743678,1517
1873.4913470344313,1461
1875.4609300808534,1545
1877.4300251462632,1475
1879.3986324940588,1475
1881.366752387717,1484
1883.3343850907936,1499
1885.3015308669228,1501
1887.268189979819,1522
1889.2343626932739,1546
1891.2000492711595,1490
1893.1652499774254,1435
1895.1299650761011,1508
1897.0941948312952,1456
1899.0579395071945,1468
1901.0211993680641,1455
1902.98397467825,1518
1904.9462657021745,1460
1906.9080727043415,1473
1908.869395949332,1449
1910.8302357018065,1531
1912.790592226504,1495
1914.7504657882428,1469
1916.7098566519212,1476
1918.6687650825133,1473
1920.6271913450764,1470
1922.5851357047422,1455
1924.5425984267245,1437
1926.499579776314,1465
1928.4560800188833,1412
1930.4120994198802,1489
1932.367638244833,1475
1934.32269675935,1457
1936.2772752291175,1506
1938.231373919899,1516
1940.1849930975404,1496
1942.1381330279637,1506
1944.0907939771696,1460
1946.0429762112412,1457
1947.9946799963363,1497
1949.9459055986945,1438
1951.896653284633,1449
1953.8469233205478,1446
1955.7967159729142,1454
1957.7460315082863,1428
1959.6948701932974,1442
1961.6432322946594,1504
1963.5911180791632,1531
1965.5385278136787,1556
1967.4854617651545,1460
1969.4319202006182,1451
1971.377903387176,1457
1973.3234115920136,1427
1975.268445082395,1480
1977.2130041256642,1445
1979.1570889892423,1472
1981.1006999406304,1502
1983.04383724741,1435
1984.986501177238,1426
1986.928691997853,1416
1988.8704099770712,1474
1990.811655382789,1407
1992.7524284829801,1417
1994.692729545698,1470
1996.6325588390755,1422
1998.5719166313224,1470
2000.5108031907307,1418
2002.4492187856677,1402
2004.387163684583,1432
2006.3246381560011,1434
2008.2616424685298,1412
2010.1981768908527,1411
2012.1342416917332,1381
2014.069837140014,1461
2016.0049635046162,1447
2017.9396210545406,1391
2019.8738100588666,1456
2021.8075307867502,1474
2023.740783507431,1435
2025.6735684902228,1418
2027.6058860045214,1443
2029.5377363198004,1408
2031.4691197056118,1383
2033.4000364315875,1399
2035.3304867674374,1438
2037.260470982952,1380
2039.189989347998,1419
2041.1190421325232,1448
2043.047629606554,1422
2044.9757520401945,1416
2046.9034097036288,1388
2048.8306028671195,1419
2050.7573318010086,1381
2052.683596775716,1387
2054.609398061742,1394
2056.5347359296647,1401
2058.4596106501403,1406
2060.384022493906,1420
2062.3079717317764,1384
2064.231458634646,1373
2066.1544834734873,1423
2068.077046519352,1439
2069.99914804337,1352
2071.9207883167524,1390
2073.8419676107865,1445
2075.7626861968406,1410
2077.6829443463607,1432
2079.6027423308715,1397
2081.522080421977,1386
2083.440958891362,1423
2085.359378010786,1362
2087.2773380520907,1433
2089.194839287196,1373
2091.111881988101,1406
2093.0284664268825,1394
2094.9445928756973,1427
2096.86026160678,1386
2098.775472892446,1408
2100.690227005088,1376
2102.604524217178,1365
2104.5183648012676,1439
2106.431749029985,1482
2108.34467717604,1455
2110.2571495122206,1405
2112.169166311393,1439
2114.080727846503,1416
2115.9918343905747,1443
2117.902486216711,1381
2119.8126835980956,1450
2121.722426807987,1412
2123.6317161197285,1423
2125.5405518067364,1407
2127.448934142509,1425
2129.356863400624,1414
2131.264339854737,1437
2133.1713637785815,1461
2135.077935445972,1486
2136.9840551308002,1452
2138.889723107037,1482
2140.7949396487334,1430
2142.699705030018,1397
2144.6040195250994,1440
2146.507883408264,1480
2148.4112969538774,1441
2150.3142604363848,1472
2152.2167741303097,1498
2154.1188383102535,1479
2156.0204532508997,1487
2157.9216192270064,1458
2159.822336513414,1477
2161.7226053850413,1509
2163.622426116884,1451
2165.5217989840185,1487
2167.4207242616,1499
2169.319202224862,1462
2171.2172331491165,1514
2173.1148173097563,1490
2175.0119549822507,1526
2176.90864644215,1495
2178.8048919650823,1458
2180.7006918267534,1489
2182.596046302952,1484
2184.4909556695407,1488
2186.3854202024645,1510
2188.279440177746,1486
2190.173015871487,1459
2192.066147559868,1497
2193.958835519149,1479
2195.851080025667,1493
2197.7428813558417,1476
2199.6342397861667,1566
2201.5251555932186,1467
2203.415629053651,1516
2205.3056604441986,1533
2207.19525004167,1538
2209.084398122958,1521
2210.9731049650327,1475
2212.861370844941,1491
2214.749196039812,1495
2216.636580826851,1505
2218.523525483344,1516
2220.410030286655,1473
2222.296095514226,1501
2224.1817214435805,1541
2226.066908352319,1519
2227.951656518121,1565
2229.835966218746,1540
2231.71983773203,1493
2233.6032713358913,1518
2235.486267308324,1562
2237.3688259274036,1473
2239.2509474712824,1550
2241.132632218193,1531
2243.013880446447,1495
2244.8946924344323,1547
2246.7750684606203,1539
2248.6550088035574,1502
2250.534513741871,1504
2252.413583554265,1505
2254.292218519526,1543
2256.170418916517,1521
2258.0481850241786,1525
2259.925517121534,1531
2261.8024154876825,1575
2263.678880401803,1597
2265.5549121431536,1541
2267.430510991071,1531
2269.305677224971,1509
2271.180411124348,1536
2273.0547129687766,1530
2274.9285830379076,1484
2276.8020216114737,1492
2278.6750289692845,1457
2280.5476053912294,1420
2282.4197511572766,1479
2284.2914665474727,1504
2286.162751841943,1577
2288.0336073208937,1586
2289.904033264608,1582
2291.774029953448,1543
2293.6435976678554,1541
2295.5127366883517,1499
2297.381447295534,1476
2299.2497297700825,1446
2301.1175843927526,1412
2302.9850114443825,1360
2304.852011205885,1320
2306.7185839582553,1366
2308.5847299825664,1295
2310.4504495599676,1298
2312.3157429716925,1314
2314.1806104990483,1316
2316.0450524234247,1284
2317.9090690262888,1291
2319.772660589186,1298
2321.635827393742,1289
2323.498569721661,1360
2325.3608878547248,1322
2327.2227820747967,1301
2329.0842526638157,1282
2330.945299903803,1260
2332.805924076857,1306
2334.6661254651535,1278
2336.525904350951,1264
2338.3852610165827,1281
2340.244195744464,1266
2342.102708817088,1303
2343.9608005170253,1340
2345.8184711269287,1263
2347.675720929526,1314
2349.532550207628,1270
2351.38895924412,1235
2353.24494832197,1327
2355.100517724223,1293
2356.955667734004,1275
2358.810398634514,1311
2360.664710709037,1320
2362.5186042409337,1266
2364.3720795136437,1309
2366.225136810686,1268
2368.0777764156583,1309
2369.929998612237,1296
2371.7818036841777,1309
2373.633191915315,1276
2375.484163589562,1285
2377.3347189909114,1313
2379.184858403434,1363
2381.03458211128,1329
2382.8838903986775,1340
2384.732783549936,1339
2386.5812618494406,1336
2388.4293255816588,1318
2390.2769750311327,1316
2392.1242104824883,1297
2393.971032220427,1349
2395.8174405297295,1362
2397.6634356952563,1331
2399.509018001947,1341
2401.3541877348193,1342
2403.1989451789705,1303
2405.043290619576,1310
2406.8872243418905,1304
2408.730746631247,1318
2410.5738577730594,1347
2412.4165580528183,1341
2414.258847756095,1340
2416.100727168537,1328
2417.9421965758734,1294
2419.783256263912,1364
2421.623906518538,1313
2423.4641476257157,1310
2425.303979871491,1326
2427.143403541984,1314
2428.9824189233977,1321
2430.821026302012,1308
2432.6592259641866,1383
2434.497018196361,1334
2436.33440328505,1313
2438.171381516851,1335
2440.00795317844,1374
2441.844118556569,1266
2443.6798779380724,1373
2445.5152316098606,1325
2447.3501798589255,1321
2449.1847229723357,1305
2451.0188612372403,1281
2452.8525949408663,1319
2454.6859243705203,1290
2456.518849813587,1314
2458.3513715575314,1276
2460.183489889895,1291
2462.015205098301,1299
2463.8465174704493,1311
2465.67742729412,1379
2467.5079348571717,1320
2469.338040447542,1393
2471.1677443532476,1326
2472.9970468623833,1323
2474.825948263123,1331
2476.6544488437207,1389
2478.482548892508,1379
2480.310248697896,1376
2482.137548548374,1327
2483.9644487325118,1353
2485.790949538956,1369
2487.617051256433,1365
2489.44275417375,1362
2491.26805857979,1397
2493.0929647635157,1384
2494.917473013971,1380
2496.741583620276,1396
2498.5652968716304,1400
2500.3886130573137,1370
2502.2115324666834,1375
2504.0340553891765,1396
2505.856182114308,1354
2507.6779129316733,1376
2509.499248130945,1366
2511.3201880018764,1362
2513.140732834298,1411
2514.9608829181198,1352
2516.780638543331,1359
2518.6,1333
2520.418967578273,1393
2522.237541568376,1457
2524.0557222606144,1393
2525.8735099453706,1422
2527.6909049131086,1381
2529.507907454368,1386
2531.32451785977,1443
2533.140736420014,1442
2534.9565634258774,1461
2536.771999168218,1484
2538.5870439379714,1466
2540.4016980261526,1543
2542.2159617238544,1545
2544.02983532225,1478
2545.8433191125914,1465
2547.656413386209,1513
2549.4691184345115,1483
2551.2814345489874,1517
2553.093362021204,1575
2554.904901142808,1519
2556.716052205523,1553
2558.526815501153,1523
2560.3371913215824,1551
2562.147179958771,1524
2563.956781704761,1540
2565.7659968516705,1637
2567.5748256916986,1591
2569.3832685171224,1597
2571.1913256202984,1596
2572.9989972936614,1648
2574.806283829725,1636
2576.613185521084,1610
2578.4197026604074,1623
2580.2258355404483,1672
2582.031584454035,1644
2583.836949694077,1633
2585.6419315535613,1679
2587.4465303255533,1693
2589.2507463032002,1689
2591.0545797797245,1723
2592.8580310484303,1764
2594.6611004026995,1689
2596.463788135992,1706
2598.266094541849,1789
2600.0680199138874,1771
2601.869564545807,1736
2603.670728731383,1775
2605.4715127644704,1733
2607.2719169390048,1726
2609.071941548998,1762
2610.8715868885433,1757
2612.670853251811,1789
2614.469740933052,1742
2616.268250226594,1686
2618.0663814268455,1771
2619.864134828292,1739
2621.6615107255006,1744
2623.458509413115,1746
2625.2551311858597,1756
2627.0513763385347,1697
2628.8472451660223,1719
2630.6427379632833,1683
2632.4378550253564,1689
2634.232596647359,1649
2636.026963124488,1682
2637.8209547520187,1634
2639.6145718253065,1646
2641.407814639785,1639
2643.200683490966,1608
2644.9931786744414,1654
2646.7853004858807,1587
2648.577049221034,1603
2650.3684251757277,1569
2652.1594286458712,1525
2653.9500599274484,1563
2655.740319316525,1632
2657.5302071092437,1575
2659.3197236018286,1575
2661.10886909058,1524
2662.8976438718782,1543
2664.686048242183,1539
2666.4740824980327,1488
2668.2617469360443,1464
2670.0490418529134,1511
2671.8359675454153,1448
2673.622524310403,1462
2675.408712444811,1445
2677.1945322456495,1445
2678.979984010009,1450
2680.76506803506,1421
2682.5497846180497,1469
2684.334134056306,1400
2686.1181166472343,1400
2687.9017326883213,1362
2689.6849824771293,1408
2691.4678663113013,1380
2693.2503844885596,1402
2695.032537306705,1398
2696.8143250636167,1402
2698.5957480572542,1391
2700.3768065856534,1435
2702.1575009469316,1388
2703.937831439283,1343
2705.717798360982,1346
2707.4974020103837,1382
2709.276642685917,1383
2711.055520686095,1383
2712.834036309506,1356
2714.612189854819,1365
2716.389981620782,1320
2718.1674119062204,1340
2719.944481010041,1351
2721.721189231226,1369
2723.4975368688415,1366
2725.273524222027,1314
2727.0491515900053,1282
2728.824419272075,1328
2730.5993275676146,1284
2732.3738767760838,1352
2734.148067197016,1330
2735.921899130031,1336
2737.6953728748194,1390
2739.468488731156,1317
2741.2412469988926,1252
2743.0136479779617,1288
2744.785691968372,1285
2746.5573792702116,1309
2748.3287101836504,1242
2750.099685008934,1328
2751.870304046388,1374
2753.640567596418,1299
2755.4104759595057,1294
2757.1800294362156,1336
2758.949228327187,1287
2760.7180729331412,1305
2762.486563554877,1328
2764.254700493272,1320
2766.022484049284,1311
2767.789914523947,1280
2769.5569922183786,1273
2771.3237174337705,1271
2773.090090471394,1257
2774.8561116326036,1370
2776.6217812188274,1329
2778.3870995315756,1290
2780.1520668724356,1328
2781.9166835430747,1283
2783.6809498452394,1267
2785.444866080754,1323
2787.2084325515225,1300
2788.971649559527,1338
2790.73451740683,1266
2792.4970363955713,1266
2794.2592068279705,1314
2796.0210290063264,1344
2797.7825032330147,1328
2799.543629810493,1267
2801.304409041296,1268
2803.0648412280366,1284
2804.8249266734088,1290
2806.5846656801846,1313
2808.344058551212,1342
2810.1031055894246,1359
2811.8618070978273,1334
2813.6201633795085,1310
2815.378174737636,1306
2817.1358414754536,1208
2818.893163896285,1294
2820.6501423035334,1320
2822.4067770006814,1249
2824.1630682912883,1321
2825.9190164789957,1313
2827.6746218675207,1296
2829.429884760661,1260
2831.184805462294,1273
2832.9393842763743,1314
2834.693621506936,1304
2836.4475174580916,1287
2838.201072434034,1282
2839.954286739034,1329
2841.707160677441,1304
2843.459694553685,1287
2845.2118886722724,1294
2846.96374333779,1334
2848.7152588549034,1370
2850.4664355283567,1333
2852.217273662973,1292
2853.9677735636546,1350
2855.7179355353833,1300
2857.4677598832186,1267
2859.217246912299,1311
2860.9663969278427,1279
2862.715210235146,1228
2864.4636871395846,1292
2866.211827946614,1287
2867.9596329617652,1287
2869.7071024906536,1268
2871.4542368389684,1264
2873.20103631248,1282
2874.947501217038,1311
2876.6936318585695,1279
2878.4394285430812,1316
2880.1848915766604,1289
2881.9300212654707,1300
2883.6748179157553,1302
2885.4192818338374,1291
2887.1634133261173,1283
2888.907212699077,1305
2890.6506802592744,1281
2892.393816313348,1288
2894.1366211680142,1240
2895.8790951300693,1333
2897.621238506388,1249
2899.363051603925,1300
2901.1045347297118,1315
2902.8456881908596,1316
2904.58651229456,1312
2906.327007348081,1276
2908.067173658772,1295
2909.8070115340597,1335
2911.5465212814497,1236
2913.285703208527,1307
2915.0245576229563,1343
2916.7630848324807,1292
2918.5012851449196,1249
2920.2391588681758,1363
2921.976706310227,1275
2923.7139277791334,1354
2925.4508235830313,1244
2927.187394030137,1322
2928.923639428745,1295
2930.6595600872306,1313
2932.395156314046,1261
2934.1304284177218,1298
2935.8653767068713,1299
2937.6000014901815,1221
2939.3343030764227,1338
2941.068281774442,1327
2942.8019378931644,1328
2944.5352717415976,1276
2946.2682836288236,1253
2948.0009738640065,1307
2949.7333427563885,1297
2951.465390615289,1312
2953.1971177501086,1336
2954.9285244703265,1302
2956.6596110855,1357
2958.3903779052657,1286
2960.1208252393385,1297
2961.8509533975125,1355
2963.5807626896617,1319
2965.3102534257378,1309
2967.0394259157715,1316
2968.768280469873,1293
2970.496817398232,1279
2972.2250370111146,1291
2973.952939618869,1352
2975.6805255319196,1326
2977.4077950607707,1305
2979.134748516006,1373
2980.861386208289,1348
2982.587708448359,1291
2984.313715547037,1271
2986.039407815222,1322
2987.764785563891,1287
2989.489849104102,1296
2991.2145987469908,1265
2992.9390348037705,1276
2994.6631575857346,1248
2996.3869674042576,1301
2998.1104645707887,1274
2999.83364939686,1267
3001.5565221940783,1284
3003.2790832741334,1287
3005.0013329487924,1279
3006.7232715298996,1279
3008.4448993293804,1249
3010.166216659239,1265
3011.887223831558,1209
3013.607921158498,1278
3015.3283089522993,1257
3017.0483875252826,1286
3018.7681571898443,1288
3020.4876182584626,1301
3022.2067710436927,1341
3023.9256158581707,1294
3025.644153014609,1293
3027.362382825801,1267
3029.0803056046193,1312
3030.797921664012,1242
3032.5152313170106,1292
3034.2322348767225,1253
3035.9489326563353,1263
3037.665324969115,1284
3039.3814121284063,1269
3041.097194447633,1259
3042.812672240299,1255
3044.5278458199855,1309
3046.2427155003525,1333
3047.9572815951406,1254
3049.671544418167,1223
3051.38550428333,1239
3053.0991615046073,1284
3054.812516396051,1261
3056.5255692717974,1205
3058.2383204460575,1232
3059.9507702331257,1260
3061.662918947372,1305
3063.3747669032446,1309
3065.0863144152736,1304
3066.7975617980674,1254
3068.508509366309,1306
3070.219157434767,1282
3071.9295063182844,1266
3073.639556331785,1294
3075.3493077902704,1307
3077.058761008821,1352
3078.7679163025964,1228
3080.476773986837,1259
3082.1853343768594,1270
3083.89359778806,1295
3085.6015645359153,1282
3087.3092349359786,1300
3089.016609303884,1264
3090.7236879553434,1294
3092.4304712061476,1321
3094.136959372166,1314
3095.843152769349,1284
3097.5490517137237,1341
3099.2546565213966,1287
3100.959967508554,1251
3102.66498499146,1268
3104.3697092864577,1281
3106.0741407099695,1297
3107.778279578498,1329
3109.482126208622,1341
3111.1856809170004,1337
3112.8889440203716,1361
3114.5919158355528,1299
3116.294596679439,1341
3117.996986869006,1272
3119.6990867213062,1294
3121.4008965534726,1300
3123.102416682717,1310
3124.803647426329,1302
3126.5045891016784,1289
3128.205242026213,1327
3129.90560651746,1310
3131.605682893025,1301
3133.3054714705922,1325
3135.0049725679282,1331
3136.7041865028714,1266
3138.4031135933465,1210
3140.101754157353,1230
3141.800108512971,1267
3143.498176978357,1322
3145.1959598717494,1276
3146.8934575114636,1296
3148.5906702158954,1250
3150.2875983035183,1277
3151.9842420928853,1304
3153.680601902627,1299
3155.376678051456,1293
3157.07247085816,1247
3158.767980641609,1275
3160.463207720748,1231
3162.158152414606,1309
3163.8528150422862,1214
3165.5471959229726,1275
3167.2412953759303,1323
3168.9351137204976,1320
3170.628651276098,1286
3172.3219083622307,1265
3174.014885298474,1273
3175.707582404485,1289
3177.4000000000005,1263
3179.092138404835,1324
3180.7839979388846,1273
3182.47557892212,1271
3184.166881674594,1240
3185.8579065164386,1274
3187.5486537678626,1285
3189.2391237491547,1331
3190.9293167806827,1281
3192.6192331828934,1281
3194.3088732763117,1273
3195.998237381542,1299
3197.687325819268,1257
3199.376138910251,1292
3201.064676975334,1225
3202.7529403354347,1267
3204.4409293115523,1291
3206.1286442247647,1227
3207.816085396229,1213
3209.5032531471825,1245
3211.190147798936,1261
3212.8767696728846,1233
3214.5631190905015,1265
3216.2491963733373,1251
3217.9350018430214,1248
3219.6205358212637,1194
3221.305798629851,1272
3222.990790590651,1243
3224.6755120256103,1157
3226.359963256751,1198
3228.0441446061795,1245
3229.7280563960758,1216
3231.411698948703,1281
3233.0950725863995,1277
3234.778177631587,1221
3236.461014406761,1282
3238.1435832345005,1245
3239.8258844374595,1238
3241.507918338374,1341
3243.1896852600576,1338
3244.8711855254023,1318
3246.552419457381,1233
3248.233387379042,1325
3249.914089613516,1303
3251.59452648401,1207
3253.274698313813,1313
3254.95460542629,1249
3256.6342481448855,1292
3258.313626793125,1258
3259.9927416946084,1246
3261.6715931730196,1254
3263.3501815521176,1222
3265.0285071557437,1281
3266.706570307815,1223
3268.3843713323286,1259
3270.0619105533615,1242
3271.739188295068,1257
3273.4162048816834,1240
3275.0929606375184,1268
3276.769455886966,1249
3278.445690954498,1221
3280.1216661646613,1259
3281.797381842087,1318
3283.4728383114807,1237
3285.1480358976296,1258
3286.8229749253996,1241
3288.4976557197333,1257
3290.172078605655,1187
3291.846243908266,1256
3293.5201519527463,1267
3295.193803064357,1183
3296.8671975684374,1267
3298.5403357904024,1240
3300.21321805575,1240
3301.8858446900567,1303
3303.558216018975,1237
3305.23033236824,1267
3306.9021940636603,1204
3308.57380143113,1253
3310.2451547966184,1225
3311.916254486174,1271
3313.5871008259246,1311
3315.2576941420766,1226
3316.9280347609147,1259
3318.5981230088046,1245
3320.2679592121895,1218
3321.9375436975924,1273
3323.606876791612,1202
3325.27595882093,1206
3326.944790112305,1205
3328.6133709925753,1212
3330.2817017886573,1270
3331.949782827547,1256
3333.617614436319,1271
3335.2851969421245,1318
3336.952530672199,1216
3338.619615953853,1265
3340.286453114475,1212
3341.9530424815357,1249
3343.619384382583,1276
3345.2854791452437,1226
3346.951327097224,1226
3348.6169285663073,1274
3350.2822838803577,1266
3351.947393367319,1277
3353.61225735521,1247
3355.2768761721345,1323
3356.9412501462693,1296
3358.605379605873,1288
3360.2692648792827,1262
3361.9329062949146,1296
3363.596304181263,1285
