CollectionTime,6/26/2024 3:37:12 PM
ExposureUsed,3
CalibratedSpectrum
-962.7078968117929,666
-959.9714848408522,715
-957.2358232597828,693
-954.5009119013725,707
-951.7667505983302,738
-949.0333391832855,761
-946.3006774887896,727
-943.5687653473143,717
-940.837602591253,757
-938.1071890529199,750
-935.3775245645503,750
-932.6486089583007,801
-929.9204420662485,775
-927.1930237203925,758
-924.4663537526524,738
-921.7404319948689,757
-919.0152582788041,750
-916.2908324361409,809
-913.5671542984834,803
-910.8442236973568,787
-908.1220404642074,778
-905.4006044304027,773
-902.679915427231,807
-899.959973285902,782
-897.2407778375464,761
-894.5223289132158,739
-891.8046263438832,760
-889.0876699604426,743
-886.3714595937089,711
-883.6559950744183,726
-880.9412762332282,716
-878.2273029007168,701
-875.5140749073835,714
-872.8015920836489,710
-870.0898542598545,687
-867.3788612662631,688
-864.6686129330585,695
-861.9591090903457,684
-859.2503495681506,669
-856.5423341964203,705
-853.8350628050229,702
-851.1285352237478,725
-848.4227512823054,676
-845.7177108103272,694
-843.0134136373656,731
-840.3098595928943,716
-837.6070485063082,701
-834.9049802069229,703
-832.2036545239757,706
-829.5030712866244,770
-826.8032303239481,735
-824.1041314649472,681
-821.4057745385428,717
-818.7081593735775,681
-816.0112857988148,682
-813.3151536429393,737
-810.6197627345566,699
-807.9251129021936,714
-805.2312039742981,694
-802.5380357792392,700
-799.8456081453069,695
-797.1539209007124,706
-794.462973873588,691
-791.772766891987,680
-789.083299783884,701
-786.3945723771743,706
-783.7065844996748,690
-781.0193359791231,731
-778.3328266431781,716
-775.6470563194197,726
-772.9620248353489,747
-770.2777320183878,705
-767.5941776958798,710
-764.9113616950891,701
-762.2292838432011,760
-759.5479439673222,714
-756.8673418944801,721
-754.1874774516235,700
-751.5083504656222,739
-748.8299607632671,709
-746.15230817127,692
-743.475392516264,708
-740.7992136248035,765
-738.1237713233636,729
-735.4490654383407,724
-732.7750957960521,756
-730.1018622227365,767
-727.4293645445534,735
-724.7576025875837,740
-722.0865761778291,755
-719.4162851412126,766
-716.7467293035781,767
-714.0779084906909,762
-711.409822528237,794
-708.7424712418238,786
-706.0758544569796,784
-703.4099719991541,748
-700.7448236937178,799
-698.0804093659622,800
-695.4167288411002,724
-692.7537819442656,750
-690.0915685005134,807
-687.4300883348199,802
-684.7693412720819,820
-682.1093271371178,790
-679.4500457546669,773
-676.7914969493897,804
-674.1336805458676,801
-671.4765963686034,827
-668.8202442420206,822
-666.1646239904642,770
-663.5097354382001,843
-660.8555784094151,822
-658.2021527282176,805
-655.5494582186366,847
-652.8974947046223,802
-650.2462620100463,839
-647.5957599587009,844
-644.9459883742998,866
-642.2969470804776,859
-639.6486359007902,894
-637.0010546587141,838
-634.3542031776476,828
-631.7080812809096,828
-629.0626887917401,818
-626.4180255333008,808
-623.7740913286734,823
-621.1308860008619,813
-618.4884093727904,810
-615.8466612673046,827
-613.2056415071715,773
-610.5653499150785,836
-607.9257863136347,861
-605.28695052537,854
-602.6488423727357,828
-600.0114616781036,856
-597.3748082637674,867
-594.7388819519412,824
-592.1036825647604,874
-589.4692099242818,822
-586.8354638524829,844
-584.2024441712624,851
-581.5701507024403,795
-578.9385832677575,826
-576.3077416888759,798
-573.6776257873787,846
-571.0482353847704,822
-568.4195703024757,877
-565.7916303618415,862
-563.164415384135,863
-560.5379251905453,879
-557.9121596021815,857
-555.2871184400748,834
-552.6628015251767,839
-550.0392086783606,889
-547.4163397204204,865
-544.794194472071,845
-542.1727727539491,903
-539.5520743866118,891
-536.9320991905377,943
-534.3128469861261,955
-531.6943175936979,989
-529.0765108334947,959
-526.4594265256793,1068
-523.8430644903358,1174
-521.2274245474689,1318
-518.612506517005,1457
-515.9983102187913,1524
-513.3848354725959,1637
-510.77208209810846,1648
-508.16004991493924,1777
-505.5487387426199,1871
-502.9381484006032,2033
-500.3282787082628,2139
-497.71912948489364,2184
-495.1107005497117,2146
-492.5029917218539,1994
-489.8960028203786,1846
-487.28973366426493,1668
-484.68418407241325,1457
-482.07935386364494,1336
-479.47524285670266,1211
-476.87185087025,1264
-474.2691777228715,1181
-471.66722323307334,1136
-469.0659872192821,1151
-466.4654694998459,1134
-463.86566989303384,1142
-461.26658821703614,1123
-458.66822428996414,1085
-456.07057792985,1109
-453.4736489546475,1096
-450.877437182231,1106
-448.28194243039627,1087
-445.68716451686,1092
-443.09310325926003,1089
-440.49975847515555,1097
-437.9071299820263,1025
-435.31521759727354,1021
-432.72402113821954,1015
-430.13354042210767,1058
-427.5437752661022,1117
-424.95472548728867,1199
-422.36639090267386,1150
-419.7787713291855,1175
-417.1918665836721,1165
-414.60567648290385,1138
-412.0202008435715,1201
-409.4354394822874,1129
-406.8513922155845,1107
-404.26805885991723,1167
-401.685439231661,1116
-399.103533147112,1165
-396.522340422488,1130
-393.9418608739278,1125
-391.3620943174908,1123
-388.7830405691583,1104
-386.2046994448317,1127
-383.6270707603344,1042
-381.05015433141045,971
-378.473949973725,859
-375.8984575028645,878
-373.32367673433623,786
-370.74960748356875,744
-368.1762495659117,716
-365.60360279663576,658
-363.03166699093265,630
-360.4604419639154,628
-357.8899275306178,568
-355.32012350599507,520
-352.7510297049233,481
-350.1826459421999,556
-347.61497203254316,573
-345.04800779059235,532
-342.4817530309082,526
-339.91620756797226,516
-337.35137121618743,530
-334.7872437898774,526
-332.22382510328725,524
-329.66111497058273,527
-327.09911320585127,498
-324.53781962310075,523
-321.9772340362607,528
-319.4173562591816,604
-316.8581861056348,671
-314.2997233893127,636
-311.7419679238294,615
-309.1849195227194,620
-306.62857799943856,594
-304.0729431673641,532
-301.51801483979375,528
-298.963792829947,567
-296.41027695096386,596
-293.85746701590574,568
-291.3053628377552,599
-288.7539642294155,619
-286.2032710037115,647
-283.65328297338897,651
-281.1039999511146,706
-278.5554217494762,754
-276.007548180983,661
-273.4603790580651,641
-270.9139141930734,668
-268.3681533982807,675
-265.8230964858798,644
-263.27874326798565,590
-260.7350935566336,638
-258.1921471637804,706
-255.6499039013039,753
-253.10836358100266,781
-250.56752601459698,699
-248.02739101372765,707
-245.48795838995704,811
-242.94922795476816,793
-240.41119951956557,758
-237.8738728956746,874
-235.33724789434166,898
-232.80132432673452,943
-230.2661020039418,1100
-227.73158073697357,977
-225.19776033676033,808
-222.66464061415422,789
-220.1322213799284,797
-217.60050244477725,790
-215.06948361931552,804
-212.53916471408013,772
-210.00954553952818,781
-207.48062590603843,824
-204.9524056239104,832
-202.4248845033651,787
-199.8980623545441,878
-197.37193898751036,869
-194.84651421224817,890
-192.32178783866232,903
-189.79775967657952,909
-187.27442953574644,940
-184.7517972258321,980
-182.2298625564256,868
-179.7086253370378,1033
-177.18808537710026,1117
-174.66824248596583,1127
-172.14909647290835,1086
-169.6306471471229,1097
-167.11289431772548,995
-164.59583779375328,1022
-162.07947738416453,1090
-159.5638128978386,1112
-157.04884414357605,1144
-154.53457093009854,1222
-152.02099306604828,1144
-149.50811035998936,1128
-146.99592262040665,1155
-144.48442965570587,1150
-141.97363127421409,1106
-139.46352728417958,1185
-136.95411749377126,1254
-134.44540171107985,1349
-131.93737974411636,1385
-129.43005140081357,1312
-126.92341648902493,1299
-124.41747481652521,1425
-121.91222619101006,1364
-119.40767042009657,1260
-116.90380731132257,1220
-114.40063667214702,1413
-111.8981583099503,1708
-109.3963720320337,1619
-106.89527764561933,1485
-104.39487495785067,1434
-101.89516377579241,1699
-99.39614390642998,1732
-96.89781515667039,1663
-94.40017733334128,1922
-91.90323024319173,1765
-89.40697369289148,1824
-86.91140748903172,1801
-84.41653143812482,1760
-81.92234534660395,1910
-79.42884902082358,2055
-76.93604226705907,2061
-74.4439248915071,2286
-71.95249670028534,2403
-69.46175749943245,2161
-66.97170709490854,2165
-64.48234529259423,2588
-61.99367189829195,2903
-59.50568671772464,2738
-57.01838955653636,3089
-54.53178022029283,2942
-52.045858514480074,3284
-49.560624244506016,3608
-47.07607721569923,3380
-44.59221723330904,3349
-42.10904410250669,3522
-39.62655762838392,3791
-37.14475761595372,4470
-34.66364387015028,4833
-32.18321619582866,6096
-29.70347439776515,6666
-27.224418280657005,8114
-24.74604764912317,11939
-22.26836230770266,16294
-19.7913620608565,28053
-17.315046712966478,44290
-14.83941606833514,49969
-12.36446993118659,65038
-9.89020810566592,65038
-7.416630395839093,65038
-4.94373660569363,65038
-2.471526539137585,65038
-6.821210263296962E-13,65038
2.47084320796705,65038
4.941003281093458,65038
7.410480415786196,65038
9.879274808531363,65038
12.347386655893956,65038
14.814816154518212,65038
17.28156350112681,65038
19.74762889252179,65038
22.21301252558385,65038
24.67771459727237,65038
27.141735304626195,44265
29.605074844762612,18336
32.06773341487792,9857
34.52971121224755,6717
36.99100843422559,7469
39.45162527824516,8810
41.91156194181792,8239
44.370818622535126,11469
46.82939551806646,15316
49.287292826160524,13077
51.74451074464503,10935
54.201049471426245,7338
56.65690920448981,4460
59.112090141899785,3591
61.56659248179983,3317
64.02041642241159,3345
66.4735621620365,3111
68.92602989905402,2561
71.37781983192338,2060
73.82893215918205,2557
76.27936707944684,2674
78.72912479141326,2630
81.17820549385567,2591
83.62660938562783,2666
86.07433666566146,2662
88.5213875329681,2898
90.96776218663751,2413
93.41346082583925,2533
95.85848364982041,2709
98.30283085790859,2015
100.7465026495089,2094
103.18949922410604,2293
105.63182078126385,1844
108.07346752062438,2156
110.51443964190923,2436
112.95473734491827,1890
115.39436082953114,1716
117.83331029570547,1632
120.27158594347827,2000
122.7091879729652,1688
125.1461165843615,1564
127.58237197794062,1342
130.01795435405518,1290
132.4528639131364,1331
134.88710085569494,1592
137.32066538231982,1600
139.75355769367923,1529
142.1857779905207,1611
144.61732647366978,1451
147.04820334403132,1446
149.47840880258934,1407
151.90794305040674,1534
154.33680628862487,1507
156.76499871846443,1567
159.19252054122433,1671
161.61937195828352,1936
164.04555317109896,1889
166.47106438120693,2119
168.89590579022217,2314
171.320077599839,2387
173.7435800118302,2411
176.16641322804742,2419
178.58857745042144,2611
181.01007288096173,2690
183.43089972175687,2698
185.85105817497413,2657
188.27054844285988,2748
190.6893707277394,2743
193.10752523201643,2778
195.5250121581745,2945
197.9418317087751,2950
200.3579840864594,2791
202.7734694939469,2809
205.18828813403627,2885
207.6024402096051,2902
210.01592592360964,2913
212.42874547908548,2775
214.84089907914665,2758
217.2523869269868,2777
219.66320922587727,2933
222.0733661791695,2949
224.48285799029293,2814
226.8916848627572,3002
229.29984700014882,3071
231.7073446061355,3119
234.11417788446204,2951
236.520347038953,3106
238.92585227351185,3302
241.33069379212054,3499
243.73487179884035,3373
246.1383864978112,3414
248.541238093252,3338
250.9434267894609,3347
253.34495279081432,3473
255.74581630176783,3417
258.1460175268563,3421
260.54555667069314,3484
262.9444339379703,3388
265.3426495334594,3340
267.7402036620107,3285
270.1370965285529,3169
272.53332833809407,3060
274.9288992957214,3034
277.32380960660055,2885
279.718059475976,2803
282.1116491091717,2869
284.5045787115897,3005
286.89684848871195,2929
289.2884586460981,2804
291.67940938938807,2879
294.0697009242996,2851
296.4593334566299,2770
298.84830719225477,2775
301.23662233712923,2766
303.6242790972866,2699
306.01127767884,2771
308.39761828798066,2759
310.78330113097934,2696
313.16832641418534,2553
315.5526943440269,2661
317.9364051270112,2520
320.3194589697242,2555
322.70185607883093,2523
325.0835966610754,2487
327.4646809232805,2473
329.8451090723478,2529
332.2248813152577,2502
334.6039978590701,2468
336.9824589109231,2449
339.36026467803447,2448
341.7374153677,2456
344.113911187295,2350
346.48975234427337,2366
348.8649390461686,2291
351.2394715005918,2274
353.61334991523415,2299
355.9865744978655,2289
358.35914545633375,2305
360.73106299856715,2294
363.10232733257146,2244
365.47293866643247,2318
367.84289720831396,2294
370.2122031664593,2205
372.5808567491905,2255
374.9488581649083,2200
377.31620762209275,2184
379.6829053293021,2173
382.0489514951745,2249
384.4143463284262,2185
386.7790900378528,2113
389.14318283232853,2219
391.50662492080653,2218
393.86941651231916,2089
396.23155781597745,2116
398.5930490409713,2139
400.9538903965696,2157
403.3140820921202,2057
405.6736243370498,2081
408.03251734086336,2124
410.3907613131465,2125
412.74835646356166,2123
415.10530300185144,2038
417.4616011378372,2081
419.81725108141893,2101
422.1722530425758,2134
424.5266072313656,2118
426.880313857925,2067
429.2333731324701,2091
431.58578526529516,2106
433.9375504667738,2084
436.2886689473588,2085
438.63914091758113,2071
440.9889665880513,2035
443.33814616945835,2067
445.68667987257015,2051
448.03456790823395,2040
450.3818104873759,2017
452.72840782100013,2002
455.07436012019105,2061
457.41966759611057,2011
459.7643304600007,2047
462.10834892318155,2002
464.4517231970525,2047
466.79445349309174,2030
469.1365400228566,2074
471.4779829979826,2063
473.81878263018564,2100
476.15893913125876,2103
478.4984527130747,2108
480.8373235875855,2200
483.17555196682144,2160
485.5131380628919,2248
487.8500820879857,2365
490.1863842543697,2546
492.52204477439034,2706
494.8570638604725,2997
497.1914417251204,3210
499.52517858091653,3461
501.85827464052306,3762
504.19073011668036,3713
506.5225452222086,3726
508.85372017000566,3670
511.18425517304956,3520
513.514150444396,3580
515.8434061971808,4076
518.1720226446176,4599
520.4999999999999,5051
522.8273384766991,5181
525.1540382881666,5312
527.480099647932,5274
529.8055227696037,4471
532.1303078668694,3251
534.454455153496,2474
536.777964843328,2173
539.1008371502907,2116
541.4230722883866,2023
543.744670471698,2007
546.0656319143858,1980
548.3859568306899,1918
550.7056454349294,1961
553.0246979415016,1866
555.3431145648834,1855
557.6608955196306,1879
559.978041020377,1865
562.2945512818363,1782
564.6104265188006,1823
566.9256669461412,1905
569.2402727788082,1831
571.5542442318302,1846
573.8675815203156,1799
576.1802848594508,1850
578.4923544645015,1846
580.8037905508126,1815
583.114593333807,1843
585.4247630289875,1826
587.7342998519354,1839
590.0432040183106,1799
592.3514757438526,1822
594.6591152443794,1808
596.9661227357875,1832
599.2724984340531,1815
601.578242555231,1879
603.8833553154542,1886
606.1878369309362,1849
608.4916876179676,1800
610.7949075929192,1873
613.0974970722403,1857
615.3994562724587,1836
617.7007854101818,1904
620.0014847020951,1873
622.3015543649641,1875
624.6009946156324,1817
626.8998056710224,1890
629.1979877481361,1904
631.4955410640538,1842
633.7924658359349,1912
636.0887622810175,1873
638.3844306166192,1917
640.6794710601358,1876
642.9738838290426,1902
645.2676691408932,1953
647.5608272133207,1852
649.853358264037,1879
652.1452625108324,1895
654.4365401715764,1887
656.7271914642178,1950
659.0172166067838,1929
661.3066158173809,1900
663.5953893141935,1869
665.8835373154867,1883
668.1710600396028,1937
670.4579577049639,2078
672.7442305300709,1894
675.0298787335033,1894
677.3149025339197,1983
679.599302150058,1949
681.8830778007342,1974
684.1662297048437,1909
686.4487580813608,1893
688.7306631493387,1949
691.0119451279091,1930
693.2926042362834,1990
695.5726406937516,1940
697.8520547196814,1953
700.1308465335215,1881
702.4090163547982,1925
704.6865644031171,1963
706.9634908981619,1874
709.2397960596965,1957
711.5154801075631,1891
713.7905432616823,1887
716.0649857420548,1971
718.3388077687592,1893
720.612009561953,1857
722.8845913418733,1857
725.1565533288352,1958
727.427895743234,1940
729.6986188055427,1954
731.9687227363137,1878
734.238207756178,1942
736.5070740858458,1911
738.7753219461066,1868
741.0429515578281,1890
743.3099631419569,1926
745.5763569195191,1926
747.8421331116193,1927
750.1072919394409,1896
752.3718336242467,1844
754.6357583873777,1912
756.8990664502545,1829
759.1617580343765,1937
761.423833361321,1915
763.6852926527457,1878
765.9461361303862,1883
768.206364016058,1948
770.4659765316536,1942
772.7249738991469,1953
774.9833563405886,1925
777.2411240781092,1884
779.4982773339183,1937
781.7548163303044,1926
784.010741289634,1964
786.2660524343538,2014
788.5207499869881,1967
790.7748341701416,1956
793.0283052064964,1969
795.2811633188143,1997
797.5334087299362,1915
799.7850416627813,1925
802.0360623403484,1924
804.2864709857143,1976
806.5362678220353,1976
808.7854530725468,1936
811.0340269605625,1895
813.2819897094754,2012
815.5293415427581,1995
817.77608268396,1988
820.0222133567116,1940
822.2677337847211,1914
824.5126441917765,1957
826.7569448017433,1944
829.0006358385675,1975
831.2437175262731,1932
833.4861900889629,1858
835.7280537508192,1930
837.9693087361026,1973
840.2099552691533,1901
842.4499935743896,1917
844.689423876309,1949
846.9282463994886,1939
849.1664613685833,1951
851.4040690083276,1848
853.6410695435349,1871
855.877463199097,1862
858.1132501999847,1883
860.3484307712487,1916
862.5830051380175,1956
864.8169735254988,1928
867.0503361589791,1911
869.2830932638243,2013
871.5152450654786,1936
873.7467917894654,1940
875.9777336613873,1988
878.2080709069252,2028
880.4378037518389,1968
882.666932421968,2015
884.8954571432301,2077
887.1233781416219,1959
889.3506956432192,2026
891.5774098741766,1992
893.803521060728,2033
896.0290294291852,1947
898.2539352059397,1957
900.4782386174619,1975
902.7019398903011,2011
904.925039251085,2077
907.147536926521,2015
909.3694331433943,1956
911.59072812857,1982
913.8114221089921,1991
916.0315153116827,1930
918.2510079637437,1930
920.4699002923547,1952
922.6881925247761,1934
924.905884888345,1949
927.1229776104793,1913
929.3394709186747,1937
931.555365040506,1989
933.7706602036275,2059
935.9853566357709,1992
938.1994545647489,1974
940.4129542184515,1985
942.6258558248488,1913
944.8381596119883,1898
947.0498658079974,1986
949.2609746410825,1889
951.4714863395287,1967
953.6814011316998,1884
955.8907192460387,1947
958.0994409110671,1939
960.3075663553858,1886
962.5150958076741,1886
964.7220294966913,1932
966.928367651274,1858
969.1341105003388,1969
971.3392582728806,1818
973.5438111979742,1874
975.747769504772,1903
977.9511334225061,1960
980.153903180487,1839
982.3560790081052,1886
984.5576611348289,1849
986.7586497902058,1762
988.9590452038618,1767
991.158847605503,1719
993.3580572249133,1795
995.5566742919558,1714
997.7546990365728,1719
999.952131688785,1718
1002.1489724786926,1620
1004.3452216364743,1623
1006.5408793923874,1632
1008.7359459767691,1642
1010.9304216200343,1658
1013.1243065526781,1651
1015.3176010052733,1593
1017.510305208472,1623
1019.7024193930064,1612
1021.8939437896848,1587
1024.0848786293977,1547
1026.2752241431122,1570
1028.4649805618747,1578
1030.6541481168115,1553
1032.842727039127,1513
1035.0307175601051,1583
1037.2181199111074,1569
1039.4049343235752,1606
1041.591161029029,1591
1043.7768002590683,1537
1045.9618522453698,1535
1048.1463172196918,1554
1050.3301954138697,1563
1052.513487059818,1510
1054.69619238953,1501
1056.8783116350783,1531
1059.0598450286152,1539
1061.2407928023704,1558
1063.4211551886528,1516
1065.6009324198508,1556
1067.780124728432,1491
1069.9587323469414,1505
1072.1367555080046,1503
1074.314194444325,1522
1076.4910493886855,1502
1078.667320573947,1490
1080.843008233051,1480
1083.0181125990161,1471
1085.1926339049414,1484
1087.3665723840027,1516
1089.5399282694575,1457
1091.7127017946405,1457
1093.8848931929647,1494
1096.0565026979243,1473
1098.2275305430899,1481
1100.3979769621128,1396
1102.567842188722,1457
1104.737126456726,1489
1106.9058300000124,1511
1109.0739530525475,1429
1111.2414958483764,1433
1113.4084586216231,1458
1115.5748416064907,1397
1117.7406450372605,1460
1119.9058691482942,1471
1122.0705141740304,1459
1124.2345803489884,1502
1126.3980679077658,1503
1128.5609770850388,1425
1130.7233081155623,1485
1132.8850612341707,1447
1135.0462366757774,1409
1137.2068346753745,1424
1139.3668554680326,1439
1141.526299288901,1436
1143.68516637321,1473
1145.8434569562655,1407
1148.001171273455,1466
1150.158309560244,1437
1152.3148720521767,1366
1154.470858984876,1367
1156.626270594044,1398
1158.7811071154629,1450
1160.9353687849912,1427
1163.089055838569,1432
1165.242168512213,1420
1167.3947070420209,1383
1169.5466716641677,1442
1171.6980626149075,1361
1173.8488801305748,1372
1175.9991244475814,1398
1178.1487958024186,1427
1180.2978944316555,1423
1182.4464205719428,1444
1184.5943744600072,1418
1186.7417563326567,1384
1188.8885664267755,1361
1191.0348049793297,1398
1193.1804722273619,1426
1195.325568407995,1406
1197.4700937584303,1382
1199.614048515948,1416
1201.7574329179074,1478
1203.900247201746,1378
1206.042491604982,1371
1208.1841663652099,1404
1210.3252717201053,1389
1212.465807907422,1459
1214.6057751649923,1441
1216.7451737307279,1413
1218.8840038426192,1418
1221.0222657387353,1414
1223.1599596572241,1424
1225.2970858363137,1396
1227.4336445143094,1394
1229.5696359295966,1418
1231.705060320639,1381
1233.8399179259786,1413
1235.9742089842384,1452
1238.107933734118,1447
1240.2410924143974,1426
1242.373685263935,1465
1244.5057125216676,1463
1246.6371744266116,1394
1248.7680712178621,1399
1250.898403134593,1417
1253.028170416058,1409
1255.1573733015875,1424
1257.2860120305932,1484
1259.4140868425648,1430
1261.54159797707,1419
1263.6685456737569,1450
1265.7949301723515,1439
1267.9207517126597,1436
1270.046010534565,1457
1272.1707068780306,1469
1274.2948409830983,1489
1276.4184130898889,1518
1278.541423438603,1464
1280.6638722695184,1510
1282.785759822993,1503
1284.9070863394636,1524
1287.0278520594447,1476
1289.1480572235314,1551
1291.2677020723963,1519
1293.3867868467923,1496
1295.5053117875495,1503
1297.623277135579,1496
1299.740683131868,1536
1301.8575300174857,1537
1303.973818033578,1574
1306.0895474213703,1579
1308.2047184221678,1497
1310.3193312773528,1533
1312.4333862283888,1534
1314.5468835168163,1537
1316.659823384255,1555
1318.7722060724045,1496
1320.8840318230418,1573
1322.9953008780249,1524
1325.1060134792888,1619
1327.2161698688478,1598
1329.3257702887959,1599
1331.4348149813054,1594
1333.5433041886276,1642
1335.6512381530933,1547
1337.7586171171101,1547
1339.8654413231675,1495
1341.9717110138317,1547
1344.0774264317488,1537
1346.1825878196432,1546
1348.2871954203192,1514
1350.3912494766587,1577
1352.4947502316231,1549
1354.5976979282532,1525
1356.7000928096686,1502
1358.8019351190665,1518
1360.9032250997243,1510
1363.0039629949988,1525
1365.1041490483235,1581
1367.2037835032133,1515
1369.3028666032606,1530
1371.401398592137,1550
1373.4993797135926,1467
1375.5968102114575,1594
1377.6936903296396,1560
1379.7900203121262,1536
1381.8858004029835,1505
1383.9810308463561,1644
1386.075711886469,1555
1388.1698437676241,1536
1390.2634267342032,1535
1392.356461030667,1529
1394.4489469015557,1599
1396.5408845914872,1576
1398.6322743451592,1632
1400.7231164073469,1594
1402.813411022907,1518
1404.903158436773,1605
1406.9923588939578,1590
1409.0810126395531,1657
1411.1691199187303,1595
1413.2566809767386,1605
1415.343696058907,1568
1417.4301654106425,1592
1419.5160892774315,1650
1421.6014679048399,1601
1423.6863015385125,1683
1425.7705904241707,1621
1427.8543348076178,1607
1429.9375349347342,1665
1432.0201910514802,1654
1434.102303403894,1765
1436.1838722380944,1637
1438.2648978002767,1716
1440.3453803367174,1660
1442.4253200937692,1771
1444.5047173178677,1685
1446.5835722555234,1761
1448.6618851533285,1782
1450.739656257952,1815
1452.8168858161434,1818
1454.8935740747306,1871
1456.96972128062,1840
1459.045327680797,1834
1461.120393522327,1845
1463.1949190523528,1918
1465.2689045180973,1922
1467.3423501668608,2059
1469.415256246024,2050
1471.4876230030463,2075
1473.559450685465,2085
1475.6307395408976,2090
1477.7014898170391,2081
1479.771701761665,2127
1481.8413756226287,2175
1483.9105116478618,2173
1485.9791100853772,2208
1488.0471711832643,2249
1490.1146951896926,2238
1492.1816823529098,2341
1494.2481329212433,2413
1496.3140471430984,2328
1498.3794252669609,2355
1500.4442675413939,2385
1502.5085742150404,2444
1504.572345536622,2428
1506.6355817549388,2378
1508.6982831188702,2440
1510.7604498773744,2420
1512.8220822794883,2500
1514.8831805743293,2508
1516.9437450110909,2472
1519.003775839048,2494
1521.0632733075522,2520
1523.1222376660367,2508
1525.1806691640113,2608
1527.2385680510652,2561
1529.2959345768668,2560
1531.3527689911643,2575
1533.4090715437833,2608
1535.4648424846291,2682
1537.5200820636855,2733
1539.5747905310159,2651
1541.6289681367616,2724
1543.6826151311434,2839
1545.7357317644614,2784
1547.7883182870937,2837
1549.8403749494987,2942
1551.8919020022113,3000
1553.9428996958477,2993
1555.9933682811015,3048
1558.0433080087469,3026
1560.0927191296346,3216
1562.1416018946961,3128
1564.1899565549415,3067
1566.2377833614592,3049
1568.2850825654164,3073
1570.3318544180606,2959
1572.3780991707158,2897
1574.423817074788,2768
1576.4690083817595,2780
1578.5136733431923,2622
1580.5578122107272,2553
1582.601425236085,2519
1584.6445126710646,2396
1586.6870747675434,2282
1588.7291117774776,2221
1590.7706239529034,2238
1592.8116115459347,2128
1594.8520748087658,1966
1596.8920139936686,1998
1598.9314293529933,1941
1600.9703211391711,1891
1603.008689604711,1826
1605.0465350022005,1816
1607.0838575843068,1824
1609.1206576037753,1777
1611.1569353134305,1699
1613.1926909661765,1658
1615.2279248149953,1735
1617.2626371129481,1659
1619.2968281131757,1642
1621.3304980688963,1616
1623.3636472334088,1594
1625.39627586009,1545
1627.428384202396,1587
1629.459972513861,1512
1631.4910410480993,1506
1633.5215900588028,1587
1635.551619799744,1566
1637.5811305247717,1529
1639.6101224878166,1541
1641.6385959428862,1509
1643.6665511440683,1455
1645.693988345528,1476
1647.7209078015112,1522
1649.7473097663405,1420
1651.7731944944203,1435
1653.7985622402307,1489
1655.823413258333,1458
1657.847747803366,1445
1659.8715661300494,1476
1661.8948684931793,1497
1663.9176551476316,1421
1665.9399263483624,1487
1667.9616823504057,1470
1669.982923408873,1434
1672.0036497789574,1445
1674.0238617159293,1409
1676.043559475138,1418
1678.0627433120121,1465
1680.081413482059,1526
1682.0995702408654,1469
1684.117213844096,1400
1686.134344547495,1430
1688.1509626068864,1441
1690.1670682781705,1423
1692.182661817329,1418
1694.1977434804217,1431
1696.2123135235875,1416
1698.226372203043,1406
1700.2399197750851,1411
1702.2529564960905,1421
1704.2654826225112,1419
1706.277498410882,1418
1708.2890041178139,1429
1710.2999999999988,1442
1712.3104863142066,1432
1714.3204633172854,1398
1716.329931266163,1449
1718.3388904178469,1411
1720.3473410294214,1427
1722.3552833580516,1357
1724.3627176609807,1397
1726.3696441955308,1388
1728.3760632191033,1399
1730.3819749891782,1366
1732.3873797633146,1375
1734.3922777991502,1389
1736.3966693544012,1304
1738.4005546868639,1315
1740.4039340544127,1378
1742.406807715001,1346
1744.4091759266616,1334
1746.4110389475054,1345
1748.4123970357223,1325
1750.413250449582,1348
1752.4135994474318,1395
1754.4134442876993,1332
1756.4127852288902,1298
1758.4116225295893,1353
1760.4099564484595,1320
1762.407787244244,1352
1764.405115175764,1356
1766.4019405019203,1380
1768.3982634816916,1394
1770.3940843741357,1329
1772.3894034383907,1264
1774.3842209336717,1306
1776.378537119274,1327
1778.372352254571,1316
1780.3656665990156,1327
1782.3584804121397,1258
1784.3507939535534,1319
1786.3426074829463,1368
1788.3339212600863,1274
1790.3247355448211,1305
1792.3150505970766,1359
1794.3048666768573,1284
1796.2941840442477,1371
1798.2830029594106,1302
1800.2713236825884,1254
1802.2591464741004,1277
1804.2464715943465,1302
1806.2332993038058,1302
1808.2196298630352,1268
1810.2054635326708,1280
1812.190800573428,1287
1814.175641246101,1237
1816.1599858115628,1242
1818.1438345307652,1315
1820.127187664738,1300
1822.1100454745924,1278
1824.092408221516,1255
1826.0742761667766,1309
1828.055649571721,1315
1830.0365286977735,1269
1832.0169138064398,1284
1833.9968051593014,1339
1835.9762030180214,1233
1837.9551076443408,1264
1839.9335193000788,1287
1841.9114382471344,1306
1843.888864747485,1305
1845.8657990631878,1261
1847.842241456378,1268
1849.8181921892697,1289
1851.7936515241558,1324
1853.7686197234098,1324
1855.7430970494815,1287
1857.7170837649014,1279
1859.6905801322787,1274
1861.6635864143004,1263
1863.6361028737338,1314
1865.608129773424,1328
1867.5796673762961,1266
1869.5507159453537,1270
1871.521275743678,1373
1873.4913470344313,1286
1875.4609300808534,1274
1877.4300251462632,1278
1879.3986324940588,1281
1881.366752387717,1318
1883.3343850907936,1315
1885.3015308669228,1301
1887.268189979819,1296
1889.2343626932739,1285
1891.2000492711595,1332
1893.1652499774254,1346
1895.1299650761011,1323
1897.0941948312952,1313
1899.0579395071945,1301
1901.0211993680641,1358
1902.98397467825,1291
1904.9462657021745,1333
1906.9080727043415,1287
1908.869395949332,1307
1910.8302357018065,1340
1912.790592226504,1334
1914.7504657882428,1330
1916.7098566519212,1298
1918.6687650825133,1372
1920.6271913450764,1313
1922.5851357047422,1294
1924.5425984267245,1313
1926.499579776314,1290
1928.4560800188833,1307
1930.4120994198802,1297
1932.367638244833,1330
1934.32269675935,1289
1936.2772752291175,1252
1938.231373919899,1308
1940.1849930975404,1318
1942.1381330279637,1347
1944.0907939771696,1349
1946.0429762112412,1293
1947.9946799963363,1359
1949.9459055986945,1318
1951.896653284633,1264
1953.8469233205478,1341
1955.7967159729142,1297
1957.7460315082863,1306
1959.6948701932974,1293
1961.6432322946594,1334
1963.5911180791632,1300
1965.5385278136787,1320
1967.4854617651545,1300
1969.4319202006182,1306
1971.377903387176,1279
1973.3234115920136,1291
1975.268445082395,1315
1977.2130041256642,1299
1979.1570889892423,1321
1981.1006999406304,1316
1983.04383724741,1326
1984.986501177238,1233
1986.928691997853,1322
1988.8704099770712,1239
1990.811655382789,1262
1992.7524284829801,1248
1994.692729545698,1283
1996.6325588390755,1295
1998.5719166313224,1304
2000.5108031907307,1286
2002.4492187856677,1314
2004.387163684583,1288
2006.3246381560011,1251
2008.2616424685298,1260
2010.1981768908527,1323
2012.1342416917332,1232
2014.069837140014,1265
2016.0049635046162,1234
2017.9396210545406,1244
2019.8738100588666,1285
2021.8075307867502,1312
2023.740783507431,1274
2025.6735684902228,1278
2027.6058860045214,1277
2029.5377363198004,1310
2031.4691197056118,1232
2033.4000364315875,1286
2035.3304867674374,1318
2037.260470982952,1244
2039.189989347998,1229
2041.1190421325232,1321
2043.047629606554,1304
2044.9757520401945,1306
2046.9034097036288,1278
2048.8306028671195,1328
2050.7573318010086,1285
2052.683596775716,1315
2054.609398061742,1299
2056.5347359296647,1339
2058.4596106501403,1305
2060.384022493906,1256
2062.3079717317764,1301
2064.231458634646,1272
2066.1544834734873,1291
2068.077046519352,1258
2069.99914804337,1271
2071.9207883167524,1235
2073.8419676107865,1250
2075.7626861968406,1265
2077.6829443463607,1279
2079.6027423308715,1302
2081.522080421977,1278
2083.440958891362,1244
2085.359378010786,1311
2087.2773380520907,1280
2089.194839287196,1298
2091.111881988101,1249
2093.0284664268825,1309
2094.9445928756973,1263
2096.86026160678,1277
2098.775472892446,1259
2100.690227005088,1282
2102.604524217178,1286
2104.5183648012676,1263
2106.431749029985,1278
2108.34467717604,1317
2110.2571495122206,1279
2112.169166311393,1251
2114.080727846503,1275
2115.9918343905747,1300
2117.902486216711,1290
2119.8126835980956,1271
2121.722426807987,1292
2123.6317161197285,1349
2125.5405518067364,1276
2127.448934142509,1234
2129.356863400624,1280
2131.264339854737,1221
2133.1713637785815,1284
2135.077935445972,1247
2136.9840551308002,1322
2138.889723107037,1314
2140.7949396487334,1318
2142.699705030018,1310
2144.6040195250994,1304
2146.507883408264,1302
2148.4112969538774,1272
2150.3142604363848,1251
2152.2167741303097,1286
2154.1188383102535,1200
2156.0204532508997,1223
2157.9216192270064,1274
2159.822336513414,1284
2161.7226053850413,1282
2163.622426116884,1277
2165.5217989840185,1275
2167.4207242616,1270
2169.319202224862,1338
2171.2172331491165,1238
2173.1148173097563,1253
2175.0119549822507,1234
2176.90864644215,1280
2178.8048919650823,1252
2180.7006918267534,1231
2182.596046302952,1263
2184.4909556695407,1264
2186.3854202024645,1273
2188.279440177746,1300
2190.173015871487,1251
2192.066147559868,1274
2193.958835519149,1257
2195.851080025667,1273
2197.7428813558417,1292
2199.6342397861667,1208
2201.5251555932186,1313
2203.415629053651,1281
2205.3056604441986,1264
2207.19525004167,1251
2209.084398122958,1245
2210.9731049650327,1277
2212.861370844941,1269
2214.749196039812,1248
2216.636580826851,1256
2218.523525483344,1282
2220.410030286655,1293
2222.296095514226,1309
2224.1817214435805,1260
2226.066908352319,1288
2227.951656518121,1267
2229.835966218746,1276
2231.71983773203,1264
2233.6032713358913,1278
2235.486267308324,1244
2237.3688259274036,1290
2239.2509474712824,1291
2241.132632218193,1291
2243.013880446447,1259
2244.8946924344323,1287
2246.7750684606203,1245
2248.6550088035574,1249
2250.534513741871,1226
2252.413583554265,1235
2254.292218519526,1303
2256.170418916517,1293
2258.0481850241786,1264
2259.925517121534,1308
2261.8024154876825,1252
2263.678880401803,1315
2265.5549121431536,1254
2267.430510991071,1232
2269.305677224971,1296
2271.180411124348,1225
2273.0547129687766,1318
2274.9285830379076,1215
2276.8020216114737,1277
2278.6750289692845,1270
2280.5476053912294,1262
2282.4197511572766,1264
2284.2914665474727,1246
2286.162751841943,1226
2288.0336073208937,1255
2289.904033264608,1283
2291.774029953448,1271
2293.6435976678554,1290
2295.5127366883517,1254
2297.381447295534,1220
2299.2497297700825,1312
2301.1175843927526,1310
2302.9850114443825,1178
2304.852011205885,1314
2306.7185839582553,1320
2308.5847299825664,1301
2310.4504495599676,1254
2312.3157429716925,1238
2314.1806104990483,1321
2316.0450524234247,1304
2317.9090690262888,1301
2319.772660589186,1228
2321.635827393742,1288
2323.498569721661,1295
2325.3608878547248,1260
2327.2227820747967,1267
2329.0842526638157,1274
2330.945299903803,1296
2332.805924076857,1298
2334.6661254651535,1304
2336.525904350951,1271
2338.3852610165827,1295
2340.244195744464,1261
2342.102708817088,1286
2343.9608005170253,1322
2345.8184711269287,1282
2347.675720929526,1273
2349.532550207628,1338
2351.38895924412,1303
2353.24494832197,1345
2355.100517724223,1324
2356.955667734004,1261
2358.810398634514,1332
2360.664710709037,1318
2362.5186042409337,1325
2364.3720795136437,1334
2366.225136810686,1313
2368.0777764156583,1318
2369.929998612237,1326
2371.7818036841777,1311
2373.633191915315,1313
2375.484163589562,1352
2377.3347189909114,1282
2379.184858403434,1323
2381.03458211128,1330
2382.8838903986775,1306
2384.732783549936,1342
2386.5812618494406,1307
2388.4293255816588,1337
2390.2769750311327,1365
2392.1242104824883,1367
2393.971032220427,1320
2395.8174405297295,1338
2397.6634356952563,1298
2399.509018001947,1306
2401.3541877348193,1362
2403.1989451789705,1313
2405.043290619576,1335
2406.8872243418905,1294
2408.730746631247,1377
2410.5738577730594,1326
2412.4165580528183,1308
2414.258847756095,1347
2416.100727168537,1351
2417.9421965758734,1331
2419.783256263912,1328
2421.623906518538,1307
2423.4641476257157,1348
2425.303979871491,1338
2427.143403541984,1388
2428.9824189233977,1328
2430.821026302012,1358
2432.6592259641866,1359
2434.497018196361,1391
2436.33440328505,1369
2438.171381516851,1335
2440.00795317844,1360
2441.844118556569,1365
2443.6798779380724,1355
2445.5152316098606,1369
2447.3501798589255,1336
2449.1847229723357,1367
2451.0188612372403,1345
2452.8525949408663,1351
2454.6859243705203,1361
2456.518849813587,1327
2458.3513715575314,1335
2460.183489889895,1334
2462.015205098301,1320
2463.8465174704493,1333
2465.67742729412,1363
2467.5079348571717,1335
2469.338040447542,1313
2471.1677443532476,1347
2472.9970468623833,1356
2474.825948263123,1332
2476.6544488437207,1362
2478.482548892508,1344
2480.310248697896,1284
2482.137548548374,1337
2483.9644487325118,1362
2485.790949538956,1362
2487.617051256433,1346
2489.44275417375,1323
2491.26805857979,1324
2493.0929647635157,1321
2494.917473013971,1359
2496.741583620276,1416
2498.5652968716304,1365
2500.3886130573137,1396
2502.2115324666834,1366
2504.0340553891765,1398
2505.856182114308,1400
2507.6779129316733,1417
2509.499248130945,1409
2511.3201880018764,1407
2513.140732834298,1355
2514.9608829181198,1377
2516.780638543331,1354
2518.6,1405
2520.418967578273,1416
2522.237541568376,1364
2524.0557222606144,1301
2525.8735099453706,1391
2527.6909049131086,1376
2529.507907454368,1405
2531.32451785977,1473
2533.140736420014,1449
2534.9565634258774,1410
2536.771999168218,1468
2538.5870439379714,1462
2540.4016980261526,1408
2542.2159617238544,1419
2544.02983532225,1385
2545.8433191125914,1442
2547.656413386209,1473
2549.4691184345115,1429
2551.2814345489874,1494
2553.093362021204,1503
2554.904901142808,1461
2556.716052205523,1490
2558.526815501153,1460
2560.3371913215824,1517
2562.147179958771,1504
2563.956781704761,1462
2565.7659968516705,1498
2567.5748256916986,1571
2569.3832685171224,1536
2571.1913256202984,1504
2572.9989972936614,1542
2574.806283829725,1500
2576.613185521084,1530
2578.4197026604074,1473
2580.2258355404483,1463
2582.031584454035,1560
2583.836949694077,1532
2585.6419315535613,1542
2587.4465303255533,1532
2589.2507463032002,1545
2591.0545797797245,1554
2592.8580310484303,1571
2594.6611004026995,1552
2596.463788135992,1578
2598.266094541849,1580
2600.0680199138874,1590
2601.869564545807,1580
2603.670728731383,1554
2605.4715127644704,1547
2607.2719169390048,1564
2609.071941548998,1547
2610.8715868885433,1591
2612.670853251811,1537
2614.469740933052,1477
2616.268250226594,1509
2618.0663814268455,1566
2619.864134828292,1561
2621.6615107255006,1526
2623.458509413115,1564
2625.2551311858597,1566
2627.0513763385347,1509
2628.8472451660223,1567
2630.6427379632833,1462
2632.4378550253564,1534
2634.232596647359,1490
2636.026963124488,1502
2637.8209547520187,1489
2639.6145718253065,1438
2641.407814639785,1562
2643.200683490966,1518
2644.9931786744414,1466
2646.7853004858807,1467
2648.577049221034,1469
2650.3684251757277,1465
2652.1594286458712,1440
2653.9500599274484,1435
2655.740319316525,1435
2657.5302071092437,1381
2659.3197236018286,1408
2661.10886909058,1418
2662.8976438718782,1393
2664.686048242183,1346
2666.4740824980327,1392
2668.2617469360443,1384
2670.0490418529134,1355
2671.8359675454153,1340
2673.622524310403,1345
2675.408712444811,1336
2677.1945322456495,1382
2678.979984010009,1352
2680.76506803506,1350
2682.5497846180497,1354
2684.334134056306,1392
2686.1181166472343,1361
2687.9017326883213,1343
2689.6849824771293,1354
2691.4678663113013,1376
2693.2503844885596,1310
2695.032537306705,1362
2696.8143250636167,1349
2698.5957480572542,1318
2700.3768065856534,1352
2702.1575009469316,1354
2703.937831439283,1313
2705.717798360982,1343
2707.4974020103837,1329
2709.276642685917,1362
2711.055520686095,1339
2712.834036309506,1304
2714.612189854819,1230
2716.389981620782,1232
2718.1674119062204,1258
2719.944481010041,1335
2721.721189231226,1256
2723.4975368688415,1292
2725.273524222027,1255
2727.0491515900053,1305
2728.824419272075,1299
2730.5993275676146,1274
2732.3738767760838,1346
2734.148067197016,1270
2735.921899130031,1256
2737.6953728748194,1267
2739.468488731156,1249
2741.2412469988926,1259
2743.0136479779617,1271
2744.785691968372,1295
2746.5573792702116,1288
2748.3287101836504,1270
2750.099685008934,1290
2751.870304046388,1279
2753.640567596418,1249
2755.4104759595057,1263
2757.1800294362156,1292
2758.949228327187,1287
2760.7180729331412,1285
2762.486563554877,1295
2764.254700493272,1249
2766.022484049284,1210
2767.789914523947,1279
2769.5569922183786,1242
2771.3237174337705,1258
2773.090090471394,1279
2774.8561116326036,1210
2776.6217812188274,1248
2778.3870995315756,1247
2780.1520668724356,1226
2781.9166835430747,1282
2783.6809498452394,1270
2785.444866080754,1293
2787.2084325515225,1193
2788.971649559527,1296
2790.73451740683,1294
2792.4970363955713,1362
2794.2592068279705,1267
2796.0210290063264,1303
2797.7825032330147,1270
2799.543629810493,1245
2801.304409041296,1273
2803.0648412280366,1278
2804.8249266734088,1196
2806.5846656801846,1269
2808.344058551212,1316
2810.1031055894246,1240
2811.8618070978273,1277
2813.6201633795085,1284
2815.378174737636,1244
2817.1358414754536,1250
2818.893163896285,1245
2820.6501423035334,1315
2822.4067770006814,1263
2824.1630682912883,1256
2825.9190164789957,1282
2827.6746218675207,1286
2829.429884760661,1299
2831.184805462294,1234
2832.9393842763743,1260
2834.693621506936,1204
2836.4475174580916,1254
2838.201072434034,1288
2839.954286739034,1310
2841.707160677441,1281
2843.459694553685,1306
2845.2118886722724,1248
2846.96374333779,1226
2848.7152588549034,1276
2850.4664355283567,1238
2852.217273662973,1250
2853.9677735636546,1287
2855.7179355353833,1288
2857.4677598832186,1267
2859.217246912299,1306
2860.9663969278427,1285
2862.715210235146,1199
2864.4636871395846,1239
2866.211827946614,1269
2867.9596329617652,1270
2869.7071024906536,1300
2871.4542368389684,1298
2873.20103631248,1269
2874.947501217038,1242
2876.6936318585695,1265
2878.4394285430812,1262
2880.1848915766604,1299
2881.9300212654707,1288
2883.6748179157553,1304
2885.4192818338374,1309
2887.1634133261173,1254
2888.907212699077,1276
2890.6506802592744,1295
2892.393816313348,1299
2894.1366211680142,1287
2895.8790951300693,1255
2897.621238506388,1298
2899.363051603925,1311
2901.1045347297118,1341
2902.8456881908596,1234
2904.58651229456,1256
2906.327007348081,1229
2908.067173658772,1331
2909.8070115340597,1304
2911.5465212814497,1226
2913.285703208527,1268
2915.0245576229563,1244
2916.7630848324807,1249
2918.5012851449196,1242
2920.2391588681758,1269
2921.976706310227,1272
2923.7139277791334,1249
2925.4508235830313,1267
2927.187394030137,1272
2928.923639428745,1282
2930.6595600872306,1250
2932.395156314046,1226
2934.1304284177218,1237
2935.8653767068713,1261
2937.6000014901815,1258
2939.3343030764227,1299
2941.068281774442,1253
2942.8019378931644,1333
2944.5352717415976,1306
2946.2682836288236,1300
2948.0009738640065,1311
2949.7333427563885,1290
2951.465390615289,1239
2953.1971177501086,1317
2954.9285244703265,1321
2956.6596110855,1326
2958.3903779052657,1273
2960.1208252393385,1254
2961.8509533975125,1185
2963.5807626896617,1268
2965.3102534257378,1257
2967.0394259157715,1275
2968.768280469873,1218
2970.496817398232,1307
2972.2250370111146,1289
2973.952939618869,1224
2975.6805255319196,1285
2977.4077950607707,1236
2979.134748516006,1290
2980.861386208289,1225
2982.587708448359,1254
2984.313715547037,1286
2986.039407815222,1266
2987.764785563891,1221
2989.489849104102,1262
2991.2145987469908,1312
2992.9390348037705,1279
2994.6631575857346,1229
2996.3869674042576,1276
2998.1104645707887,1282
2999.83364939686,1249
3001.5565221940783,1249
3003.2790832741334,1293
3005.0013329487924,1215
3006.7232715298996,1232
3008.4448993293804,1215
3010.166216659239,1214
3011.887223831558,1248
3013.607921158498,1247
3015.3283089522993,1239
3017.0483875252826,1247
3018.7681571898443,1181
3020.4876182584626,1278
3022.2067710436927,1248
3023.9256158581707,1215
3025.644153014609,1273
3027.362382825801,1237
3029.0803056046193,1239
3030.797921664012,1240
3032.5152313170106,1246
3034.2322348767225,1235
3035.9489326563353,1221
3037.665324969115,1235
3039.3814121284063,1226
3041.097194447633,1230
3042.812672240299,1263
3044.5278458199855,1241
3046.2427155003525,1220
3047.9572815951406,1264
3049.671544418167,1283
3051.38550428333,1232
3053.0991615046073,1272
3054.812516396051,1283
3056.5255692717974,1293
3058.2383204460575,1268
3059.9507702331257,1236
3061.662918947372,1259
3063.3747669032446,1240
3065.0863144152736,1266
3066.7975617980674,1232
3068.508509366309,1199
3070.219157434767,1246
3071.9295063182844,1284
3073.639556331785,1234
3075.3493077902704,1265
3077.058761008821,1240
3078.7679163025964,1246
3080.476773986837,1228
3082.1853343768594,1248
3083.89359778806,1224
3085.6015645359153,1266
3087.3092349359786,1231
3089.016609303884,1259
3090.7236879553434,1240
3092.4304712061476,1266
3094.136959372166,1226
3095.843152769349,1263
3097.5490517137237,1250
3099.2546565213966,1204
3100.959967508554,1266
3102.66498499146,1212
3104.3697092864577,1214
3106.0741407099695,1273
3107.778279578498,1252
3109.482126208622,1210
3111.1856809170004,1247
3112.8889440203716,1294
3114.5919158355528,1193
3116.294596679439,1244
3117.996986869006,1270
3119.6990867213062,1247
3121.4008965534726,1249
3123.102416682717,1239
3124.803647426329,1262
3126.5045891016784,1303
3128.205242026213,1251
3129.90560651746,1246
3131.605682893025,1243
3133.3054714705922,1237
3135.0049725679282,1274
3136.7041865028714,1293
3138.4031135933465,1341
3140.101754157353,1249
3141.800108512971,1275
3143.498176978357,1227
3145.1959598717494,1243
3146.8934575114636,1235
3148.5906702158954,1206
3150.2875983035183,1291
3151.9842420928853,1225
3153.680601902627,1261
3155.376678051456,1199
3157.07247085816,1209
3158.767980641609,1255
3160.463207720748,1188
3162.158152414606,1281
3163.8528150422862,1214
3165.5471959229726,1242
3167.2412953759303,1259
3168.9351137204976,1259
3170.628651276098,1205
3172.3219083622307,1248
3174.014885298474,1244
3175.707582404485,1256
3177.4000000000005,1249
3179.092138404835,1261
3180.7839979388846,1287
3182.47557892212,1249
3184.166881674594,1250
3185.8579065164386,1258
3187.5486537678626,1258
3189.2391237491547,1254
3190.9293167806827,1206
3192.6192331828934,1274
3194.3088732763117,1236
3195.998237381542,1166
3197.687325819268,1244
3199.376138910251,1226
3201.064676975334,1272
3202.7529403354347,1251
3204.4409293115523,1250
3206.1286442247647,1247
3207.816085396229,1202
3209.5032531471825,1192
3211.190147798936,1262
3212.8767696728846,1240
3214.5631190905015,1223
3216.2491963733373,1209
3217.9350018430214,1201
3219.6205358212637,1209
3221.305798629851,1262
3222.990790590651,1237
3224.6755120256103,1239
3226.359963256751,1154
3228.0441446061795,1188
3229.7280563960758,1207
3231.411698948703,1204
3233.0950725863995,1210
3234.778177631587,1271
3236.461014406761,1235
3238.1435832345005,1239
3239.8258844374595,1225
3241.507918338374,1282
3243.1896852600576,1259
3244.8711855254023,1194
3246.552419457381,1243
3248.233387379042,1221
3249.914089613516,1158
3251.59452648401,1239
3253.274698313813,1216
3254.95460542629,1223
3256.6342481448855,1239
3258.313626793125,1222
3259.9927416946084,1208
3261.6715931730196,1192
3263.3501815521176,1221
3265.0285071557437,1201
3266.706570307815,1183
3268.3843713323286,1204
3270.0619105533615,1204
3271.739188295068,1211
3273.4162048816834,1214
3275.0929606375184,1182
3276.769455886966,1215
3278.445690954498,1276
3280.1216661646613,1226
3281.797381842087,1208
3283.4728383114807,1186
3285.1480358976296,1266
3286.8229749253996,1201
3288.4976557197333,1178
3290.172078605655,1214
3291.846243908266,1209
3293.5201519527463,1205
3295.193803064357,1226
3296.8671975684374,1203
3298.5403357904024,1205
3300.21321805575,1182
3301.8858446900567,1236
3303.558216018975,1237
3305.23033236824,1244
3306.9021940636603,1229
3308.57380143113,1241
3310.2451547966184,1267
3311.916254486174,1240
3313.5871008259246,1265
3315.2576941420766,1228
3316.9280347609147,1251
3318.5981230088046,1214
3320.2679592121895,1268
3321.9375436975924,1185
3323.606876791612,1149
3325.27595882093,1171
3326.944790112305,1209
3328.6133709925753,1145
3330.2817017886573,1186
3331.949782827547,1184
3333.617614436319,1241
3335.2851969421245,1220
3336.952530672199,1202
3338.619615953853,1212
3340.286453114475,1245
3341.9530424815357,1184
3343.619384382583,1166
3345.2854791452437,1283
3346.951327097224,1233
3348.6169285663073,1211
3350.2822838803577,1223
3351.947393367319,1275
3353.61225735521,1252
3355.2768761721345,1237
3356.9412501462693,1254
3358.605379605873,1227
3360.2692648792827,1221
3361.9329062949146,1187
3363.596304181263,1225
