CollectionTime,6/26/2024 3:36:09 PM
ExposureUsed,3
CalibratedSpectrum
-962.7078968117929,720
-959.9714848408522,763
-957.2358232597828,735
-954.5009119013725,705
-951.7667505983302,760
-949.0333391832855,790
-946.3006774887896,783
-943.5687653473143,767
-940.837602591253,768
-938.1071890529199,768
-935.3775245645503,760
-932.6486089583007,795
-929.9204420662485,812
-927.1930237203925,828
-924.4663537526524,795
-921.7404319948689,756
-919.0152582788041,775
-916.2908324361409,826
-913.5671542984834,787
-910.8442236973568,829
-908.1220404642074,827
-905.4006044304027,796
-902.679915427231,809
-899.959973285902,783
-897.2407778375464,831
-894.5223289132158,816
-891.8046263438832,723
-889.0876699604426,763
-886.3714595937089,697
-883.6559950744183,732
-880.9412762332282,773
-878.2273029007168,725
-875.5140749073835,716
-872.8015920836489,773
-870.0898542598545,749
-867.3788612662631,706
-864.6686129330585,726
-861.9591090903457,729
-859.2503495681506,735
-856.5423341964203,752
-853.8350628050229,760
-851.1285352237478,764
-848.4227512823054,726
-845.7177108103272,737
-843.0134136373656,732
-840.3098595928943,727
-837.6070485063082,752
-834.9049802069229,723
-832.2036545239757,730
-829.5030712866244,763
-826.8032303239481,758
-824.1041314649472,747
-821.4057745385428,710
-818.7081593735775,703
-816.0112857988148,710
-813.3151536429393,731
-810.6197627345566,735
-807.9251129021936,727
-805.2312039742981,760
-802.5380357792392,715
-799.8456081453069,721
-797.1539209007124,733
-794.462973873588,702
-791.772766891987,737
-789.083299783884,739
-786.3945723771743,725
-783.7065844996748,759
-781.0193359791231,735
-778.3328266431781,761
-775.6470563194197,798
-772.9620248353489,773
-770.2777320183878,729
-767.5941776958798,751
-764.9113616950891,736
-762.2292838432011,749
-759.5479439673222,724
-756.8673418944801,730
-754.1874774516235,730
-751.5083504656222,760
-748.8299607632671,773
-746.15230817127,746
-743.475392516264,759
-740.7992136248035,780
-738.1237713233636,790
-735.4490654383407,789
-732.7750957960521,818
-730.1018622227365,754
-727.4293645445534,750
-724.7576025875837,784
-722.0865761778291,812
-719.4162851412126,826
-716.7467293035781,794
-714.0779084906909,808
-711.409822528237,814
-708.7424712418238,765
-706.0758544569796,839
-703.4099719991541,797
-700.7448236937178,816
-698.0804093659622,846
-695.4167288411002,790
-692.7537819442656,783
-690.0915685005134,814
-687.4300883348199,820
-684.7693412720819,770
-682.1093271371178,808
-679.4500457546669,808
-676.7914969493897,775
-674.1336805458676,845
-671.4765963686034,824
-668.8202442420206,832
-666.1646239904642,867
-663.5097354382001,864
-660.8555784094151,802
-658.2021527282176,866
-655.5494582186366,876
-652.8974947046223,831
-650.2462620100463,878
-647.5957599587009,894
-644.9459883742998,845
-642.2969470804776,890
-639.6486359007902,895
-637.0010546587141,856
-634.3542031776476,879
-631.7080812809096,832
-629.0626887917401,856
-626.4180255333008,884
-623.7740913286734,862
-621.1308860008619,865
-618.4884093727904,855
-615.8466612673046,841
-613.2056415071715,791
-610.5653499150785,855
-607.9257863136347,849
-605.28695052537,850
-602.6488423727357,862
-600.0114616781036,843
-597.3748082637674,870
-594.7388819519412,909
-592.1036825647604,842
-589.4692099242818,902
-586.8354638524829,888
-584.2024441712624,842
-581.5701507024403,877
-578.9385832677575,903
-576.3077416888759,879
-573.6776257873787,876
-571.0482353847704,851
-568.4195703024757,924
-565.7916303618415,918
-563.164415384135,880
-560.5379251905453,851
-557.9121596021815,932
-555.2871184400748,908
-552.6628015251767,906
-550.0392086783606,931
-547.4163397204204,891
-544.794194472071,937
-542.1727727539491,928
-539.5520743866118,892
-536.9320991905377,980
-534.3128469861261,995
-531.6943175936979,994
-529.0765108334947,1005
-526.4594265256793,1093
-523.8430644903358,1247
-521.2274245474689,1346
-518.612506517005,1485
-515.9983102187913,1526
-513.3848354725959,1598
-510.77208209810846,1742
-508.16004991493924,1861
-505.5487387426199,2034
-502.9381484006032,2207
-500.3282787082628,2222
-497.71912948489364,2302
-495.1107005497117,2326
-492.5029917218539,2233
-489.8960028203786,2107
-487.28973366426493,1825
-484.68418407241325,1604
-482.07935386364494,1401
-479.47524285670266,1389
-476.87185087025,1304
-474.2691777228715,1265
-471.66722323307334,1207
-469.0659872192821,1195
-466.4654694998459,1137
-463.86566989303384,1144
-461.26658821703614,1127
-458.66822428996414,1111
-456.07057792985,1124
-453.4736489546475,1136
-450.877437182231,1124
-448.28194243039627,1166
-445.68716451686,1088
-443.09310325926003,1145
-440.49975847515555,1060
-437.9071299820263,1039
-435.31521759727354,1121
-432.72402113821954,1111
-430.13354042210767,1093
-427.5437752661022,1128
-424.95472548728867,1224
-422.36639090267386,1195
-419.7787713291855,1184
-417.1918665836721,1186
-414.60567648290385,1180
-412.0202008435715,1229
-409.4354394822874,1124
-406.8513922155845,1145
-404.26805885991723,1183
-401.685439231661,1256
-399.103533147112,1150
-396.522340422488,1148
-393.9418608739278,1206
-391.3620943174908,1188
-388.7830405691583,1164
-386.2046994448317,1133
-383.6270707603344,1073
-381.05015433141045,1036
-378.473949973725,976
-375.8984575028645,905
-373.32367673433623,806
-370.74960748356875,825
-368.1762495659117,782
-365.60360279663576,724
-363.03166699093265,667
-360.4604419639154,613
-357.8899275306178,546
-355.32012350599507,554
-352.7510297049233,555
-350.1826459421999,579
-347.61497203254316,580
-345.04800779059235,570
-342.4817530309082,535
-339.91620756797226,522
-337.35137121618743,533
-334.7872437898774,595
-332.22382510328725,571
-329.66111497058273,555
-327.09911320585127,569
-324.53781962310075,581
-321.9772340362607,567
-319.4173562591816,593
-316.8581861056348,635
-314.2997233893127,630
-311.7419679238294,654
-309.1849195227194,633
-306.62857799943856,570
-304.0729431673641,580
-301.51801483979375,540
-298.963792829947,577
-296.41027695096386,615
-293.85746701590574,617
-291.3053628377552,617
-288.7539642294155,659
-286.2032710037115,693
-283.65328297338897,744
-281.1039999511146,749
-278.5554217494762,865
-276.007548180983,730
-273.4603790580651,668
-270.9139141930734,655
-268.3681533982807,719
-265.8230964858798,666
-263.27874326798565,673
-260.7350935566336,767
-258.1921471637804,812
-255.6499039013039,845
-253.10836358100266,844
-250.56752601459698,724
-248.02739101372765,805
-245.48795838995704,831
-242.94922795476816,832
-240.41119951956557,790
-237.8738728956746,898
-235.33724789434166,899
-232.80132432673452,1110
-230.2661020039418,1191
-227.73158073697357,1065
-225.19776033676033,878
-222.66464061415422,871
-220.1322213799284,864
-217.60050244477725,885
-215.06948361931552,877
-212.53916471408013,855
-210.00954553952818,867
-207.48062590603843,909
-204.9524056239104,907
-202.4248845033651,853
-199.8980623545441,841
-197.37193898751036,852
-194.84651421224817,938
-192.32178783866232,977
-189.79775967657952,1030
-187.27442953574644,1099
-184.7517972258321,1066
-182.2298625564256,995
-179.7086253370378,1183
-177.18808537710026,1253
-174.66824248596583,1253
-172.14909647290835,1236
-169.6306471471229,1279
-167.11289431772548,1177
-164.59583779375328,1109
-162.07947738416453,1118
-159.5638128978386,1141
-157.04884414357605,1279
-154.53457093009854,1419
-152.02099306604828,1219
-149.50811035998936,1239
-146.99592262040665,1302
-144.48442965570587,1242
-141.97363127421409,1231
-139.46352728417958,1270
-136.95411749377126,1267
-134.44540171107985,1413
-131.93737974411636,1450
-129.43005140081357,1383
-126.92341648902493,1533
-124.41747481652521,1589
-121.91222619101006,1431
-119.40767042009657,1279
-116.90380731132257,1378
-114.40063667214702,1430
-111.8981583099503,1714
-109.3963720320337,1732
-106.89527764561933,1557
-104.39487495785067,1515
-101.89516377579241,1785
-99.39614390642998,1845
-96.89781515667039,1971
-94.40017733334128,2221
-91.90323024319173,2034
-89.40697369289148,2140
-86.91140748903172,2093
-84.41653143812482,1854
-81.92234534660395,2102
-79.42884902082358,2120
-76.93604226705907,2233
-74.4439248915071,2333
-71.95249670028534,2329
-69.46175749943245,2412
-66.97170709490854,2444
-64.48234529259423,2919
-61.99367189829195,3067
-59.50568671772464,3016
-57.01838955653636,3311
-54.53178022029283,3265
-52.045858514480074,3520
-49.560624244506016,3850
-47.07607721569923,3664
-44.59221723330904,3620
-42.10904410250669,3936
-39.62655762838392,4392
-37.14475761595372,5107
-34.66364387015028,5503
-32.18321619582866,6377
-29.70347439776515,7071
-27.224418280657005,8646
-24.74604764912317,12466
-22.26836230770266,17264
-19.7913620608565,27538
-17.315046712966478,41205
-14.83941606833514,45701
-12.36446993118659,65038
-9.89020810566592,65038
-7.416630395839093,65038
-4.94373660569363,65038
-2.471526539137585,65038
-6.821210263296962E-13,65038
2.47084320796705,65038
4.941003281093458,65038
7.410480415786196,65038
9.879274808531363,65038
12.347386655893956,65038
14.814816154518212,65038
17.28156350112681,65038
19.74762889252179,65038
22.21301252558385,65038
24.67771459727237,65038
27.141735304626195,49825
29.605074844762612,19805
32.06773341487792,10886
34.52971121224755,7988
36.99100843422559,9213
39.45162527824516,10922
41.91156194181792,10271
44.370818622535126,14264
46.82939551806646,18330
49.287292826160524,15282
51.74451074464503,12075
54.201049471426245,8238
56.65690920448981,5183
59.112090141899785,4344
61.56659248179983,3697
64.02041642241159,3603
66.4735621620365,3385
68.92602989905402,2853
71.37781983192338,2741
73.82893215918205,3260
76.27936707944684,3368
78.72912479141326,3204
81.17820549385567,3187
83.62660938562783,3136
86.07433666566146,2957
88.5213875329681,3545
90.96776218663751,2957
93.41346082583925,2734
95.85848364982041,2755
98.30283085790859,2228
100.7465026495089,2218
103.18949922410604,2280
105.63182078126385,2003
108.07346752062438,2250
110.51443964190923,2631
112.95473734491827,2253
115.39436082953114,1891
117.83331029570547,1943
120.27158594347827,2095
122.7091879729652,1934
125.1461165843615,1810
127.58237197794062,1485
130.01795435405518,1450
132.4528639131364,1501
134.88710085569494,1863
137.32066538231982,1626
139.75355769367923,1739
142.1857779905207,1862
144.61732647366978,1610
147.04820334403132,1395
149.47840880258934,1524
151.90794305040674,1842
154.33680628862487,1754
156.76499871846443,1672
159.19252054122433,1874
161.61937195828352,1905
164.04555317109896,1834
166.47106438120693,2194
168.89590579022217,2374
171.320077599839,2487
173.7435800118302,2455
176.16641322804742,2410
178.58857745042144,2583
181.01007288096173,2785
183.43089972175687,2810
185.85105817497413,2814
188.27054844285988,2831
190.6893707277394,2786
193.10752523201643,2876
195.5250121581745,3002
197.9418317087751,3029
200.3579840864594,2978
202.7734694939469,2951
205.18828813403627,2967
207.6024402096051,2893
210.01592592360964,3020
212.42874547908548,2944
214.84089907914665,2900
217.2523869269868,2861
219.66320922587727,3001
222.0733661791695,2935
224.48285799029293,2954
226.8916848627572,3113
229.29984700014882,3283
231.7073446061355,3217
234.11417788446204,3055
236.520347038953,3224
238.92585227351185,3327
241.33069379212054,3385
243.73487179884035,3411
246.1383864978112,3395
248.541238093252,3395
250.9434267894609,3529
253.34495279081432,3453
255.74581630176783,3529
258.1460175268563,3672
260.54555667069314,3558
262.9444339379703,3430
265.3426495334594,3380
267.7402036620107,3356
270.1370965285529,3304
272.53332833809407,3198
274.9288992957214,3087
277.32380960660055,2956
279.718059475976,2994
282.1116491091717,3119
284.5045787115897,3014
286.89684848871195,3082
289.2884586460981,3168
291.67940938938807,3032
294.0697009242996,3009
296.4593334566299,2998
298.84830719225477,2968
301.23662233712923,2874
303.6242790972866,2916
306.01127767884,2813
308.39761828798066,2969
310.78330113097934,2854
313.16832641418534,2834
315.5526943440269,2687
317.9364051270112,2751
320.3194589697242,2676
322.70185607883093,2577
325.0835966610754,2619
327.4646809232805,2651
329.8451090723478,2592
332.2248813152577,2657
334.6039978590701,2519
336.9824589109231,2485
339.36026467803447,2493
341.7374153677,2508
344.113911187295,2459
346.48975234427337,2389
348.8649390461686,2455
351.2394715005918,2383
353.61334991523415,2454
355.9865744978655,2468
358.35914545633375,2477
360.73106299856715,2409
363.10232733257146,2383
365.47293866643247,2312
367.84289720831396,2374
370.2122031664593,2415
372.5808567491905,2319
374.9488581649083,2414
377.31620762209275,2306
379.6829053293021,2405
382.0489514951745,2369
384.4143463284262,2315
386.7790900378528,2336
389.14318283232853,2371
391.50662492080653,2266
393.86941651231916,2276
396.23155781597745,2262
398.5930490409713,2232
400.9538903965696,2185
403.3140820921202,2225
405.6736243370498,2231
408.03251734086336,2198
410.3907613131465,2227
412.74835646356166,2191
415.10530300185144,2173
417.4616011378372,2199
419.81725108141893,2244
422.1722530425758,2211
424.5266072313656,2275
426.880313857925,2171
429.2333731324701,2226
431.58578526529516,2060
433.9375504667738,2097
436.2886689473588,2153
438.63914091758113,2152
440.9889665880513,2079
443.33814616945835,2159
445.68667987257015,2151
448.03456790823395,2079
450.3818104873759,2105
452.72840782100013,2134
455.07436012019105,2143
457.41966759611057,2130
459.7643304600007,2118
462.10834892318155,2121
464.4517231970525,2163
466.79445349309174,2112
469.1365400228566,2148
471.4779829979826,2138
473.81878263018564,2131
476.15893913125876,2294
478.4984527130747,2194
480.8373235875855,2259
483.17555196682144,2257
485.5131380628919,2388
487.8500820879857,2611
490.1863842543697,2707
492.52204477439034,2930
494.8570638604725,3134
497.1914417251204,3515
499.52517858091653,3741
501.85827464052306,3910
504.19073011668036,3982
506.5225452222086,4010
508.85372017000566,3816
511.18425517304956,3590
513.514150444396,3757
515.8434061971808,4266
518.1720226446176,4820
520.4999999999999,5278
522.8273384766991,5480
525.1540382881666,5558
527.480099647932,5580
529.8055227696037,4756
532.1303078668694,3415
534.454455153496,2560
536.777964843328,2362
539.1008371502907,2174
541.4230722883866,2079
543.744670471698,2048
546.0656319143858,2041
548.3859568306899,2030
550.7056454349294,2005
553.0246979415016,2000
555.3431145648834,1965
557.6608955196306,1934
559.978041020377,1927
562.2945512818363,1931
564.6104265188006,1905
566.9256669461412,1936
569.2402727788082,1927
571.5542442318302,1910
573.8675815203156,1937
576.1802848594508,1973
578.4923544645015,1835
580.8037905508126,2008
583.114593333807,1899
585.4247630289875,1898
587.7342998519354,1919
590.0432040183106,1938
592.3514757438526,1882
594.6591152443794,1880
596.9661227357875,1898
599.2724984340531,1905
601.578242555231,1964
603.8833553154542,1920
606.1878369309362,1958
608.4916876179676,1968
610.7949075929192,2023
613.0974970722403,1973
615.3994562724587,1827
617.7007854101818,1883
620.0014847020951,1920
622.3015543649641,1834
624.6009946156324,1899
626.8998056710224,1942
629.1979877481361,2016
631.4955410640538,1886
633.7924658359349,1960
636.0887622810175,1932
638.3844306166192,1986
640.6794710601358,1982
642.9738838290426,1969
645.2676691408932,1935
647.5608272133207,2035
649.853358264037,1951
652.1452625108324,1979
654.4365401715764,1986
656.7271914642178,1963
659.0172166067838,1961
661.3066158173809,1942
663.5953893141935,2003
665.8835373154867,1966
668.1710600396028,2029
670.4579577049639,1983
672.7442305300709,2012
675.0298787335033,1992
677.3149025339197,2036
679.599302150058,2085
681.8830778007342,2062
684.1662297048437,1918
686.4487580813608,1997
688.7306631493387,1972
691.0119451279091,1997
693.2926042362834,1991
695.5726406937516,2024
697.8520547196814,2054
700.1308465335215,1945
702.4090163547982,2000
704.6865644031171,1997
706.9634908981619,1984
709.2397960596965,1998
711.5154801075631,2010
713.7905432616823,1974
716.0649857420548,2011
718.3388077687592,2005
720.612009561953,2023
722.8845913418733,1925
725.1565533288352,1966
727.427895743234,2052
729.6986188055427,2021
731.9687227363137,1995
734.238207756178,1960
736.5070740858458,1945
738.7753219461066,1951
741.0429515578281,1928
743.3099631419569,1960
745.5763569195191,2027
747.8421331116193,2000
750.1072919394409,1938
752.3718336242467,2002
754.6357583873777,1973
756.8990664502545,1942
759.1617580343765,1945
761.423833361321,1995
763.6852926527457,2000
765.9461361303862,1963
768.206364016058,1945
770.4659765316536,1989
772.7249738991469,1979
774.9833563405886,1999
777.2411240781092,1950
779.4982773339183,1984
781.7548163303044,2061
784.010741289634,2024
786.2660524343538,2106
788.5207499869881,2025
790.7748341701416,2073
793.0283052064964,2009
795.2811633188143,1973
797.5334087299362,1999
799.7850416627813,1976
802.0360623403484,2063
804.2864709857143,1969
806.5362678220353,2039
808.7854530725468,2058
811.0340269605625,2017
813.2819897094754,2043
815.5293415427581,2030
817.77608268396,2029
820.0222133567116,2013
822.2677337847211,1949
824.5126441917765,1992
826.7569448017433,1964
829.0006358385675,1946
831.2437175262731,2006
833.4861900889629,2048
835.7280537508192,2020
837.9693087361026,2031
840.2099552691533,2091
842.4499935743896,2045
844.689423876309,2047
846.9282463994886,2035
849.1664613685833,2079
851.4040690083276,2000
853.6410695435349,1990
855.877463199097,1971
858.1132501999847,1962
860.3484307712487,2031
862.5830051380175,1962
864.8169735254988,2066
867.0503361589791,2036
869.2830932638243,2124
871.5152450654786,2065
873.7467917894654,2051
875.9777336613873,2100
878.2080709069252,2035
880.4378037518389,2018
882.666932421968,2086
884.8954571432301,2079
887.1233781416219,2089
889.3506956432192,2036
891.5774098741766,2109
893.803521060728,2106
896.0290294291852,2109
898.2539352059397,2080
900.4782386174619,2116
902.7019398903011,2066
904.925039251085,2178
907.147536926521,2136
909.3694331433943,2148
911.59072812857,2040
913.8114221089921,2070
916.0315153116827,2078
918.2510079637437,1982
920.4699002923547,2005
922.6881925247761,2072
924.905884888345,2015
927.1229776104793,2073
929.3394709186747,1962
931.555365040506,2014
933.7706602036275,2013
935.9853566357709,2025
938.1994545647489,1947
940.4129542184515,2002
942.6258558248488,1972
944.8381596119883,2061
947.0498658079974,2075
949.2609746410825,1998
951.4714863395287,1968
953.6814011316998,2002
955.8907192460387,1960
958.0994409110671,2018
960.3075663553858,1969
962.5150958076741,1991
964.7220294966913,1992
966.928367651274,1910
969.1341105003388,1948
971.3392582728806,1904
973.5438111979742,1964
975.747769504772,1962
977.9511334225061,1925
980.153903180487,1953
982.3560790081052,1941
984.5576611348289,1854
986.7586497902058,1919
988.9590452038618,1923
991.158847605503,1828
993.3580572249133,1862
995.5566742919558,1793
997.7546990365728,1758
999.952131688785,1690
1002.1489724786926,1715
1004.3452216364743,1739
1006.5408793923874,1672
1008.7359459767691,1781
1010.9304216200343,1739
1013.1243065526781,1726
1015.3176010052733,1677
1017.510305208472,1665
1019.7024193930064,1697
1021.8939437896848,1622
1024.0848786293977,1579
1026.2752241431122,1647
1028.4649805618747,1606
1030.6541481168115,1653
1032.842727039127,1611
1035.0307175601051,1580
1037.2181199111074,1497
1039.4049343235752,1566
1041.591161029029,1594
1043.7768002590683,1630
1045.9618522453698,1602
1048.1463172196918,1576
1050.3301954138697,1610
1052.513487059818,1571
1054.69619238953,1594
1056.8783116350783,1559
1059.0598450286152,1579
1061.2407928023704,1545
1063.4211551886528,1595
1065.6009324198508,1555
1067.780124728432,1581
1069.9587323469414,1514
1072.1367555080046,1579
1074.314194444325,1553
1076.4910493886855,1562
1078.667320573947,1538
1080.843008233051,1488
1083.0181125990161,1438
1085.1926339049414,1456
1087.3665723840027,1511
1089.5399282694575,1536
1091.7127017946405,1490
1093.8848931929647,1517
1096.0565026979243,1503
1098.2275305430899,1478
1100.3979769621128,1455
1102.567842188722,1486
1104.737126456726,1515
1106.9058300000124,1554
1109.0739530525475,1533
1111.2414958483764,1572
1113.4084586216231,1528
1115.5748416064907,1464
1117.7406450372605,1400
1119.9058691482942,1493
1122.0705141740304,1509
1124.2345803489884,1483
1126.3980679077658,1489
1128.5609770850388,1510
1130.7233081155623,1474
1132.8850612341707,1467
1135.0462366757774,1375
1137.2068346753745,1445
1139.3668554680326,1440
1141.526299288901,1450
1143.68516637321,1447
1145.8434569562655,1449
1148.001171273455,1489
1150.158309560244,1399
1152.3148720521767,1439
1154.470858984876,1445
1156.626270594044,1407
1158.7811071154629,1457
1160.9353687849912,1435
1163.089055838569,1463
1165.242168512213,1477
1167.3947070420209,1475
1169.5466716641677,1477
1171.6980626149075,1452
1173.8488801305748,1387
1175.9991244475814,1392
1178.1487958024186,1445
1180.2978944316555,1468
1182.4464205719428,1446
1184.5943744600072,1460
1186.7417563326567,1387
1188.8885664267755,1421
1191.0348049793297,1395
1193.1804722273619,1374
1195.325568407995,1474
1197.4700937584303,1474
1199.614048515948,1439
1201.7574329179074,1406
1203.900247201746,1389
1206.042491604982,1368
1208.1841663652099,1387
1210.3252717201053,1425
1212.465807907422,1484
1214.6057751649923,1499
1216.7451737307279,1440
1218.8840038426192,1525
1221.0222657387353,1400
1223.1599596572241,1470
1225.2970858363137,1449
1227.4336445143094,1427
1229.5696359295966,1444
1231.705060320639,1456
1233.8399179259786,1444
1235.9742089842384,1463
1238.107933734118,1455
1240.2410924143974,1483
1242.373685263935,1499
1244.5057125216676,1476
1246.6371744266116,1470
1248.7680712178621,1436
1250.898403134593,1466
1253.028170416058,1482
1255.1573733015875,1434
1257.2860120305932,1438
1259.4140868425648,1484
1261.54159797707,1459
1263.6685456737569,1457
1265.7949301723515,1473
1267.9207517126597,1495
1270.046010534565,1494
1272.1707068780306,1462
1274.2948409830983,1483
1276.4184130898889,1491
1278.541423438603,1535
1280.6638722695184,1550
1282.785759822993,1551
1284.9070863394636,1506
1287.0278520594447,1539
1289.1480572235314,1558
1291.2677020723963,1544
1293.3867868467923,1503
1295.5053117875495,1562
1297.623277135579,1533
1299.740683131868,1608
1301.8575300174857,1591
1303.973818033578,1547
1306.0895474213703,1598
1308.2047184221678,1565
1310.3193312773528,1641
1312.4333862283888,1604
1314.5468835168163,1572
1316.659823384255,1607
1318.7722060724045,1616
1320.8840318230418,1579
1322.9953008780249,1631
1325.1060134792888,1577
1327.2161698688478,1600
1329.3257702887959,1603
1331.4348149813054,1642
1333.5433041886276,1624
1335.6512381530933,1634
1337.7586171171101,1548
1339.8654413231675,1587
1341.9717110138317,1570
1344.0774264317488,1495
1346.1825878196432,1537
1348.2871954203192,1597
1350.3912494766587,1562
1352.4947502316231,1583
1354.5976979282532,1586
1356.7000928096686,1571
1358.8019351190665,1586
1360.9032250997243,1521
1363.0039629949988,1547
1365.1041490483235,1532
1367.2037835032133,1550
1369.3028666032606,1584
1371.401398592137,1530
1373.4993797135926,1539
1375.5968102114575,1520
1377.6936903296396,1520
1379.7900203121262,1563
1381.8858004029835,1574
1383.9810308463561,1565
1386.075711886469,1548
1388.1698437676241,1521
1390.2634267342032,1591
1392.356461030667,1588
1394.4489469015557,1603
1396.5408845914872,1669
1398.6322743451592,1578
1400.7231164073469,1709
1402.813411022907,1605
1404.903158436773,1633
1406.9923588939578,1604
1409.0810126395531,1641
1411.1691199187303,1590
1413.2566809767386,1649
1415.343696058907,1628
1417.4301654106425,1615
1419.5160892774315,1702
1421.6014679048399,1584
1423.6863015385125,1657
1425.7705904241707,1645
1427.8543348076178,1657
1429.9375349347342,1702
1432.0201910514802,1681
1434.102303403894,1654
1436.1838722380944,1619
1438.2648978002767,1646
1440.3453803367174,1662
1442.4253200937692,1753
1444.5047173178677,1728
1446.5835722555234,1678
1448.6618851533285,1747
1450.739656257952,1768
1452.8168858161434,1849
1454.8935740747306,1828
1456.96972128062,1793
1459.045327680797,1790
1461.120393522327,1831
1463.1949190523528,1855
1465.2689045180973,1887
1467.3423501668608,1887
1469.415256246024,1968
1471.4876230030463,1978
1473.559450685465,1978
1475.6307395408976,1949
1477.7014898170391,1986
1479.771701761665,1999
1481.8413756226287,2052
1483.9105116478618,2134
1485.9791100853772,2066
1488.0471711832643,2099
1490.1146951896926,2166
1492.1816823529098,2166
1494.2481329212433,2224
1496.3140471430984,2246
1498.3794252669609,2164
1500.4442675413939,2176
1502.5085742150404,2192
1504.572345536622,2271
1506.6355817549388,2262
1508.6982831188702,2258
1510.7604498773744,2317
1512.8220822794883,2266
1514.8831805743293,2342
1516.9437450110909,2333
1519.003775839048,2310
1521.0632733075522,2363
1523.1222376660367,2360
1525.1806691640113,2344
1527.2385680510652,2381
1529.2959345768668,2284
1531.3527689911643,2403
1533.4090715437833,2466
1535.4648424846291,2494
1537.5200820636855,2473
1539.5747905310159,2486
1541.6289681367616,2442
1543.6826151311434,2519
1545.7357317644614,2567
1547.7883182870937,2493
1549.8403749494987,2638
1551.8919020022113,2616
1553.9428996958477,2662
1555.9933682811015,2769
1558.0433080087469,2850
1560.0927191296346,2813
1562.1416018946961,2897
1564.1899565549415,2886
1566.2377833614592,2815
1568.2850825654164,2747
1570.3318544180606,2720
1572.3780991707158,2715
1574.423817074788,2528
1576.4690083817595,2639
1578.5136733431923,2445
1580.5578122107272,2415
1582.601425236085,2356
1584.6445126710646,2242
1586.6870747675434,2123
1588.7291117774776,2113
1590.7706239529034,2070
1592.8116115459347,2000
1594.8520748087658,1908
1596.8920139936686,1885
1598.9314293529933,1886
1600.9703211391711,1842
1603.008689604711,1754
1605.0465350022005,1779
1607.0838575843068,1700
1609.1206576037753,1673
1611.1569353134305,1678
1613.1926909661765,1663
1615.2279248149953,1632
1617.2626371129481,1606
1619.2968281131757,1632
1621.3304980688963,1598
1623.3636472334088,1535
1625.39627586009,1542
1627.428384202396,1528
1629.459972513861,1546
1631.4910410480993,1595
1633.5215900588028,1576
1635.551619799744,1477
1637.5811305247717,1570
1639.6101224878166,1509
1641.6385959428862,1512
1643.6665511440683,1524
1645.693988345528,1468
1647.7209078015112,1460
1649.7473097663405,1478
1651.7731944944203,1503
1653.7985622402307,1540
1655.823413258333,1419
1657.847747803366,1473
1659.8715661300494,1535
1661.8948684931793,1471
1663.9176551476316,1444
1665.9399263483624,1473
1667.9616823504057,1500
1669.982923408873,1482
1672.0036497789574,1440
1674.0238617159293,1465
1676.043559475138,1474
1678.0627433120121,1443
1680.081413482059,1475
1682.0995702408654,1443
1684.117213844096,1465
1686.134344547495,1488
1688.1509626068864,1472
1690.1670682781705,1351
1692.182661817329,1430
1694.1977434804217,1425
1696.2123135235875,1416
1698.226372203043,1424
1700.2399197750851,1449
1702.2529564960905,1478
1704.2654826225112,1407
1706.277498410882,1428
1708.2890041178139,1427
1710.2999999999988,1473
1712.3104863142066,1450
1714.3204633172854,1469
1716.329931266163,1444
1718.3388904178469,1374
1720.3473410294214,1418
1722.3552833580516,1406
1724.3627176609807,1424
1726.3696441955308,1403
1728.3760632191033,1481
1730.3819749891782,1412
1732.3873797633146,1417
1734.3922777991502,1465
1736.3966693544012,1423
1738.4005546868639,1362
1740.4039340544127,1393
1742.406807715001,1380
1744.4091759266616,1403
1746.4110389475054,1378
1748.4123970357223,1403
1750.413250449582,1444
1752.4135994474318,1375
1754.4134442876993,1348
1756.4127852288902,1376
1758.4116225295893,1403
1760.4099564484595,1407
1762.407787244244,1424
1764.405115175764,1402
1766.4019405019203,1348
1768.3982634816916,1403
1770.3940843741357,1364
1772.3894034383907,1373
1774.3842209336717,1417
1776.378537119274,1306
1778.372352254571,1436
1780.3656665990156,1387
1782.3584804121397,1323
1784.3507939535534,1346
1786.3426074829463,1317
1788.3339212600863,1366
1790.3247355448211,1342
1792.3150505970766,1363
1794.3048666768573,1358
1796.2941840442477,1333
1798.2830029594106,1356
1800.2713236825884,1411
1802.2591464741004,1344
1804.2464715943465,1338
1806.2332993038058,1281
1808.2196298630352,1327
1810.2054635326708,1380
1812.190800573428,1322
1814.175641246101,1308
1816.1599858115628,1381
1818.1438345307652,1331
1820.127187664738,1362
1822.1100454745924,1372
1824.092408221516,1316
1826.0742761667766,1310
1828.055649571721,1348
1830.0365286977735,1416
1832.0169138064398,1376
1833.9968051593014,1343
1835.9762030180214,1380
1837.9551076443408,1326
1839.9335193000788,1339
1841.9114382471344,1344
1843.888864747485,1366
1845.8657990631878,1287
1847.842241456378,1287
1849.8181921892697,1364
1851.7936515241558,1348
1853.7686197234098,1265
1855.7430970494815,1375
1857.7170837649014,1358
1859.6905801322787,1322
1861.6635864143004,1339
1863.6361028737338,1351
1865.608129773424,1349
1867.5796673762961,1374
1869.5507159453537,1388
1871.521275743678,1337
1873.4913470344313,1386
1875.4609300808534,1378
1877.4300251462632,1396
1879.3986324940588,1360
1881.366752387717,1330
1883.3343850907936,1385
1885.3015308669228,1352
1887.268189979819,1383
1889.2343626932739,1317
1891.2000492711595,1346
1893.1652499774254,1406
1895.1299650761011,1315
1897.0941948312952,1353
1899.0579395071945,1399
1901.0211993680641,1316
1902.98397467825,1366
1904.9462657021745,1372
1906.9080727043415,1370
1908.869395949332,1353
1910.8302357018065,1381
1912.790592226504,1332
1914.7504657882428,1338
1916.7098566519212,1371
1918.6687650825133,1403
1920.6271913450764,1358
1922.5851357047422,1358
1924.5425984267245,1316
1926.499579776314,1425
1928.4560800188833,1435
1930.4120994198802,1359
1932.367638244833,1385
1934.32269675935,1359
1936.2772752291175,1381
1938.231373919899,1349
1940.1849930975404,1348
1942.1381330279637,1426
1944.0907939771696,1381
1946.0429762112412,1399
1947.9946799963363,1330
1949.9459055986945,1336
1951.896653284633,1424
1953.8469233205478,1325
1955.7967159729142,1374
1957.7460315082863,1339
1959.6948701932974,1389
1961.6432322946594,1347
1963.5911180791632,1417
1965.5385278136787,1353
1967.4854617651545,1329
1969.4319202006182,1341
1971.377903387176,1372
1973.3234115920136,1340
1975.268445082395,1373
1977.2130041256642,1352
1979.1570889892423,1369
1981.1006999406304,1306
1983.04383724741,1349
1984.986501177238,1318
1986.928691997853,1368
1988.8704099770712,1351
1990.811655382789,1362
1992.7524284829801,1355
1994.692729545698,1365
1996.6325588390755,1320
1998.5719166313224,1339
2000.5108031907307,1395
2002.4492187856677,1371
2004.387163684583,1360
2006.3246381560011,1338
2008.2616424685298,1315
2010.1981768908527,1352
2012.1342416917332,1360
2014.069837140014,1324
2016.0049635046162,1319
2017.9396210545406,1304
2019.8738100588666,1306
2021.8075307867502,1331
2023.740783507431,1315
2025.6735684902228,1325
2027.6058860045214,1260
2029.5377363198004,1324
2031.4691197056118,1354
2033.4000364315875,1350
2035.3304867674374,1340
2037.260470982952,1346
2039.189989347998,1340
2041.1190421325232,1321
2043.047629606554,1387
2044.9757520401945,1314
2046.9034097036288,1330
2048.8306028671195,1353
2050.7573318010086,1332
2052.683596775716,1370
2054.609398061742,1363
2056.5347359296647,1376
2058.4596106501403,1404
2060.384022493906,1343
2062.3079717317764,1342
2064.231458634646,1284
2066.1544834734873,1292
2068.077046519352,1300
2069.99914804337,1304
2071.9207883167524,1369
2073.8419676107865,1349
2075.7626861968406,1310
2077.6829443463607,1307
2079.6027423308715,1321
2081.522080421977,1285
2083.440958891362,1310
2085.359378010786,1368
2087.2773380520907,1347
2089.194839287196,1288
2091.111881988101,1332
2093.0284664268825,1296
2094.9445928756973,1353
2096.86026160678,1361
2098.775472892446,1320
2100.690227005088,1321
2102.604524217178,1294
2104.5183648012676,1354
2106.431749029985,1354
2108.34467717604,1313
2110.2571495122206,1395
2112.169166311393,1312
2114.080727846503,1277
2115.9918343905747,1332
2117.902486216711,1297
2119.8126835980956,1353
2121.722426807987,1375
2123.6317161197285,1325
2125.5405518067364,1334
2127.448934142509,1334
2129.356863400624,1277
2131.264339854737,1315
2133.1713637785815,1329
2135.077935445972,1340
2136.9840551308002,1306
2138.889723107037,1327
2140.7949396487334,1348
2142.699705030018,1303
2144.6040195250994,1290
2146.507883408264,1350
2148.4112969538774,1318
2150.3142604363848,1269
2152.2167741303097,1315
2154.1188383102535,1287
2156.0204532508997,1331
2157.9216192270064,1342
2159.822336513414,1349
2161.7226053850413,1354
2163.622426116884,1321
2165.5217989840185,1333
2167.4207242616,1383
2169.319202224862,1341
2171.2172331491165,1379
2173.1148173097563,1331
2175.0119549822507,1283
2176.90864644215,1325
2178.8048919650823,1335
2180.7006918267534,1343
2182.596046302952,1304
2184.4909556695407,1318
2186.3854202024645,1308
2188.279440177746,1286
2190.173015871487,1339
2192.066147559868,1333
2193.958835519149,1274
2195.851080025667,1319
2197.7428813558417,1267
2199.6342397861667,1390
2201.5251555932186,1333
2203.415629053651,1344
2205.3056604441986,1368
2207.19525004167,1331
2209.084398122958,1332
2210.9731049650327,1291
2212.861370844941,1324
2214.749196039812,1337
2216.636580826851,1361
2218.523525483344,1380
2220.410030286655,1347
2222.296095514226,1322
2224.1817214435805,1363
2226.066908352319,1287
2227.951656518121,1290
2229.835966218746,1384
2231.71983773203,1330
2233.6032713358913,1324
2235.486267308324,1364
2237.3688259274036,1314
2239.2509474712824,1332
2241.132632218193,1346
2243.013880446447,1327
2244.8946924344323,1283
2246.7750684606203,1277
2248.6550088035574,1337
2250.534513741871,1328
2252.413583554265,1346
2254.292218519526,1348
2256.170418916517,1354
2258.0481850241786,1339
2259.925517121534,1343
2261.8024154876825,1301
2263.678880401803,1317
2265.5549121431536,1358
2267.430510991071,1300
2269.305677224971,1336
2271.180411124348,1361
2273.0547129687766,1358
2274.9285830379076,1340
2276.8020216114737,1371
2278.6750289692845,1338
2280.5476053912294,1307
2282.4197511572766,1352
2284.2914665474727,1329
2286.162751841943,1313
2288.0336073208937,1364
2289.904033264608,1331
2291.774029953448,1321
2293.6435976678554,1330
2295.5127366883517,1345
2297.381447295534,1327
2299.2497297700825,1350
2301.1175843927526,1320
2302.9850114443825,1327
2304.852011205885,1330
2306.7185839582553,1333
2308.5847299825664,1358
2310.4504495599676,1388
2312.3157429716925,1365
2314.1806104990483,1321
2316.0450524234247,1369
2317.9090690262888,1367
2319.772660589186,1354
2321.635827393742,1322
2323.498569721661,1318
2325.3608878547248,1386
2327.2227820747967,1330
2329.0842526638157,1330
2330.945299903803,1380
2332.805924076857,1373
2334.6661254651535,1344
2336.525904350951,1357
2338.3852610165827,1402
2340.244195744464,1339
2342.102708817088,1356
2343.9608005170253,1363
2345.8184711269287,1341
2347.675720929526,1356
2349.532550207628,1318
2351.38895924412,1366
2353.24494832197,1353
2355.100517724223,1336
2356.955667734004,1341
2358.810398634514,1416
2360.664710709037,1381
2362.5186042409337,1382
2364.3720795136437,1348
2366.225136810686,1410
2368.0777764156583,1352
2369.929998612237,1334
2371.7818036841777,1351
2373.633191915315,1363
2375.484163589562,1367
2377.3347189909114,1349
2379.184858403434,1366
2381.03458211128,1352
2382.8838903986775,1389
2384.732783549936,1346
2386.5812618494406,1392
2388.4293255816588,1364
2390.2769750311327,1373
2392.1242104824883,1400
2393.971032220427,1333
2395.8174405297295,1318
2397.6634356952563,1409
2399.509018001947,1326
2401.3541877348193,1406
2403.1989451789705,1427
2405.043290619576,1354
2406.8872243418905,1416
2408.730746631247,1323
2410.5738577730594,1361
2412.4165580528183,1382
2414.258847756095,1345
2416.100727168537,1431
2417.9421965758734,1386
2419.783256263912,1363
2421.623906518538,1395
2423.4641476257157,1371
2425.303979871491,1368
2427.143403541984,1482
2428.9824189233977,1457
2430.821026302012,1394
2432.6592259641866,1382
2434.497018196361,1376
2436.33440328505,1382
2438.171381516851,1420
2440.00795317844,1420
2441.844118556569,1409
2443.6798779380724,1399
2445.5152316098606,1409
2447.3501798589255,1390
2449.1847229723357,1377
2451.0188612372403,1395
2452.8525949408663,1342
2454.6859243705203,1429
2456.518849813587,1358
2458.3513715575314,1388
2460.183489889895,1389
2462.015205098301,1393
2463.8465174704493,1385
2465.67742729412,1412
2467.5079348571717,1409
2469.338040447542,1429
2471.1677443532476,1366
2472.9970468623833,1390
2474.825948263123,1441
2476.6544488437207,1387
2478.482548892508,1404
2480.310248697896,1346
2482.137548548374,1378
2483.9644487325118,1399
2485.790949538956,1403
2487.617051256433,1391
2489.44275417375,1403
2491.26805857979,1378
2493.0929647635157,1433
2494.917473013971,1369
2496.741583620276,1374
2498.5652968716304,1394
2500.3886130573137,1428
2502.2115324666834,1376
2504.0340553891765,1381
2505.856182114308,1369
2507.6779129316733,1389
2509.499248130945,1388
2511.3201880018764,1414
2513.140732834298,1359
2514.9608829181198,1469
2516.780638543331,1463
2518.6,1434
2520.418967578273,1379
2522.237541568376,1454
2524.0557222606144,1423
2525.8735099453706,1438
2527.6909049131086,1469
2529.507907454368,1402
2531.32451785977,1412
2533.140736420014,1442
2534.9565634258774,1463
2536.771999168218,1394
2538.5870439379714,1383
2540.4016980261526,1515
2542.2159617238544,1501
2544.02983532225,1440
2545.8433191125914,1533
2547.656413386209,1454
2549.4691184345115,1439
2551.2814345489874,1473
2553.093362021204,1456
2554.904901142808,1473
2556.716052205523,1492
2558.526815501153,1504
2560.3371913215824,1495
2562.147179958771,1531
2563.956781704761,1463
2565.7659968516705,1516
2567.5748256916986,1559
2569.3832685171224,1569
2571.1913256202984,1474
2572.9989972936614,1583
2574.806283829725,1489
2576.613185521084,1536
2578.4197026604074,1589
2580.2258355404483,1522
2582.031584454035,1617
2583.836949694077,1535
2585.6419315535613,1561
2587.4465303255533,1553
2589.2507463032002,1572
2591.0545797797245,1535
2592.8580310484303,1611
2594.6611004026995,1553
2596.463788135992,1555
2598.266094541849,1583
2600.0680199138874,1553
2601.869564545807,1594
2603.670728731383,1530
2605.4715127644704,1539
2607.2719169390048,1581
2609.071941548998,1543
2610.8715868885433,1528
2612.670853251811,1574
2614.469740933052,1524
2616.268250226594,1526
2618.0663814268455,1524
2619.864134828292,1599
2621.6615107255006,1583
2623.458509413115,1515
2625.2551311858597,1600
2627.0513763385347,1587
2628.8472451660223,1529
2630.6427379632833,1593
2632.4378550253564,1586
2634.232596647359,1520
2636.026963124488,1549
2637.8209547520187,1526
2639.6145718253065,1509
2641.407814639785,1516
2643.200683490966,1524
2644.9931786744414,1479
2646.7853004858807,1467
2648.577049221034,1484
2650.3684251757277,1418
2652.1594286458712,1498
2653.9500599274484,1443
2655.740319316525,1444
2657.5302071092437,1427
2659.3197236018286,1482
2661.10886909058,1434
2662.8976438718782,1413
2664.686048242183,1489
2666.4740824980327,1422
2668.2617469360443,1515
2670.0490418529134,1418
2671.8359675454153,1448
2673.622524310403,1430
2675.408712444811,1363
2677.1945322456495,1388
2678.979984010009,1407
2680.76506803506,1397
2682.5497846180497,1397
2684.334134056306,1382
2686.1181166472343,1373
2687.9017326883213,1421
2689.6849824771293,1346
2691.4678663113013,1359
2693.2503844885596,1388
2695.032537306705,1371
2696.8143250636167,1346
2698.5957480572542,1350
2700.3768065856534,1348
2702.1575009469316,1363
2703.937831439283,1349
2705.717798360982,1330
2707.4974020103837,1318
2709.276642685917,1365
2711.055520686095,1325
2712.834036309506,1309
2714.612189854819,1335
2716.389981620782,1353
2718.1674119062204,1313
2719.944481010041,1366
2721.721189231226,1401
2723.4975368688415,1336
2725.273524222027,1357
2727.0491515900053,1321
2728.824419272075,1293
2730.5993275676146,1325
2732.3738767760838,1325
2734.148067197016,1288
2735.921899130031,1323
2737.6953728748194,1300
2739.468488731156,1299
2741.2412469988926,1334
2743.0136479779617,1368
2744.785691968372,1325
2746.5573792702116,1252
2748.3287101836504,1344
2750.099685008934,1368
2751.870304046388,1378
2753.640567596418,1372
2755.4104759595057,1287
2757.1800294362156,1365
2758.949228327187,1275
2760.7180729331412,1344
2762.486563554877,1324
2764.254700493272,1291
2766.022484049284,1322
2767.789914523947,1284
2769.5569922183786,1270
2771.3237174337705,1361
2773.090090471394,1327
2774.8561116326036,1327
2776.6217812188274,1357
2778.3870995315756,1270
2780.1520668724356,1289
2781.9166835430747,1299
2783.6809498452394,1342
2785.444866080754,1364
2787.2084325515225,1323
2788.971649559527,1284
2790.73451740683,1312
2792.4970363955713,1270
2794.2592068279705,1286
2796.0210290063264,1332
2797.7825032330147,1322
2799.543629810493,1354
2801.304409041296,1300
2803.0648412280366,1298
2804.8249266734088,1330
2806.5846656801846,1286
2808.344058551212,1323
2810.1031055894246,1319
2811.8618070978273,1269
2813.6201633795085,1330
2815.378174737636,1267
2817.1358414754536,1291
2818.893163896285,1340
2820.6501423035334,1264
2822.4067770006814,1309
2824.1630682912883,1301
2825.9190164789957,1321
2827.6746218675207,1293
2829.429884760661,1327
2831.184805462294,1309
2832.9393842763743,1291
2834.693621506936,1352
2836.4475174580916,1323
2838.201072434034,1318
2839.954286739034,1289
2841.707160677441,1338
2843.459694553685,1354
2845.2118886722724,1360
2846.96374333779,1260
2848.7152588549034,1316
2850.4664355283567,1318
2852.217273662973,1343
2853.9677735636546,1304
2855.7179355353833,1297
2857.4677598832186,1335
2859.217246912299,1366
2860.9663969278427,1377
2862.715210235146,1325
2864.4636871395846,1324
2866.211827946614,1334
2867.9596329617652,1280
2869.7071024906536,1322
2871.4542368389684,1395
2873.20103631248,1314
2874.947501217038,1341
2876.6936318585695,1266
2878.4394285430812,1285
2880.1848915766604,1358
2881.9300212654707,1373
2883.6748179157553,1344
2885.4192818338374,1323
2887.1634133261173,1278
2888.907212699077,1293
2890.6506802592744,1299
2892.393816313348,1319
2894.1366211680142,1314
2895.8790951300693,1365
2897.621238506388,1335
2899.363051603925,1316
2901.1045347297118,1311
2902.8456881908596,1295
2904.58651229456,1290
2906.327007348081,1314
2908.067173658772,1325
2909.8070115340597,1323
2911.5465212814497,1346
2913.285703208527,1327
2915.0245576229563,1308
2916.7630848324807,1286
2918.5012851449196,1324
2920.2391588681758,1297
2921.976706310227,1291
2923.7139277791334,1301
2925.4508235830313,1263
2927.187394030137,1323
2928.923639428745,1311
2930.6595600872306,1319
2932.395156314046,1328
2934.1304284177218,1318
2935.8653767068713,1347
2937.6000014901815,1338
2939.3343030764227,1261
2941.068281774442,1317
2942.8019378931644,1338
2944.5352717415976,1335
2946.2682836288236,1337
2948.0009738640065,1272
2949.7333427563885,1276
2951.465390615289,1361
2953.1971177501086,1315
2954.9285244703265,1258
2956.6596110855,1297
2958.3903779052657,1344
2960.1208252393385,1280
2961.8509533975125,1321
2963.5807626896617,1318
2965.3102534257378,1311
2967.0394259157715,1307
2968.768280469873,1263
2970.496817398232,1304
2972.2250370111146,1357
2973.952939618869,1368
2975.6805255319196,1308
2977.4077950607707,1305
2979.134748516006,1346
2980.861386208289,1280
2982.587708448359,1309
2984.313715547037,1335
2986.039407815222,1342
2987.764785563891,1303
2989.489849104102,1293
2991.2145987469908,1328
2992.9390348037705,1308
2994.6631575857346,1280
2996.3869674042576,1278
2998.1104645707887,1282
2999.83364939686,1334
3001.5565221940783,1330
3003.2790832741334,1320
3005.0013329487924,1310
3006.7232715298996,1256
3008.4448993293804,1332
3010.166216659239,1275
3011.887223831558,1302
3013.607921158498,1274
3015.3283089522993,1286
3017.0483875252826,1331
3018.7681571898443,1254
3020.4876182584626,1294
3022.2067710436927,1308
3023.9256158581707,1268
3025.644153014609,1304
3027.362382825801,1323
3029.0803056046193,1284
3030.797921664012,1322
3032.5152313170106,1292
3034.2322348767225,1303
3035.9489326563353,1323
3037.665324969115,1257
3039.3814121284063,1283
3041.097194447633,1274
3042.812672240299,1243
3044.5278458199855,1320
3046.2427155003525,1326
3047.9572815951406,1306
3049.671544418167,1320
3051.38550428333,1350
3053.0991615046073,1264
3054.812516396051,1313
3056.5255692717974,1266
3058.2383204460575,1249
3059.9507702331257,1253
3061.662918947372,1325
3063.3747669032446,1348
3065.0863144152736,1278
3066.7975617980674,1322
3068.508509366309,1334
3070.219157434767,1304
3071.9295063182844,1331
3073.639556331785,1324
3075.3493077902704,1328
3077.058761008821,1333
3078.7679163025964,1290
3080.476773986837,1328
3082.1853343768594,1346
3083.89359778806,1301
3085.6015645359153,1281
3087.3092349359786,1312
3089.016609303884,1260
3090.7236879553434,1315
3092.4304712061476,1294
3094.136959372166,1340
3095.843152769349,1277
3097.5490517137237,1290
3099.2546565213966,1265
3100.959967508554,1285
3102.66498499146,1274
3104.3697092864577,1328
3106.0741407099695,1282
3107.778279578498,1306
3109.482126208622,1345
3111.1856809170004,1332
3112.8889440203716,1311
3114.5919158355528,1296
3116.294596679439,1342
3117.996986869006,1318
3119.6990867213062,1277
3121.4008965534726,1362
3123.102416682717,1306
3124.803647426329,1303
3126.5045891016784,1304
3128.205242026213,1314
3129.90560651746,1362
3131.605682893025,1319
3133.3054714705922,1326
3135.0049725679282,1347
3136.7041865028714,1310
3138.4031135933465,1296
3140.101754157353,1270
3141.800108512971,1278
3143.498176978357,1353
3145.1959598717494,1317
3146.8934575114636,1320
3148.5906702158954,1322
3150.2875983035183,1303
3151.9842420928853,1288
3153.680601902627,1311
3155.376678051456,1285
3157.07247085816,1284
3158.767980641609,1315
3160.463207720748,1284
3162.158152414606,1284
3163.8528150422862,1305
3165.5471959229726,1276
3167.2412953759303,1305
3168.9351137204976,1265
3170.628651276098,1334
3172.3219083622307,1336
3174.014885298474,1271
3175.707582404485,1317
3177.4000000000005,1248
3179.092138404835,1308
3180.7839979388846,1285
3182.47557892212,1276
3184.166881674594,1361
3185.8579065164386,1275
3187.5486537678626,1323
3189.2391237491547,1306
3190.9293167806827,1271
3192.6192331828934,1359
3194.3088732763117,1279
3195.998237381542,1307
3197.687325819268,1386
3199.376138910251,1301
3201.064676975334,1275
3202.7529403354347,1298
3204.4409293115523,1285
3206.1286442247647,1330
3207.816085396229,1293
3209.5032531471825,1281
3211.190147798936,1242
3212.8767696728846,1296
3214.5631190905015,1314
3216.2491963733373,1263
3217.9350018430214,1296
3219.6205358212637,1281
3221.305798629851,1279
3222.990790590651,1283
3224.6755120256103,1236
3226.359963256751,1273
3228.0441446061795,1260
3229.7280563960758,1329
3231.411698948703,1309
3233.0950725863995,1255
3234.778177631587,1248
3236.461014406761,1272
3238.1435832345005,1279
3239.8258844374595,1252
3241.507918338374,1301
3243.1896852600576,1285
3244.8711855254023,1286
3246.552419457381,1268
3248.233387379042,1256
3249.914089613516,1313
3251.59452648401,1253
3253.274698313813,1231
3254.95460542629,1249
3256.6342481448855,1312
3258.313626793125,1284
3259.9927416946084,1276
3261.6715931730196,1281
3263.3501815521176,1223
3265.0285071557437,1221
3266.706570307815,1277
3268.3843713323286,1298
3270.0619105533615,1277
3271.739188295068,1238
3273.4162048816834,1301
3275.0929606375184,1294
3276.769455886966,1289
3278.445690954498,1289
3280.1216661646613,1334
3281.797381842087,1285
3283.4728383114807,1324
3285.1480358976296,1319
3286.8229749253996,1323
3288.4976557197333,1259
3290.172078605655,1235
3291.846243908266,1267
3293.5201519527463,1285
3295.193803064357,1237
3296.8671975684374,1281
3298.5403357904024,1259
3300.21321805575,1308
3301.8858446900567,1264
3303.558216018975,1255
3305.23033236824,1249
3306.9021940636603,1212
3308.57380143113,1360
3310.2451547966184,1258
3311.916254486174,1261
3313.5871008259246,1275
3315.2576941420766,1278
3316.9280347609147,1282
3318.5981230088046,1288
3320.2679592121895,1222
3321.9375436975924,1255
3323.606876791612,1264
3325.27595882093,1267
3326.944790112305,1221
3328.6133709925753,1238
3330.2817017886573,1207
3331.949782827547,1246
3333.617614436319,1234
3335.2851969421245,1248
3336.952530672199,1247
3338.619615953853,1252
3340.286453114475,1300
3341.9530424815357,1259
3343.619384382583,1296
3345.2854791452437,1279
3346.951327097224,1273
3348.6169285663073,1287
3350.2822838803577,1283
3351.947393367319,1289
3353.61225735521,1285
3355.2768761721345,1291
3356.9412501462693,1307
3358.605379605873,1320
3360.2692648792827,1232
3361.9329062949146,1278
3363.596304181263,1262
