CollectionTime,6/26/2024 3:35:53 PM
ExposureUsed,3
CalibratedSpectrum
-962.7078968117929,578
-959.9714848408522,613
-957.2358232597828,594
-954.5009119013725,618
-951.7667505983302,614
-949.0333391832855,614
-946.3006774887896,608
-943.5687653473143,641
-940.837602591253,654
-938.1071890529199,673
-935.3775245645503,618
-932.6486089583007,624
-929.9204420662485,703
-927.1930237203925,668
-924.4663537526524,658
-921.7404319948689,620
-919.0152582788041,648
-916.2908324361409,673
-913.5671542984834,694
-910.8442236973568,665
-908.1220404642074,653
-905.4006044304027,664
-902.679915427231,650
-899.959973285902,697
-897.2407778375464,663
-894.5223289132158,656
-891.8046263438832,629
-889.0876699604426,591
-886.3714595937089,634
-883.6559950744183,635
-880.9412762332282,598
-878.2273029007168,620
-875.5140749073835,641
-872.8015920836489,641
-870.0898542598545,575
-867.3788612662631,603
-864.6686129330585,610
-861.9591090903457,613
-859.2503495681506,570
-856.5423341964203,572
-853.8350628050229,645
-851.1285352237478,665
-848.4227512823054,610
-845.7177108103272,617
-843.0134136373656,596
-840.3098595928943,607
-837.6070485063082,627
-834.9049802069229,632
-832.2036545239757,589
-829.5030712866244,623
-826.8032303239481,638
-824.1041314649472,579
-821.4057745385428,579
-818.7081593735775,620
-816.0112857988148,664
-813.3151536429393,627
-810.6197627345566,611
-807.9251129021936,590
-805.2312039742981,610
-802.5380357792392,610
-799.8456081453069,604
-797.1539209007124,626
-794.462973873588,604
-791.772766891987,606
-789.083299783884,648
-786.3945723771743,603
-783.7065844996748,628
-781.0193359791231,634
-778.3328266431781,689
-775.6470563194197,649
-772.9620248353489,653
-770.2777320183878,620
-767.5941776958798,671
-764.9113616950891,670
-762.2292838432011,637
-759.5479439673222,628
-756.8673418944801,590
-754.1874774516235,593
-751.5083504656222,615
-748.8299607632671,610
-746.15230817127,612
-743.475392516264,647
-740.7992136248035,648
-738.1237713233636,608
-735.4490654383407,646
-732.7750957960521,689
-730.1018622227365,666
-727.4293645445534,620
-724.7576025875837,699
-722.0865761778291,656
-719.4162851412126,631
-716.7467293035781,615
-714.0779084906909,657
-711.409822528237,712
-708.7424712418238,675
-706.0758544569796,634
-703.4099719991541,634
-700.7448236937178,726
-698.0804093659622,728
-695.4167288411002,668
-692.7537819442656,688
-690.0915685005134,679
-687.4300883348199,684
-684.7693412720819,682
-682.1093271371178,665
-679.4500457546669,672
-676.7914969493897,643
-674.1336805458676,703
-671.4765963686034,717
-668.8202442420206,676
-666.1646239904642,730
-663.5097354382001,711
-660.8555784094151,726
-658.2021527282176,716
-655.5494582186366,757
-652.8974947046223,752
-650.2462620100463,740
-647.5957599587009,699
-644.9459883742998,762
-642.2969470804776,759
-639.6486359007902,764
-637.0010546587141,794
-634.3542031776476,798
-631.7080812809096,755
-629.0626887917401,715
-626.4180255333008,700
-623.7740913286734,722
-621.1308860008619,726
-618.4884093727904,688
-615.8466612673046,728
-613.2056415071715,708
-610.5653499150785,702
-607.9257863136347,737
-605.28695052537,738
-602.6488423727357,766
-600.0114616781036,715
-597.3748082637674,817
-594.7388819519412,790
-592.1036825647604,730
-589.4692099242818,776
-586.8354638524829,754
-584.2024441712624,750
-581.5701507024403,773
-578.9385832677575,757
-576.3077416888759,766
-573.6776257873787,734
-571.0482353847704,747
-568.4195703024757,774
-565.7916303618415,778
-563.164415384135,827
-560.5379251905453,768
-557.9121596021815,754
-555.2871184400748,804
-552.6628015251767,763
-550.0392086783606,766
-547.4163397204204,751
-544.794194472071,743
-542.1727727539491,808
-539.5520743866118,768
-536.9320991905377,801
-534.3128469861261,854
-531.6943175936979,871
-529.0765108334947,872
-526.4594265256793,926
-523.8430644903358,1059
-521.2274245474689,1305
-518.612506517005,1368
-515.9983102187913,1475
-513.3848354725959,1630
-510.77208209810846,1754
-508.16004991493924,1849
-505.5487387426199,2103
-502.9381484006032,2280
-500.3282787082628,2387
-497.71912948489364,2375
-495.1107005497117,2193
-492.5029917218539,2105
-489.8960028203786,1910
-487.28973366426493,1650
-484.68418407241325,1338
-482.07935386364494,1223
-479.47524285670266,1105
-476.87185087025,1152
-474.2691777228715,1159
-471.66722323307334,1098
-469.0659872192821,1048
-466.4654694998459,1010
-463.86566989303384,1022
-461.26658821703614,992
-458.66822428996414,1014
-456.07057792985,1048
-453.4736489546475,1044
-450.877437182231,1034
-448.28194243039627,963
-445.68716451686,916
-443.09310325926003,1012
-440.49975847515555,999
-437.9071299820263,902
-435.31521759727354,956
-432.72402113821954,997
-430.13354042210767,1020
-427.5437752661022,1067
-424.95472548728867,1068
-422.36639090267386,1042
-419.7787713291855,1091
-417.1918665836721,1066
-414.60567648290385,1024
-412.0202008435715,1016
-409.4354394822874,1064
-406.8513922155845,1037
-404.26805885991723,1013
-401.685439231661,1123
-399.103533147112,1051
-396.522340422488,1030
-393.9418608739278,1116
-391.3620943174908,1112
-388.7830405691583,1090
-386.2046994448317,1144
-383.6270707603344,1031
-381.05015433141045,983
-378.473949973725,861
-375.8984575028645,878
-373.32367673433623,835
-370.74960748356875,816
-368.1762495659117,766
-365.60360279663576,658
-363.03166699093265,648
-360.4604419639154,647
-357.8899275306178,612
-355.32012350599507,555
-352.7510297049233,524
-350.1826459421999,587
-347.61497203254316,597
-345.04800779059235,541
-342.4817530309082,510
-339.91620756797226,521
-337.35137121618743,550
-334.7872437898774,514
-332.22382510328725,566
-329.66111497058273,615
-327.09911320585127,648
-324.53781962310075,614
-321.9772340362607,597
-319.4173562591816,698
-316.8581861056348,723
-314.2997233893127,739
-311.7419679238294,791
-309.1849195227194,742
-306.62857799943856,687
-304.0729431673641,612
-301.51801483979375,587
-298.963792829947,598
-296.41027695096386,698
-293.85746701590574,726
-291.3053628377552,761
-288.7539642294155,703
-286.2032710037115,747
-283.65328297338897,760
-281.1039999511146,770
-278.5554217494762,840
-276.007548180983,676
-273.4603790580651,638
-270.9139141930734,655
-268.3681533982807,662
-265.8230964858798,673
-263.27874326798565,675
-260.7350935566336,733
-258.1921471637804,741
-255.6499039013039,825
-253.10836358100266,775
-250.56752601459698,691
-248.02739101372765,773
-245.48795838995704,898
-242.94922795476816,807
-240.41119951956557,801
-237.8738728956746,1020
-235.33724789434166,1052
-232.80132432673452,992
-230.2661020039418,1086
-227.73158073697357,1082
-225.19776033676033,1026
-222.66464061415422,1041
-220.1322213799284,951
-217.60050244477725,950
-215.06948361931552,968
-212.53916471408013,896
-210.00954553952818,828
-207.48062590603843,926
-204.9524056239104,1105
-202.4248845033651,1124
-199.8980623545441,1097
-197.37193898751036,1059
-194.84651421224817,1003
-192.32178783866232,1045
-189.79775967657952,1058
-187.27442953574644,1052
-184.7517972258321,976
-182.2298625564256,880
-179.7086253370378,1030
-177.18808537710026,1120
-174.66824248596583,1152
-172.14909647290835,1313
-169.6306471471229,1264
-167.11289431772548,1160
-164.59583779375328,1158
-162.07947738416453,1242
-159.5638128978386,1177
-157.04884414357605,1265
-154.53457093009854,1222
-152.02099306604828,1178
-149.50811035998936,1185
-146.99592262040665,1357
-144.48442965570587,1399
-141.97363127421409,1568
-139.46352728417958,1672
-136.95411749377126,1761
-134.44540171107985,1941
-131.93737974411636,1878
-129.43005140081357,1737
-126.92341648902493,1622
-124.41747481652521,1770
-121.91222619101006,1823
-119.40767042009657,1563
-116.90380731132257,1440
-114.40063667214702,1697
-111.8981583099503,1935
-109.3963720320337,1973
-106.89527764561933,1702
-104.39487495785067,1888
-101.89516377579241,2025
-99.39614390642998,2010
-96.89781515667039,2036
-94.40017733334128,2152
-91.90323024319173,2164
-89.40697369289148,2042
-86.91140748903172,1951
-84.41653143812482,2222
-81.92234534660395,2311
-79.42884902082358,2546
-76.93604226705907,2513
-74.4439248915071,2316
-71.95249670028534,2194
-69.46175749943245,2447
-66.97170709490854,2641
-64.48234529259423,3424
-61.99367189829195,3664
-59.50568671772464,3603
-57.01838955653636,3766
-54.53178022029283,3919
-52.045858514480074,4179
-49.560624244506016,4656
-47.07607721569923,4406
-44.59221723330904,4310
-42.10904410250669,4702
-39.62655762838392,5837
-37.14475761595372,6782
-34.66364387015028,7032
-32.18321619582866,8056
-29.70347439776515,9085
-27.224418280657005,9999
-24.74604764912317,14153
-22.26836230770266,20175
-19.7913620608565,31800
-17.315046712966478,47879
-14.83941606833514,55085
-12.36446993118659,65038
-9.89020810566592,65038
-7.416630395839093,65038
-4.94373660569363,65038
-2.471526539137585,65038
-6.821210263296962E-13,65038
2.47084320796705,65038
4.941003281093458,65038
7.410480415786196,65038
9.879274808531363,65038
12.347386655893956,65038
14.814816154518212,65038
17.28156350112681,65038
19.74762889252179,65038
22.21301252558385,65038
24.67771459727237,65038
27.141735304626195,65038
29.605074844762612,27645
32.06773341487792,12375
34.52971121224755,8839
36.99100843422559,10136
39.45162527824516,12355
41.91156194181792,10966
44.370818622535126,15032
46.82939551806646,19396
49.287292826160524,17163
51.74451074464503,14169
54.201049471426245,8431
56.65690920448981,5317
59.112090141899785,4536
61.56659248179983,4826
64.02041642241159,4138
66.4735621620365,4063
68.92602989905402,2835
71.37781983192338,3072
73.82893215918205,4246
76.27936707944684,3552
78.72912479141326,3082
81.17820549385567,3197
83.62660938562783,3681
86.07433666566146,3478
88.5213875329681,3596
90.96776218663751,3442
93.41346082583925,3374
95.85848364982041,3081
98.30283085790859,2505
100.7465026495089,2955
103.18949922410604,2999
105.63182078126385,2295
108.07346752062438,2729
110.51443964190923,2851
112.95473734491827,2416
115.39436082953114,2019
117.83331029570547,2010
120.27158594347827,2464
122.7091879729652,1857
125.1461165843615,1947
127.58237197794062,1859
130.01795435405518,1587
132.4528639131364,1646
134.88710085569494,1964
137.32066538231982,1951
139.75355769367923,1873
142.1857779905207,1804
144.61732647366978,1773
147.04820334403132,1593
149.47840880258934,1641
151.90794305040674,1825
154.33680628862487,1838
156.76499871846443,1707
159.19252054122433,1755
161.61937195828352,1865
164.04555317109896,1772
166.47106438120693,2043
168.89590579022217,2636
171.320077599839,2577
173.7435800118302,2510
176.16641322804742,2583
178.58857745042144,2549
181.01007288096173,2625
183.43089972175687,2597
185.85105817497413,2497
188.27054844285988,2525
190.6893707277394,2496
193.10752523201643,2575
195.5250121581745,2797
197.9418317087751,2835
200.3579840864594,2556
202.7734694939469,2679
205.18828813403627,2740
207.6024402096051,2699
210.01592592360964,2864
212.42874547908548,2801
214.84089907914665,2712
217.2523869269868,2658
219.66320922587727,2815
222.0733661791695,2835
224.48285799029293,2780
226.8916848627572,2858
229.29984700014882,3058
231.7073446061355,2865
234.11417788446204,2818
236.520347038953,2884
238.92585227351185,3175
241.33069379212054,3208
243.73487179884035,2974
246.1383864978112,2893
248.541238093252,2864
250.9434267894609,3089
253.34495279081432,3040
255.74581630176783,2958
258.1460175268563,3260
260.54555667069314,3167
262.9444339379703,3050
265.3426495334594,2980
267.7402036620107,3070
270.1370965285529,3051
272.53332833809407,2938
274.9288992957214,2865
277.32380960660055,2802
279.718059475976,2752
282.1116491091717,2752
284.5045787115897,2895
286.89684848871195,2901
289.2884586460981,2908
291.67940938938807,2793
294.0697009242996,2646
296.4593334566299,2757
298.84830719225477,2696
301.23662233712923,2713
303.6242790972866,2705
306.01127767884,2677
308.39761828798066,2741
310.78330113097934,2598
313.16832641418534,2634
315.5526943440269,2721
317.9364051270112,2569
320.3194589697242,2510
322.70185607883093,2427
325.0835966610754,2452
327.4646809232805,2544
329.8451090723478,2493
332.2248813152577,2433
334.6039978590701,2409
336.9824589109231,2370
339.36026467803447,2317
341.7374153677,2398
344.113911187295,2275
346.48975234427337,2298
348.8649390461686,2273
351.2394715005918,2301
353.61334991523415,2311
355.9865744978655,2263
358.35914545633375,2302
360.73106299856715,2255
363.10232733257146,2266
365.47293866643247,2232
367.84289720831396,2270
370.2122031664593,2171
372.5808567491905,2233
374.9488581649083,2221
377.31620762209275,2310
379.6829053293021,2283
382.0489514951745,2219
384.4143463284262,2165
386.7790900378528,2120
389.14318283232853,2117
391.50662492080653,2157
393.86941651231916,2178
396.23155781597745,2108
398.5930490409713,2077
400.9538903965696,2112
403.3140820921202,2074
405.6736243370498,2077
408.03251734086336,2133
410.3907613131465,2085
412.74835646356166,2102
415.10530300185144,2043
417.4616011378372,2150
419.81725108141893,2112
422.1722530425758,2093
424.5266072313656,2065
426.880313857925,2123
429.2333731324701,2064
431.58578526529516,2090
433.9375504667738,2006
436.2886689473588,2033
438.63914091758113,1956
440.9889665880513,1995
443.33814616945835,2021
445.68667987257015,1943
448.03456790823395,1948
450.3818104873759,2017
452.72840782100013,2067
455.07436012019105,1987
457.41966759611057,1947
459.7643304600007,1986
462.10834892318155,2011
464.4517231970525,1938
466.79445349309174,2098
469.1365400228566,2070
471.4779829979826,2087
473.81878263018564,2117
476.15893913125876,2131
478.4984527130747,2085
480.8373235875855,2113
483.17555196682144,2198
485.5131380628919,2280
487.8500820879857,2342
490.1863842543697,2508
492.52204477439034,2786
494.8570638604725,2934
497.1914417251204,3301
499.52517858091653,3710
501.85827464052306,4063
504.19073011668036,4191
506.5225452222086,4183
508.85372017000566,4075
511.18425517304956,3986
513.514150444396,3913
515.8434061971808,4479
518.1720226446176,4903
520.4999999999999,5162
522.8273384766991,5460
525.1540382881666,5700
527.480099647932,5466
529.8055227696037,4730
532.1303078668694,3410
534.454455153496,2581
536.777964843328,2249
539.1008371502907,2009
541.4230722883866,1926
543.744670471698,1949
546.0656319143858,1936
548.3859568306899,1960
550.7056454349294,1867
553.0246979415016,1828
555.3431145648834,1805
557.6608955196306,1787
559.978041020377,1798
562.2945512818363,1781
564.6104265188006,1794
566.9256669461412,1789
569.2402727788082,1778
571.5542442318302,1791
573.8675815203156,1781
576.1802848594508,1760
578.4923544645015,1817
580.8037905508126,1743
583.114593333807,1814
585.4247630289875,1851
587.7342998519354,1774
590.0432040183106,1805
592.3514757438526,1787
594.6591152443794,1794
596.9661227357875,1860
599.2724984340531,1767
601.578242555231,1800
603.8833553154542,1790
606.1878369309362,1842
608.4916876179676,1917
610.7949075929192,1818
613.0974970722403,1799
615.3994562724587,1814
617.7007854101818,1883
620.0014847020951,1845
622.3015543649641,1832
624.6009946156324,1822
626.8998056710224,1807
629.1979877481361,1754
631.4955410640538,1798
633.7924658359349,1743
636.0887622810175,1828
638.3844306166192,1752
640.6794710601358,1869
642.9738838290426,1881
645.2676691408932,1804
647.5608272133207,1815
649.853358264037,1878
652.1452625108324,1805
654.4365401715764,1811
656.7271914642178,1772
659.0172166067838,1783
661.3066158173809,1815
663.5953893141935,1814
665.8835373154867,1770
668.1710600396028,1836
670.4579577049639,1778
672.7442305300709,1836
675.0298787335033,1863
677.3149025339197,1889
679.599302150058,1854
681.8830778007342,1888
684.1662297048437,1867
686.4487580813608,1863
688.7306631493387,1864
691.0119451279091,1857
693.2926042362834,1878
695.5726406937516,1887
697.8520547196814,1856
700.1308465335215,1850
702.4090163547982,1849
704.6865644031171,1855
706.9634908981619,1811
709.2397960596965,1860
711.5154801075631,1832
713.7905432616823,1812
716.0649857420548,1843
718.3388077687592,1812
720.612009561953,1789
722.8845913418733,1833
725.1565533288352,1830
727.427895743234,1858
729.6986188055427,1813
731.9687227363137,1872
734.238207756178,1831
736.5070740858458,1818
738.7753219461066,1814
741.0429515578281,1832
743.3099631419569,1870
745.5763569195191,1904
747.8421331116193,1876
750.1072919394409,1787
752.3718336242467,1843
754.6357583873777,1909
756.8990664502545,1861
759.1617580343765,1826
761.423833361321,1833
763.6852926527457,1846
765.9461361303862,1825
768.206364016058,1858
770.4659765316536,1925
772.7249738991469,1908
774.9833563405886,1876
777.2411240781092,1920
779.4982773339183,1858
781.7548163303044,1959
784.010741289634,1918
786.2660524343538,1943
788.5207499869881,1981
790.7748341701416,1847
793.0283052064964,1944
795.2811633188143,1862
797.5334087299362,1909
799.7850416627813,1955
802.0360623403484,1967
804.2864709857143,1945
806.5362678220353,1871
808.7854530725468,1851
811.0340269605625,1888
813.2819897094754,1795
815.5293415427581,1900
817.77608268396,1946
820.0222133567116,1926
822.2677337847211,1834
824.5126441917765,1796
826.7569448017433,1878
829.0006358385675,1799
831.2437175262731,1832
833.4861900889629,1841
835.7280537508192,1865
837.9693087361026,1900
840.2099552691533,1851
842.4499935743896,1874
844.689423876309,1815
846.9282463994886,1838
849.1664613685833,1839
851.4040690083276,1868
853.6410695435349,1919
855.877463199097,1853
858.1132501999847,1910
860.3484307712487,1848
862.5830051380175,1832
864.8169735254988,1917
867.0503361589791,1828
869.2830932638243,1907
871.5152450654786,1933
873.7467917894654,1925
875.9777336613873,1932
878.2080709069252,1932
880.4378037518389,1901
882.666932421968,1986
884.8954571432301,1885
887.1233781416219,1970
889.3506956432192,1959
891.5774098741766,1910
893.803521060728,1942
896.0290294291852,1966
898.2539352059397,1920
900.4782386174619,1904
902.7019398903011,1958
904.925039251085,1972
907.147536926521,2038
909.3694331433943,1959
911.59072812857,1942
913.8114221089921,1968
916.0315153116827,1879
918.2510079637437,1875
920.4699002923547,1846
922.6881925247761,1907
924.905884888345,1900
927.1229776104793,1959
929.3394709186747,1917
931.555365040506,1852
933.7706602036275,1894
935.9853566357709,1874
938.1994545647489,1901
940.4129542184515,1923
942.6258558248488,1868
944.8381596119883,1948
947.0498658079974,1987
949.2609746410825,1937
951.4714863395287,1887
953.6814011316998,1956
955.8907192460387,1794
958.0994409110671,1904
960.3075663553858,1866
962.5150958076741,1873
964.7220294966913,1857
966.928367651274,1883
969.1341105003388,1828
971.3392582728806,1841
973.5438111979742,1797
975.747769504772,1813
977.9511334225061,1835
980.153903180487,1778
982.3560790081052,1834
984.5576611348289,1796
986.7586497902058,1839
988.9590452038618,1701
991.158847605503,1732
993.3580572249133,1691
995.5566742919558,1645
997.7546990365728,1683
999.952131688785,1649
1002.1489724786926,1628
1004.3452216364743,1607
1006.5408793923874,1538
1008.7359459767691,1575
1010.9304216200343,1615
1013.1243065526781,1571
1015.3176010052733,1493
1017.510305208472,1514
1019.7024193930064,1497
1021.8939437896848,1494
1024.0848786293977,1463
1026.2752241431122,1606
1028.4649805618747,1490
1030.6541481168115,1539
1032.842727039127,1482
1035.0307175601051,1490
1037.2181199111074,1490
1039.4049343235752,1475
1041.591161029029,1518
1043.7768002590683,1448
1045.9618522453698,1496
1048.1463172196918,1465
1050.3301954138697,1412
1052.513487059818,1458
1054.69619238953,1435
1056.8783116350783,1450
1059.0598450286152,1436
1061.2407928023704,1428
1063.4211551886528,1417
1065.6009324198508,1429
1067.780124728432,1464
1069.9587323469414,1486
1072.1367555080046,1494
1074.314194444325,1434
1076.4910493886855,1407
1078.667320573947,1472
1080.843008233051,1454
1083.0181125990161,1405
1085.1926339049414,1385
1087.3665723840027,1410
1089.5399282694575,1385
1091.7127017946405,1356
1093.8848931929647,1312
1096.0565026979243,1375
1098.2275305430899,1338
1100.3979769621128,1407
1102.567842188722,1362
1104.737126456726,1412
1106.9058300000124,1315
1109.0739530525475,1385
1111.2414958483764,1419
1113.4084586216231,1409
1115.5748416064907,1359
1117.7406450372605,1391
1119.9058691482942,1324
1122.0705141740304,1349
1124.2345803489884,1352
1126.3980679077658,1321
1128.5609770850388,1386
1130.7233081155623,1288
1132.8850612341707,1361
1135.0462366757774,1302
1137.2068346753745,1318
1139.3668554680326,1349
1141.526299288901,1373
1143.68516637321,1365
1145.8434569562655,1389
1148.001171273455,1303
1150.158309560244,1309
1152.3148720521767,1337
1154.470858984876,1314
1156.626270594044,1403
1158.7811071154629,1314
1160.9353687849912,1298
1163.089055838569,1352
1165.242168512213,1373
1167.3947070420209,1411
1169.5466716641677,1363
1171.6980626149075,1348
1173.8488801305748,1349
1175.9991244475814,1279
1178.1487958024186,1350
1180.2978944316555,1294
1182.4464205719428,1403
1184.5943744600072,1322
1186.7417563326567,1302
1188.8885664267755,1284
1191.0348049793297,1325
1193.1804722273619,1328
1195.325568407995,1339
1197.4700937584303,1253
1199.614048515948,1259
1201.7574329179074,1303
1203.900247201746,1307
1206.042491604982,1329
1208.1841663652099,1322
1210.3252717201053,1320
1212.465807907422,1236
1214.6057751649923,1283
1216.7451737307279,1296
1218.8840038426192,1291
1221.0222657387353,1347
1223.1599596572241,1386
1225.2970858363137,1320
1227.4336445143094,1295
1229.5696359295966,1277
1231.705060320639,1295
1233.8399179259786,1378
1235.9742089842384,1351
1238.107933734118,1346
1240.2410924143974,1365
1242.373685263935,1356
1244.5057125216676,1379
1246.6371744266116,1422
1248.7680712178621,1384
1250.898403134593,1295
1253.028170416058,1321
1255.1573733015875,1347
1257.2860120305932,1406
1259.4140868425648,1353
1261.54159797707,1373
1263.6685456737569,1334
1265.7949301723515,1327
1267.9207517126597,1297
1270.046010534565,1373
1272.1707068780306,1373
1274.2948409830983,1330
1276.4184130898889,1374
1278.541423438603,1388
1280.6638722695184,1350
1282.785759822993,1476
1284.9070863394636,1394
1287.0278520594447,1453
1289.1480572235314,1402
1291.2677020723963,1428
1293.3867868467923,1341
1295.5053117875495,1409
1297.623277135579,1409
1299.740683131868,1343
1301.8575300174857,1442
1303.973818033578,1453
1306.0895474213703,1450
1308.2047184221678,1423
1310.3193312773528,1431
1312.4333862283888,1397
1314.5468835168163,1414
1316.659823384255,1412
1318.7722060724045,1453
1320.8840318230418,1429
1322.9953008780249,1394
1325.1060134792888,1452
1327.2161698688478,1401
1329.3257702887959,1473
1331.4348149813054,1433
1333.5433041886276,1434
1335.6512381530933,1327
1337.7586171171101,1467
1339.8654413231675,1402
1341.9717110138317,1382
1344.0774264317488,1394
1346.1825878196432,1366
1348.2871954203192,1447
1350.3912494766587,1440
1352.4947502316231,1417
1354.5976979282532,1417
1356.7000928096686,1436
1358.8019351190665,1423
1360.9032250997243,1434
1363.0039629949988,1392
1365.1041490483235,1445
1367.2037835032133,1404
1369.3028666032606,1402
1371.401398592137,1439
1373.4993797135926,1389
1375.5968102114575,1374
1377.6936903296396,1374
1379.7900203121262,1430
1381.8858004029835,1403
1383.9810308463561,1453
1386.075711886469,1408
1388.1698437676241,1447
1390.2634267342032,1424
1392.356461030667,1402
1394.4489469015557,1439
1396.5408845914872,1428
1398.6322743451592,1440
1400.7231164073469,1388
1402.813411022907,1515
1404.903158436773,1351
1406.9923588939578,1410
1409.0810126395531,1440
1411.1691199187303,1463
1413.2566809767386,1425
1415.343696058907,1461
1417.4301654106425,1441
1419.5160892774315,1464
1421.6014679048399,1464
1423.6863015385125,1426
1425.7705904241707,1442
1427.8543348076178,1402
1429.9375349347342,1481
1432.0201910514802,1438
1434.102303403894,1471
1436.1838722380944,1515
1438.2648978002767,1474
1440.3453803367174,1472
1442.4253200937692,1546
1444.5047173178677,1499
1446.5835722555234,1540
1448.6618851533285,1563
1450.739656257952,1568
1452.8168858161434,1565
1454.8935740747306,1534
1456.96972128062,1562
1459.045327680797,1518
1461.120393522327,1552
1463.1949190523528,1594
1465.2689045180973,1595
1467.3423501668608,1623
1469.415256246024,1610
1471.4876230030463,1617
1473.559450685465,1637
1475.6307395408976,1606
1477.7014898170391,1594
1479.771701761665,1620
1481.8413756226287,1711
1483.9105116478618,1729
1485.9791100853772,1700
1488.0471711832643,1799
1490.1146951896926,1644
1492.1816823529098,1761
1494.2481329212433,1751
1496.3140471430984,1764
1498.3794252669609,1774
1500.4442675413939,1784
1502.5085742150404,1761
1504.572345536622,1845
1506.6355817549388,1885
1508.6982831188702,1783
1510.7604498773744,1775
1512.8220822794883,1884
1514.8831805743293,1766
1516.9437450110909,1847
1519.003775839048,1800
1521.0632733075522,1778
1523.1222376660367,1844
1525.1806691640113,1883
1527.2385680510652,1859
1529.2959345768668,1871
1531.3527689911643,1911
1533.4090715437833,1875
1535.4648424846291,1839
1537.5200820636855,1944
1539.5747905310159,1890
1541.6289681367616,1927
1543.6826151311434,1947
1545.7357317644614,1986
1547.7883182870937,1948
1549.8403749494987,2014
1551.8919020022113,2044
1553.9428996958477,2074
1555.9933682811015,2037
1558.0433080087469,2030
1560.0927191296346,2118
1562.1416018946961,2125
1564.1899565549415,2131
1566.2377833614592,2177
1568.2850825654164,2214
1570.3318544180606,2188
1572.3780991707158,2186
1574.423817074788,2007
1576.4690083817595,2091
1578.5136733431923,2090
1580.5578122107272,2095
1582.601425236085,2003
1584.6445126710646,1933
1586.6870747675434,1853
1588.7291117774776,1800
1590.7706239529034,1794
1592.8116115459347,1724
1594.8520748087658,1686
1596.8920139936686,1627
1598.9314293529933,1626
1600.9703211391711,1586
1603.008689604711,1560
1605.0465350022005,1560
1607.0838575843068,1547
1609.1206576037753,1513
1611.1569353134305,1528
1613.1926909661765,1488
1615.2279248149953,1523
1617.2626371129481,1406
1619.2968281131757,1447
1621.3304980688963,1380
1623.3636472334088,1374
1625.39627586009,1375
1627.428384202396,1452
1629.459972513861,1439
1631.4910410480993,1420
1633.5215900588028,1369
1635.551619799744,1432
1637.5811305247717,1382
1639.6101224878166,1365
1641.6385959428862,1403
1643.6665511440683,1384
1645.693988345528,1385
1647.7209078015112,1379
1649.7473097663405,1348
1651.7731944944203,1368
1653.7985622402307,1348
1655.823413258333,1334
1657.847747803366,1351
1659.8715661300494,1337
1661.8948684931793,1333
1663.9176551476316,1349
1665.9399263483624,1302
1667.9616823504057,1362
1669.982923408873,1285
1672.0036497789574,1295
1674.0238617159293,1309
1676.043559475138,1315
1678.0627433120121,1377
1680.081413482059,1310
1682.0995702408654,1340
1684.117213844096,1304
1686.134344547495,1343
1688.1509626068864,1281
1690.1670682781705,1343
1692.182661817329,1301
1694.1977434804217,1295
1696.2123135235875,1333
1698.226372203043,1263
1700.2399197750851,1324
1702.2529564960905,1332
1704.2654826225112,1355
1706.277498410882,1370
1708.2890041178139,1416
1710.2999999999988,1379
1712.3104863142066,1364
1714.3204633172854,1336
1716.329931266163,1287
1718.3388904178469,1304
1720.3473410294214,1319
1722.3552833580516,1328
1724.3627176609807,1318
1726.3696441955308,1346
1728.3760632191033,1322
1730.3819749891782,1297
1732.3873797633146,1310
1734.3922777991502,1303
1736.3966693544012,1343
1738.4005546868639,1335
1740.4039340544127,1280
1742.406807715001,1274
1744.4091759266616,1345
1746.4110389475054,1269
1748.4123970357223,1337
1750.413250449582,1255
1752.4135994474318,1260
1754.4134442876993,1298
1756.4127852288902,1248
1758.4116225295893,1295
1760.4099564484595,1270
1762.407787244244,1296
1764.405115175764,1257
1766.4019405019203,1334
1768.3982634816916,1282
1770.3940843741357,1314
1772.3894034383907,1278
1774.3842209336717,1261
1776.378537119274,1228
1778.372352254571,1290
1780.3656665990156,1245
1782.3584804121397,1269
1784.3507939535534,1284
1786.3426074829463,1317
1788.3339212600863,1311
1790.3247355448211,1268
1792.3150505970766,1282
1794.3048666768573,1277
1796.2941840442477,1291
1798.2830029594106,1247
1800.2713236825884,1262
1802.2591464741004,1278
1804.2464715943465,1296
1806.2332993038058,1321
1808.2196298630352,1279
1810.2054635326708,1223
1812.190800573428,1278
1814.175641246101,1292
1816.1599858115628,1275
1818.1438345307652,1321
1820.127187664738,1313
1822.1100454745924,1328
1824.092408221516,1233
1826.0742761667766,1287
1828.055649571721,1281
1830.0365286977735,1287
1832.0169138064398,1319
1833.9968051593014,1291
1835.9762030180214,1297
1837.9551076443408,1242
1839.9335193000788,1268
1841.9114382471344,1258
1843.888864747485,1302
1845.8657990631878,1278
1847.842241456378,1284
1849.8181921892697,1211
1851.7936515241558,1260
1853.7686197234098,1259
1855.7430970494815,1233
1857.7170837649014,1267
1859.6905801322787,1256
1861.6635864143004,1276
1863.6361028737338,1270
1865.608129773424,1335
1867.5796673762961,1304
1869.5507159453537,1329
1871.521275743678,1314
1873.4913470344313,1306
1875.4609300808534,1282
1877.4300251462632,1285
1879.3986324940588,1274
1881.366752387717,1274
1883.3343850907936,1301
1885.3015308669228,1289
1887.268189979819,1299
1889.2343626932739,1314
1891.2000492711595,1262
1893.1652499774254,1293
1895.1299650761011,1310
1897.0941948312952,1315
1899.0579395071945,1280
1901.0211993680641,1280
1902.98397467825,1353
1904.9462657021745,1295
1906.9080727043415,1289
1908.869395949332,1315
1910.8302357018065,1264
1912.790592226504,1333
1914.7504657882428,1331
1916.7098566519212,1273
1918.6687650825133,1258
1920.6271913450764,1323
1922.5851357047422,1288
1924.5425984267245,1326
1926.499579776314,1321
1928.4560800188833,1304
1930.4120994198802,1259
1932.367638244833,1304
1934.32269675935,1335
1936.2772752291175,1337
1938.231373919899,1245
1940.1849930975404,1245
1942.1381330279637,1348
1944.0907939771696,1295
1946.0429762112412,1254
1947.9946799963363,1220
1949.9459055986945,1258
1951.896653284633,1334
1953.8469233205478,1247
1955.7967159729142,1258
1957.7460315082863,1301
1959.6948701932974,1283
1961.6432322946594,1283
1963.5911180791632,1258
1965.5385278136787,1277
1967.4854617651545,1256
1969.4319202006182,1231
1971.377903387176,1268
1973.3234115920136,1304
1975.268445082395,1292
1977.2130041256642,1290
1979.1570889892423,1292
1981.1006999406304,1274
1983.04383724741,1257
1984.986501177238,1265
1986.928691997853,1310
1988.8704099770712,1293
1990.811655382789,1220
1992.7524284829801,1296
1994.692729545698,1235
1996.6325588390755,1274
1998.5719166313224,1234
2000.5108031907307,1271
2002.4492187856677,1247
2004.387163684583,1295
2006.3246381560011,1298
2008.2616424685298,1304
2010.1981768908527,1253
2012.1342416917332,1303
2014.069837140014,1283
2016.0049635046162,1248
2017.9396210545406,1266
2019.8738100588666,1254
2021.8075307867502,1334
2023.740783507431,1284
2025.6735684902228,1254
2027.6058860045214,1260
2029.5377363198004,1281
2031.4691197056118,1309
2033.4000364315875,1272
2035.3304867674374,1273
2037.260470982952,1213
2039.189989347998,1266
2041.1190421325232,1255
2043.047629606554,1245
2044.9757520401945,1325
2046.9034097036288,1270
2048.8306028671195,1242
2050.7573318010086,1263
2052.683596775716,1238
2054.609398061742,1284
2056.5347359296647,1251
2058.4596106501403,1312
2060.384022493906,1314
2062.3079717317764,1329
2064.231458634646,1273
2066.1544834734873,1234
2068.077046519352,1253
2069.99914804337,1309
2071.9207883167524,1215
2073.8419676107865,1290
2075.7626861968406,1255
2077.6829443463607,1267
2079.6027423308715,1256
2081.522080421977,1260
2083.440958891362,1298
2085.359378010786,1308
2087.2773380520907,1226
2089.194839287196,1277
2091.111881988101,1279
2093.0284664268825,1270
2094.9445928756973,1309
2096.86026160678,1235
2098.775472892446,1231
2100.690227005088,1272
2102.604524217178,1249
2104.5183648012676,1295
2106.431749029985,1265
2108.34467717604,1331
2110.2571495122206,1299
2112.169166311393,1281
2114.080727846503,1268
2115.9918343905747,1281
2117.902486216711,1232
2119.8126835980956,1254
2121.722426807987,1287
2123.6317161197285,1287
2125.5405518067364,1259
2127.448934142509,1279
2129.356863400624,1295
2131.264339854737,1255
2133.1713637785815,1258
2135.077935445972,1327
2136.9840551308002,1307
2138.889723107037,1265
2140.7949396487334,1303
2142.699705030018,1297
2144.6040195250994,1277
2146.507883408264,1274
2148.4112969538774,1279
2150.3142604363848,1268
2152.2167741303097,1337
2154.1188383102535,1302
2156.0204532508997,1285
2157.9216192270064,1286
2159.822336513414,1277
2161.7226053850413,1263
2163.622426116884,1308
2165.5217989840185,1257
2167.4207242616,1265
2169.319202224862,1279
2171.2172331491165,1249
2173.1148173097563,1288
2175.0119549822507,1322
2176.90864644215,1300
2178.8048919650823,1295
2180.7006918267534,1316
2182.596046302952,1240
2184.4909556695407,1239
2186.3854202024645,1262
2188.279440177746,1306
2190.173015871487,1320
2192.066147559868,1231
2193.958835519149,1267
2195.851080025667,1345
2197.7428813558417,1248
2199.6342397861667,1291
2201.5251555932186,1268
2203.415629053651,1317
2205.3056604441986,1217
2207.19525004167,1318
2209.084398122958,1272
2210.9731049650327,1288
2212.861370844941,1292
2214.749196039812,1263
2216.636580826851,1247
2218.523525483344,1336
2220.410030286655,1236
2222.296095514226,1199
2224.1817214435805,1223
2226.066908352319,1270
2227.951656518121,1279
2229.835966218746,1301
2231.71983773203,1285
2233.6032713358913,1231
2235.486267308324,1364
2237.3688259274036,1193
2239.2509474712824,1265
2241.132632218193,1284
2243.013880446447,1255
2244.8946924344323,1317
2246.7750684606203,1304
2248.6550088035574,1266
2250.534513741871,1272
2252.413583554265,1318
2254.292218519526,1300
2256.170418916517,1224
2258.0481850241786,1262
2259.925517121534,1299
2261.8024154876825,1264
2263.678880401803,1290
2265.5549121431536,1341
2267.430510991071,1282
2269.305677224971,1275
2271.180411124348,1255
2273.0547129687766,1270
2274.9285830379076,1286
2276.8020216114737,1253
2278.6750289692845,1306
2280.5476053912294,1286
2282.4197511572766,1268
2284.2914665474727,1265
2286.162751841943,1287
2288.0336073208937,1326
2289.904033264608,1265
2291.774029953448,1281
2293.6435976678554,1275
2295.5127366883517,1259
2297.381447295534,1272
2299.2497297700825,1256
2301.1175843927526,1234
2302.9850114443825,1265
2304.852011205885,1281
2306.7185839582553,1333
2308.5847299825664,1306
2310.4504495599676,1335
2312.3157429716925,1329
2314.1806104990483,1305
2316.0450524234247,1292
2317.9090690262888,1294
2319.772660589186,1226
2321.635827393742,1248
2323.498569721661,1254
2325.3608878547248,1299
2327.2227820747967,1301
2329.0842526638157,1260
2330.945299903803,1327
2332.805924076857,1277
2334.6661254651535,1283
2336.525904350951,1306
2338.3852610165827,1259
2340.244195744464,1292
2342.102708817088,1292
2343.9608005170253,1282
2345.8184711269287,1284
2347.675720929526,1258
2349.532550207628,1279
2351.38895924412,1337
2353.24494832197,1259
2355.100517724223,1292
2356.955667734004,1320
2358.810398634514,1279
2360.664710709037,1346
2362.5186042409337,1289
2364.3720795136437,1278
2366.225136810686,1301
2368.0777764156583,1244
2369.929998612237,1319
2371.7818036841777,1299
2373.633191915315,1299
2375.484163589562,1247
2377.3347189909114,1260
2379.184858403434,1284
2381.03458211128,1318
2382.8838903986775,1289
2384.732783549936,1342
2386.5812618494406,1237
2388.4293255816588,1311
2390.2769750311327,1321
2392.1242104824883,1253
2393.971032220427,1310
2395.8174405297295,1313
2397.6634356952563,1397
2399.509018001947,1290
2401.3541877348193,1342
2403.1989451789705,1285
2405.043290619576,1310
2406.8872243418905,1337
2408.730746631247,1254
2410.5738577730594,1294
2412.4165580528183,1295
2414.258847756095,1365
2416.100727168537,1328
2417.9421965758734,1348
2419.783256263912,1340
2421.623906518538,1302
2423.4641476257157,1370
2425.303979871491,1357
2427.143403541984,1323
2428.9824189233977,1359
2430.821026302012,1348
2432.6592259641866,1337
2434.497018196361,1359
2436.33440328505,1384
2438.171381516851,1345
2440.00795317844,1305
2441.844118556569,1291
2443.6798779380724,1315
2445.5152316098606,1326
2447.3501798589255,1357
2449.1847229723357,1335
2451.0188612372403,1365
2452.8525949408663,1287
2454.6859243705203,1354
2456.518849813587,1268
2458.3513715575314,1270
2460.183489889895,1269
2462.015205098301,1279
2463.8465174704493,1363
2465.67742729412,1313
2467.5079348571717,1352
2469.338040447542,1297
2471.1677443532476,1278
2472.9970468623833,1281
2474.825948263123,1310
2476.6544488437207,1302
2478.482548892508,1234
2480.310248697896,1401
2482.137548548374,1310
2483.9644487325118,1375
2485.790949538956,1365
2487.617051256433,1295
2489.44275417375,1279
2491.26805857979,1338
2493.0929647635157,1310
2494.917473013971,1356
2496.741583620276,1342
2498.5652968716304,1299
2500.3886130573137,1324
2502.2115324666834,1370
2504.0340553891765,1378
2505.856182114308,1344
2507.6779129316733,1314
2509.499248130945,1342
2511.3201880018764,1343
2513.140732834298,1266
2514.9608829181198,1334
2516.780638543331,1320
2518.6,1353
2520.418967578273,1378
2522.237541568376,1324
2524.0557222606144,1376
2525.8735099453706,1362
2527.6909049131086,1344
2529.507907454368,1378
2531.32451785977,1314
2533.140736420014,1365
2534.9565634258774,1350
2536.771999168218,1378
2538.5870439379714,1379
2540.4016980261526,1407
2542.2159617238544,1419
2544.02983532225,1320
2545.8433191125914,1383
2547.656413386209,1408
2549.4691184345115,1435
2551.2814345489874,1444
2553.093362021204,1468
2554.904901142808,1363
2556.716052205523,1376
2558.526815501153,1381
2560.3371913215824,1367
2562.147179958771,1425
2563.956781704761,1366
2565.7659968516705,1366
2567.5748256916986,1409
2569.3832685171224,1391
2571.1913256202984,1453
2572.9989972936614,1450
2574.806283829725,1426
2576.613185521084,1466
2578.4197026604074,1425
2580.2258355404483,1466
2582.031584454035,1455
2583.836949694077,1492
2585.6419315535613,1445
2587.4465303255533,1452
2589.2507463032002,1467
2591.0545797797245,1458
2592.8580310484303,1517
2594.6611004026995,1457
2596.463788135992,1437
2598.266094541849,1451
2600.0680199138874,1487
2601.869564545807,1471
2603.670728731383,1420
2605.4715127644704,1502
2607.2719169390048,1478
2609.071941548998,1442
2610.8715868885433,1437
2612.670853251811,1462
2614.469740933052,1506
2616.268250226594,1456
2618.0663814268455,1440
2619.864134828292,1416
2621.6615107255006,1471
2623.458509413115,1461
2625.2551311858597,1462
2627.0513763385347,1409
2628.8472451660223,1385
2630.6427379632833,1442
2632.4378550253564,1436
2634.232596647359,1363
2636.026963124488,1382
2637.8209547520187,1440
2639.6145718253065,1406
2641.407814639785,1419
2643.200683490966,1434
2644.9931786744414,1401
2646.7853004858807,1393
2648.577049221034,1384
2650.3684251757277,1368
2652.1594286458712,1309
2653.9500599274484,1422
2655.740319316525,1304
2657.5302071092437,1354
2659.3197236018286,1372
2661.10886909058,1316
2662.8976438718782,1372
2664.686048242183,1364
2666.4740824980327,1361
2668.2617469360443,1301
2670.0490418529134,1317
2671.8359675454153,1361
2673.622524310403,1371
2675.408712444811,1359
2677.1945322456495,1310
2678.979984010009,1343
2680.76506803506,1354
2682.5497846180497,1285
2684.334134056306,1342
2686.1181166472343,1333
2687.9017326883213,1301
2689.6849824771293,1316
2691.4678663113013,1313
2693.2503844885596,1316
2695.032537306705,1321
2696.8143250636167,1298
2698.5957480572542,1312
2700.3768065856534,1299
2702.1575009469316,1323
2703.937831439283,1316
2705.717798360982,1316
2707.4974020103837,1299
2709.276642685917,1315
2711.055520686095,1239
2712.834036309506,1341
2714.612189854819,1220
2716.389981620782,1294
2718.1674119062204,1287
2719.944481010041,1254
2721.721189231226,1275
2723.4975368688415,1253
2725.273524222027,1273
2727.0491515900053,1301
2728.824419272075,1248
2730.5993275676146,1269
2732.3738767760838,1319
2734.148067197016,1326
2735.921899130031,1244
2737.6953728748194,1218
2739.468488731156,1203
2741.2412469988926,1249
2743.0136479779617,1270
2744.785691968372,1282
2746.5573792702116,1273
2748.3287101836504,1265
2750.099685008934,1290
2751.870304046388,1274
2753.640567596418,1299
2755.4104759595057,1282
2757.1800294362156,1254
2758.949228327187,1251
2760.7180729331412,1269
2762.486563554877,1266
2764.254700493272,1254
2766.022484049284,1243
2767.789914523947,1240
2769.5569922183786,1284
2771.3237174337705,1268
2773.090090471394,1317
2774.8561116326036,1308
2776.6217812188274,1286
2778.3870995315756,1239
2780.1520668724356,1301
2781.9166835430747,1242
2783.6809498452394,1299
2785.444866080754,1299
2787.2084325515225,1272
2788.971649559527,1310
2790.73451740683,1294
2792.4970363955713,1316
2794.2592068279705,1320
2796.0210290063264,1292
2797.7825032330147,1252
2799.543629810493,1286
2801.304409041296,1296
2803.0648412280366,1266
2804.8249266734088,1292
2806.5846656801846,1285
2808.344058551212,1251
2810.1031055894246,1277
2811.8618070978273,1284
2813.6201633795085,1263
2815.378174737636,1248
2817.1358414754536,1259
2818.893163896285,1260
2820.6501423035334,1265
2822.4067770006814,1195
2824.1630682912883,1316
2825.9190164789957,1297
2827.6746218675207,1262
2829.429884760661,1279
2831.184805462294,1278
2832.9393842763743,1228
2834.693621506936,1258
2836.4475174580916,1295
2838.201072434034,1304
2839.954286739034,1319
2841.707160677441,1258
2843.459694553685,1273
2845.2118886722724,1261
2846.96374333779,1330
2848.7152588549034,1313
2850.4664355283567,1300
2852.217273662973,1276
2853.9677735636546,1250
2855.7179355353833,1279
2857.4677598832186,1255
2859.217246912299,1252
2860.9663969278427,1262
2862.715210235146,1264
2864.4636871395846,1214
2866.211827946614,1312
2867.9596329617652,1285
2869.7071024906536,1291
2871.4542368389684,1321
2873.20103631248,1289
2874.947501217038,1282
2876.6936318585695,1248
2878.4394285430812,1355
2880.1848915766604,1283
2881.9300212654707,1287
2883.6748179157553,1218
2885.4192818338374,1270
2887.1634133261173,1253
2888.907212699077,1223
2890.6506802592744,1291
2892.393816313348,1296
2894.1366211680142,1253
2895.8790951300693,1237
2897.621238506388,1277
2899.363051603925,1255
2901.1045347297118,1282
2902.8456881908596,1305
2904.58651229456,1287
2906.327007348081,1236
2908.067173658772,1246
2909.8070115340597,1254
2911.5465212814497,1215
2913.285703208527,1239
2915.0245576229563,1281
2916.7630848324807,1296
2918.5012851449196,1322
2920.2391588681758,1242
2921.976706310227,1240
2923.7139277791334,1280
2925.4508235830313,1245
2927.187394030137,1295
2928.923639428745,1275
2930.6595600872306,1200
2932.395156314046,1289
2934.1304284177218,1290
2935.8653767068713,1274
2937.6000014901815,1277
2939.3343030764227,1289
2941.068281774442,1331
2942.8019378931644,1236
2944.5352717415976,1239
2946.2682836288236,1274
2948.0009738640065,1291
2949.7333427563885,1303
2951.465390615289,1236
2953.1971177501086,1271
2954.9285244703265,1250
2956.6596110855,1224
2958.3903779052657,1224
2960.1208252393385,1232
2961.8509533975125,1217
2963.5807626896617,1306
2965.3102534257378,1250
2967.0394259157715,1280
2968.768280469873,1233
2970.496817398232,1244
2972.2250370111146,1304
2973.952939618869,1321
2975.6805255319196,1269
2977.4077950607707,1323
2979.134748516006,1244
2980.861386208289,1271
2982.587708448359,1310
2984.313715547037,1234
2986.039407815222,1276
2987.764785563891,1284
2989.489849104102,1270
2991.2145987469908,1303
2992.9390348037705,1229
2994.6631575857346,1273
2996.3869674042576,1246
2998.1104645707887,1288
2999.83364939686,1299
3001.5565221940783,1206
3003.2790832741334,1220
3005.0013329487924,1213
3006.7232715298996,1276
3008.4448993293804,1222
3010.166216659239,1204
3011.887223831558,1260
3013.607921158498,1238
3015.3283089522993,1215
3017.0483875252826,1259
3018.7681571898443,1274
3020.4876182584626,1303
3022.2067710436927,1262
3023.9256158581707,1239
3025.644153014609,1210
3027.362382825801,1261
3029.0803056046193,1208
3030.797921664012,1278
3032.5152313170106,1284
3034.2322348767225,1228
3035.9489326563353,1234
3037.665324969115,1267
3039.3814121284063,1226
3041.097194447633,1301
3042.812672240299,1302
3044.5278458199855,1233
3046.2427155003525,1265
3047.9572815951406,1247
3049.671544418167,1250
3051.38550428333,1204
3053.0991615046073,1261
3054.812516396051,1232
3056.5255692717974,1253
3058.2383204460575,1267
3059.9507702331257,1253
3061.662918947372,1254
3063.3747669032446,1248
3065.0863144152736,1234
3066.7975617980674,1210
3068.508509366309,1242
3070.219157434767,1296
3071.9295063182844,1216
3073.639556331785,1295
3075.3493077902704,1219
3077.058761008821,1275
3078.7679163025964,1241
3080.476773986837,1264
3082.1853343768594,1304
3083.89359778806,1250
3085.6015645359153,1257
3087.3092349359786,1234
3089.016609303884,1274
3090.7236879553434,1258
3092.4304712061476,1232
3094.136959372166,1296
3095.843152769349,1282
3097.5490517137237,1219
3099.2546565213966,1240
3100.959967508554,1212
3102.66498499146,1276
3104.3697092864577,1249
3106.0741407099695,1233
3107.778279578498,1232
3109.482126208622,1264
3111.1856809170004,1262
3112.8889440203716,1247
3114.5919158355528,1233
3116.294596679439,1255
3117.996986869006,1279
3119.6990867213062,1237
3121.4008965534726,1260
3123.102416682717,1270
3124.803647426329,1271
3126.5045891016784,1279
3128.205242026213,1281
3129.90560651746,1232
3131.605682893025,1282
3133.3054714705922,1285
3135.0049725679282,1287
3136.7041865028714,1217
3138.4031135933465,1214
3140.101754157353,1171
3141.800108512971,1279
3143.498176978357,1327
3145.1959598717494,1290
3146.8934575114636,1294
3148.5906702158954,1225
3150.2875983035183,1252
3151.9842420928853,1242
3153.680601902627,1222
3155.376678051456,1254
3157.07247085816,1254
3158.767980641609,1215
3160.463207720748,1228
3162.158152414606,1247
3163.8528150422862,1306
3165.5471959229726,1278
3167.2412953759303,1246
3168.9351137204976,1212
3170.628651276098,1290
3172.3219083622307,1243
3174.014885298474,1284
3175.707582404485,1314
3177.4000000000005,1271
3179.092138404835,1310
3180.7839979388846,1267
3182.47557892212,1276
3184.166881674594,1247
3185.8579065164386,1241
3187.5486537678626,1253
3189.2391237491547,1263
3190.9293167806827,1264
3192.6192331828934,1256
3194.3088732763117,1260
3195.998237381542,1209
3197.687325819268,1286
3199.376138910251,1270
3201.064676975334,1254
3202.7529403354347,1282
3204.4409293115523,1231
3206.1286442247647,1219
3207.816085396229,1213
3209.5032531471825,1231
3211.190147798936,1282
3212.8767696728846,1219
3214.5631190905015,1205
3216.2491963733373,1193
3217.9350018430214,1201
3219.6205358212637,1190
3221.305798629851,1244
3222.990790590651,1255
3224.6755120256103,1201
3226.359963256751,1211
3228.0441446061795,1261
3229.7280563960758,1175
3231.411698948703,1229
3233.0950725863995,1274
3234.778177631587,1229
3236.461014406761,1254
3238.1435832345005,1275
3239.8258844374595,1292
3241.507918338374,1210
3243.1896852600576,1200
3244.8711855254023,1226
3246.552419457381,1258
3248.233387379042,1227
3249.914089613516,1217
3251.59452648401,1273
3253.274698313813,1244
3254.95460542629,1255
3256.6342481448855,1202
3258.313626793125,1237
3259.9927416946084,1204
3261.6715931730196,1229
3263.3501815521176,1215
3265.0285071557437,1160
3266.706570307815,1244
3268.3843713323286,1162
3270.0619105533615,1218
3271.739188295068,1240
3273.4162048816834,1313
3275.0929606375184,1232
3276.769455886966,1202
3278.445690954498,1278
3280.1216661646613,1228
3281.797381842087,1231
3283.4728383114807,1236
3285.1480358976296,1162
3286.8229749253996,1174
3288.4976557197333,1218
3290.172078605655,1310
3291.846243908266,1239
3293.5201519527463,1226
3295.193803064357,1251
3296.8671975684374,1228
3298.5403357904024,1227
3300.21321805575,1221
3301.8858446900567,1222
3303.558216018975,1225
3305.23033236824,1251
3306.9021940636603,1237
3308.57380143113,1184
3310.2451547966184,1195
3311.916254486174,1181
3313.5871008259246,1252
3315.2576941420766,1242
3316.9280347609147,1229
3318.5981230088046,1203
3320.2679592121895,1184
3321.9375436975924,1196
3323.606876791612,1219
3325.27595882093,1192
3326.944790112305,1238
3328.6133709925753,1208
3330.2817017886573,1217
3331.949782827547,1227
3333.617614436319,1242
3335.2851969421245,1164
3336.952530672199,1228
3338.619615953853,1247
3340.286453114475,1254
3341.9530424815357,1188
3343.619384382583,1227
3345.2854791452437,1245
3346.951327097224,1281
3348.6169285663073,1271
3350.2822838803577,1197
3351.947393367319,1205
3353.61225735521,1325
3355.2768761721345,1236
3356.9412501462693,1246
3358.605379605873,1207
3360.2692648792827,1236
3361.9329062949146,1186
3363.596304181263,1257
