CollectionTime,6/26/2024 3:36:56 PM
ExposureUsed,3
CalibratedSpectrum
-962.7078968117929,637
-959.9714848408522,707
-957.2358232597828,682
-954.5009119013725,668
-951.7667505983302,740
-949.0333391832855,711
-946.3006774887896,701
-943.5687653473143,746
-940.837602591253,695
-938.1071890529199,707
-935.3775245645503,740
-932.6486089583007,713
-929.9204420662485,724
-927.1930237203925,733
-924.4663537526524,711
-921.7404319948689,696
-919.0152582788041,725
-916.2908324361409,751
-913.5671542984834,731
-910.8442236973568,732
-908.1220404642074,752
-905.4006044304027,729
-902.679915427231,699
-899.959973285902,717
-897.2407778375464,733
-894.5223289132158,762
-891.8046263438832,722
-889.0876699604426,685
-886.3714595937089,681
-883.6559950744183,709
-880.9412762332282,688
-878.2273029007168,698
-875.5140749073835,684
-872.8015920836489,706
-870.0898542598545,687
-867.3788612662631,691
-864.6686129330585,669
-861.9591090903457,638
-859.2503495681506,649
-856.5423341964203,640
-853.8350628050229,701
-851.1285352237478,682
-848.4227512823054,681
-845.7177108103272,684
-843.0134136373656,689
-840.3098595928943,675
-837.6070485063082,683
-834.9049802069229,736
-832.2036545239757,674
-829.5030712866244,717
-826.8032303239481,737
-824.1041314649472,657
-821.4057745385428,703
-818.7081593735775,692
-816.0112857988148,697
-813.3151536429393,648
-810.6197627345566,671
-807.9251129021936,653
-805.2312039742981,671
-802.5380357792392,683
-799.8456081453069,658
-797.1539209007124,685
-794.462973873588,694
-791.772766891987,671
-789.083299783884,675
-786.3945723771743,699
-783.7065844996748,667
-781.0193359791231,671
-778.3328266431781,755
-775.6470563194197,757
-772.9620248353489,749
-770.2777320183878,717
-767.5941776958798,729
-764.9113616950891,726
-762.2292838432011,695
-759.5479439673222,685
-756.8673418944801,695
-754.1874774516235,660
-751.5083504656222,706
-748.8299607632671,710
-746.15230817127,683
-743.475392516264,641
-740.7992136248035,710
-738.1237713233636,716
-735.4490654383407,713
-732.7750957960521,726
-730.1018622227365,729
-727.4293645445534,734
-724.7576025875837,756
-722.0865761778291,730
-719.4162851412126,716
-716.7467293035781,708
-714.0779084906909,746
-711.409822528237,770
-708.7424712418238,734
-706.0758544569796,738
-703.4099719991541,756
-700.7448236937178,808
-698.0804093659622,750
-695.4167288411002,767
-692.7537819442656,753
-690.0915685005134,729
-687.4300883348199,766
-684.7693412720819,779
-682.1093271371178,790
-679.4500457546669,794
-676.7914969493897,797
-674.1336805458676,791
-671.4765963686034,748
-668.8202442420206,770
-666.1646239904642,755
-663.5097354382001,807
-660.8555784094151,818
-658.2021527282176,792
-655.5494582186366,829
-652.8974947046223,820
-650.2462620100463,809
-647.5957599587009,838
-644.9459883742998,799
-642.2969470804776,873
-639.6486359007902,852
-637.0010546587141,855
-634.3542031776476,823
-631.7080812809096,753
-629.0626887917401,792
-626.4180255333008,837
-623.7740913286734,788
-621.1308860008619,811
-618.4884093727904,803
-615.8466612673046,793
-613.2056415071715,803
-610.5653499150785,783
-607.9257863136347,802
-605.28695052537,808
-602.6488423727357,849
-600.0114616781036,803
-597.3748082637674,842
-594.7388819519412,859
-592.1036825647604,862
-589.4692099242818,810
-586.8354638524829,838
-584.2024441712624,854
-581.5701507024403,842
-578.9385832677575,818
-576.3077416888759,830
-573.6776257873787,822
-571.0482353847704,818
-568.4195703024757,833
-565.7916303618415,894
-563.164415384135,897
-560.5379251905453,871
-557.9121596021815,826
-555.2871184400748,854
-552.6628015251767,863
-550.0392086783606,880
-547.4163397204204,838
-544.794194472071,818
-542.1727727539491,858
-539.5520743866118,854
-536.9320991905377,844
-534.3128469861261,956
-531.6943175936979,930
-529.0765108334947,957
-526.4594265256793,1014
-523.8430644903358,1072
-521.2274245474689,1205
-518.612506517005,1347
-515.9983102187913,1491
-513.3848354725959,1550
-510.77208209810846,1725
-508.16004991493924,1701
-505.5487387426199,1875
-502.9381484006032,2055
-500.3282787082628,2123
-497.71912948489364,2158
-495.1107005497117,2111
-492.5029917218539,2042
-489.8960028203786,1821
-487.28973366426493,1583
-484.68418407241325,1415
-482.07935386364494,1301
-479.47524285670266,1242
-476.87185087025,1184
-474.2691777228715,1180
-471.66722323307334,1147
-469.0659872192821,1104
-466.4654694998459,1075
-463.86566989303384,1053
-461.26658821703614,1089
-458.66822428996414,1051
-456.07057792985,1132
-453.4736489546475,1102
-450.877437182231,1066
-448.28194243039627,1024
-445.68716451686,1003
-443.09310325926003,1024
-440.49975847515555,1009
-437.9071299820263,973
-435.31521759727354,1021
-432.72402113821954,1006
-430.13354042210767,1056
-427.5437752661022,1117
-424.95472548728867,1125
-422.36639090267386,1077
-419.7787713291855,1109
-417.1918665836721,1123
-414.60567648290385,1109
-412.0202008435715,1058
-409.4354394822874,1133
-406.8513922155845,1082
-404.26805885991723,1135
-401.685439231661,1122
-399.103533147112,1079
-396.522340422488,1105
-393.9418608739278,1167
-391.3620943174908,1082
-388.7830405691583,1128
-386.2046994448317,1118
-383.6270707603344,1026
-381.05015433141045,948
-378.473949973725,932
-375.8984575028645,853
-373.32367673433623,799
-370.74960748356875,775
-368.1762495659117,705
-365.60360279663576,658
-363.03166699093265,624
-360.4604419639154,624
-357.8899275306178,610
-355.32012350599507,549
-352.7510297049233,519
-350.1826459421999,548
-347.61497203254316,577
-345.04800779059235,529
-342.4817530309082,507
-339.91620756797226,491
-337.35137121618743,472
-334.7872437898774,476
-332.22382510328725,513
-329.66111497058273,560
-327.09911320585127,547
-324.53781962310075,557
-321.9772340362607,544
-319.4173562591816,629
-316.8581861056348,643
-314.2997233893127,639
-311.7419679238294,672
-309.1849195227194,674
-306.62857799943856,583
-304.0729431673641,546
-301.51801483979375,550
-298.963792829947,553
-296.41027695096386,627
-293.85746701590574,651
-291.3053628377552,658
-288.7539642294155,620
-286.2032710037115,680
-283.65328297338897,680
-281.1039999511146,698
-278.5554217494762,734
-276.007548180983,666
-273.4603790580651,603
-270.9139141930734,570
-268.3681533982807,649
-265.8230964858798,648
-263.27874326798565,627
-260.7350935566336,630
-258.1921471637804,692
-255.6499039013039,750
-253.10836358100266,746
-250.56752601459698,708
-248.02739101372765,701
-245.48795838995704,733
-242.94922795476816,706
-240.41119951956557,700
-237.8738728956746,822
-235.33724789434166,908
-232.80132432673452,863
-230.2661020039418,1003
-227.73158073697357,946
-225.19776033676033,808
-222.66464061415422,853
-220.1322213799284,804
-217.60050244477725,834
-215.06948361931552,776
-212.53916471408013,802
-210.00954553952818,759
-207.48062590603843,764
-204.9524056239104,942
-202.4248845033651,993
-199.8980623545441,975
-197.37193898751036,868
-194.84651421224817,878
-192.32178783866232,945
-189.79775967657952,856
-187.27442953574644,869
-184.7517972258321,858
-182.2298625564256,817
-179.7086253370378,889
-177.18808537710026,921
-174.66824248596583,978
-172.14909647290835,1095
-169.6306471471229,1033
-167.11289431772548,970
-164.59583779375328,1029
-162.07947738416453,1076
-159.5638128978386,1025
-157.04884414357605,1070
-154.53457093009854,1060
-152.02099306604828,1009
-149.50811035998936,1049
-146.99592262040665,1206
-144.48442965570587,1133
-141.97363127421409,1298
-139.46352728417958,1462
-136.95411749377126,1395
-134.44540171107985,1618
-131.93737974411636,1493
-129.43005140081357,1401
-126.92341648902493,1370
-124.41747481652521,1564
-121.91222619101006,1526
-119.40767042009657,1358
-116.90380731132257,1255
-114.40063667214702,1471
-111.8981583099503,1599
-109.3963720320337,1587
-106.89527764561933,1395
-104.39487495785067,1599
-101.89516377579241,1710
-99.39614390642998,1794
-96.89781515667039,1742
-94.40017733334128,1791
-91.90323024319173,1879
-89.40697369289148,1776
-86.91140748903172,1674
-84.41653143812482,1807
-81.92234534660395,1941
-79.42884902082358,2044
-76.93604226705907,2096
-74.4439248915071,2020
-71.95249670028534,1849
-69.46175749943245,1921
-66.97170709490854,2099
-64.48234529259423,2826
-61.99367189829195,3009
-59.50568671772464,2984
-57.01838955653636,2961
-54.53178022029283,3115
-52.045858514480074,3491
-49.560624244506016,3899
-47.07607721569923,3899
-44.59221723330904,3488
-42.10904410250669,3859
-39.62655762838392,4774
-37.14475761595372,5451
-34.66364387015028,5354
-32.18321619582866,6534
-29.70347439776515,7324
-27.224418280657005,8172
-24.74604764912317,11176
-22.26836230770266,15830
-19.7913620608565,25435
-17.315046712966478,38527
-14.83941606833514,42905
-12.36446993118659,65038
-9.89020810566592,65038
-7.416630395839093,65038
-4.94373660569363,65038
-2.471526539137585,65038
-6.821210263296962E-13,65038
2.47084320796705,65038
4.941003281093458,65038
7.410480415786196,65038
9.879274808531363,65038
12.347386655893956,65038
14.814816154518212,65038
17.28156350112681,65038
19.74762889252179,65038
22.21301252558385,65038
24.67771459727237,65038
27.141735304626195,41626
29.605074844762612,15622
32.06773341487792,9458
34.52971121224755,7573
36.99100843422559,8353
39.45162527824516,10124
41.91156194181792,8967
44.370818622535126,12092
46.82939551806646,16134
49.287292826160524,14332
51.74451074464503,12138
54.201049471426245,7641
56.65690920448981,4885
59.112090141899785,4158
61.56659248179983,4389
64.02041642241159,3615
66.4735621620365,3175
68.92602989905402,2487
71.37781983192338,2543
73.82893215918205,3305
76.27936707944684,2746
78.72912479141326,2457
81.17820549385567,2417
83.62660938562783,2899
86.07433666566146,2729
88.5213875329681,2823
90.96776218663751,2702
93.41346082583925,2751
95.85848364982041,2605
98.30283085790859,2092
100.7465026495089,2387
103.18949922410604,2385
105.63182078126385,2103
108.07346752062438,2339
110.51443964190923,2231
112.95473734491827,1776
115.39436082953114,1595
117.83331029570547,1664
120.27158594347827,1945
122.7091879729652,1512
125.1461165843615,1696
127.58237197794062,1554
130.01795435405518,1378
132.4528639131364,1422
134.88710085569494,1678
137.32066538231982,1632
139.75355769367923,1510
142.1857779905207,1559
144.61732647366978,1548
147.04820334403132,1420
149.47840880258934,1381
151.90794305040674,1603
154.33680628862487,1699
156.76499871846443,1624
159.19252054122433,1684
161.61937195828352,1801
164.04555317109896,1762
166.47106438120693,1978
168.89590579022217,2627
171.320077599839,2572
173.7435800118302,2417
176.16641322804742,2605
178.58857745042144,2687
181.01007288096173,2650
183.43089972175687,2752
185.85105817497413,2752
188.27054844285988,2638
190.6893707277394,2665
193.10752523201643,2721
195.5250121581745,2874
197.9418317087751,2946
200.3579840864594,2777
202.7734694939469,2941
205.18828813403627,2865
207.6024402096051,2880
210.01592592360964,2956
212.42874547908548,2998
214.84089907914665,2944
217.2523869269868,2850
219.66320922587727,2979
222.0733661791695,2941
224.48285799029293,2895
226.8916848627572,3058
229.29984700014882,3047
231.7073446061355,3122
234.11417788446204,3052
236.520347038953,3117
238.92585227351185,3335
241.33069379212054,3454
243.73487179884035,3394
246.1383864978112,3281
248.541238093252,3322
250.9434267894609,3350
253.34495279081432,3498
255.74581630176783,3383
258.1460175268563,3578
260.54555667069314,3590
262.9444339379703,3327
265.3426495334594,3235
267.7402036620107,3268
270.1370965285529,3142
272.53332833809407,2923
274.9288992957214,3009
277.32380960660055,3043
279.718059475976,2994
282.1116491091717,2873
284.5045787115897,2951
286.89684848871195,3030
289.2884586460981,2895
291.67940938938807,2822
294.0697009242996,2809
296.4593334566299,2726
298.84830719225477,2754
301.23662233712923,2692
303.6242790972866,2723
306.01127767884,2727
308.39761828798066,2696
310.78330113097934,2631
313.16832641418534,2657
315.5526943440269,2690
317.9364051270112,2571
320.3194589697242,2565
322.70185607883093,2468
325.0835966610754,2403
327.4646809232805,2433
329.8451090723478,2471
332.2248813152577,2591
334.6039978590701,2368
336.9824589109231,2391
339.36026467803447,2371
341.7374153677,2276
344.113911187295,2392
346.48975234427337,2363
348.8649390461686,2377
351.2394715005918,2268
353.61334991523415,2216
355.9865744978655,2247
358.35914545633375,2250
360.73106299856715,2252
363.10232733257146,2179
365.47293866643247,2209
367.84289720831396,2278
370.2122031664593,2248
372.5808567491905,2195
374.9488581649083,2204
377.31620762209275,2210
379.6829053293021,2158
382.0489514951745,2113
384.4143463284262,2151
386.7790900378528,2178
389.14318283232853,2051
391.50662492080653,2264
393.86941651231916,2132
396.23155781597745,2115
398.5930490409713,2106
400.9538903965696,2108
403.3140820921202,2108
405.6736243370498,2123
408.03251734086336,2063
410.3907613131465,2073
412.74835646356166,2099
415.10530300185144,2081
417.4616011378372,2097
419.81725108141893,2068
422.1722530425758,2048
424.5266072313656,2039
426.880313857925,2131
429.2333731324701,2103
431.58578526529516,2072
433.9375504667738,2020
436.2886689473588,2098
438.63914091758113,2004
440.9889665880513,2081
443.33814616945835,2071
445.68667987257015,2007
448.03456790823395,1979
450.3818104873759,2041
452.72840782100013,2030
455.07436012019105,1995
457.41966759611057,2022
459.7643304600007,2022
462.10834892318155,2042
464.4517231970525,2032
466.79445349309174,2082
469.1365400228566,2089
471.4779829979826,2015
473.81878263018564,2081
476.15893913125876,2099
478.4984527130747,2062
480.8373235875855,2089
483.17555196682144,2172
485.5131380628919,2235
487.8500820879857,2384
490.1863842543697,2491
492.52204477439034,2705
494.8570638604725,2905
497.1914417251204,3100
499.52517858091653,3445
501.85827464052306,3611
504.19073011668036,3691
506.5225452222086,3750
508.85372017000566,3669
511.18425517304956,3519
513.514150444396,3539
515.8434061971808,4037
518.1720226446176,4559
520.4999999999999,4790
522.8273384766991,5034
525.1540382881666,5180
527.480099647932,5195
529.8055227696037,4461
532.1303078668694,3238
534.454455153496,2488
536.777964843328,2243
539.1008371502907,2030
541.4230722883866,1994
543.744670471698,1935
546.0656319143858,1930
548.3859568306899,1913
550.7056454349294,1852
553.0246979415016,1911
555.3431145648834,1840
557.6608955196306,1845
559.978041020377,1829
562.2945512818363,1756
564.6104265188006,1845
566.9256669461412,1808
569.2402727788082,1796
571.5542442318302,1836
573.8675815203156,1853
576.1802848594508,1810
578.4923544645015,1725
580.8037905508126,1849
583.114593333807,1852
585.4247630289875,1805
587.7342998519354,1815
590.0432040183106,1839
592.3514757438526,1821
594.6591152443794,1833
596.9661227357875,1819
599.2724984340531,1788
601.578242555231,1861
603.8833553154542,1782
606.1878369309362,1816
608.4916876179676,1951
610.7949075929192,1963
613.0974970722403,1826
615.3994562724587,1875
617.7007854101818,1849
620.0014847020951,1926
622.3015543649641,1749
624.6009946156324,1860
626.8998056710224,1866
629.1979877481361,1864
631.4955410640538,1846
633.7924658359349,1884
636.0887622810175,1886
638.3844306166192,1826
640.6794710601358,1873
642.9738838290426,1832
645.2676691408932,1891
647.5608272133207,1829
649.853358264037,1860
652.1452625108324,1824
654.4365401715764,1827
656.7271914642178,1877
659.0172166067838,1947
661.3066158173809,1850
663.5953893141935,1855
665.8835373154867,1842
668.1710600396028,1921
670.4579577049639,1849
672.7442305300709,1906
675.0298787335033,1939
677.3149025339197,1904
679.599302150058,1893
681.8830778007342,1898
684.1662297048437,1904
686.4487580813608,1894
688.7306631493387,1898
691.0119451279091,1854
693.2926042362834,1919
695.5726406937516,1941
697.8520547196814,1928
700.1308465335215,1960
702.4090163547982,1919
704.6865644031171,1895
706.9634908981619,1894
709.2397960596965,1803
711.5154801075631,1930
713.7905432616823,1870
716.0649857420548,1875
718.3388077687592,1939
720.612009561953,1844
722.8845913418733,1866
725.1565533288352,1873
727.427895743234,1886
729.6986188055427,1835
731.9687227363137,1882
734.238207756178,1885
736.5070740858458,1790
738.7753219461066,1879
741.0429515578281,1816
743.3099631419569,1846
745.5763569195191,1906
747.8421331116193,1951
750.1072919394409,1948
752.3718336242467,1872
754.6357583873777,1898
756.8990664502545,1853
759.1617580343765,1875
761.423833361321,1884
763.6852926527457,1882
765.9461361303862,1932
768.206364016058,1905
770.4659765316536,1867
772.7249738991469,1900
774.9833563405886,1905
777.2411240781092,1904
779.4982773339183,1916
781.7548163303044,1936
784.010741289634,2008
786.2660524343538,1977
788.5207499869881,1891
790.7748341701416,1923
793.0283052064964,1972
795.2811633188143,1881
797.5334087299362,1933
799.7850416627813,1948
802.0360623403484,1909
804.2864709857143,1855
806.5362678220353,1895
808.7854530725468,1843
811.0340269605625,1833
813.2819897094754,1974
815.5293415427581,1923
817.77608268396,1954
820.0222133567116,1952
822.2677337847211,1890
824.5126441917765,1866
826.7569448017433,1834
829.0006358385675,1946
831.2437175262731,1882
833.4861900889629,1877
835.7280537508192,1921
837.9693087361026,1902
840.2099552691533,1913
842.4499935743896,1892
844.689423876309,1914
846.9282463994886,1889
849.1664613685833,1921
851.4040690083276,1888
853.6410695435349,1869
855.877463199097,1912
858.1132501999847,1874
860.3484307712487,1886
862.5830051380175,2023
864.8169735254988,1899
867.0503361589791,1954
869.2830932638243,1910
871.5152450654786,1883
873.7467917894654,1922
875.9777336613873,1946
878.2080709069252,1930
880.4378037518389,1897
882.666932421968,1960
884.8954571432301,1909
887.1233781416219,1911
889.3506956432192,1933
891.5774098741766,1914
893.803521060728,1923
896.0290294291852,1995
898.2539352059397,1997
900.4782386174619,1979
902.7019398903011,1954
904.925039251085,2005
907.147536926521,1956
909.3694331433943,1927
911.59072812857,2021
913.8114221089921,1942
916.0315153116827,1890
918.2510079637437,1883
920.4699002923547,1943
922.6881925247761,2012
924.905884888345,1914
927.1229776104793,1975
929.3394709186747,1894
931.555365040506,1945
933.7706602036275,1942
935.9853566357709,1820
938.1994545647489,1923
940.4129542184515,1945
942.6258558248488,1922
944.8381596119883,1909
947.0498658079974,1995
949.2609746410825,1991
951.4714863395287,1874
953.6814011316998,1918
955.8907192460387,1917
958.0994409110671,1881
960.3075663553858,1818
962.5150958076741,1869
964.7220294966913,1870
966.928367651274,1808
969.1341105003388,1815
971.3392582728806,1808
973.5438111979742,1871
975.747769504772,1880
977.9511334225061,1872
980.153903180487,1822
982.3560790081052,1880
984.5576611348289,1846
986.7586497902058,1838
988.9590452038618,1762
991.158847605503,1807
993.3580572249133,1781
995.5566742919558,1703
997.7546990365728,1660
999.952131688785,1710
1002.1489724786926,1631
1004.3452216364743,1619
1006.5408793923874,1672
1008.7359459767691,1640
1010.9304216200343,1634
1013.1243065526781,1598
1015.3176010052733,1547
1017.510305208472,1598
1019.7024193930064,1561
1021.8939437896848,1559
1024.0848786293977,1556
1026.2752241431122,1566
1028.4649805618747,1582
1030.6541481168115,1525
1032.842727039127,1551
1035.0307175601051,1590
1037.2181199111074,1547
1039.4049343235752,1518
1041.591161029029,1482
1043.7768002590683,1549
1045.9618522453698,1509
1048.1463172196918,1559
1050.3301954138697,1541
1052.513487059818,1525
1054.69619238953,1527
1056.8783116350783,1532
1059.0598450286152,1455
1061.2407928023704,1507
1063.4211551886528,1490
1065.6009324198508,1456
1067.780124728432,1523
1069.9587323469414,1490
1072.1367555080046,1548
1074.314194444325,1536
1076.4910493886855,1515
1078.667320573947,1447
1080.843008233051,1475
1083.0181125990161,1422
1085.1926339049414,1443
1087.3665723840027,1496
1089.5399282694575,1438
1091.7127017946405,1491
1093.8848931929647,1429
1096.0565026979243,1393
1098.2275305430899,1399
1100.3979769621128,1474
1102.567842188722,1396
1104.737126456726,1419
1106.9058300000124,1378
1109.0739530525475,1437
1111.2414958483764,1426
1113.4084586216231,1440
1115.5748416064907,1440
1117.7406450372605,1473
1119.9058691482942,1400
1122.0705141740304,1396
1124.2345803489884,1413
1126.3980679077658,1379
1128.5609770850388,1419
1130.7233081155623,1432
1132.8850612341707,1413
1135.0462366757774,1363
1137.2068346753745,1399
1139.3668554680326,1423
1141.526299288901,1419
1143.68516637321,1394
1145.8434569562655,1352
1148.001171273455,1387
1150.158309560244,1371
1152.3148720521767,1375
1154.470858984876,1325
1156.626270594044,1369
1158.7811071154629,1375
1160.9353687849912,1349
1163.089055838569,1310
1165.242168512213,1385
1167.3947070420209,1356
1169.5466716641677,1426
1171.6980626149075,1366
1173.8488801305748,1374
1175.9991244475814,1388
1178.1487958024186,1362
1180.2978944316555,1376
1182.4464205719428,1372
1184.5943744600072,1408
1186.7417563326567,1353
1188.8885664267755,1344
1191.0348049793297,1337
1193.1804722273619,1423
1195.325568407995,1336
1197.4700937584303,1423
1199.614048515948,1394
1201.7574329179074,1367
1203.900247201746,1360
1206.042491604982,1327
1208.1841663652099,1371
1210.3252717201053,1364
1212.465807907422,1370
1214.6057751649923,1351
1216.7451737307279,1332
1218.8840038426192,1405
1221.0222657387353,1369
1223.1599596572241,1386
1225.2970858363137,1379
1227.4336445143094,1368
1229.5696359295966,1390
1231.705060320639,1404
1233.8399179259786,1392
1235.9742089842384,1341
1238.107933734118,1310
1240.2410924143974,1407
1242.373685263935,1348
1244.5057125216676,1402
1246.6371744266116,1374
1248.7680712178621,1383
1250.898403134593,1374
1253.028170416058,1474
1255.1573733015875,1383
1257.2860120305932,1366
1259.4140868425648,1402
1261.54159797707,1352
1263.6685456737569,1368
1265.7949301723515,1402
1267.9207517126597,1440
1270.046010534565,1407
1272.1707068780306,1414
1274.2948409830983,1414
1276.4184130898889,1419
1278.541423438603,1408
1280.6638722695184,1426
1282.785759822993,1409
1284.9070863394636,1514
1287.0278520594447,1502
1289.1480572235314,1425
1291.2677020723963,1513
1293.3867868467923,1513
1295.5053117875495,1445
1297.623277135579,1470
1299.740683131868,1492
1301.8575300174857,1552
1303.973818033578,1562
1306.0895474213703,1462
1308.2047184221678,1522
1310.3193312773528,1531
1312.4333862283888,1565
1314.5468835168163,1527
1316.659823384255,1515
1318.7722060724045,1537
1320.8840318230418,1516
1322.9953008780249,1505
1325.1060134792888,1509
1327.2161698688478,1515
1329.3257702887959,1599
1331.4348149813054,1535
1333.5433041886276,1540
1335.6512381530933,1534
1337.7586171171101,1525
1339.8654413231675,1547
1341.9717110138317,1537
1344.0774264317488,1531
1346.1825878196432,1559
1348.2871954203192,1530
1350.3912494766587,1501
1352.4947502316231,1497
1354.5976979282532,1528
1356.7000928096686,1516
1358.8019351190665,1435
1360.9032250997243,1485
1363.0039629949988,1499
1365.1041490483235,1510
1367.2037835032133,1551
1369.3028666032606,1531
1371.401398592137,1480
1373.4993797135926,1499
1375.5968102114575,1517
1377.6936903296396,1516
1379.7900203121262,1484
1381.8858004029835,1501
1383.9810308463561,1487
1386.075711886469,1504
1388.1698437676241,1510
1390.2634267342032,1521
1392.356461030667,1495
1394.4489469015557,1589
1396.5408845914872,1562
1398.6322743451592,1580
1400.7231164073469,1574
1402.813411022907,1574
1404.903158436773,1549
1406.9923588939578,1545
1409.0810126395531,1503
1411.1691199187303,1590
1413.2566809767386,1558
1415.343696058907,1564
1417.4301654106425,1507
1419.5160892774315,1567
1421.6014679048399,1607
1423.6863015385125,1603
1425.7705904241707,1574
1427.8543348076178,1586
1429.9375349347342,1571
1432.0201910514802,1566
1434.102303403894,1613
1436.1838722380944,1663
1438.2648978002767,1658
1440.3453803367174,1649
1442.4253200937692,1660
1444.5047173178677,1705
1446.5835722555234,1695
1448.6618851533285,1760
1450.739656257952,1743
1452.8168858161434,1787
1454.8935740747306,1793
1456.96972128062,1873
1459.045327680797,1881
1461.120393522327,1815
1463.1949190523528,1822
1465.2689045180973,1915
1467.3423501668608,1959
1469.415256246024,1991
1471.4876230030463,2054
1473.559450685465,2023
1475.6307395408976,2053
1477.7014898170391,2028
1479.771701761665,2120
1481.8413756226287,2056
1483.9105116478618,2130
1485.9791100853772,2151
1488.0471711832643,2192
1490.1146951896926,2233
1492.1816823529098,2230
1494.2481329212433,2234
1496.3140471430984,2225
1498.3794252669609,2268
1500.4442675413939,2399
1502.5085742150404,2360
1504.572345536622,2305
1506.6355817549388,2415
1508.6982831188702,2394
1510.7604498773744,2412
1512.8220822794883,2429
1514.8831805743293,2346
1516.9437450110909,2429
1519.003775839048,2392
1521.0632733075522,2449
1523.1222376660367,2562
1525.1806691640113,2536
1527.2385680510652,2539
1529.2959345768668,2506
1531.3527689911643,2475
1533.4090715437833,2655
1535.4648424846291,2555
1537.5200820636855,2655
1539.5747905310159,2647
1541.6289681367616,2664
1543.6826151311434,2688
1545.7357317644614,2768
1547.7883182870937,2684
1549.8403749494987,2831
1551.8919020022113,2870
1553.9428996958477,2959
1555.9933682811015,2896
1558.0433080087469,2976
1560.0927191296346,3019
1562.1416018946961,2981
1564.1899565549415,3040
1566.2377833614592,3105
1568.2850825654164,2925
1570.3318544180606,3009
1572.3780991707158,2950
1574.423817074788,2722
1576.4690083817595,2758
1578.5136733431923,2574
1580.5578122107272,2572
1582.601425236085,2476
1584.6445126710646,2386
1586.6870747675434,2250
1588.7291117774776,2179
1590.7706239529034,2070
1592.8116115459347,2024
1594.8520748087658,1935
1596.8920139936686,1933
1598.9314293529933,1859
1600.9703211391711,1846
1603.008689604711,1739
1605.0465350022005,1762
1607.0838575843068,1711
1609.1206576037753,1670
1611.1569353134305,1715
1613.1926909661765,1663
1615.2279248149953,1660
1617.2626371129481,1601
1619.2968281131757,1634
1621.3304980688963,1565
1623.3636472334088,1545
1625.39627586009,1532
1627.428384202396,1517
1629.459972513861,1496
1631.4910410480993,1512
1633.5215900588028,1460
1635.551619799744,1455
1637.5811305247717,1479
1639.6101224878166,1438
1641.6385959428862,1474
1643.6665511440683,1489
1645.693988345528,1433
1647.7209078015112,1506
1649.7473097663405,1444
1651.7731944944203,1430
1653.7985622402307,1427
1655.823413258333,1439
1657.847747803366,1420
1659.8715661300494,1439
1661.8948684931793,1408
1663.9176551476316,1455
1665.9399263483624,1467
1667.9616823504057,1427
1669.982923408873,1422
1672.0036497789574,1346
1674.0238617159293,1373
1676.043559475138,1426
1678.0627433120121,1394
1680.081413482059,1401
1682.0995702408654,1343
1684.117213844096,1410
1686.134344547495,1445
1688.1509626068864,1360
1690.1670682781705,1389
1692.182661817329,1377
1694.1977434804217,1464
1696.2123135235875,1410
1698.226372203043,1417
1700.2399197750851,1396
1702.2529564960905,1397
1704.2654826225112,1349
1706.277498410882,1374
1708.2890041178139,1378
1710.2999999999988,1419
1712.3104863142066,1458
1714.3204633172854,1442
1716.329931266163,1399
1718.3388904178469,1380
1720.3473410294214,1334
1722.3552833580516,1383
1724.3627176609807,1330
1726.3696441955308,1374
1728.3760632191033,1373
1730.3819749891782,1357
1732.3873797633146,1393
1734.3922777991502,1353
1736.3966693544012,1343
1738.4005546868639,1327
1740.4039340544127,1375
1742.406807715001,1271
1744.4091759266616,1300
1746.4110389475054,1278
1748.4123970357223,1354
1750.413250449582,1329
1752.4135994474318,1300
1754.4134442876993,1263
1756.4127852288902,1366
1758.4116225295893,1315
1760.4099564484595,1357
1762.407787244244,1274
1764.405115175764,1303
1766.4019405019203,1318
1768.3982634816916,1303
1770.3940843741357,1288
1772.3894034383907,1284
1774.3842209336717,1325
1776.378537119274,1270
1778.372352254571,1331
1780.3656665990156,1315
1782.3584804121397,1312
1784.3507939535534,1276
1786.3426074829463,1262
1788.3339212600863,1251
1790.3247355448211,1254
1792.3150505970766,1284
1794.3048666768573,1273
1796.2941840442477,1258
1798.2830029594106,1326
1800.2713236825884,1239
1802.2591464741004,1215
1804.2464715943465,1301
1806.2332993038058,1270
1808.2196298630352,1329
1810.2054635326708,1281
1812.190800573428,1274
1814.175641246101,1323
1816.1599858115628,1278
1818.1438345307652,1264
1820.127187664738,1248
1822.1100454745924,1243
1824.092408221516,1305
1826.0742761667766,1243
1828.055649571721,1249
1830.0365286977735,1263
1832.0169138064398,1306
1833.9968051593014,1240
1835.9762030180214,1242
1837.9551076443408,1268
1839.9335193000788,1260
1841.9114382471344,1254
1843.888864747485,1286
1845.8657990631878,1275
1847.842241456378,1308
1849.8181921892697,1230
1851.7936515241558,1305
1853.7686197234098,1270
1855.7430970494815,1227
1857.7170837649014,1244
1859.6905801322787,1251
1861.6635864143004,1262
1863.6361028737338,1254
1865.608129773424,1305
1867.5796673762961,1235
1869.5507159453537,1325
1871.521275743678,1243
1873.4913470344313,1239
1875.4609300808534,1245
1877.4300251462632,1267
1879.3986324940588,1250
1881.366752387717,1313
1883.3343850907936,1336
1885.3015308669228,1277
1887.268189979819,1274
1889.2343626932739,1302
1891.2000492711595,1267
1893.1652499774254,1268
1895.1299650761011,1300
1897.0941948312952,1321
1899.0579395071945,1275
1901.0211993680641,1299
1902.98397467825,1302
1904.9462657021745,1296
1906.9080727043415,1249
1908.869395949332,1318
1910.8302357018065,1246
1912.790592226504,1311
1914.7504657882428,1228
1916.7098566519212,1299
1918.6687650825133,1281
1920.6271913450764,1349
1922.5851357047422,1273
1924.5425984267245,1259
1926.499579776314,1304
1928.4560800188833,1333
1930.4120994198802,1265
1932.367638244833,1232
1934.32269675935,1264
1936.2772752291175,1267
1938.231373919899,1279
1940.1849930975404,1275
1942.1381330279637,1260
1944.0907939771696,1259
1946.0429762112412,1273
1947.9946799963363,1287
1949.9459055986945,1278
1951.896653284633,1266
1953.8469233205478,1294
1955.7967159729142,1276
1957.7460315082863,1313
1959.6948701932974,1282
1961.6432322946594,1300
1963.5911180791632,1239
1965.5385278136787,1274
1967.4854617651545,1289
1969.4319202006182,1294
1971.377903387176,1285
1973.3234115920136,1206
1975.268445082395,1277
1977.2130041256642,1305
1979.1570889892423,1240
1981.1006999406304,1300
1983.04383724741,1324
1984.986501177238,1226
1986.928691997853,1317
1988.8704099770712,1230
1990.811655382789,1309
1992.7524284829801,1242
1994.692729545698,1315
1996.6325588390755,1250
1998.5719166313224,1241
2000.5108031907307,1259
2002.4492187856677,1248
2004.387163684583,1248
2006.3246381560011,1283
2008.2616424685298,1237
2010.1981768908527,1223
2012.1342416917332,1246
2014.069837140014,1262
2016.0049635046162,1254
2017.9396210545406,1246
2019.8738100588666,1249
2021.8075307867502,1242
2023.740783507431,1238
2025.6735684902228,1248
2027.6058860045214,1234
2029.5377363198004,1248
2031.4691197056118,1280
2033.4000364315875,1213
2035.3304867674374,1238
2037.260470982952,1210
2039.189989347998,1240
2041.1190421325232,1247
2043.047629606554,1250
2044.9757520401945,1210
2046.9034097036288,1221
2048.8306028671195,1243
2050.7573318010086,1264
2052.683596775716,1241
2054.609398061742,1262
2056.5347359296647,1263
2058.4596106501403,1245
2060.384022493906,1208
2062.3079717317764,1234
2064.231458634646,1244
2066.1544834734873,1227
2068.077046519352,1273
2069.99914804337,1311
2071.9207883167524,1269
2073.8419676107865,1220
2075.7626861968406,1197
2077.6829443463607,1266
2079.6027423308715,1213
2081.522080421977,1259
2083.440958891362,1254
2085.359378010786,1282
2087.2773380520907,1198
2089.194839287196,1267
2091.111881988101,1251
2093.0284664268825,1237
2094.9445928756973,1245
2096.86026160678,1265
2098.775472892446,1232
2100.690227005088,1255
2102.604524217178,1258
2104.5183648012676,1270
2106.431749029985,1226
2108.34467717604,1277
2110.2571495122206,1272
2112.169166311393,1233
2114.080727846503,1290
2115.9918343905747,1259
2117.902486216711,1247
2119.8126835980956,1210
2121.722426807987,1241
2123.6317161197285,1237
2125.5405518067364,1263
2127.448934142509,1239
2129.356863400624,1205
2131.264339854737,1266
2133.1713637785815,1228
2135.077935445972,1218
2136.9840551308002,1216
2138.889723107037,1235
2140.7949396487334,1233
2142.699705030018,1249
2144.6040195250994,1267
2146.507883408264,1225
2148.4112969538774,1213
2150.3142604363848,1243
2152.2167741303097,1246
2154.1188383102535,1259
2156.0204532508997,1238
2157.9216192270064,1259
2159.822336513414,1253
2161.7226053850413,1225
2163.622426116884,1257
2165.5217989840185,1300
2167.4207242616,1238
2169.319202224862,1270
2171.2172331491165,1287
2173.1148173097563,1245
2175.0119549822507,1273
2176.90864644215,1267
2178.8048919650823,1175
2180.7006918267534,1223
2182.596046302952,1227
2184.4909556695407,1214
2186.3854202024645,1228
2188.279440177746,1270
2190.173015871487,1265
2192.066147559868,1251
2193.958835519149,1199
2195.851080025667,1238
2197.7428813558417,1251
2199.6342397861667,1245
2201.5251555932186,1256
2203.415629053651,1243
2205.3056604441986,1205
2207.19525004167,1241
2209.084398122958,1205
2210.9731049650327,1237
2212.861370844941,1239
2214.749196039812,1244
2216.636580826851,1257
2218.523525483344,1265
2220.410030286655,1222
2222.296095514226,1263
2224.1817214435805,1209
2226.066908352319,1244
2227.951656518121,1323
2229.835966218746,1223
2231.71983773203,1259
2233.6032713358913,1252
2235.486267308324,1189
2237.3688259274036,1275
2239.2509474712824,1284
2241.132632218193,1265
2243.013880446447,1279
2244.8946924344323,1276
2246.7750684606203,1245
2248.6550088035574,1239
2250.534513741871,1166
2252.413583554265,1253
2254.292218519526,1274
2256.170418916517,1236
2258.0481850241786,1214
2259.925517121534,1221
2261.8024154876825,1238
2263.678880401803,1236
2265.5549121431536,1208
2267.430510991071,1192
2269.305677224971,1204
2271.180411124348,1238
2273.0547129687766,1283
2274.9285830379076,1284
2276.8020216114737,1211
2278.6750289692845,1276
2280.5476053912294,1281
2282.4197511572766,1210
2284.2914665474727,1214
2286.162751841943,1253
2288.0336073208937,1241
2289.904033264608,1265
2291.774029953448,1222
2293.6435976678554,1240
2295.5127366883517,1242
2297.381447295534,1255
2299.2497297700825,1229
2301.1175843927526,1255
2302.9850114443825,1293
2304.852011205885,1246
2306.7185839582553,1277
2308.5847299825664,1274
2310.4504495599676,1239
2312.3157429716925,1306
2314.1806104990483,1245
2316.0450524234247,1223
2317.9090690262888,1254
2319.772660589186,1245
2321.635827393742,1247
2323.498569721661,1246
2325.3608878547248,1277
2327.2227820747967,1260
2329.0842526638157,1248
2330.945299903803,1338
2332.805924076857,1276
2334.6661254651535,1295
2336.525904350951,1321
2338.3852610165827,1308
2340.244195744464,1256
2342.102708817088,1299
2343.9608005170253,1217
2345.8184711269287,1297
2347.675720929526,1246
2349.532550207628,1263
2351.38895924412,1278
2353.24494832197,1302
2355.100517724223,1300
2356.955667734004,1245
2358.810398634514,1268
2360.664710709037,1294
2362.5186042409337,1281
2364.3720795136437,1314
2366.225136810686,1282
2368.0777764156583,1301
2369.929998612237,1266
2371.7818036841777,1249
2373.633191915315,1281
2375.484163589562,1264
2377.3347189909114,1258
2379.184858403434,1312
2381.03458211128,1316
2382.8838903986775,1285
2384.732783549936,1313
2386.5812618494406,1280
2388.4293255816588,1310
2390.2769750311327,1317
2392.1242104824883,1244
2393.971032220427,1268
2395.8174405297295,1351
2397.6634356952563,1342
2399.509018001947,1284
2401.3541877348193,1333
2403.1989451789705,1291
2405.043290619576,1310
2406.8872243418905,1307
2408.730746631247,1254
2410.5738577730594,1274
2412.4165580528183,1293
2414.258847756095,1272
2416.100727168537,1358
2417.9421965758734,1320
2419.783256263912,1272
2421.623906518538,1282
2423.4641476257157,1296
2425.303979871491,1312
2427.143403541984,1324
2428.9824189233977,1335
2430.821026302012,1287
2432.6592259641866,1316
2434.497018196361,1350
2436.33440328505,1309
2438.171381516851,1323
2440.00795317844,1291
2441.844118556569,1366
2443.6798779380724,1334
2445.5152316098606,1275
2447.3501798589255,1314
2449.1847229723357,1341
2451.0188612372403,1274
2452.8525949408663,1284
2454.6859243705203,1314
2456.518849813587,1293
2458.3513715575314,1272
2460.183489889895,1300
2462.015205098301,1260
2463.8465174704493,1351
2465.67742729412,1331
2467.5079348571717,1298
2469.338040447542,1315
2471.1677443532476,1357
2472.9970468623833,1391
2474.825948263123,1286
2476.6544488437207,1261
2478.482548892508,1329
2480.310248697896,1270
2482.137548548374,1384
2483.9644487325118,1335
2485.790949538956,1362
2487.617051256433,1313
2489.44275417375,1289
2491.26805857979,1303
2493.0929647635157,1319
2494.917473013971,1309
2496.741583620276,1279
2498.5652968716304,1339
2500.3886130573137,1327
2502.2115324666834,1402
2504.0340553891765,1318
2505.856182114308,1326
2507.6779129316733,1328
2509.499248130945,1398
2511.3201880018764,1363
2513.140732834298,1284
2514.9608829181198,1391
2516.780638543331,1375
2518.6,1424
2520.418967578273,1334
2522.237541568376,1352
2524.0557222606144,1321
2525.8735099453706,1305
2527.6909049131086,1353
2529.507907454368,1342
2531.32451785977,1283
2533.140736420014,1355
2534.9565634258774,1369
2536.771999168218,1406
2538.5870439379714,1410
2540.4016980261526,1366
2542.2159617238544,1379
2544.02983532225,1367
2545.8433191125914,1445
2547.656413386209,1385
2549.4691184345115,1439
2551.2814345489874,1447
2553.093362021204,1438
2554.904901142808,1488
2556.716052205523,1395
2558.526815501153,1447
2560.3371913215824,1450
2562.147179958771,1387
2563.956781704761,1463
2565.7659968516705,1484
2567.5748256916986,1497
2569.3832685171224,1466
2571.1913256202984,1490
2572.9989972936614,1477
2574.806283829725,1462
2576.613185521084,1505
2578.4197026604074,1506
2580.2258355404483,1501
2582.031584454035,1519
2583.836949694077,1458
2585.6419315535613,1485
2587.4465303255533,1489
2589.2507463032002,1498
2591.0545797797245,1517
2592.8580310484303,1473
2594.6611004026995,1539
2596.463788135992,1553
2598.266094541849,1597
2600.0680199138874,1570
2601.869564545807,1563
2603.670728731383,1530
2605.4715127644704,1560
2607.2719169390048,1553
2609.071941548998,1504
2610.8715868885433,1552
2612.670853251811,1506
2614.469740933052,1560
2616.268250226594,1525
2618.0663814268455,1474
2619.864134828292,1564
2621.6615107255006,1558
2623.458509413115,1501
2625.2551311858597,1561
2627.0513763385347,1472
2628.8472451660223,1560
2630.6427379632833,1488
2632.4378550253564,1502
2634.232596647359,1460
2636.026963124488,1449
2637.8209547520187,1429
2639.6145718253065,1482
2641.407814639785,1483
2643.200683490966,1481
2644.9931786744414,1422
2646.7853004858807,1440
2648.577049221034,1434
2650.3684251757277,1385
2652.1594286458712,1401
2653.9500599274484,1347
2655.740319316525,1385
2657.5302071092437,1382
2659.3197236018286,1435
2661.10886909058,1389
2662.8976438718782,1418
2664.686048242183,1393
2666.4740824980327,1384
2668.2617469360443,1410
2670.0490418529134,1389
2671.8359675454153,1305
2673.622524310403,1372
2675.408712444811,1372
2677.1945322456495,1356
2678.979984010009,1306
2680.76506803506,1365
2682.5497846180497,1352
2684.334134056306,1344
2686.1181166472343,1346
2687.9017326883213,1309
2689.6849824771293,1305
2691.4678663113013,1307
2693.2503844885596,1353
2695.032537306705,1325
2696.8143250636167,1325
2698.5957480572542,1305
2700.3768065856534,1291
2702.1575009469316,1263
2703.937831439283,1245
2705.717798360982,1233
2707.4974020103837,1306
2709.276642685917,1243
2711.055520686095,1268
2712.834036309506,1268
2714.612189854819,1279
2716.389981620782,1230
2718.1674119062204,1295
2719.944481010041,1331
2721.721189231226,1264
2723.4975368688415,1269
2725.273524222027,1282
2727.0491515900053,1192
2728.824419272075,1299
2730.5993275676146,1295
2732.3738767760838,1276
2734.148067197016,1253
2735.921899130031,1222
2737.6953728748194,1237
2739.468488731156,1192
2741.2412469988926,1239
2743.0136479779617,1246
2744.785691968372,1228
2746.5573792702116,1265
2748.3287101836504,1279
2750.099685008934,1295
2751.870304046388,1272
2753.640567596418,1290
2755.4104759595057,1260
2757.1800294362156,1266
2758.949228327187,1194
2760.7180729331412,1269
2762.486563554877,1224
2764.254700493272,1289
2766.022484049284,1278
2767.789914523947,1235
2769.5569922183786,1225
2771.3237174337705,1242
2773.090090471394,1217
2774.8561116326036,1214
2776.6217812188274,1223
2778.3870995315756,1222
2780.1520668724356,1277
2781.9166835430747,1279
2783.6809498452394,1258
2785.444866080754,1304
2787.2084325515225,1274
2788.971649559527,1200
2790.73451740683,1273
2792.4970363955713,1170
2794.2592068279705,1266
2796.0210290063264,1231
2797.7825032330147,1298
2799.543629810493,1226
2801.304409041296,1253
2803.0648412280366,1255
2804.8249266734088,1204
2806.5846656801846,1259
2808.344058551212,1272
2810.1031055894246,1216
2811.8618070978273,1261
2813.6201633795085,1245
2815.378174737636,1290
2817.1358414754536,1243
2818.893163896285,1248
2820.6501423035334,1252
2822.4067770006814,1239
2824.1630682912883,1251
2825.9190164789957,1286
2827.6746218675207,1222
2829.429884760661,1262
2831.184805462294,1244
2832.9393842763743,1232
2834.693621506936,1259
2836.4475174580916,1224
2838.201072434034,1245
2839.954286739034,1240
2841.707160677441,1278
2843.459694553685,1273
2845.2118886722724,1231
2846.96374333779,1261
2848.7152588549034,1200
2850.4664355283567,1271
2852.217273662973,1210
2853.9677735636546,1215
2855.7179355353833,1202
2857.4677598832186,1226
2859.217246912299,1251
2860.9663969278427,1190
2862.715210235146,1251
2864.4636871395846,1256
2866.211827946614,1234
2867.9596329617652,1272
2869.7071024906536,1220
2871.4542368389684,1171
2873.20103631248,1230
2874.947501217038,1260
2876.6936318585695,1245
2878.4394285430812,1208
2880.1848915766604,1300
2881.9300212654707,1182
2883.6748179157553,1232
2885.4192818338374,1208
2887.1634133261173,1285
2888.907212699077,1266
2890.6506802592744,1226
2892.393816313348,1245
2894.1366211680142,1189
2895.8790951300693,1259
2897.621238506388,1207
2899.363051603925,1227
2901.1045347297118,1243
2902.8456881908596,1269
2904.58651229456,1210
2906.327007348081,1237
2908.067173658772,1193
2909.8070115340597,1219
2911.5465212814497,1215
2913.285703208527,1244
2915.0245576229563,1188
2916.7630848324807,1231
2918.5012851449196,1196
2920.2391588681758,1171
2921.976706310227,1239
2923.7139277791334,1251
2925.4508235830313,1205
2927.187394030137,1208
2928.923639428745,1215
2930.6595600872306,1264
2932.395156314046,1280
2934.1304284177218,1263
2935.8653767068713,1243
2937.6000014901815,1227
2939.3343030764227,1268
2941.068281774442,1252
2942.8019378931644,1278
2944.5352717415976,1249
2946.2682836288236,1207
2948.0009738640065,1227
2949.7333427563885,1253
2951.465390615289,1255
2953.1971177501086,1208
2954.9285244703265,1181
2956.6596110855,1234
2958.3903779052657,1203
2960.1208252393385,1226
2961.8509533975125,1251
2963.5807626896617,1228
2965.3102534257378,1238
2967.0394259157715,1211
2968.768280469873,1214
2970.496817398232,1227
2972.2250370111146,1248
2973.952939618869,1208
2975.6805255319196,1227
2977.4077950607707,1236
2979.134748516006,1280
2980.861386208289,1209
2982.587708448359,1245
2984.313715547037,1272
2986.039407815222,1215
2987.764785563891,1211
2989.489849104102,1199
2991.2145987469908,1200
2992.9390348037705,1209
2994.6631575857346,1225
2996.3869674042576,1177
2998.1104645707887,1223
2999.83364939686,1240
3001.5565221940783,1226
3003.2790832741334,1175
3005.0013329487924,1244
3006.7232715298996,1260
3008.4448993293804,1230
3010.166216659239,1220
3011.887223831558,1212
3013.607921158498,1209
3015.3283089522993,1210
3017.0483875252826,1254
3018.7681571898443,1230
3020.4876182584626,1222
3022.2067710436927,1165
3023.9256158581707,1225
3025.644153014609,1272
3027.362382825801,1228
3029.0803056046193,1223
3030.797921664012,1281
3032.5152313170106,1250
3034.2322348767225,1267
3035.9489326563353,1195
3037.665324969115,1242
3039.3814121284063,1207
3041.097194447633,1185
3042.812672240299,1218
3044.5278458199855,1244
3046.2427155003525,1248
3047.9572815951406,1289
3049.671544418167,1249
3051.38550428333,1220
3053.0991615046073,1233
3054.812516396051,1280
3056.5255692717974,1183
3058.2383204460575,1208
3059.9507702331257,1182
3061.662918947372,1210
3063.3747669032446,1199
3065.0863144152736,1205
3066.7975617980674,1218
3068.508509366309,1265
3070.219157434767,1207
3071.9295063182844,1262
3073.639556331785,1154
3075.3493077902704,1259
3077.058761008821,1210
3078.7679163025964,1253
3080.476773986837,1196
3082.1853343768594,1213
3083.89359778806,1194
3085.6015645359153,1265
3087.3092349359786,1261
3089.016609303884,1263
3090.7236879553434,1261
3092.4304712061476,1214
3094.136959372166,1194
3095.843152769349,1199
3097.5490517137237,1239
3099.2546565213966,1230
3100.959967508554,1233
3102.66498499146,1246
3104.3697092864577,1239
3106.0741407099695,1192
3107.778279578498,1171
3109.482126208622,1193
3111.1856809170004,1250
3112.8889440203716,1209
3114.5919158355528,1206
3116.294596679439,1287
3117.996986869006,1238
3119.6990867213062,1215
3121.4008965534726,1236
3123.102416682717,1282
3124.803647426329,1307
3126.5045891016784,1204
3128.205242026213,1233
3129.90560651746,1280
3131.605682893025,1269
3133.3054714705922,1234
3135.0049725679282,1227
3136.7041865028714,1170
3138.4031135933465,1220
3140.101754157353,1194
3141.800108512971,1181
3143.498176978357,1239
3145.1959598717494,1230
3146.8934575114636,1245
3148.5906702158954,1224
3150.2875983035183,1227
3151.9842420928853,1208
3153.680601902627,1278
3155.376678051456,1223
3157.07247085816,1220
3158.767980641609,1215
3160.463207720748,1226
3162.158152414606,1217
3163.8528150422862,1188
3165.5471959229726,1205
3167.2412953759303,1225
3168.9351137204976,1230
3170.628651276098,1244
3172.3219083622307,1160
3174.014885298474,1203
3175.707582404485,1246
3177.4000000000005,1199
3179.092138404835,1226
3180.7839979388846,1206
3182.47557892212,1219
3184.166881674594,1260
3185.8579065164386,1254
3187.5486537678626,1210
3189.2391237491547,1222
3190.9293167806827,1258
3192.6192331828934,1242
3194.3088732763117,1200
3195.998237381542,1241
3197.687325819268,1183
3199.376138910251,1185
3201.064676975334,1181
3202.7529403354347,1179
3204.4409293115523,1209
3206.1286442247647,1238
3207.816085396229,1162
3209.5032531471825,1221
3211.190147798936,1220
3212.8767696728846,1196
3214.5631190905015,1225
3216.2491963733373,1192
3217.9350018430214,1215
3219.6205358212637,1167
3221.305798629851,1159
3222.990790590651,1154
3224.6755120256103,1223
3226.359963256751,1205
3228.0441446061795,1158
3229.7280563960758,1200
3231.411698948703,1206
3233.0950725863995,1212
3234.778177631587,1199
3236.461014406761,1217
3238.1435832345005,1223
3239.8258844374595,1223
3241.507918338374,1299
3243.1896852600576,1225
3244.8711855254023,1180
3246.552419457381,1194
3248.233387379042,1260
3249.914089613516,1186
3251.59452648401,1200
3253.274698313813,1234
3254.95460542629,1170
3256.6342481448855,1238
3258.313626793125,1191
3259.9927416946084,1202
3261.6715931730196,1202
3263.3501815521176,1208
3265.0285071557437,1152
3266.706570307815,1151
3268.3843713323286,1200
3270.0619105533615,1231
3271.739188295068,1266
3273.4162048816834,1178
3275.0929606375184,1190
3276.769455886966,1189
3278.445690954498,1180
3280.1216661646613,1206
3281.797381842087,1230
3283.4728383114807,1246
3285.1480358976296,1259
3286.8229749253996,1238
3288.4976557197333,1178
3290.172078605655,1201
3291.846243908266,1172
3293.5201519527463,1174
3295.193803064357,1251
3296.8671975684374,1234
3298.5403357904024,1175
3300.21321805575,1201
3301.8858446900567,1149
3303.558216018975,1209
3305.23033236824,1209
3306.9021940636603,1177
3308.57380143113,1226
3310.2451547966184,1189
3311.916254486174,1186
3313.5871008259246,1264
3315.2576941420766,1173
3316.9280347609147,1218
3318.5981230088046,1170
3320.2679592121895,1226
3321.9375436975924,1146
3323.606876791612,1193
3325.27595882093,1158
3326.944790112305,1191
3328.6133709925753,1196
3330.2817017886573,1150
3331.949782827547,1199
3333.617614436319,1211
3335.2851969421245,1190
3336.952530672199,1210
3338.619615953853,1206
3340.286453114475,1171
3341.9530424815357,1221
3343.619384382583,1211
3345.2854791452437,1177
3346.951327097224,1258
3348.6169285663073,1243
3350.2822838803577,1219
3351.947393367319,1128
3353.61225735521,1212
3355.2768761721345,1249
3356.9412501462693,1212
3358.605379605873,1179
3360.2692648792827,1189
3361.9329062949146,1178
3363.596304181263,1222
