CollectionTime,6/26/2024 3:39:31 PM
ExposureUsed,3
CalibratedSpectrum
-962.7078968117929,1777
-959.9714848408522,1868
-957.2358232597828,1846
-954.5009119013725,1871
-951.7667505983302,1898
-949.0333391832855,1884
-946.3006774887896,1867
-943.5687653473143,1892
-940.837602591253,1971
-938.1071890529199,1863
-935.3775245645503,1956
-932.6486089583007,1882
-929.9204420662485,1928
-927.1930237203925,1890
-924.4663537526524,1926
-921.7404319948689,1877
-919.0152582788041,1882
-916.2908324361409,1953
-913.5671542984834,1928
-910.8442236973568,1936
-908.1220404642074,1961
-905.4006044304027,1902
-902.679915427231,1968
-899.959973285902,2013
-897.2407778375464,1917
-894.5223289132158,1944
-891.8046263438832,1880
-889.0876699604426,1915
-886.3714595937089,1932
-883.6559950744183,1936
-880.9412762332282,1869
-878.2273029007168,1861
-875.5140749073835,1893
-872.8015920836489,1928
-870.0898542598545,1897
-867.3788612662631,1937
-864.6686129330585,1918
-861.9591090903457,1816
-859.2503495681506,1850
-856.5423341964203,1924
-853.8350628050229,1912
-851.1285352237478,1904
-848.4227512823054,1892
-845.7177108103272,1895
-843.0134136373656,1927
-840.3098595928943,1919
-837.6070485063082,1951
-834.9049802069229,1929
-832.2036545239757,1927
-829.5030712866244,1892
-826.8032303239481,1990
-824.1041314649472,1932
-821.4057745385428,1969
-818.7081593735775,1952
-816.0112857988148,1912
-813.3151536429393,1949
-810.6197627345566,1925
-807.9251129021936,1874
-805.2312039742981,1913
-802.5380357792392,1974
-799.8456081453069,1954
-797.1539209007124,1870
-794.462973873588,1929
-791.772766891987,1946
-789.083299783884,1928
-786.3945723771743,1992
-783.7065844996748,1934
-781.0193359791231,1922
-778.3328266431781,1992
-775.6470563194197,1982
-772.9620248353489,1914
-770.2777320183878,1931
-767.5941776958798,1941
-764.9113616950891,1957
-762.2292838432011,1982
-759.5479439673222,1994
-756.8673418944801,1885
-754.1874774516235,2017
-751.5083504656222,1984
-748.8299607632671,1922
-746.15230817127,1911
-743.475392516264,1966
-740.7992136248035,1979
-738.1237713233636,1923
-735.4490654383407,2011
-732.7750957960521,2035
-730.1018622227365,1984
-727.4293645445534,1986
-724.7576025875837,2018
-722.0865761778291,2029
-719.4162851412126,1964
-716.7467293035781,1934
-714.0779084906909,1999
-711.409822528237,2059
-708.7424712418238,2069
-706.0758544569796,2020
-703.4099719991541,2073
-700.7448236937178,2090
-698.0804093659622,2097
-695.4167288411002,2050
-692.7537819442656,2062
-690.0915685005134,2032
-687.4300883348199,2078
-684.7693412720819,2125
-682.1093271371178,2000
-679.4500457546669,1993
-676.7914969493897,2011
-674.1336805458676,2034
-671.4765963686034,2103
-668.8202442420206,1990
-666.1646239904642,2028
-663.5097354382001,2052
-660.8555784094151,2107
-658.2021527282176,2078
-655.5494582186366,2086
-652.8974947046223,2153
-650.2462620100463,2225
-647.5957599587009,2106
-644.9459883742998,2064
-642.2969470804776,2116
-639.6486359007902,2187
-637.0010546587141,2130
-634.3542031776476,2223
-631.7080812809096,2151
-629.0626887917401,2135
-626.4180255333008,2123
-623.7740913286734,2080
-621.1308860008619,2168
-618.4884093727904,2144
-615.8466612673046,2114
-613.2056415071715,2109
-610.5653499150785,2046
-607.9257863136347,2118
-605.28695052537,2077
-602.6488423727357,2121
-600.0114616781036,2143
-597.3748082637674,2166
-594.7388819519412,2108
-592.1036825647604,2042
-589.4692099242818,2168
-586.8354638524829,2181
-584.2024441712624,2143
-581.5701507024403,2140
-578.9385832677575,2135
-576.3077416888759,2163
-573.6776257873787,2157
-571.0482353847704,2164
-568.4195703024757,2223
-565.7916303618415,2193
-563.164415384135,2215
-560.5379251905453,2118
-557.9121596021815,2192
-555.2871184400748,2083
-552.6628015251767,2270
-550.0392086783606,2160
-547.4163397204204,2181
-544.794194472071,2217
-542.1727727539491,2264
-539.5520743866118,2219
-536.9320991905377,2278
-534.3128469861261,2266
-531.6943175936979,2272
-529.0765108334947,2328
-526.4594265256793,2418
-523.8430644903358,2482
-521.2274245474689,2640
-518.612506517005,2759
-515.9983102187913,2807
-513.3848354725959,2898
-510.77208209810846,2890
-508.16004991493924,3021
-505.5487387426199,3155
-502.9381484006032,3226
-500.3282787082628,3316
-497.71912948489364,3373
-495.1107005497117,3320
-492.5029917218539,3300
-489.8960028203786,3110
-487.28973366426493,2816
-484.68418407241325,2724
-482.07935386364494,2619
-479.47524285670266,2543
-476.87185087025,2564
-474.2691777228715,2578
-471.66722323307334,2581
-469.0659872192821,2505
-466.4654694998459,2535
-463.86566989303384,2506
-461.26658821703614,2536
-458.66822428996414,2399
-456.07057792985,2447
-453.4736489546475,2374
-450.877437182231,2458
-448.28194243039627,2449
-445.68716451686,2349
-443.09310325926003,2409
-440.49975847515555,2383
-437.9071299820263,2353
-435.31521759727354,2325
-432.72402113821954,2307
-430.13354042210767,2353
-427.5437752661022,2477
-424.95472548728867,2401
-422.36639090267386,2501
-419.7787713291855,2444
-417.1918665836721,2476
-414.60567648290385,2473
-412.0202008435715,2414
-409.4354394822874,2414
-406.8513922155845,2479
-404.26805885991723,2481
-401.685439231661,2432
-399.103533147112,2405
-396.522340422488,2449
-393.9418608739278,2374
-391.3620943174908,2287
-388.7830405691583,2317
-386.2046994448317,2262
-383.6270707603344,2032
-381.05015433141045,1861
-378.473949973725,1697
-375.8984575028645,1578
-373.32367673433623,1396
-370.74960748356875,1290
-368.1762495659117,1129
-365.60360279663576,947
-363.03166699093265,845
-360.4604419639154,754
-357.8899275306178,693
-355.32012350599507,599
-352.7510297049233,594
-350.1826459421999,629
-347.61497203254316,577
-345.04800779059235,575
-342.4817530309082,545
-339.91620756797226,514
-337.35137121618743,542
-334.7872437898774,505
-332.22382510328725,522
-329.66111497058273,505
-327.09911320585127,519
-324.53781962310075,486
-321.9772340362607,514
-319.4173562591816,561
-316.8581861056348,607
-314.2997233893127,612
-311.7419679238294,568
-309.1849195227194,572
-306.62857799943856,559
-304.0729431673641,544
-301.51801483979375,510
-298.963792829947,543
-296.41027695096386,555
-293.85746701590574,552
-291.3053628377552,582
-288.7539642294155,600
-286.2032710037115,647
-283.65328297338897,694
-281.1039999511146,655
-278.5554217494762,690
-276.007548180983,650
-273.4603790580651,612
-270.9139141930734,643
-268.3681533982807,627
-265.8230964858798,618
-263.27874326798565,614
-260.7350935566336,673
-258.1921471637804,680
-255.6499039013039,803
-253.10836358100266,773
-250.56752601459698,681
-248.02739101372765,700
-245.48795838995704,755
-242.94922795476816,808
-240.41119951956557,744
-237.8738728956746,834
-235.33724789434166,936
-232.80132432673452,920
-230.2661020039418,918
-227.73158073697357,911
-225.19776033676033,770
-222.66464061415422,772
-220.1322213799284,734
-217.60050244477725,818
-215.06948361931552,852
-212.53916471408013,798
-210.00954553952818,790
-207.48062590603843,862
-204.9524056239104,850
-202.4248845033651,783
-199.8980623545441,746
-197.37193898751036,758
-194.84651421224817,769
-192.32178783866232,827
-189.79775967657952,927
-187.27442953574644,901
-184.7517972258321,914
-182.2298625564256,875
-179.7086253370378,976
-177.18808537710026,1058
-174.66824248596583,950
-172.14909647290835,961
-169.6306471471229,950
-167.11289431772548,939
-164.59583779375328,932
-162.07947738416453,1037
-159.5638128978386,937
-157.04884414357605,1026
-154.53457093009854,1162
-152.02099306604828,1077
-149.50811035998936,1021
-146.99592262040665,1014
-144.48442965570587,1029
-141.97363127421409,1081
-139.46352728417958,1140
-136.95411749377126,1231
-134.44540171107985,1358
-131.93737974411636,1404
-129.43005140081357,1380
-126.92341648902493,1404
-124.41747481652521,1502
-121.91222619101006,1294
-119.40767042009657,1167
-116.90380731132257,1104
-114.40063667214702,1199
-111.8981583099503,1505
-109.3963720320337,1464
-106.89527764561933,1328
-104.39487495785067,1360
-101.89516377579241,1553
-99.39614390642998,1661
-96.89781515667039,1559
-94.40017733334128,1608
-91.90323024319173,1718
-89.40697369289148,1636
-86.91140748903172,1601
-84.41653143812482,1483
-81.92234534660395,1743
-79.42884902082358,1862
-76.93604226705907,1770
-74.4439248915071,1789
-71.95249670028534,1927
-69.46175749943245,2110
-66.97170709490854,1950
-64.48234529259423,2392
-61.99367189829195,2622
-59.50568671772464,2625
-57.01838955653636,2761
-54.53178022029283,2924
-52.045858514480074,2974
-49.560624244506016,3240
-47.07607721569923,3034
-44.59221723330904,3253
-42.10904410250669,3233
-39.62655762838392,3676
-37.14475761595372,4189
-34.66364387015028,4958
-32.18321619582866,5330
-29.70347439776515,5516
-27.224418280657005,7517
-24.74604764912317,10857
-22.26836230770266,14484
-19.7913620608565,23582
-17.315046712966478,35148
-14.83941606833514,37777
-12.36446993118659,65038
-9.89020810566592,65038
-7.416630395839093,65038
-4.94373660569363,65038
-2.471526539137585,65038
-6.821210263296962E-13,65038
2.47084320796705,65038
4.941003281093458,65038
7.410480415786196,65038
9.879274808531363,65038
12.347386655893956,65038
14.814816154518212,65038
17.28156350112681,65038
19.74762889252179,65038
22.21301252558385,65038
24.67771459727237,39426
27.141735304626195,15599
29.605074844762612,10725
32.06773341487792,8372
34.52971121224755,6946
36.99100843422559,7109
39.45162527824516,10285
41.91156194181792,12144
44.370818622535126,16076
46.82939551806646,20866
49.287292826160524,16442
51.74451074464503,12951
54.201049471426245,9082
56.65690920448981,5093
59.112090141899785,3140
61.56659248179983,2897
64.02041642241159,2762
66.4735621620365,2313
68.92602989905402,2218
71.37781983192338,2126
73.82893215918205,2781
76.27936707944684,2538
78.72912479141326,2405
81.17820549385567,2551
83.62660938562783,2549
86.07433666566146,2397
88.5213875329681,2756
90.96776218663751,2319
93.41346082583925,1980
95.85848364982041,2300
98.30283085790859,1842
100.7465026495089,1706
103.18949922410604,2033
105.63182078126385,1649
108.07346752062438,1766
110.51443964190923,2227
112.95473734491827,2052
115.39436082953114,1728
117.83331029570547,1572
120.27158594347827,1643
122.7091879729652,1457
125.1461165843615,1402
127.58237197794062,1422
130.01795435405518,1303
132.4528639131364,1252
134.88710085569494,1490
137.32066538231982,1473
139.75355769367923,1400
142.1857779905207,1436
144.61732647366978,1371
147.04820334403132,1322
149.47840880258934,1507
151.90794305040674,1600
154.33680628862487,1736
156.76499871846443,1876
159.19252054122433,2115
161.61937195828352,2219
164.04555317109896,2268
166.47106438120693,2596
168.89590579022217,2931
171.320077599839,3090
173.7435800118302,3251
176.16641322804742,3372
178.58857745042144,3530
181.01007288096173,3705
183.43089972175687,3835
185.85105817497413,3818
188.27054844285988,4066
190.6893707277394,3864
193.10752523201643,4105
195.5250121581745,4306
197.9418317087751,4322
200.3579840864594,4320
202.7734694939469,4426
205.18828813403627,4543
207.6024402096051,4421
210.01592592360964,4536
212.42874547908548,4328
214.84089907914665,4243
217.2523869269868,4336
219.66320922587727,4348
222.0733661791695,4443
224.48285799029293,4419
226.8916848627572,4665
229.29984700014882,4642
231.7073446061355,4671
234.11417788446204,4641
236.520347038953,4677
238.92585227351185,4890
241.33069379212054,4914
243.73487179884035,4872
246.1383864978112,4897
248.541238093252,4850
250.9434267894609,4987
253.34495279081432,4785
255.74581630176783,4763
258.1460175268563,5008
260.54555667069314,5002
262.9444339379703,4898
265.3426495334594,4934
267.7402036620107,4779
270.1370965285529,4640
272.53332833809407,4629
274.9288992957214,4565
277.32380960660055,4415
279.718059475976,4295
282.1116491091717,4370
284.5045787115897,4473
286.89684848871195,4543
289.2884586460981,4451
291.67940938938807,4390
294.0697009242996,4381
296.4593334566299,4314
298.84830719225477,4397
301.23662233712923,4264
303.6242790972866,4438
306.01127767884,4397
308.39761828798066,4335
310.78330113097934,4265
313.16832641418534,4243
315.5526943440269,4154
317.9364051270112,4155
320.3194589697242,4169
322.70185607883093,4068
325.0835966610754,4046
327.4646809232805,3992
329.8451090723478,4161
332.2248813152577,4028
334.6039978590701,4105
336.9824589109231,4081
339.36026467803447,4122
341.7374153677,3989
344.113911187295,3985
346.48975234427337,3989
348.8649390461686,3938
351.2394715005918,4011
353.61334991523415,4022
355.9865744978655,3904
358.35914545633375,3954
360.73106299856715,3969
363.10232733257146,3931
365.47293866643247,3981
367.84289720831396,3963
370.2122031664593,3921
372.5808567491905,3883
374.9488581649083,3926
377.31620762209275,3820
379.6829053293021,3787
382.0489514951745,3871
384.4143463284262,3944
386.7790900378528,3755
389.14318283232853,3909
391.50662492080653,3896
393.86941651231916,3756
396.23155781597745,3733
398.5930490409713,3849
400.9538903965696,3815
403.3140820921202,3817
405.6736243370498,3760
408.03251734086336,3749
410.3907613131465,3710
412.74835646356166,3814
415.10530300185144,3746
417.4616011378372,3796
419.81725108141893,3823
422.1722530425758,3863
424.5266072313656,3837
426.880313857925,3771
429.2333731324701,3859
431.58578526529516,3777
433.9375504667738,3655
436.2886689473588,3896
438.63914091758113,3780
440.9889665880513,3770
443.33814616945835,3764
445.68667987257015,3748
448.03456790823395,3688
450.3818104873759,3690
452.72840782100013,3734
455.07436012019105,3739
457.41966759611057,3799
459.7643304600007,3730
462.10834892318155,3746
464.4517231970525,3736
466.79445349309174,3638
469.1365400228566,3765
471.4779829979826,3776
473.81878263018564,3771
476.15893913125876,3739
478.4984527130747,3809
480.8373235875855,3880
483.17555196682144,3895
485.5131380628919,3938
487.8500820879857,3952
490.1863842543697,4145
492.52204477439034,4223
494.8570638604725,4433
497.1914417251204,4747
499.52517858091653,5004
501.85827464052306,5153
504.19073011668036,5194
506.5225452222086,5243
508.85372017000566,5111
511.18425517304956,5088
513.514150444396,5255
515.8434061971808,5634
518.1720226446176,6034
520.4999999999999,6439
522.8273384766991,6652
525.1540382881666,6837
527.480099647932,6794
529.8055227696037,6050
532.1303078668694,4898
534.454455153496,4190
536.777964843328,3919
539.1008371502907,3806
541.4230722883866,3770
543.744670471698,3640
546.0656319143858,3708
548.3859568306899,3595
550.7056454349294,3634
553.0246979415016,3617
555.3431145648834,3550
557.6608955196306,3577
559.978041020377,3482
562.2945512818363,3512
564.6104265188006,3490
566.9256669461412,3675
569.2402727788082,3607
571.5542442318302,3565
573.8675815203156,3547
576.1802848594508,3595
578.4923544645015,3611
580.8037905508126,3618
583.114593333807,3586
585.4247630289875,3483
587.7342998519354,3596
590.0432040183106,3574
592.3514757438526,3703
594.6591152443794,3619
596.9661227357875,3663
599.2724984340531,3563
601.578242555231,3576
603.8833553154542,3553
606.1878369309362,3526
608.4916876179676,3695
610.7949075929192,3682
613.0974970722403,3574
615.3994562724587,3616
617.7007854101818,3587
620.0014847020951,3662
622.3015543649641,3637
624.6009946156324,3582
626.8998056710224,3570
629.1979877481361,3605
631.4955410640538,3573
633.7924658359349,3605
636.0887622810175,3617
638.3844306166192,3528
640.6794710601358,3613
642.9738838290426,3637
645.2676691408932,3623
647.5608272133207,3655
649.853358264037,3702
652.1452625108324,3581
654.4365401715764,3615
656.7271914642178,3679
659.0172166067838,3636
661.3066158173809,3652
663.5953893141935,3666
665.8835373154867,3701
668.1710600396028,3699
670.4579577049639,3658
672.7442305300709,3739
675.0298787335033,3597
677.3149025339197,3636
679.599302150058,3712
681.8830778007342,3612
684.1662297048437,3699
686.4487580813608,3720
688.7306631493387,3607
691.0119451279091,3630
693.2926042362834,3590
695.5726406937516,3746
697.8520547196814,3712
700.1308465335215,3592
702.4090163547982,3668
704.6865644031171,3627
706.9634908981619,3633
709.2397960596965,3632
711.5154801075631,3577
713.7905432616823,3676
716.0649857420548,3656
718.3388077687592,3684
720.612009561953,3664
722.8845913418733,3583
725.1565533288352,3718
727.427895743234,3671
729.6986188055427,3588
731.9687227363137,3679
734.238207756178,3671
736.5070740858458,3680
738.7753219461066,3639
741.0429515578281,3612
743.3099631419569,3545
745.5763569195191,3593
747.8421331116193,3704
750.1072919394409,3608
752.3718336242467,3593
754.6357583873777,3601
756.8990664502545,3612
759.1617580343765,3613
761.423833361321,3559
763.6852926527457,3567
765.9461361303862,3605
768.206364016058,3626
770.4659765316536,3537
772.7249738991469,3724
774.9833563405886,3583
777.2411240781092,3600
779.4982773339183,3641
781.7548163303044,3666
784.010741289634,3656
786.2660524343538,3759
788.5207499869881,3776
790.7748341701416,3678
793.0283052064964,3747
795.2811633188143,3635
797.5334087299362,3590
799.7850416627813,3669
802.0360623403484,3635
804.2864709857143,3709
806.5362678220353,3608
808.7854530725468,3690
811.0340269605625,3611
813.2819897094754,3647
815.5293415427581,3714
817.77608268396,3705
820.0222133567116,3636
822.2677337847211,3645
824.5126441917765,3651
826.7569448017433,3666
829.0006358385675,3670
831.2437175262731,3715
833.4861900889629,3605
835.7280537508192,3678
837.9693087361026,3749
840.2099552691533,3679
842.4499935743896,3646
844.689423876309,3591
846.9282463994886,3598
849.1664613685833,3607
851.4040690083276,3646
853.6410695435349,3679
855.877463199097,3757
858.1132501999847,3803
860.3484307712487,3596
862.5830051380175,3687
864.8169735254988,3608
867.0503361589791,3727
869.2830932638243,3701
871.5152450654786,3676
873.7467917894654,3717
875.9777336613873,3703
878.2080709069252,3751
880.4378037518389,3656
882.666932421968,3692
884.8954571432301,3620
887.1233781416219,3707
889.3506956432192,3729
891.5774098741766,3858
893.803521060728,3720
896.0290294291852,3805
898.2539352059397,3685
900.4782386174619,3795
902.7019398903011,3770
904.925039251085,3681
907.147536926521,3609
909.3694331433943,3621
911.59072812857,3717
913.8114221089921,3711
916.0315153116827,3728
918.2510079637437,3667
920.4699002923547,3631
922.6881925247761,3593
924.905884888345,3644
927.1229776104793,3704
929.3394709186747,3608
931.555365040506,3725
933.7706602036275,3668
935.9853566357709,3561
938.1994545647489,3648
940.4129542184515,3630
942.6258558248488,3683
944.8381596119883,3737
947.0498658079974,3523
949.2609746410825,3586
951.4714863395287,3632
953.6814011316998,3643
955.8907192460387,3598
958.0994409110671,3622
960.3075663553858,3733
962.5150958076741,3693
964.7220294966913,3708
966.928367651274,3437
969.1341105003388,3636
971.3392582728806,3607
973.5438111979742,3690
975.747769504772,3609
977.9511334225061,3553
980.153903180487,3631
982.3560790081052,3513
984.5576611348289,3511
986.7586497902058,3608
988.9590452038618,3475
991.158847605503,3528
993.3580572249133,3495
995.5566742919558,3437
997.7546990365728,3466
999.952131688785,3491
1002.1489724786926,3533
1004.3452216364743,3299
1006.5408793923874,3341
1008.7359459767691,3385
1010.9304216200343,3402
1013.1243065526781,3334
1015.3176010052733,3295
1017.510305208472,3361
1019.7024193930064,3241
1021.8939437896848,3339
1024.0848786293977,3252
1026.2752241431122,3236
1028.4649805618747,3249
1030.6541481168115,3252
1032.842727039127,3284
1035.0307175601051,3266
1037.2181199111074,3251
1039.4049343235752,3295
1041.591161029029,3218
1043.7768002590683,3298
1045.9618522453698,3284
1048.1463172196918,3313
1050.3301954138697,3353
1052.513487059818,3328
1054.69619238953,3256
1056.8783116350783,3202
1059.0598450286152,3335
1061.2407928023704,3252
1063.4211551886528,3213
1065.6009324198508,3155
1067.780124728432,3266
1069.9587323469414,3253
1072.1367555080046,3257
1074.314194444325,3308
1076.4910493886855,3242
1078.667320573947,3205
1080.843008233051,3284
1083.0181125990161,3263
1085.1926339049414,3280
1087.3665723840027,3272
1089.5399282694575,3198
1091.7127017946405,3197
1093.8848931929647,3201
1096.0565026979243,3173
1098.2275305430899,3088
1100.3979769621128,3135
1102.567842188722,3131
1104.737126456726,3112
1106.9058300000124,3134
1109.0739530525475,3055
1111.2414958483764,3149
1113.4084586216231,3125
1115.5748416064907,3246
1117.7406450372605,3228
1119.9058691482942,3123
1122.0705141740304,3245
1124.2345803489884,3147
1126.3980679077658,3172
1128.5609770850388,3127
1130.7233081155623,3176
1132.8850612341707,3163
1135.0462366757774,3090
1137.2068346753745,3209
1139.3668554680326,3178
1141.526299288901,3189
1143.68516637321,3170
1145.8434569562655,3139
1148.001171273455,3212
1150.158309560244,3132
1152.3148720521767,3134
1154.470858984876,3186
1156.626270594044,3171
1158.7811071154629,3116
1160.9353687849912,3124
1163.089055838569,3152
1165.242168512213,3141
1167.3947070420209,3187
1169.5466716641677,3100
1171.6980626149075,3131
1173.8488801305748,3178
1175.9991244475814,3180
1178.1487958024186,3082
1180.2978944316555,3113
1182.4464205719428,3187
1184.5943744600072,3155
1186.7417563326567,3216
1188.8885664267755,3087
1191.0348049793297,3052
1193.1804722273619,3201
1195.325568407995,3164
1197.4700937584303,3189
1199.614048515948,3144
1201.7574329179074,3107
1203.900247201746,3106
1206.042491604982,3071
1208.1841663652099,3143
1210.3252717201053,3161
1212.465807907422,3125
1214.6057751649923,3145
1216.7451737307279,3176
1218.8840038426192,3154
1221.0222657387353,3179
1223.1599596572241,3109
1225.2970858363137,3095
1227.4336445143094,3191
1229.5696359295966,3183
1231.705060320639,3131
1233.8399179259786,3047
1235.9742089842384,3180
1238.107933734118,3156
1240.2410924143974,3161
1242.373685263935,3141
1244.5057125216676,3202
1246.6371744266116,3238
1248.7680712178621,3206
1250.898403134593,3220
1253.028170416058,3202
1255.1573733015875,3151
1257.2860120305932,3099
1259.4140868425648,3217
1261.54159797707,3149
1263.6685456737569,3117
1265.7949301723515,3087
1267.9207517126597,3199
1270.046010534565,3081
1272.1707068780306,3202
1274.2948409830983,3232
1276.4184130898889,3254
1278.541423438603,3220
1280.6638722695184,3228
1282.785759822993,3153
1284.9070863394636,3246
1287.0278520594447,3244
1289.1480572235314,3179
1291.2677020723963,3244
1293.3867868467923,3260
1295.5053117875495,3235
1297.623277135579,3274
1299.740683131868,3155
1301.8575300174857,3264
1303.973818033578,3326
1306.0895474213703,3326
1308.2047184221678,3359
1310.3193312773528,3264
1312.4333862283888,3330
1314.5468835168163,3346
1316.659823384255,3354
1318.7722060724045,3325
1320.8840318230418,3355
1322.9953008780249,3285
1325.1060134792888,3267
1327.2161698688478,3298
1329.3257702887959,3361
1331.4348149813054,3368
1333.5433041886276,3285
1335.6512381530933,3315
1337.7586171171101,3234
1339.8654413231675,3282
1341.9717110138317,3200
1344.0774264317488,3288
1346.1825878196432,3155
1348.2871954203192,3195
1350.3912494766587,3250
1352.4947502316231,3228
1354.5976979282532,3284
1356.7000928096686,3321
1358.8019351190665,3234
1360.9032250997243,3181
1363.0039629949988,3253
1365.1041490483235,3277
1367.2037835032133,3346
1369.3028666032606,3195
1371.401398592137,3291
1373.4993797135926,3185
1375.5968102114575,3312
1377.6936903296396,3281
1379.7900203121262,3279
1381.8858004029835,3269
1383.9810308463561,3268
1386.075711886469,3293
1388.1698437676241,3271
1390.2634267342032,3440
1392.356461030667,3291
1394.4489469015557,3271
1396.5408845914872,3348
1398.6322743451592,3404
1400.7231164073469,3263
1402.813411022907,3291
1404.903158436773,3223
1406.9923588939578,3357
1409.0810126395531,3386
1411.1691199187303,3356
1413.2566809767386,3211
1415.343696058907,3305
1417.4301654106425,3208
1419.5160892774315,3346
1421.6014679048399,3305
1423.6863015385125,3378
1425.7705904241707,3280
1427.8543348076178,3382
1429.9375349347342,3397
1432.0201910514802,3238
1434.102303403894,3330
1436.1838722380944,3371
1438.2648978002767,3360
1440.3453803367174,3350
1442.4253200937692,3508
1444.5047173178677,3326
1446.5835722555234,3433
1448.6618851533285,3538
1450.739656257952,3439
1452.8168858161434,3514
1454.8935740747306,3447
1456.96972128062,3553
1459.045327680797,3560
1461.120393522327,3486
1463.1949190523528,3595
1465.2689045180973,3636
1467.3423501668608,3665
1469.415256246024,3688
1471.4876230030463,3724
1473.559450685465,3782
1475.6307395408976,3803
1477.7014898170391,3868
1479.771701761665,3904
1481.8413756226287,3770
1483.9105116478618,3813
1485.9791100853772,3973
1488.0471711832643,3884
1490.1146951896926,3871
1492.1816823529098,3907
1494.2481329212433,4008
1496.3140471430984,4083
1498.3794252669609,4066
1500.4442675413939,4094
1502.5085742150404,4036
1504.572345536622,4100
1506.6355817549388,4195
1508.6982831188702,4147
1510.7604498773744,4169
1512.8220822794883,4111
1514.8831805743293,4164
1516.9437450110909,4131
1519.003775839048,4260
1521.0632733075522,4294
1523.1222376660367,4257
1525.1806691640113,4318
1527.2385680510652,4362
1529.2959345768668,4299
1531.3527689911643,4334
1533.4090715437833,4419
1535.4648424846291,4486
1537.5200820636855,4426
1539.5747905310159,4565
1541.6289681367616,4594
1543.6826151311434,4475
1545.7357317644614,4591
1547.7883182870937,4610
1549.8403749494987,4604
1551.8919020022113,4714
1553.9428996958477,4715
1555.9933682811015,4678
1558.0433080087469,4740
1560.0927191296346,4853
1562.1416018946961,4832
1564.1899565549415,4862
1566.2377833614592,4844
1568.2850825654164,5015
1570.3318544180606,4776
1572.3780991707158,4659
1574.423817074788,4655
1576.4690083817595,4506
1578.5136733431923,4364
1580.5578122107272,4428
1582.601425236085,4264
1584.6445126710646,4014
1586.6870747675434,4052
1588.7291117774776,3908
1590.7706239529034,3888
1592.8116115459347,3766
1594.8520748087658,3802
1596.8920139936686,3581
1598.9314293529933,3654
1600.9703211391711,3614
1603.008689604711,3575
1605.0465350022005,3468
1607.0838575843068,3430
1609.1206576037753,3450
1611.1569353134305,3417
1613.1926909661765,3307
1615.2279248149953,3354
1617.2626371129481,3399
1619.2968281131757,3332
1621.3304980688963,3318
1623.3636472334088,3297
1625.39627586009,3281
1627.428384202396,3368
1629.459972513861,3297
1631.4910410480993,3249
1633.5215900588028,3201
1635.551619799744,3266
1637.5811305247717,3176
1639.6101224878166,3119
1641.6385959428862,3217
1643.6665511440683,3220
1645.693988345528,3204
1647.7209078015112,3095
1649.7473097663405,3145
1651.7731944944203,3107
1653.7985622402307,3203
1655.823413258333,3186
1657.847747803366,3152
1659.8715661300494,3170
1661.8948684931793,3128
1663.9176551476316,3072
1665.9399263483624,3191
1667.9616823504057,3174
1669.982923408873,3138
1672.0036497789574,3106
1674.0238617159293,3122
1676.043559475138,3137
1678.0627433120121,3142
1680.081413482059,3076
1682.0995702408654,3199
1684.117213844096,3130
1686.134344547495,3073
1688.1509626068864,3034
1690.1670682781705,3159
1692.182661817329,3087
1694.1977434804217,3113
1696.2123135235875,3074
1698.226372203043,3096
1700.2399197750851,3131
1702.2529564960905,3097
1704.2654826225112,3030
1706.277498410882,3163
1708.2890041178139,3183
1710.2999999999988,3146
1712.3104863142066,3135
1714.3204633172854,3090
1716.329931266163,3097
1718.3388904178469,3138
1720.3473410294214,3130
1722.3552833580516,3134
1724.3627176609807,3189
1726.3696441955308,3107
1728.3760632191033,3069
1730.3819749891782,3135
1732.3873797633146,3119
1734.3922777991502,3151
1736.3966693544012,3093
1738.4005546868639,3114
1740.4039340544127,3027
1742.406807715001,3114
1744.4091759266616,3121
1746.4110389475054,3070
1748.4123970357223,3034
1750.413250449582,3138
1752.4135994474318,3075
1754.4134442876993,3033
1756.4127852288902,3043
1758.4116225295893,3121
1760.4099564484595,3052
1762.407787244244,3044
1764.405115175764,3103
1766.4019405019203,2982
1768.3982634816916,3048
1770.3940843741357,2970
1772.3894034383907,3021
1774.3842209336717,2989
1776.378537119274,3005
1778.372352254571,3014
1780.3656665990156,2997
1782.3584804121397,2964
1784.3507939535534,2969
1786.3426074829463,3030
1788.3339212600863,2972
1790.3247355448211,2943
1792.3150505970766,3028
1794.3048666768573,3065
1796.2941840442477,3109
1798.2830029594106,2994
1800.2713236825884,3059
1802.2591464741004,3089
1804.2464715943465,3038
1806.2332993038058,3100
1808.2196298630352,3134
1810.2054635326708,3121
1812.190800573428,2987
1814.175641246101,3036
1816.1599858115628,3075
1818.1438345307652,3004
1820.127187664738,3032
1822.1100454745924,3073
1824.092408221516,3109
1826.0742761667766,2995
1828.055649571721,2997
1830.0365286977735,3100
1832.0169138064398,3031
1833.9968051593014,2949
1835.9762030180214,3077
1837.9551076443408,2987
1839.9335193000788,3023
1841.9114382471344,3014
1843.888864747485,3002
1845.8657990631878,3005
1847.842241456378,2997
1849.8181921892697,2947
1851.7936515241558,2916
1853.7686197234098,3047
1855.7430970494815,3004
1857.7170837649014,3060
1859.6905801322787,3124
1861.6635864143004,2970
1863.6361028737338,2997
1865.608129773424,3008
1867.5796673762961,3069
1869.5507159453537,2983
1871.521275743678,3027
1873.4913470344313,3078
1875.4609300808534,3072
1877.4300251462632,3077
1879.3986324940588,3103
1881.366752387717,3004
1883.3343850907936,3049
1885.3015308669228,3053
1887.268189979819,3021
1889.2343626932739,3110
1891.2000492711595,3133
1893.1652499774254,3056
1895.1299650761011,3102
1897.0941948312952,3046
1899.0579395071945,3081
1901.0211993680641,3053
1902.98397467825,3106
1904.9462657021745,3054
1906.9080727043415,3120
1908.869395949332,3007
1910.8302357018065,3161
1912.790592226504,3032
1914.7504657882428,3068
1916.7098566519212,3084
1918.6687650825133,3113
1920.6271913450764,3136
1922.5851357047422,3089
1924.5425984267245,3111
1926.499579776314,3047
1928.4560800188833,3092
1930.4120994198802,3128
1932.367638244833,3097
1934.32269675935,3074
1936.2772752291175,3087
1938.231373919899,3059
1940.1849930975404,3014
1942.1381330279637,3065
1944.0907939771696,3092
1946.0429762112412,3062
1947.9946799963363,3111
1949.9459055986945,3120
1951.896653284633,3057
1953.8469233205478,3049
1955.7967159729142,3070
1957.7460315082863,3050
1959.6948701932974,3076
1961.6432322946594,3051
1963.5911180791632,3028
1965.5385278136787,3097
1967.4854617651545,3037
1969.4319202006182,3071
1971.377903387176,3027
1973.3234115920136,3008
1975.268445082395,3014
1977.2130041256642,3112
1979.1570889892423,3091
1981.1006999406304,3124
1983.04383724741,3034
1984.986501177238,3103
1986.928691997853,3043
1988.8704099770712,2980
1990.811655382789,3082
1992.7524284829801,3058
1994.692729545698,3063
1996.6325588390755,3114
1998.5719166313224,3071
2000.5108031907307,2983
2002.4492187856677,2962
2004.387163684583,2979
2006.3246381560011,2980
2008.2616424685298,2936
2010.1981768908527,3018
2012.1342416917332,3037
2014.069837140014,3009
2016.0049635046162,3126
2017.9396210545406,2958
2019.8738100588666,3015
2021.8075307867502,2945
2023.740783507431,3013
2025.6735684902228,3068
2027.6058860045214,3018
2029.5377363198004,3088
2031.4691197056118,3044
2033.4000364315875,3044
2035.3304867674374,2988
2037.260470982952,3069
2039.189989347998,2976
2041.1190421325232,3040
2043.047629606554,3049
2044.9757520401945,3102
2046.9034097036288,3060
2048.8306028671195,3005
2050.7573318010086,2936
2052.683596775716,3103
2054.609398061742,2954
2056.5347359296647,3040
2058.4596106501403,3002
2060.384022493906,3027
2062.3079717317764,2955
2064.231458634646,3016
2066.1544834734873,3080
2068.077046519352,3075
2069.99914804337,3066
2071.9207883167524,3074
2073.8419676107865,2949
2075.7626861968406,3069
2077.6829443463607,3061
2079.6027423308715,3035
2081.522080421977,3037
2083.440958891362,3017
2085.359378010786,3041
2087.2773380520907,3027
2089.194839287196,3081
2091.111881988101,3004
2093.0284664268825,2984
2094.9445928756973,3056
2096.86026160678,3048
2098.775472892446,3019
2100.690227005088,3077
2102.604524217178,3117
2104.5183648012676,3010
2106.431749029985,3052
2108.34467717604,2962
2110.2571495122206,3088
2112.169166311393,3057
2114.080727846503,3003
2115.9918343905747,3061
2117.902486216711,2991
2119.8126835980956,3066
2121.722426807987,3076
2123.6317161197285,3007
2125.5405518067364,3009
2127.448934142509,3067
2129.356863400624,2998
2131.264339854737,2961
2133.1713637785815,3037
2135.077935445972,3092
2136.9840551308002,3080
2138.889723107037,3063
2140.7949396487334,3066
2142.699705030018,3125
2144.6040195250994,3215
2146.507883408264,3055
2148.4112969538774,3013
2150.3142604363848,3038
2152.2167741303097,2999
2154.1188383102535,3035
2156.0204532508997,3103
2157.9216192270064,2969
2159.822336513414,3061
2161.7226053850413,2981
2163.622426116884,3057
2165.5217989840185,3019
2167.4207242616,3051
2169.319202224862,3060
2171.2172331491165,3108
2173.1148173097563,2958
2175.0119549822507,2946
2176.90864644215,3033
2178.8048919650823,3032
2180.7006918267534,3055
2182.596046302952,3103
2184.4909556695407,3009
2186.3854202024645,2944
2188.279440177746,3040
2190.173015871487,3030
2192.066147559868,2921
2193.958835519149,2986
2195.851080025667,3087
2197.7428813558417,3038
2199.6342397861667,3051
2201.5251555932186,3090
2203.415629053651,3084
2205.3056604441986,3115
2207.19525004167,3055
2209.084398122958,3031
2210.9731049650327,2945
2212.861370844941,3090
2214.749196039812,3066
2216.636580826851,3059
2218.523525483344,3046
2220.410030286655,3054
2222.296095514226,3085
2224.1817214435805,3091
2226.066908352319,3072
2227.951656518121,3082
2229.835966218746,3120
2231.71983773203,3055
2233.6032713358913,3085
2235.486267308324,3018
2237.3688259274036,3085
2239.2509474712824,3024
2241.132632218193,3156
2243.013880446447,3076
2244.8946924344323,3132
2246.7750684606203,3120
2248.6550088035574,2997
2250.534513741871,3111
2252.413583554265,3058
2254.292218519526,2993
2256.170418916517,2999
2258.0481850241786,3032
2259.925517121534,3001
2261.8024154876825,3060
2263.678880401803,3023
2265.5549121431536,3067
2267.430510991071,3123
2269.305677224971,3009
2271.180411124348,3072
2273.0547129687766,3063
2274.9285830379076,3117
2276.8020216114737,3095
2278.6750289692845,3018
2280.5476053912294,3090
2282.4197511572766,3045
2284.2914665474727,3096
2286.162751841943,3099
2288.0336073208937,3044
2289.904033264608,3125
2291.774029953448,3169
2293.6435976678554,2937
2295.5127366883517,3122
2297.381447295534,3056
2299.2497297700825,3043
2301.1175843927526,3116
2302.9850114443825,3115
2304.852011205885,3122
2306.7185839582553,3041
2308.5847299825664,3065
2310.4504495599676,3048
2312.3157429716925,3124
2314.1806104990483,3142
2316.0450524234247,3068
2317.9090690262888,3102
2319.772660589186,3110
2321.635827393742,3070
2323.498569721661,3153
2325.3608878547248,3202
2327.2227820747967,3079
2329.0842526638157,3111
2330.945299903803,3063
2332.805924076857,3170
2334.6661254651535,3171
2336.525904350951,3162
2338.3852610165827,3123
2340.244195744464,3231
2342.102708817088,3148
2343.9608005170253,3110
2345.8184711269287,3067
2347.675720929526,3137
2349.532550207628,3053
2351.38895924412,3117
2353.24494832197,3093
2355.100517724223,3092
2356.955667734004,3157
2358.810398634514,3129
2360.664710709037,3075
2362.5186042409337,3089
2364.3720795136437,3135
2366.225136810686,3178
2368.0777764156583,3194
2369.929998612237,3161
2371.7818036841777,3157
2373.633191915315,3068
2375.484163589562,3267
2377.3347189909114,3158
2379.184858403434,3058
2381.03458211128,3139
2382.8838903986775,3112
2384.732783549936,3157
2386.5812618494406,3125
2388.4293255816588,3196
2390.2769750311327,3168
2392.1242104824883,3050
2393.971032220427,3250
2395.8174405297295,3212
2397.6634356952563,3142
2399.509018001947,3178
2401.3541877348193,3162
2403.1989451789705,3134
2405.043290619576,3148
2406.8872243418905,3261
2408.730746631247,3146
2410.5738577730594,3235
2412.4165580528183,3104
2414.258847756095,3123
2416.100727168537,3227
2417.9421965758734,3110
2419.783256263912,3138
2421.623906518538,3167
2423.4641476257157,3147
2425.303979871491,3234
2427.143403541984,3172
2428.9824189233977,3094
2430.821026302012,3181
2432.6592259641866,3195
2434.497018196361,3213
2436.33440328505,3221
2438.171381516851,3186
2440.00795317844,3263
2441.844118556569,3212
2443.6798779380724,3169
2445.5152316098606,3146
2447.3501798589255,3099
2449.1847229723357,3194
2451.0188612372403,3211
2452.8525949408663,3190
2454.6859243705203,3167
2456.518849813587,3169
2458.3513715575314,3152
2460.183489889895,3088
2462.015205098301,3219
2463.8465174704493,3238
2465.67742729412,3213
2467.5079348571717,3222
2469.338040447542,3094
2471.1677443532476,3216
2472.9970468623833,3165
2474.825948263123,3114
2476.6544488437207,3136
2478.482548892508,3125
2480.310248697896,3161
2482.137548548374,3134
2483.9644487325118,3183
2485.790949538956,3244
2487.617051256433,3206
2489.44275417375,3139
2491.26805857979,3180
2493.0929647635157,3206
2494.917473013971,3174
2496.741583620276,3229
2498.5652968716304,3193
2500.3886130573137,3255
2502.2115324666834,3197
2504.0340553891765,3205
2505.856182114308,3276
2507.6779129316733,3197
2509.499248130945,3246
2511.3201880018764,3300
2513.140732834298,3258
2514.9608829181198,3208
2516.780638543331,3209
2518.6,3176
2520.418967578273,3181
2522.237541568376,3229
2524.0557222606144,3199
2525.8735099453706,3263
2527.6909049131086,3363
2529.507907454368,3232
2531.32451785977,3296
2533.140736420014,3196
2534.9565634258774,3246
2536.771999168218,3313
2538.5870439379714,3345
2540.4016980261526,3300
2542.2159617238544,3309
2544.02983532225,3248
2545.8433191125914,3218
2547.656413386209,3358
2549.4691184345115,3306
2551.2814345489874,3300
2553.093362021204,3323
2554.904901142808,3382
2556.716052205523,3353
2558.526815501153,3328
2560.3371913215824,3398
2562.147179958771,3377
2563.956781704761,3345
2565.7659968516705,3275
2567.5748256916986,3427
2569.3832685171224,3333
2571.1913256202984,3326
2572.9989972936614,3358
2574.806283829725,3243
2576.613185521084,3398
2578.4197026604074,3353
2580.2258355404483,3481
2582.031584454035,3426
2583.836949694077,3334
2585.6419315535613,3322
2587.4465303255533,3326
2589.2507463032002,3407
2591.0545797797245,3445
2592.8580310484303,3389
2594.6611004026995,3475
2596.463788135992,3452
2598.266094541849,3325
2600.0680199138874,3477
2601.869564545807,3334
2603.670728731383,3342
2605.4715127644704,3492
2607.2719169390048,3439
2609.071941548998,3445
2610.8715868885433,3361
2612.670853251811,3458
2614.469740933052,3441
2616.268250226594,3381
2618.0663814268455,3469
2619.864134828292,3513
2621.6615107255006,3461
2623.458509413115,3413
2625.2551311858597,3424
2627.0513763385347,3380
2628.8472451660223,3371
2630.6427379632833,3335
2632.4378550253564,3375
2634.232596647359,3263
2636.026963124488,3347
2637.8209547520187,3409
2639.6145718253065,3327
2641.407814639785,3311
2643.200683490966,3388
2644.9931786744414,3382
2646.7853004858807,3309
2648.577049221034,3279
2650.3684251757277,3322
2652.1594286458712,3352
2653.9500599274484,3340
2655.740319316525,3227
2657.5302071092437,3362
2659.3197236018286,3300
2661.10886909058,3272
2662.8976438718782,3387
2664.686048242183,3232
2666.4740824980327,3326
2668.2617469360443,3212
2670.0490418529134,3303
2671.8359675454153,3300
2673.622524310403,3263
2675.408712444811,3249
2677.1945322456495,3280
2678.979984010009,3237
2680.76506803506,3308
2682.5497846180497,3219
2684.334134056306,3266
2686.1181166472343,3282
2687.9017326883213,3270
2689.6849824771293,3195
2691.4678663113013,3265
2693.2503844885596,3196
2695.032537306705,3196
2696.8143250636167,3129
2698.5957480572542,3123
2700.3768065856534,3261
2702.1575009469316,3253
2703.937831439283,3205
2705.717798360982,3200
2707.4974020103837,3143
2709.276642685917,3166
2711.055520686095,3117
2712.834036309506,3172
2714.612189854819,3127
2716.389981620782,3157
2718.1674119062204,3137
2719.944481010041,3125
2721.721189231226,3117
2723.4975368688415,3231
2725.273524222027,3179
2727.0491515900053,3082
2728.824419272075,3069
2730.5993275676146,3145
2732.3738767760838,3118
2734.148067197016,3151
2735.921899130031,3194
2737.6953728748194,3165
2739.468488731156,3318
2741.2412469988926,3049
2743.0136479779617,3129
2744.785691968372,3150
2746.5573792702116,3123
2748.3287101836504,3177
2750.099685008934,3196
2751.870304046388,3143
2753.640567596418,3150
2755.4104759595057,3203
2757.1800294362156,3125
2758.949228327187,3173
2760.7180729331412,3127
2762.486563554877,3149
2764.254700493272,3111
2766.022484049284,3090
2767.789914523947,3218
2769.5569922183786,3174
2771.3237174337705,3195
2773.090090471394,3052
2774.8561116326036,3123
2776.6217812188274,3143
2778.3870995315756,3142
2780.1520668724356,3164
2781.9166835430747,3173
2783.6809498452394,3147
2785.444866080754,3132
2787.2084325515225,3106
2788.971649559527,3040
2790.73451740683,3226
2792.4970363955713,3129
2794.2592068279705,3160
2796.0210290063264,3228
2797.7825032330147,3230
2799.543629810493,3176
2801.304409041296,3176
2803.0648412280366,3183
2804.8249266734088,3085
2806.5846656801846,3178
2808.344058551212,3218
2810.1031055894246,3234
2811.8618070978273,3171
2813.6201633795085,3138
2815.378174737636,3230
2817.1358414754536,3236
2818.893163896285,3102
2820.6501423035334,3139
2822.4067770006814,3142
2824.1630682912883,3151
2825.9190164789957,3166
2827.6746218675207,3122
2829.429884760661,3199
2831.184805462294,3176
2832.9393842763743,3246
2834.693621506936,3275
2836.4475174580916,3194
2838.201072434034,3208
2839.954286739034,3217
2841.707160677441,3186
2843.459694553685,3234
2845.2118886722724,3243
2846.96374333779,3190
2848.7152588549034,3223
2850.4664355283567,3256
2852.217273662973,3122
2853.9677735636546,3267
2855.7179355353833,3144
2857.4677598832186,3216
2859.217246912299,3144
2860.9663969278427,3160
2862.715210235146,3141
2864.4636871395846,3177
2866.211827946614,3162
2867.9596329617652,3201
2869.7071024906536,3201
2871.4542368389684,3146
2873.20103631248,3219
2874.947501217038,3168
2876.6936318585695,3238
2878.4394285430812,3118
2880.1848915766604,3102
2881.9300212654707,3165
2883.6748179157553,3165
2885.4192818338374,3153
2887.1634133261173,3124
2888.907212699077,3068
2890.6506802592744,3177
2892.393816313348,3235
2894.1366211680142,3165
2895.8790951300693,3212
2897.621238506388,3221
2899.363051603925,3162
2901.1045347297118,3129
2902.8456881908596,3223
2904.58651229456,3207
2906.327007348081,3211
2908.067173658772,3141
2909.8070115340597,3099
2911.5465212814497,3211
2913.285703208527,3239
2915.0245576229563,3081
2916.7630848324807,3163
2918.5012851449196,3073
2920.2391588681758,3037
2921.976706310227,3114
2923.7139277791334,3058
2925.4508235830313,3133
2927.187394030137,3153
2928.923639428745,3139
2930.6595600872306,3163
2932.395156314046,3253
2934.1304284177218,3201
2935.8653767068713,3226
2937.6000014901815,3198
2939.3343030764227,3228
2941.068281774442,3229
2942.8019378931644,3194
2944.5352717415976,3146
2946.2682836288236,3199
2948.0009738640065,3220
2949.7333427563885,3209
2951.465390615289,3201
2953.1971177501086,3202
2954.9285244703265,3114
2956.6596110855,3150
2958.3903779052657,3225
2960.1208252393385,3198
2961.8509533975125,3126
2963.5807626896617,3172
2965.3102534257378,3127
2967.0394259157715,3197
2968.768280469873,3186
2970.496817398232,3183
2972.2250370111146,3264
2973.952939618869,3207
2975.6805255319196,3157
2977.4077950607707,3189
2979.134748516006,3278
2980.861386208289,3194
2982.587708448359,3223
2984.313715547037,3197
2986.039407815222,3154
2987.764785563891,3217
2989.489849104102,3187
2991.2145987469908,3267
2992.9390348037705,3166
2994.6631575857346,3231
2996.3869674042576,3240
2998.1104645707887,3161
2999.83364939686,3145
3001.5565221940783,3260
3003.2790832741334,3114
3005.0013329487924,3124
3006.7232715298996,3126
3008.4448993293804,3114
3010.166216659239,3127
3011.887223831558,3133
3013.607921158498,3207
3015.3283089522993,3158
3017.0483875252826,3130
3018.7681571898443,3219
3020.4876182584626,3128
3022.2067710436927,3160
3023.9256158581707,3178
3025.644153014609,3104
3027.362382825801,3094
3029.0803056046193,3188
3030.797921664012,3162
3032.5152313170106,3202
3034.2322348767225,3150
3035.9489326563353,3123
3037.665324969115,3210
3039.3814121284063,3186
3041.097194447633,3236
3042.812672240299,3195
3044.5278458199855,3139
3046.2427155003525,3083
3047.9572815951406,3112
3049.671544418167,3199
3051.38550428333,3141
3053.0991615046073,3183
3054.812516396051,3213
3056.5255692717974,3172
3058.2383204460575,3162
3059.9507702331257,3274
3061.662918947372,3230
3063.3747669032446,3164
3065.0863144152736,3182
3066.7975617980674,3254
3068.508509366309,3171
3070.219157434767,3264
3071.9295063182844,3250
3073.639556331785,3262
3075.3493077902704,3188
3077.058761008821,3119
3078.7679163025964,3110
3080.476773986837,3225
3082.1853343768594,3272
3083.89359778806,3305
3085.6015645359153,3235
3087.3092349359786,3210
3089.016609303884,3187
3090.7236879553434,3189
3092.4304712061476,3169
3094.136959372166,3170
3095.843152769349,3131
3097.5490517137237,3152
3099.2546565213966,3150
3100.959967508554,3196
3102.66498499146,3241
3104.3697092864577,3304
3106.0741407099695,3242
3107.778279578498,3322
3109.482126208622,3147
3111.1856809170004,3221
3112.8889440203716,3107
3114.5919158355528,3242
3116.294596679439,3228
3117.996986869006,3269
3119.6990867213062,3269
3121.4008965534726,3241
3123.102416682717,3266
3124.803647426329,3218
3126.5045891016784,3233
3128.205242026213,3227
3129.90560651746,3243
3131.605682893025,3187
3133.3054714705922,3275
3135.0049725679282,3224
3136.7041865028714,3219
3138.4031135933465,3245
3140.101754157353,3249
3141.800108512971,3206
3143.498176978357,3223
3145.1959598717494,3236
3146.8934575114636,3183
3148.5906702158954,3195
3150.2875983035183,3273
3151.9842420928853,3207
3153.680601902627,3234
3155.376678051456,3247
3157.07247085816,3170
3158.767980641609,3260
3160.463207720748,3218
3162.158152414606,3189
3163.8528150422862,3158
3165.5471959229726,3218
3167.2412953759303,3171
3168.9351137204976,3347
3170.628651276098,3219
3172.3219083622307,3222
3174.014885298474,3219
3175.707582404485,3329
3177.4000000000005,3253
3179.092138404835,3171
3180.7839979388846,3245
3182.47557892212,3304
3184.166881674594,3212
3185.8579065164386,3257
3187.5486537678626,3212
3189.2391237491547,3234
3190.9293167806827,3215
3192.6192331828934,3227
3194.3088732763117,3247
3195.998237381542,3207
3197.687325819268,3293
3199.376138910251,3248
3201.064676975334,3204
3202.7529403354347,3259
3204.4409293115523,3248
3206.1286442247647,3273
3207.816085396229,3213
3209.5032531471825,3159
3211.190147798936,3153
3212.8767696728846,3129
3214.5631190905015,3189
3216.2491963733373,3081
3217.9350018430214,3139
3219.6205358212637,3176
3221.305798629851,3150
3222.990790590651,3147
3224.6755120256103,3118
3226.359963256751,3189
3228.0441446061795,3073
3229.7280563960758,3137
3231.411698948703,3229
3233.0950725863995,3196
3234.778177631587,3195
3236.461014406761,3269
3238.1435832345005,3171
3239.8258844374595,3193
3241.507918338374,3197
3243.1896852600576,3286
3244.8711855254023,3231
3246.552419457381,3215
3248.233387379042,3219
3249.914089613516,3198
3251.59452648401,3219
3253.274698313813,3213
3254.95460542629,3143
3256.6342481448855,3172
3258.313626793125,3136
3259.9927416946084,3186
3261.6715931730196,3136
3263.3501815521176,3184
3265.0285071557437,3077
3266.706570307815,3157
3268.3843713323286,3136
3270.0619105533615,3160
3271.739188295068,3177
3273.4162048816834,3130
3275.0929606375184,3090
3276.769455886966,3160
3278.445690954498,3128
3280.1216661646613,3201
3281.797381842087,3207
3283.4728383114807,3161
3285.1480358976296,3186
3286.8229749253996,3189
3288.4976557197333,3203
3290.172078605655,3208
3291.846243908266,3216
3293.5201519527463,3138
3295.193803064357,3111
3296.8671975684374,3103
3298.5403357904024,3160
3300.21321805575,3135
3301.8858446900567,3146
3303.558216018975,3190
3305.23033236824,3226
3306.9021940636603,3151
3308.57380143113,3168
3310.2451547966184,3148
3311.916254486174,3227
3313.5871008259246,3166
3315.2576941420766,3152
3316.9280347609147,3279
3318.5981230088046,3146
3320.2679592121895,3200
3321.9375436975924,3155
3323.606876791612,3075
3325.27595882093,3174
3326.944790112305,3120
3328.6133709925753,3165
3330.2817017886573,3217
3331.949782827547,3094
3333.617614436319,3141
3335.2851969421245,3180
3336.952530672199,3162
3338.619615953853,3274
3340.286453114475,3223
3341.9530424815357,3224
3343.619384382583,3147
3345.2854791452437,3231
3346.951327097224,3217
3348.6169285663073,3197
3350.2822838803577,3216
3351.947393367319,3285
3353.61225735521,3214
3355.2768761721345,3193
3356.9412501462693,3202
3358.605379605873,3104
3360.2692648792827,3179
3361.9329062949146,3255
3363.596304181263,3202
