CollectionTime,6/26/2024 3:38:48 PM
ExposureUsed,3
CalibratedSpectrum
-962.7078968117929,1915
-959.9714848408522,2041
-957.2358232597828,2066
-954.5009119013725,2099
-951.7667505983302,2024
-949.0333391832855,2051
-946.3006774887896,1996
-943.5687653473143,2117
-940.837602591253,2195
-938.1071890529199,2073
-935.3775245645503,2167
-932.6486089583007,2082
-929.9204420662485,2102
-927.1930237203925,2071
-924.4663537526524,2119
-921.7404319948689,2001
-919.0152582788041,2080
-916.2908324361409,2131
-913.5671542984834,2108
-910.8442236973568,2087
-908.1220404642074,2076
-905.4006044304027,2087
-902.679915427231,2140
-899.959973285902,2129
-897.2407778375464,2120
-894.5223289132158,2066
-891.8046263438832,2130
-889.0876699604426,2075
-886.3714595937089,2069
-883.6559950744183,2086
-880.9412762332282,2028
-878.2273029007168,2119
-875.5140749073835,2029
-872.8015920836489,2128
-870.0898542598545,2032
-867.3788612662631,2026
-864.6686129330585,2107
-861.9591090903457,2066
-859.2503495681506,2092
-856.5423341964203,2041
-853.8350628050229,2112
-851.1285352237478,2068
-848.4227512823054,2051
-845.7177108103272,2143
-843.0134136373656,2056
-840.3098595928943,2132
-837.6070485063082,2078
-834.9049802069229,2055
-832.2036545239757,2090
-829.5030712866244,2183
-826.8032303239481,2167
-824.1041314649472,2045
-821.4057745385428,2024
-818.7081593735775,2121
-816.0112857988148,2114
-813.3151536429393,2139
-810.6197627345566,2066
-807.9251129021936,2033
-805.2312039742981,2066
-802.5380357792392,2115
-799.8456081453069,2101
-797.1539209007124,2096
-794.462973873588,2138
-791.772766891987,2064
-789.083299783884,2062
-786.3945723771743,2102
-783.7065844996748,2057
-781.0193359791231,2135
-778.3328266431781,2148
-775.6470563194197,2100
-772.9620248353489,2139
-770.2777320183878,2089
-767.5941776958798,1980
-764.9113616950891,2119
-762.2292838432011,2123
-759.5479439673222,2151
-756.8673418944801,2158
-754.1874774516235,2141
-751.5083504656222,2094
-748.8299607632671,2067
-746.15230817127,2082
-743.475392516264,2137
-740.7992136248035,2148
-738.1237713233636,2087
-735.4490654383407,2097
-732.7750957960521,2153
-730.1018622227365,2174
-727.4293645445534,2112
-724.7576025875837,2134
-722.0865761778291,2095
-719.4162851412126,2178
-716.7467293035781,2177
-714.0779084906909,2128
-711.409822528237,2130
-708.7424712418238,2162
-706.0758544569796,2135
-703.4099719991541,2232
-700.7448236937178,2148
-698.0804093659622,2224
-695.4167288411002,2191
-692.7537819442656,2208
-690.0915685005134,2186
-687.4300883348199,2172
-684.7693412720819,2251
-682.1093271371178,2177
-679.4500457546669,2132
-676.7914969493897,2198
-674.1336805458676,2168
-671.4765963686034,2202
-668.8202442420206,2160
-666.1646239904642,2246
-663.5097354382001,2330
-660.8555784094151,2197
-658.2021527282176,2209
-655.5494582186366,2277
-652.8974947046223,2211
-650.2462620100463,2175
-647.5957599587009,2185
-644.9459883742998,2241
-642.2969470804776,2261
-639.6486359007902,2276
-637.0010546587141,2328
-634.3542031776476,2277
-631.7080812809096,2247
-629.0626887917401,2215
-626.4180255333008,2260
-623.7740913286734,2296
-621.1308860008619,2293
-618.4884093727904,2297
-615.8466612673046,2173
-613.2056415071715,2127
-610.5653499150785,2264
-607.9257863136347,2268
-605.28695052537,2272
-602.6488423727357,2319
-600.0114616781036,2253
-597.3748082637674,2237
-594.7388819519412,2281
-592.1036825647604,2205
-589.4692099242818,2202
-586.8354638524829,2288
-584.2024441712624,2232
-581.5701507024403,2314
-578.9385832677575,2304
-576.3077416888759,2274
-573.6776257873787,2290
-571.0482353847704,2255
-568.4195703024757,2257
-565.7916303618415,2332
-563.164415384135,2294
-560.5379251905453,2250
-557.9121596021815,2345
-555.2871184400748,2336
-552.6628015251767,2299
-550.0392086783606,2272
-547.4163397204204,2186
-544.794194472071,2272
-542.1727727539491,2251
-539.5520743866118,2249
-536.9320991905377,2269
-534.3128469861261,2388
-531.6943175936979,2421
-529.0765108334947,2451
-526.4594265256793,2423
-523.8430644903358,2520
-521.2274245474689,2680
-518.612506517005,2826
-515.9983102187913,2927
-513.3848354725959,2999
-510.77208209810846,3127
-508.16004991493924,3164
-505.5487387426199,3312
-502.9381484006032,3484
-500.3282787082628,3479
-497.71912948489364,3419
-495.1107005497117,3498
-492.5029917218539,3362
-489.8960028203786,3206
-487.28973366426493,2973
-484.68418407241325,2770
-482.07935386364494,2653
-479.47524285670266,2683
-476.87185087025,2637
-474.2691777228715,2611
-471.66722323307334,2630
-469.0659872192821,2538
-466.4654694998459,2606
-463.86566989303384,2485
-461.26658821703614,2538
-458.66822428996414,2521
-456.07057792985,2538
-453.4736489546475,2514
-450.877437182231,2521
-448.28194243039627,2454
-445.68716451686,2410
-443.09310325926003,2501
-440.49975847515555,2378
-437.9071299820263,2356
-435.31521759727354,2367
-432.72402113821954,2397
-430.13354042210767,2417
-427.5437752661022,2455
-424.95472548728867,2486
-422.36639090267386,2599
-419.7787713291855,2485
-417.1918665836721,2527
-414.60567648290385,2455
-412.0202008435715,2476
-409.4354394822874,2531
-406.8513922155845,2481
-404.26805885991723,2452
-401.685439231661,2518
-399.103533147112,2510
-396.522340422488,2420
-393.9418608739278,2425
-391.3620943174908,2342
-388.7830405691583,2269
-386.2046994448317,2250
-383.6270707603344,2096
-381.05015433141045,1960
-378.473949973725,1759
-375.8984575028645,1659
-373.32367673433623,1425
-370.74960748356875,1277
-368.1762495659117,1183
-365.60360279663576,1040
-363.03166699093265,899
-360.4604419639154,832
-357.8899275306178,731
-355.32012350599507,598
-352.7510297049233,596
-350.1826459421999,555
-347.61497203254316,579
-345.04800779059235,553
-342.4817530309082,501
-339.91620756797226,483
-337.35137121618743,502
-334.7872437898774,472
-332.22382510328725,500
-329.66111497058273,529
-327.09911320585127,533
-324.53781962310075,553
-321.9772340362607,535
-319.4173562591816,596
-316.8581861056348,646
-314.2997233893127,627
-311.7419679238294,631
-309.1849195227194,653
-306.62857799943856,595
-304.0729431673641,530
-301.51801483979375,512
-298.963792829947,549
-296.41027695096386,579
-293.85746701590574,598
-291.3053628377552,628
-288.7539642294155,616
-286.2032710037115,638
-283.65328297338897,660
-281.1039999511146,684
-278.5554217494762,742
-276.007548180983,639
-273.4603790580651,577
-270.9139141930734,563
-268.3681533982807,634
-265.8230964858798,625
-263.27874326798565,574
-260.7350935566336,603
-258.1921471637804,619
-255.6499039013039,695
-253.10836358100266,720
-250.56752601459698,637
-248.02739101372765,700
-245.48795838995704,744
-242.94922795476816,726
-240.41119951956557,674
-237.8738728956746,826
-235.33724789434166,830
-232.80132432673452,807
-230.2661020039418,954
-227.73158073697357,908
-225.19776033676033,726
-222.66464061415422,743
-220.1322213799284,781
-217.60050244477725,762
-215.06948361931552,728
-212.53916471408013,775
-210.00954553952818,737
-207.48062590603843,734
-204.9524056239104,788
-202.4248845033651,915
-199.8980623545441,961
-197.37193898751036,828
-194.84651421224817,780
-192.32178783866232,892
-189.79775967657952,870
-187.27442953574644,874
-184.7517972258321,819
-182.2298625564256,741
-179.7086253370378,783
-177.18808537710026,853
-174.66824248596583,941
-172.14909647290835,984
-169.6306471471229,992
-167.11289431772548,962
-164.59583779375328,977
-162.07947738416453,1012
-159.5638128978386,1072
-157.04884414357605,1075
-154.53457093009854,999
-152.02099306604828,1038
-149.50811035998936,984
-146.99592262040665,1112
-144.48442965570587,1115
-141.97363127421409,1142
-139.46352728417958,1356
-136.95411749377126,1417
-134.44540171107985,1548
-131.93737974411636,1466
-129.43005140081357,1279
-126.92341648902493,1258
-124.41747481652521,1376
-121.91222619101006,1408
-119.40767042009657,1243
-116.90380731132257,1205
-114.40063667214702,1420
-111.8981583099503,1593
-109.3963720320337,1516
-106.89527764561933,1362
-104.39487495785067,1411
-101.89516377579241,1528
-99.39614390642998,1569
-96.89781515667039,1592
-94.40017733334128,1683
-91.90323024319173,1779
-89.40697369289148,1702
-86.91140748903172,1616
-84.41653143812482,1743
-81.92234534660395,1799
-79.42884902082358,1937
-76.93604226705907,2017
-74.4439248915071,2040
-71.95249670028534,1894
-69.46175749943245,1922
-66.97170709490854,2048
-64.48234529259423,2611
-61.99367189829195,2950
-59.50568671772464,2801
-57.01838955653636,2846
-54.53178022029283,2854
-52.045858514480074,3214
-49.560624244506016,3642
-47.07607721569923,3531
-44.59221723330904,3301
-42.10904410250669,3625
-39.62655762838392,4163
-37.14475761595372,5026
-34.66364387015028,5115
-32.18321619582866,6339
-29.70347439776515,7170
-27.224418280657005,7500
-24.74604764912317,10462
-22.26836230770266,14577
-19.7913620608565,24358
-17.315046712966478,38442
-14.83941606833514,43692
-12.36446993118659,65038
-9.89020810566592,65038
-7.416630395839093,65038
-4.94373660569363,65038
-2.471526539137585,65038
-6.821210263296962E-13,65038
2.47084320796705,65038
4.941003281093458,65038
7.410480415786196,65038
9.879274808531363,65038
12.347386655893956,65038
14.814816154518212,65038
17.28156350112681,65038
19.74762889252179,65038
22.21301252558385,65038
24.67771459727237,65038
27.141735304626195,39373
29.605074844762612,15055
32.06773341487792,8413
34.52971121224755,6509
36.99100843422559,7422
39.45162527824516,8652
41.91156194181792,7597
44.370818622535126,10691
46.82939551806646,15142
49.287292826160524,13297
51.74451074464503,11000
54.201049471426245,6791
56.65690920448981,4465
59.112090141899785,3776
61.56659248179983,3754
64.02041642241159,3340
66.4735621620365,2942
68.92602989905402,2325
71.37781983192338,2128
73.82893215918205,2700
76.27936707944684,2254
78.72912479141326,2171
81.17820549385567,2210
83.62660938562783,2592
86.07433666566146,2388
88.5213875329681,2520
90.96776218663751,2371
93.41346082583925,2620
95.85848364982041,2651
98.30283085790859,2036
100.7465026495089,2243
103.18949922410604,2266
105.63182078126385,1862
108.07346752062438,2284
110.51443964190923,2232
112.95473734491827,1652
115.39436082953114,1558
117.83331029570547,1662
120.27158594347827,1762
122.7091879729652,1471
125.1461165843615,1549
127.58237197794062,1473
130.01795435405518,1407
132.4528639131364,1421
134.88710085569494,1573
137.32066538231982,1626
139.75355769367923,1446
142.1857779905207,1502
144.61732647366978,1442
147.04820334403132,1480
149.47840880258934,1447
151.90794305040674,1577
154.33680628862487,1687
156.76499871846443,1786
159.19252054122433,1808
161.61937195828352,2166
164.04555317109896,2240
166.47106438120693,2435
168.89590579022217,2913
171.320077599839,3207
173.7435800118302,2999
176.16641322804742,3117
178.58857745042144,3369
181.01007288096173,3549
183.43089972175687,3645
185.85105817497413,3559
188.27054844285988,3795
190.6893707277394,3829
193.10752523201643,3818
195.5250121581745,4056
197.9418317087751,4112
200.3579840864594,3901
202.7734694939469,4066
205.18828813403627,4067
207.6024402096051,4158
210.01592592360964,4112
212.42874547908548,4002
214.84089907914665,4138
217.2523869269868,4062
219.66320922587727,4147
222.0733661791695,4134
224.48285799029293,4092
226.8916848627572,4325
229.29984700014882,4399
231.7073446061355,4425
234.11417788446204,4317
236.520347038953,4395
238.92585227351185,4644
241.33069379212054,4761
243.73487179884035,4700
246.1383864978112,4571
248.541238093252,4621
250.9434267894609,4681
253.34495279081432,4806
255.74581630176783,4665
258.1460175268563,4828
260.54555667069314,4872
262.9444339379703,4666
265.3426495334594,4468
267.7402036620107,4576
270.1370965285529,4499
272.53332833809407,4241
274.9288992957214,4221
277.32380960660055,4090
279.718059475976,4182
282.1116491091717,4147
284.5045787115897,4137
286.89684848871195,4099
289.2884586460981,4094
291.67940938938807,4065
294.0697009242996,4002
296.4593334566299,4009
298.84830719225477,3962
301.23662233712923,4062
303.6242790972866,3962
306.01127767884,3984
308.39761828798066,3932
310.78330113097934,3912
313.16832641418534,3871
315.5526943440269,3884
317.9364051270112,3935
320.3194589697242,3769
322.70185607883093,3700
325.0835966610754,3834
327.4646809232805,3720
329.8451090723478,3667
332.2248813152577,3785
334.6039978590701,3619
336.9824589109231,3613
339.36026467803447,3573
341.7374153677,3584
344.113911187295,3519
346.48975234427337,3605
348.8649390461686,3587
351.2394715005918,3564
353.61334991523415,3552
355.9865744978655,3589
358.35914545633375,3590
360.73106299856715,3521
363.10232733257146,3598
365.47293866643247,3543
367.84289720831396,3499
370.2122031664593,3544
372.5808567491905,3487
374.9488581649083,3414
377.31620762209275,3486
379.6829053293021,3450
382.0489514951745,3428
384.4143463284262,3537
386.7790900378528,3478
389.14318283232853,3333
391.50662492080653,3403
393.86941651231916,3458
396.23155781597745,3448
398.5930490409713,3343
400.9538903965696,3354
403.3140820921202,3378
405.6736243370498,3312
408.03251734086336,3328
410.3907613131465,3329
412.74835646356166,3311
415.10530300185144,3317
417.4616011378372,3405
419.81725108141893,3375
422.1722530425758,3273
424.5266072313656,3179
426.880313857925,3323
429.2333731324701,3398
431.58578526529516,3218
433.9375504667738,3229
436.2886689473588,3364
438.63914091758113,3269
440.9889665880513,3258
443.33814616945835,3257
445.68667987257015,3251
448.03456790823395,3193
450.3818104873759,3238
452.72840782100013,3261
455.07436012019105,3262
457.41966759611057,3200
459.7643304600007,3228
462.10834892318155,3347
464.4517231970525,3210
466.79445349309174,3308
469.1365400228566,3264
471.4779829979826,3302
473.81878263018564,3242
476.15893913125876,3278
478.4984527130747,3254
480.8373235875855,3396
483.17555196682144,3462
485.5131380628919,3491
487.8500820879857,3538
490.1863842543697,3566
492.52204477439034,3883
494.8570638604725,3970
497.1914417251204,4247
499.52517858091653,4484
501.85827464052306,4704
504.19073011668036,4814
506.5225452222086,4956
508.85372017000566,4825
511.18425517304956,4718
513.514150444396,4768
515.8434061971808,5220
518.1720226446176,5821
520.4999999999999,5997
522.8273384766991,6266
525.1540382881666,6254
527.480099647932,6202
529.8055227696037,5567
532.1303078668694,4433
534.454455153496,3650
536.777964843328,3410
539.1008371502907,3220
541.4230722883866,3197
543.744670471698,3130
546.0656319143858,3225
548.3859568306899,3008
550.7056454349294,3116
553.0246979415016,3146
555.3431145648834,2961
557.6608955196306,2929
559.978041020377,2978
562.2945512818363,3029
564.6104265188006,3011
566.9256669461412,3098
569.2402727788082,3083
571.5542442318302,3079
573.8675815203156,3121
576.1802848594508,3020
578.4923544645015,2978
580.8037905508126,3007
583.114593333807,3107
585.4247630289875,3030
587.7342998519354,3037
590.0432040183106,2942
592.3514757438526,3087
594.6591152443794,3084
596.9661227357875,3022
599.2724984340531,3066
601.578242555231,2988
603.8833553154542,3083
606.1878369309362,2998
608.4916876179676,3093
610.7949075929192,3088
613.0974970722403,3010
615.3994562724587,3077
617.7007854101818,3095
620.0014847020951,3195
622.3015543649641,2995
624.6009946156324,3025
626.8998056710224,2967
629.1979877481361,3071
631.4955410640538,3062
633.7924658359349,3151
636.0887622810175,3022
638.3844306166192,3083
640.6794710601358,3039
642.9738838290426,3126
645.2676691408932,3099
647.5608272133207,3174
649.853358264037,3102
652.1452625108324,3181
654.4365401715764,3091
656.7271914642178,3169
659.0172166067838,3094
661.3066158173809,3071
663.5953893141935,3088
665.8835373154867,3202
668.1710600396028,3181
670.4579577049639,3066
672.7442305300709,3076
675.0298787335033,3147
677.3149025339197,3139
679.599302150058,3127
681.8830778007342,3048
684.1662297048437,3083
686.4487580813608,3178
688.7306631493387,3143
691.0119451279091,3218
693.2926042362834,3094
695.5726406937516,3065
697.8520547196814,3164
700.1308465335215,3143
702.4090163547982,3047
704.6865644031171,3098
706.9634908981619,3062
709.2397960596965,3101
711.5154801075631,3136
713.7905432616823,3163
716.0649857420548,3115
718.3388077687592,3096
720.612009561953,3150
722.8845913418733,3066
725.1565533288352,3100
727.427895743234,3057
729.6986188055427,3065
731.9687227363137,3014
734.238207756178,2996
736.5070740858458,3078
738.7753219461066,3119
741.0429515578281,3059
743.3099631419569,3049
745.5763569195191,3093
747.8421331116193,3159
750.1072919394409,3081
752.3718336242467,3070
754.6357583873777,3033
756.8990664502545,3019
759.1617580343765,3110
761.423833361321,3082
763.6852926527457,3014
765.9461361303862,2984
768.206364016058,3058
770.4659765316536,3144
772.7249738991469,3075
774.9833563405886,3093
777.2411240781092,3029
779.4982773339183,3120
781.7548163303044,3047
784.010741289634,3114
786.2660524343538,3174
788.5207499869881,3092
790.7748341701416,3079
793.0283052064964,3052
795.2811633188143,3124
797.5334087299362,3044
799.7850416627813,3121
802.0360623403484,3077
804.2864709857143,3139
806.5362678220353,3141
808.7854530725468,3086
811.0340269605625,3091
813.2819897094754,3194
815.5293415427581,3082
817.77608268396,3161
820.0222133567116,3028
822.2677337847211,3103
824.5126441917765,3207
826.7569448017433,3058
829.0006358385675,3034
831.2437175262731,3098
833.4861900889629,3031
835.7280537508192,3020
837.9693087361026,3052
840.2099552691533,3092
842.4499935743896,3065
844.689423876309,3088
846.9282463994886,3124
849.1664613685833,3004
851.4040690083276,2981
853.6410695435349,3060
855.877463199097,3012
858.1132501999847,3086
860.3484307712487,3114
862.5830051380175,3085
864.8169735254988,3097
867.0503361589791,3030
869.2830932638243,3155
871.5152450654786,3031
873.7467917894654,3072
875.9777336613873,3076
878.2080709069252,3191
880.4378037518389,3089
882.666932421968,3122
884.8954571432301,3218
887.1233781416219,3134
889.3506956432192,3150
891.5774098741766,3135
893.803521060728,3122
896.0290294291852,3237
898.2539352059397,3204
900.4782386174619,3320
902.7019398903011,3202
904.925039251085,3185
907.147536926521,3139
909.3694331433943,3181
911.59072812857,3086
913.8114221089921,3055
916.0315153116827,3185
918.2510079637437,3191
920.4699002923547,3138
922.6881925247761,3014
924.905884888345,3093
927.1229776104793,3111
929.3394709186747,3120
931.555365040506,3042
933.7706602036275,3044
935.9853566357709,3042
938.1994545647489,3158
940.4129542184515,3124
942.6258558248488,3092
944.8381596119883,3051
947.0498658079974,3047
949.2609746410825,3042
951.4714863395287,3153
953.6814011316998,3084
955.8907192460387,3071
958.0994409110671,2992
960.3075663553858,2987
962.5150958076741,3002
964.7220294966913,3041
966.928367651274,3013
969.1341105003388,3039
971.3392582728806,3054
973.5438111979742,2943
975.747769504772,3034
977.9511334225061,2937
980.153903180487,3040
982.3560790081052,3034
984.5576611348289,3071
986.7586497902058,3030
988.9590452038618,2928
991.158847605503,2999
993.3580572249133,2951
995.5566742919558,2913
997.7546990365728,2920
999.952131688785,2770
1002.1489724786926,2792
1004.3452216364743,2840
1006.5408793923874,2844
1008.7359459767691,2916
1010.9304216200343,2863
1013.1243065526781,2704
1015.3176010052733,2787
1017.510305208472,2714
1019.7024193930064,2733
1021.8939437896848,2698
1024.0848786293977,2724
1026.2752241431122,2761
1028.4649805618747,2620
1030.6541481168115,2650
1032.842727039127,2646
1035.0307175601051,2746
1037.2181199111074,2710
1039.4049343235752,2659
1041.591161029029,2663
1043.7768002590683,2661
1045.9618522453698,2675
1048.1463172196918,2802
1050.3301954138697,2577
1052.513487059818,2630
1054.69619238953,2622
1056.8783116350783,2691
1059.0598450286152,2702
1061.2407928023704,2698
1063.4211551886528,2764
1065.6009324198508,2707
1067.780124728432,2653
1069.9587323469414,2715
1072.1367555080046,2663
1074.314194444325,2615
1076.4910493886855,2636
1078.667320573947,2817
1080.843008233051,2619
1083.0181125990161,2565
1085.1926339049414,2639
1087.3665723840027,2677
1089.5399282694575,2596
1091.7127017946405,2663
1093.8848931929647,2677
1096.0565026979243,2604
1098.2275305430899,2612
1100.3979769621128,2617
1102.567842188722,2603
1104.737126456726,2591
1106.9058300000124,2540
1109.0739530525475,2537
1111.2414958483764,2629
1113.4084586216231,2566
1115.5748416064907,2540
1117.7406450372605,2564
1119.9058691482942,2620
1122.0705141740304,2556
1124.2345803489884,2563
1126.3980679077658,2547
1128.5609770850388,2583
1130.7233081155623,2526
1132.8850612341707,2585
1135.0462366757774,2577
1137.2068346753745,2549
1139.3668554680326,2585
1141.526299288901,2571
1143.68516637321,2633
1145.8434569562655,2609
1148.001171273455,2474
1150.158309560244,2495
1152.3148720521767,2566
1154.470858984876,2595
1156.626270594044,2531
1158.7811071154629,2508
1160.9353687849912,2506
1163.089055838569,2513
1165.242168512213,2542
1167.3947070420209,2600
1169.5466716641677,2503
1171.6980626149075,2574
1173.8488801305748,2546
1175.9991244475814,2484
1178.1487958024186,2488
1180.2978944316555,2473
1182.4464205719428,2558
1184.5943744600072,2621
1186.7417563326567,2454
1188.8885664267755,2504
1191.0348049793297,2522
1193.1804722273619,2511
1195.325568407995,2541
1197.4700937584303,2510
1199.614048515948,2529
1201.7574329179074,2514
1203.900247201746,2603
1206.042491604982,2526
1208.1841663652099,2533
1210.3252717201053,2513
1212.465807907422,2602
1214.6057751649923,2455
1216.7451737307279,2556
1218.8840038426192,2506
1221.0222657387353,2628
1223.1599596572241,2573
1225.2970858363137,2541
1227.4336445143094,2566
1229.5696359295966,2513
1231.705060320639,2512
1233.8399179259786,2523
1235.9742089842384,2473
1238.107933734118,2514
1240.2410924143974,2521
1242.373685263935,2560
1244.5057125216676,2503
1246.6371744266116,2579
1248.7680712178621,2541
1250.898403134593,2554
1253.028170416058,2525
1255.1573733015875,2493
1257.2860120305932,2578
1259.4140868425648,2529
1261.54159797707,2551
1263.6685456737569,2567
1265.7949301723515,2671
1267.9207517126597,2543
1270.046010534565,2572
1272.1707068780306,2535
1274.2948409830983,2631
1276.4184130898889,2591
1278.541423438603,2532
1280.6638722695184,2611
1282.785759822993,2633
1284.9070863394636,2762
1287.0278520594447,2578
1289.1480572235314,2606
1291.2677020723963,2716
1293.3867868467923,2647
1295.5053117875495,2579
1297.623277135579,2670
1299.740683131868,2651
1301.8575300174857,2712
1303.973818033578,2745
1306.0895474213703,2685
1308.2047184221678,2655
1310.3193312773528,2694
1312.4333862283888,2712
1314.5468835168163,2732
1316.659823384255,2773
1318.7722060724045,2714
1320.8840318230418,2688
1322.9953008780249,2682
1325.1060134792888,2726
1327.2161698688478,2767
1329.3257702887959,2684
1331.4348149813054,2711
1333.5433041886276,2706
1335.6512381530933,2686
1337.7586171171101,2745
1339.8654413231675,2648
1341.9717110138317,2675
1344.0774264317488,2660
1346.1825878196432,2722
1348.2871954203192,2650
1350.3912494766587,2650
1352.4947502316231,2604
1354.5976979282532,2669
1356.7000928096686,2587
1358.8019351190665,2717
1360.9032250997243,2678
1363.0039629949988,2546
1365.1041490483235,2693
1367.2037835032133,2620
1369.3028666032606,2702
1371.401398592137,2666
1373.4993797135926,2726
1375.5968102114575,2605
1377.6936903296396,2589
1379.7900203121262,2587
1381.8858004029835,2726
1383.9810308463561,2713
1386.075711886469,2683
1388.1698437676241,2720
1390.2634267342032,2631
1392.356461030667,2635
1394.4489469015557,2654
1396.5408845914872,2738
1398.6322743451592,2589
1400.7231164073469,2605
1402.813411022907,2664
1404.903158436773,2671
1406.9923588939578,2619
1409.0810126395531,2608
1411.1691199187303,2739
1413.2566809767386,2749
1415.343696058907,2697
1417.4301654106425,2735
1419.5160892774315,2655
1421.6014679048399,2688
1423.6863015385125,2735
1425.7705904241707,2793
1427.8543348076178,2730
1429.9375349347342,2816
1432.0201910514802,2763
1434.102303403894,2866
1436.1838722380944,2756
1438.2648978002767,2858
1440.3453803367174,2677
1442.4253200937692,2867
1444.5047173178677,2907
1446.5835722555234,2911
1448.6618851533285,2910
1450.739656257952,3003
1452.8168858161434,2873
1454.8935740747306,2945
1456.96972128062,2926
1459.045327680797,3042
1461.120393522327,3065
1463.1949190523528,3081
1465.2689045180973,3073
1467.3423501668608,3033
1469.415256246024,3163
1471.4876230030463,3090
1473.559450685465,3059
1475.6307395408976,3309
1477.7014898170391,3155
1479.771701761665,3206
1481.8413756226287,3336
1483.9105116478618,3337
1485.9791100853772,3343
1488.0471711832643,3348
1490.1146951896926,3440
1492.1816823529098,3384
1494.2481329212433,3585
1496.3140471430984,3423
1498.3794252669609,3518
1500.4442675413939,3535
1502.5085742150404,3590
1504.572345536622,3492
1506.6355817549388,3465
1508.6982831188702,3482
1510.7604498773744,3460
1512.8220822794883,3613
1514.8831805743293,3526
1516.9437450110909,3661
1519.003775839048,3623
1521.0632733075522,3633
1523.1222376660367,3550
1525.1806691640113,3738
1527.2385680510652,3816
1529.2959345768668,3774
1531.3527689911643,3883
1533.4090715437833,3952
1535.4648424846291,3810
1537.5200820636855,3786
1539.5747905310159,3975
1541.6289681367616,3925
1543.6826151311434,3861
1545.7357317644614,4007
1547.7883182870937,4075
1549.8403749494987,4017
1551.8919020022113,4129
1553.9428996958477,4095
1555.9933682811015,4228
1558.0433080087469,4126
1560.0927191296346,4325
1562.1416018946961,4366
1564.1899565549415,4294
1566.2377833614592,4320
1568.2850825654164,4231
1570.3318544180606,4359
1572.3780991707158,4097
1574.423817074788,3989
1576.4690083817595,3876
1578.5136733431923,3889
1580.5578122107272,3814
1582.601425236085,3666
1584.6445126710646,3519
1586.6870747675434,3371
1588.7291117774776,3317
1590.7706239529034,3276
1592.8116115459347,3274
1594.8520748087658,3154
1596.8920139936686,3057
1598.9314293529933,3060
1600.9703211391711,3004
1603.008689604711,2959
1605.0465350022005,2913
1607.0838575843068,2880
1609.1206576037753,2812
1611.1569353134305,2786
1613.1926909661765,2694
1615.2279248149953,2754
1617.2626371129481,2741
1619.2968281131757,2703
1621.3304980688963,2708
1623.3636472334088,2736
1625.39627586009,2666
1627.428384202396,2680
1629.459972513861,2565
1631.4910410480993,2624
1633.5215900588028,2530
1635.551619799744,2593
1637.5811305247717,2586
1639.6101224878166,2593
1641.6385959428862,2528
1643.6665511440683,2610
1645.693988345528,2587
1647.7209078015112,2566
1649.7473097663405,2541
1651.7731944944203,2496
1653.7985622402307,2521
1655.823413258333,2487
1657.847747803366,2533
1659.8715661300494,2465
1661.8948684931793,2459
1663.9176551476316,2537
1665.9399263483624,2591
1667.9616823504057,2458
1669.982923408873,2504
1672.0036497789574,2418
1674.0238617159293,2523
1676.043559475138,2506
1678.0627433120121,2531
1680.081413482059,2422
1682.0995702408654,2438
1684.117213844096,2442
1686.134344547495,2444
1688.1509626068864,2477
1690.1670682781705,2476
1692.182661817329,2426
1694.1977434804217,2467
1696.2123135235875,2487
1698.226372203043,2488
1700.2399197750851,2420
1702.2529564960905,2454
1704.2654826225112,2379
1706.277498410882,2428
1708.2890041178139,2473
1710.2999999999988,2448
1712.3104863142066,2440
1714.3204633172854,2446
1716.329931266163,2514
1718.3388904178469,2379
1720.3473410294214,2441
1722.3552833580516,2438
1724.3627176609807,2533
1726.3696441955308,2410
1728.3760632191033,2429
1730.3819749891782,2444
1732.3873797633146,2419
1734.3922777991502,2437
1736.3966693544012,2410
1738.4005546868639,2386
1740.4039340544127,2347
1742.406807715001,2420
1744.4091759266616,2355
1746.4110389475054,2393
1748.4123970357223,2321
1750.413250449582,2375
1752.4135994474318,2327
1754.4134442876993,2339
1756.4127852288902,2441
1758.4116225295893,2357
1760.4099564484595,2321
1762.407787244244,2313
1764.405115175764,2330
1766.4019405019203,2324
1768.3982634816916,2317
1770.3940843741357,2300
1772.3894034383907,2383
1774.3842209336717,2327
1776.378537119274,2336
1778.372352254571,2338
1780.3656665990156,2311
1782.3584804121397,2322
1784.3507939535534,2238
1786.3426074829463,2328
1788.3339212600863,2284
1790.3247355448211,2280
1792.3150505970766,2351
1794.3048666768573,2315
1796.2941840442477,2293
1798.2830029594106,2319
1800.2713236825884,2323
1802.2591464741004,2301
1804.2464715943465,2427
1806.2332993038058,2339
1808.2196298630352,2294
1810.2054635326708,2259
1812.190800573428,2384
1814.175641246101,2211
1816.1599858115628,2228
1818.1438345307652,2267
1820.127187664738,2350
1822.1100454745924,2323
1824.092408221516,2329
1826.0742761667766,2323
1828.055649571721,2303
1830.0365286977735,2265
1832.0169138064398,2301
1833.9968051593014,2267
1835.9762030180214,2248
1837.9551076443408,2273
1839.9335193000788,2310
1841.9114382471344,2293
1843.888864747485,2256
1845.8657990631878,2245
1847.842241456378,2216
1849.8181921892697,2305
1851.7936515241558,2332
1853.7686197234098,2290
1855.7430970494815,2252
1857.7170837649014,2221
1859.6905801322787,2332
1861.6635864143004,2285
1863.6361028737338,2303
1865.608129773424,2248
1867.5796673762961,2310
1869.5507159453537,2354
1871.521275743678,2285
1873.4913470344313,2290
1875.4609300808534,2290
1877.4300251462632,2285
1879.3986324940588,2243
1881.366752387717,2280
1883.3343850907936,2329
1885.3015308669228,2307
1887.268189979819,2322
1889.2343626932739,2283
1891.2000492711595,2297
1893.1652499774254,2269
1895.1299650761011,2344
1897.0941948312952,2338
1899.0579395071945,2343
1901.0211993680641,2311
1902.98397467825,2310
1904.9462657021745,2348
1906.9080727043415,2293
1908.869395949332,2318
1910.8302357018065,2306
1912.790592226504,2339
1914.7504657882428,2294
1916.7098566519212,2254
1918.6687650825133,2285
1920.6271913450764,2258
1922.5851357047422,2312
1924.5425984267245,2323
1926.499579776314,2275
1928.4560800188833,2290
1930.4120994198802,2262
1932.367638244833,2278
1934.32269675935,2328
1936.2772752291175,2282
1938.231373919899,2322
1940.1849930975404,2256
1942.1381330279637,2306
1944.0907939771696,2306
1946.0429762112412,2277
1947.9946799963363,2344
1949.9459055986945,2315
1951.896653284633,2266
1953.8469233205478,2309
1955.7967159729142,2271
1957.7460315082863,2272
1959.6948701932974,2222
1961.6432322946594,2280
1963.5911180791632,2253
1965.5385278136787,2236
1967.4854617651545,2266
1969.4319202006182,2227
1971.377903387176,2328
1973.3234115920136,2237
1975.268445082395,2290
1977.2130041256642,2364
1979.1570889892423,2198
1981.1006999406304,2304
1983.04383724741,2237
1984.986501177238,2263
1986.928691997853,2299
1988.8704099770712,2233
1990.811655382789,2274
1992.7524284829801,2262
1994.692729545698,2210
1996.6325588390755,2248
1998.5719166313224,2260
2000.5108031907307,2255
2002.4492187856677,2227
2004.387163684583,2301
2006.3246381560011,2260
2008.2616424685298,2315
2010.1981768908527,2220
2012.1342416917332,2250
2014.069837140014,2195
2016.0049635046162,2192
2017.9396210545406,2191
2019.8738100588666,2257
2021.8075307867502,2204
2023.740783507431,2268
2025.6735684902228,2235
2027.6058860045214,2281
2029.5377363198004,2237
2031.4691197056118,2224
2033.4000364315875,2285
2035.3304867674374,2244
2037.260470982952,2211
2039.189989347998,2239
2041.1190421325232,2145
2043.047629606554,2291
2044.9757520401945,2140
2046.9034097036288,2273
2048.8306028671195,2279
2050.7573318010086,2250
2052.683596775716,2218
2054.609398061742,2186
2056.5347359296647,2301
2058.4596106501403,2291
2060.384022493906,2253
2062.3079717317764,2281
2064.231458634646,2254
2066.1544834734873,2243
2068.077046519352,2288
2069.99914804337,2264
2071.9207883167524,2177
2073.8419676107865,2212
2075.7626861968406,2204
2077.6829443463607,2197
2079.6027423308715,2191
2081.522080421977,2175
2083.440958891362,2167
2085.359378010786,2236
2087.2773380520907,2285
2089.194839287196,2147
2091.111881988101,2245
2093.0284664268825,2262
2094.9445928756973,2130
2096.86026160678,2149
2098.775472892446,2162
2100.690227005088,2141
2102.604524217178,2265
2104.5183648012676,2247
2106.431749029985,2217
2108.34467717604,2294
2110.2571495122206,2077
2112.169166311393,2229
2114.080727846503,2209
2115.9918343905747,2192
2117.902486216711,2264
2119.8126835980956,2201
2121.722426807987,2167
2123.6317161197285,2181
2125.5405518067364,2221
2127.448934142509,2213
2129.356863400624,2207
2131.264339854737,2212
2133.1713637785815,2220
2135.077935445972,2163
2136.9840551308002,2168
2138.889723107037,2200
2140.7949396487334,2192
2142.699705030018,2193
2144.6040195250994,2191
2146.507883408264,2131
2148.4112969538774,2204
2150.3142604363848,2189
2152.2167741303097,2189
2154.1188383102535,2216
2156.0204532508997,2127
2157.9216192270064,2225
2159.822336513414,2221
2161.7226053850413,2254
2163.622426116884,2116
2165.5217989840185,2188
2167.4207242616,2191
2169.319202224862,2224
2171.2172331491165,2190
2173.1148173097563,2152
2175.0119549822507,2126
2176.90864644215,2183
2178.8048919650823,2195
2180.7006918267534,2114
2182.596046302952,2159
2184.4909556695407,2181
2186.3854202024645,2175
2188.279440177746,2149
2190.173015871487,2242
2192.066147559868,2192
2193.958835519149,2137
2195.851080025667,2219
2197.7428813558417,2178
2199.6342397861667,2230
2201.5251555932186,2234
2203.415629053651,2251
2205.3056604441986,2146
2207.19525004167,2184
2209.084398122958,2197
2210.9731049650327,2174
2212.861370844941,2187
2214.749196039812,2187
2216.636580826851,2191
2218.523525483344,2096
2220.410030286655,2225
2222.296095514226,2231
2224.1817214435805,2141
2226.066908352319,2193
2227.951656518121,2211
2229.835966218746,2197
2231.71983773203,2238
2233.6032713358913,2312
2235.486267308324,2241
2237.3688259274036,2121
2239.2509474712824,2145
2241.132632218193,2157
2243.013880446447,2158
2244.8946924344323,2120
2246.7750684606203,2200
2248.6550088035574,2134
2250.534513741871,2227
2252.413583554265,2130
2254.292218519526,2209
2256.170418916517,2196
2258.0481850241786,2174
2259.925517121534,2200
2261.8024154876825,2224
2263.678880401803,2178
2265.5549121431536,2152
2267.430510991071,2111
2269.305677224971,2150
2271.180411124348,2173
2273.0547129687766,2165
2274.9285830379076,2113
2276.8020216114737,2175
2278.6750289692845,2133
2280.5476053912294,2199
2282.4197511572766,2174
2284.2914665474727,2112
2286.162751841943,2093
2288.0336073208937,2179
2289.904033264608,2188
2291.774029953448,2196
2293.6435976678554,2077
2295.5127366883517,2097
2297.381447295534,2209
2299.2497297700825,2129
2301.1175843927526,2109
2302.9850114443825,2141
2304.852011205885,2142
2306.7185839582553,2125
2308.5847299825664,2194
2310.4504495599676,2132
2312.3157429716925,2122
2314.1806104990483,2164
2316.0450524234247,2233
2317.9090690262888,2175
2319.772660589186,2136
2321.635827393742,2113
2323.498569721661,2168
2325.3608878547248,2167
2327.2227820747967,2184
2329.0842526638157,2209
2330.945299903803,2106
2332.805924076857,2175
2334.6661254651535,2235
2336.525904350951,2151
2338.3852610165827,2151
2340.244195744464,2119
2342.102708817088,2131
2343.9608005170253,2226
2345.8184711269287,2191
2347.675720929526,2154
2349.532550207628,2191
2351.38895924412,2106
2353.24494832197,2172
2355.100517724223,2136
2356.955667734004,2129
2358.810398634514,2104
2360.664710709037,2116
2362.5186042409337,2214
2364.3720795136437,2199
2366.225136810686,2195
2368.0777764156583,2171
2369.929998612237,2250
2371.7818036841777,2231
2373.633191915315,2186
2375.484163589562,2210
2377.3347189909114,2262
2379.184858403434,2143
2381.03458211128,2131
2382.8838903986775,2171
2384.732783549936,2176
2386.5812618494406,2217
2388.4293255816588,2190
2390.2769750311327,2208
2392.1242104824883,2214
2393.971032220427,2201
2395.8174405297295,2216
2397.6634356952563,2220
2399.509018001947,2208
2401.3541877348193,2154
2403.1989451789705,2145
2405.043290619576,2166
2406.8872243418905,2174
2408.730746631247,2197
2410.5738577730594,2184
2412.4165580528183,2149
2414.258847756095,2194
2416.100727168537,2158
2417.9421965758734,2129
2419.783256263912,2209
2421.623906518538,2157
2423.4641476257157,2252
2425.303979871491,2201
2427.143403541984,2234
2428.9824189233977,2225
2430.821026302012,2217
2432.6592259641866,2224
2434.497018196361,2204
2436.33440328505,2225
2438.171381516851,2167
2440.00795317844,2201
2441.844118556569,2174
2443.6798779380724,2229
2445.5152316098606,2170
2447.3501798589255,2215
2449.1847229723357,2265
2451.0188612372403,2157
2452.8525949408663,2159
2454.6859243705203,2186
2456.518849813587,2163
2458.3513715575314,2165
2460.183489889895,2169
2462.015205098301,2173
2463.8465174704493,2171
2465.67742729412,2211
2467.5079348571717,2139
2469.338040447542,2152
2471.1677443532476,2136
2472.9970468623833,2259
2474.825948263123,2208
2476.6544488437207,2169
2478.482548892508,2182
2480.310248697896,2140
2482.137548548374,2170
2483.9644487325118,2109
2485.790949538956,2177
2487.617051256433,2150
2489.44275417375,2207
2491.26805857979,2189
2493.0929647635157,2220
2494.917473013971,2167
2496.741583620276,2234
2498.5652968716304,2150
2500.3886130573137,2138
2502.2115324666834,2198
2504.0340553891765,2183
2505.856182114308,2201
2507.6779129316733,2192
2509.499248130945,2212
2511.3201880018764,2171
2513.140732834298,2186
2514.9608829181198,2177
2516.780638543331,2201
2518.6,2259
2520.418967578273,2242
2522.237541568376,2144
2524.0557222606144,2232
2525.8735099453706,2213
2527.6909049131086,2208
2529.507907454368,2253
2531.32451785977,2250
2533.140736420014,2244
2534.9565634258774,2174
2536.771999168218,2239
2538.5870439379714,2208
2540.4016980261526,2242
2542.2159617238544,2195
2544.02983532225,2214
2545.8433191125914,2232
2547.656413386209,2278
2549.4691184345115,2274
2551.2814345489874,2292
2553.093362021204,2291
2554.904901142808,2324
2556.716052205523,2292
2558.526815501153,2313
2560.3371913215824,2317
2562.147179958771,2338
2563.956781704761,2329
2565.7659968516705,2287
2567.5748256916986,2322
2569.3832685171224,2335
2571.1913256202984,2353
2572.9989972936614,2423
2574.806283829725,2322
2576.613185521084,2387
2578.4197026604074,2364
2580.2258355404483,2389
2582.031584454035,2369
2583.836949694077,2391
2585.6419315535613,2306
2587.4465303255533,2378
2589.2507463032002,2376
2591.0545797797245,2357
2592.8580310484303,2288
2594.6611004026995,2282
2596.463788135992,2398
2598.266094541849,2373
2600.0680199138874,2383
2601.869564545807,2396
2603.670728731383,2412
2605.4715127644704,2339
2607.2719169390048,2393
2609.071941548998,2379
2610.8715868885433,2413
2612.670853251811,2361
2614.469740933052,2349
2616.268250226594,2429
2618.0663814268455,2372
2619.864134828292,2380
2621.6615107255006,2311
2623.458509413115,2376
2625.2551311858597,2347
2627.0513763385347,2366
2628.8472451660223,2282
2630.6427379632833,2400
2632.4378550253564,2337
2634.232596647359,2390
2636.026963124488,2331
2637.8209547520187,2429
2639.6145718253065,2378
2641.407814639785,2358
2643.200683490966,2385
2644.9931786744414,2281
2646.7853004858807,2272
2648.577049221034,2368
2650.3684251757277,2265
2652.1594286458712,2280
2653.9500599274484,2286
2655.740319316525,2180
2657.5302071092437,2255
2659.3197236018286,2265
2661.10886909058,2254
2662.8976438718782,2218
2664.686048242183,2178
2666.4740824980327,2258
2668.2617469360443,2212
2670.0490418529134,2191
2671.8359675454153,2188
2673.622524310403,2263
2675.408712444811,2194
2677.1945322456495,2218
2678.979984010009,2129
2680.76506803506,2133
2682.5497846180497,2137
2684.334134056306,2187
2686.1181166472343,2143
2687.9017326883213,2218
2689.6849824771293,2154
2691.4678663113013,2227
2693.2503844885596,2186
2695.032537306705,2156
2696.8143250636167,2101
2698.5957480572542,2081
2700.3768065856534,2146
2702.1575009469316,2117
2703.937831439283,2167
2705.717798360982,2168
2707.4974020103837,2124
2709.276642685917,2035
2711.055520686095,2147
2712.834036309506,2121
2714.612189854819,2056
2716.389981620782,2068
2718.1674119062204,2056
2719.944481010041,2098
2721.721189231226,2098
2723.4975368688415,2115
2725.273524222027,2124
2727.0491515900053,2087
2728.824419272075,2088
2730.5993275676146,2100
2732.3738767760838,2128
2734.148067197016,2036
2735.921899130031,2116
2737.6953728748194,2053
2739.468488731156,2097
2741.2412469988926,2070
2743.0136479779617,2066
2744.785691968372,2020
2746.5573792702116,2004
2748.3287101836504,2087
2750.099685008934,2076
2751.870304046388,2096
2753.640567596418,2049
2755.4104759595057,1967
2757.1800294362156,2055
2758.949228327187,2049
2760.7180729331412,2072
2762.486563554877,2048
2764.254700493272,2047
2766.022484049284,2125
2767.789914523947,2032
2769.5569922183786,2057
2771.3237174337705,2075
2773.090090471394,2014
2774.8561116326036,2033
2776.6217812188274,1996
2778.3870995315756,2061
2780.1520668724356,2000
2781.9166835430747,1990
2783.6809498452394,2023
2785.444866080754,2052
2787.2084325515225,2063
2788.971649559527,2035
2790.73451740683,1975
2792.4970363955713,2046
2794.2592068279705,1938
2796.0210290063264,2017
2797.7825032330147,2064
2799.543629810493,2096
2801.304409041296,2064
2803.0648412280366,2083
2804.8249266734088,2057
2806.5846656801846,2092
2808.344058551212,2065
2810.1031055894246,2009
2811.8618070978273,2057
2813.6201633795085,2039
2815.378174737636,2051
2817.1358414754536,2046
2818.893163896285,2144
2820.6501423035334,2002
2822.4067770006814,2116
2824.1630682912883,2073
2825.9190164789957,1982
2827.6746218675207,2000
2829.429884760661,2145
2831.184805462294,2000
2832.9393842763743,2064
2834.693621506936,2066
2836.4475174580916,2063
2838.201072434034,2084
2839.954286739034,2049
2841.707160677441,2110
2843.459694553685,1999
2845.2118886722724,2077
2846.96374333779,2007
2848.7152588549034,2045
2850.4664355283567,1998
2852.217273662973,2028
2853.9677735636546,2046
2855.7179355353833,2031
2857.4677598832186,2012
2859.217246912299,2052
2860.9663969278427,2075
2862.715210235146,1978
2864.4636871395846,2026
2866.211827946614,2063
2867.9596329617652,2052
2869.7071024906536,1925
2871.4542368389684,2018
2873.20103631248,2021
2874.947501217038,2114
2876.6936318585695,2031
2878.4394285430812,2035
2880.1848915766604,2020
2881.9300212654707,2078
2883.6748179157553,2021
2885.4192818338374,2004
2887.1634133261173,2018
2888.907212699077,2071
2890.6506802592744,2091
2892.393816313348,2079
2894.1366211680142,2009
2895.8790951300693,2040
2897.621238506388,1970
2899.363051603925,1987
2901.1045347297118,2011
2902.8456881908596,2050
2904.58651229456,2048
2906.327007348081,2072
2908.067173658772,1994
2909.8070115340597,1989
2911.5465212814497,1982
2913.285703208527,2006
2915.0245576229563,2038
2916.7630848324807,2003
2918.5012851449196,1984
2920.2391588681758,1969
2921.976706310227,1973
2923.7139277791334,2002
2925.4508235830313,2010
2927.187394030137,2021
2928.923639428745,1935
2930.6595600872306,1952
2932.395156314046,1996
2934.1304284177218,2016
2935.8653767068713,2082
2937.6000014901815,1940
2939.3343030764227,1971
2941.068281774442,2063
2942.8019378931644,2031
2944.5352717415976,2048
2946.2682836288236,2017
2948.0009738640065,1956
2949.7333427563885,1954
2951.465390615289,2003
2953.1971177501086,1952
2954.9285244703265,1980
2956.6596110855,2018
2958.3903779052657,2021
2960.1208252393385,2043
2961.8509533975125,1957
2963.5807626896617,2039
2965.3102534257378,2044
2967.0394259157715,1948
2968.768280469873,1929
2970.496817398232,1972
2972.2250370111146,2010
2973.952939618869,2041
2975.6805255319196,1974
2977.4077950607707,2000
2979.134748516006,2071
2980.861386208289,2038
2982.587708448359,2001
2984.313715547037,2048
2986.039407815222,2029
2987.764785563891,2034
2989.489849104102,1982
2991.2145987469908,2063
2992.9390348037705,2043
2994.6631575857346,2016
2996.3869674042576,1921
2998.1104645707887,2070
2999.83364939686,2010
3001.5565221940783,1987
3003.2790832741334,1974
3005.0013329487924,1977
3006.7232715298996,2042
3008.4448993293804,2035
3010.166216659239,1957
3011.887223831558,1964
3013.607921158498,1967
3015.3283089522993,2012
3017.0483875252826,2011
3018.7681571898443,2017
3020.4876182584626,2001
3022.2067710436927,2010
3023.9256158581707,1924
3025.644153014609,1910
3027.362382825801,1973
3029.0803056046193,1946
3030.797921664012,2054
3032.5152313170106,1975
3034.2322348767225,1998
3035.9489326563353,1987
3037.665324969115,1980
3039.3814121284063,1975
3041.097194447633,2007
3042.812672240299,1923
3044.5278458199855,1941
3046.2427155003525,1959
3047.9572815951406,1976
3049.671544418167,1973
3051.38550428333,2046
3053.0991615046073,1984
3054.812516396051,1940
3056.5255692717974,2025
3058.2383204460575,2011
3059.9507702331257,1983
3061.662918947372,1950
3063.3747669032446,1984
3065.0863144152736,1955
3066.7975617980674,2059
3068.508509366309,2014
3070.219157434767,1994
3071.9295063182844,1980
3073.639556331785,1912
3075.3493077902704,1937
3077.058761008821,1961
3078.7679163025964,2007
3080.476773986837,2008
3082.1853343768594,1940
3083.89359778806,2106
3085.6015645359153,1970
3087.3092349359786,1929
3089.016609303884,1979
3090.7236879553434,1958
3092.4304712061476,1954
3094.136959372166,1979
3095.843152769349,1921
3097.5490517137237,1949
3099.2546565213966,1951
3100.959967508554,2002
3102.66498499146,2016
3104.3697092864577,1986
3106.0741407099695,1976
3107.778279578498,2035
3109.482126208622,2003
3111.1856809170004,1945
3112.8889440203716,1961
3114.5919158355528,1972
3116.294596679439,1958
3117.996986869006,1993
3119.6990867213062,1921
3121.4008965534726,1936
3123.102416682717,1971
3124.803647426329,1970
3126.5045891016784,2038
3128.205242026213,1994
3129.90560651746,2064
3131.605682893025,2015
3133.3054714705922,2074
3135.0049725679282,2049
3136.7041865028714,1960
3138.4031135933465,2001
3140.101754157353,1965
3141.800108512971,2012
3143.498176978357,1968
3145.1959598717494,1952
3146.8934575114636,1976
3148.5906702158954,1993
3150.2875983035183,2010
3151.9842420928853,2017
3153.680601902627,1940
3155.376678051456,1904
3157.07247085816,1914
3158.767980641609,1943
3160.463207720748,1992
3162.158152414606,2001
3163.8528150422862,1909
3165.5471959229726,1914
3167.2412953759303,1943
3168.9351137204976,1930
3170.628651276098,1927
3172.3219083622307,2001
3174.014885298474,1963
3175.707582404485,2021
3177.4000000000005,2047
3179.092138404835,1971
3180.7839979388846,1925
3182.47557892212,1937
3184.166881674594,1987
3185.8579065164386,1988
3187.5486537678626,1985
3189.2391237491547,2008
3190.9293167806827,1922
3192.6192331828934,1919
3194.3088732763117,1975
3195.998237381542,2049
3197.687325819268,1945
3199.376138910251,1959
3201.064676975334,1906
3202.7529403354347,1951
3204.4409293115523,1901
3206.1286442247647,1957
3207.816085396229,1903
3209.5032531471825,1929
3211.190147798936,1867
3212.8767696728846,1970
3214.5631190905015,1867
3216.2491963733373,1887
3217.9350018430214,1907
3219.6205358212637,1883
3221.305798629851,1971
3222.990790590651,1879
3224.6755120256103,1919
3226.359963256751,1858
3228.0441446061795,1876
3229.7280563960758,1961
3231.411698948703,1928
3233.0950725863995,2022
3234.778177631587,1973
3236.461014406761,2004
3238.1435832345005,1906
3239.8258844374595,1879
3241.507918338374,1909
3243.1896852600576,1943
3244.8711855254023,1883
3246.552419457381,1976
3248.233387379042,1949
3249.914089613516,1983
3251.59452648401,1925
3253.274698313813,1905
3254.95460542629,1995
3256.6342481448855,1904
3258.313626793125,1969
3259.9927416946084,1956
3261.6715931730196,1922
3263.3501815521176,1847
3265.0285071557437,1945
3266.706570307815,1901
3268.3843713323286,1831
3270.0619105533615,1906
3271.739188295068,1887
3273.4162048816834,1870
3275.0929606375184,1902
3276.769455886966,1894
3278.445690954498,1928
3280.1216661646613,1961
3281.797381842087,1993
3283.4728383114807,1913
3285.1480358976296,1899
3286.8229749253996,1915
3288.4976557197333,1956
3290.172078605655,1897
3291.846243908266,1895
3293.5201519527463,1900
3295.193803064357,1806
3296.8671975684374,1862
3298.5403357904024,1903
3300.21321805575,1916
3301.8858446900567,1862
3303.558216018975,1885
3305.23033236824,1862
3306.9021940636603,1856
3308.57380143113,1938
3310.2451547966184,1865
3311.916254486174,1962
3313.5871008259246,1871
3315.2576941420766,1927
3316.9280347609147,1940
3318.5981230088046,1842
3320.2679592121895,1900
3321.9375436975924,1837
3323.606876791612,1876
3325.27595882093,1939
3326.944790112305,1871
3328.6133709925753,1843
3330.2817017886573,1916
3331.949782827547,1866
3333.617614436319,1939
3335.2851969421245,1963
3336.952530672199,1854
3338.619615953853,1865
3340.286453114475,1927
3341.9530424815357,1986
3343.619384382583,1919
3345.2854791452437,1860
3346.951327097224,1893
3348.6169285663073,1913
3350.2822838803577,1976
3351.947393367319,1940
3353.61225735521,1911
3355.2768761721345,1929
3356.9412501462693,1859
3358.605379605873,1971
3360.2692648792827,1897
3361.9329062949146,1931
3363.596304181263,1915
