CollectionTime,6/26/2024 3:35:56 PM
ExposureUsed,3
CalibratedSpectrum
-962.7078968117929,616
-959.9714848408522,619
-957.2358232597828,619
-954.5009119013725,651
-951.7667505983302,663
-949.0333391832855,619
-946.3006774887896,635
-943.5687653473143,690
-940.837602591253,691
-938.1071890529199,674
-935.3775245645503,647
-932.6486089583007,663
-929.9204420662485,713
-927.1930237203925,657
-924.4663537526524,640
-921.7404319948689,638
-919.0152582788041,672
-916.2908324361409,679
-913.5671542984834,696
-910.8442236973568,665
-908.1220404642074,687
-905.4006044304027,705
-902.679915427231,701
-899.959973285902,682
-897.2407778375464,683
-894.5223289132158,671
-891.8046263438832,651
-889.0876699604426,688
-886.3714595937089,630
-883.6559950744183,621
-880.9412762332282,618
-878.2273029007168,632
-875.5140749073835,678
-872.8015920836489,663
-870.0898542598545,634
-867.3788612662631,620
-864.6686129330585,581
-861.9591090903457,597
-859.2503495681506,570
-856.5423341964203,595
-853.8350628050229,638
-851.1285352237478,635
-848.4227512823054,612
-845.7177108103272,630
-843.0134136373656,633
-840.3098595928943,627
-837.6070485063082,673
-834.9049802069229,629
-832.2036545239757,622
-829.5030712866244,620
-826.8032303239481,637
-824.1041314649472,645
-821.4057745385428,658
-818.7081593735775,630
-816.0112857988148,641
-813.3151536429393,619
-810.6197627345566,634
-807.9251129021936,604
-805.2312039742981,591
-802.5380357792392,612
-799.8456081453069,618
-797.1539209007124,663
-794.462973873588,630
-791.772766891987,671
-789.083299783884,669
-786.3945723771743,642
-783.7065844996748,649
-781.0193359791231,647
-778.3328266431781,652
-775.6470563194197,646
-772.9620248353489,667
-770.2777320183878,600
-767.5941776958798,660
-764.9113616950891,661
-762.2292838432011,639
-759.5479439673222,642
-756.8673418944801,610
-754.1874774516235,630
-751.5083504656222,636
-748.8299607632671,609
-746.15230817127,650
-743.475392516264,654
-740.7992136248035,657
-738.1237713233636,659
-735.4490654383407,644
-732.7750957960521,640
-730.1018622227365,678
-727.4293645445534,693
-724.7576025875837,667
-722.0865761778291,667
-719.4162851412126,703
-716.7467293035781,661
-714.0779084906909,700
-711.409822528237,722
-708.7424712418238,695
-706.0758544569796,708
-703.4099719991541,696
-700.7448236937178,682
-698.0804093659622,707
-695.4167288411002,683
-692.7537819442656,665
-690.0915685005134,693
-687.4300883348199,758
-684.7693412720819,699
-682.1093271371178,710
-679.4500457546669,696
-676.7914969493897,740
-674.1336805458676,717
-671.4765963686034,718
-668.8202442420206,738
-666.1646239904642,761
-663.5097354382001,765
-660.8555784094151,739
-658.2021527282176,699
-655.5494582186366,764
-652.8974947046223,751
-650.2462620100463,746
-647.5957599587009,753
-644.9459883742998,791
-642.2969470804776,778
-639.6486359007902,768
-637.0010546587141,762
-634.3542031776476,801
-631.7080812809096,764
-629.0626887917401,700
-626.4180255333008,737
-623.7740913286734,722
-621.1308860008619,731
-618.4884093727904,738
-615.8466612673046,768
-613.2056415071715,731
-610.5653499150785,718
-607.9257863136347,759
-605.28695052537,752
-602.6488423727357,803
-600.0114616781036,733
-597.3748082637674,805
-594.7388819519412,809
-592.1036825647604,790
-589.4692099242818,808
-586.8354638524829,734
-584.2024441712624,744
-581.5701507024403,769
-578.9385832677575,790
-576.3077416888759,779
-573.6776257873787,745
-571.0482353847704,735
-568.4195703024757,763
-565.7916303618415,802
-563.164415384135,843
-560.5379251905453,754
-557.9121596021815,780
-555.2871184400748,797
-552.6628015251767,779
-550.0392086783606,806
-547.4163397204204,816
-544.794194472071,778
-542.1727727539491,795
-539.5520743866118,809
-536.9320991905377,838
-534.3128469861261,859
-531.6943175936979,876
-529.0765108334947,912
-526.4594265256793,966
-523.8430644903358,1062
-521.2274245474689,1261
-518.612506517005,1389
-515.9983102187913,1400
-513.3848354725959,1653
-510.77208209810846,1761
-508.16004991493924,1871
-505.5487387426199,2049
-502.9381484006032,2200
-500.3282787082628,2272
-497.71912948489364,2270
-495.1107005497117,2269
-492.5029917218539,2101
-489.8960028203786,1851
-487.28973366426493,1717
-484.68418407241325,1395
-482.07935386364494,1272
-479.47524285670266,1229
-476.87185087025,1103
-474.2691777228715,1126
-471.66722323307334,1111
-469.0659872192821,1103
-466.4654694998459,1025
-463.86566989303384,1030
-461.26658821703614,999
-458.66822428996414,1026
-456.07057792985,1053
-453.4736489546475,1045
-450.877437182231,1033
-448.28194243039627,1002
-445.68716451686,957
-443.09310325926003,969
-440.49975847515555,1032
-437.9071299820263,956
-435.31521759727354,1005
-432.72402113821954,987
-430.13354042210767,998
-427.5437752661022,986
-424.95472548728867,1096
-422.36639090267386,1074
-419.7787713291855,1074
-417.1918665836721,1060
-414.60567648290385,1104
-412.0202008435715,1074
-409.4354394822874,1052
-406.8513922155845,1074
-404.26805885991723,1099
-401.685439231661,1129
-399.103533147112,1047
-396.522340422488,1052
-393.9418608739278,1133
-391.3620943174908,1080
-388.7830405691583,1088
-386.2046994448317,1103
-383.6270707603344,966
-381.05015433141045,915
-378.473949973725,885
-375.8984575028645,872
-373.32367673433623,832
-370.74960748356875,749
-368.1762495659117,710
-365.60360279663576,640
-363.03166699093265,592
-360.4604419639154,593
-357.8899275306178,609
-355.32012350599507,544
-352.7510297049233,533
-350.1826459421999,543
-347.61497203254316,579
-345.04800779059235,555
-342.4817530309082,511
-339.91620756797226,502
-337.35137121618743,474
-334.7872437898774,507
-332.22382510328725,537
-329.66111497058273,550
-327.09911320585127,597
-324.53781962310075,575
-321.9772340362607,576
-319.4173562591816,669
-316.8581861056348,709
-314.2997233893127,703
-311.7419679238294,744
-309.1849195227194,753
-306.62857799943856,638
-304.0729431673641,583
-301.51801483979375,557
-298.963792829947,586
-296.41027695096386,648
-293.85746701590574,677
-291.3053628377552,712
-288.7539642294155,702
-286.2032710037115,719
-283.65328297338897,700
-281.1039999511146,672
-278.5554217494762,777
-276.007548180983,700
-273.4603790580651,597
-270.9139141930734,624
-268.3681533982807,678
-265.8230964858798,624
-263.27874326798565,626
-260.7350935566336,656
-258.1921471637804,683
-255.6499039013039,762
-253.10836358100266,778
-250.56752601459698,719
-248.02739101372765,751
-245.48795838995704,834
-242.94922795476816,783
-240.41119951956557,743
-237.8738728956746,974
-235.33724789434166,1006
-232.80132432673452,908
-230.2661020039418,981
-227.73158073697357,924
-225.19776033676033,845
-222.66464061415422,887
-220.1322213799284,886
-217.60050244477725,883
-215.06948361931552,837
-212.53916471408013,814
-210.00954553952818,792
-207.48062590603843,830
-204.9524056239104,968
-202.4248845033651,991
-199.8980623545441,1025
-197.37193898751036,943
-194.84651421224817,918
-192.32178783866232,945
-189.79775967657952,937
-187.27442953574644,989
-184.7517972258321,883
-182.2298625564256,836
-179.7086253370378,951
-177.18808537710026,1028
-174.66824248596583,1058
-172.14909647290835,1210
-169.6306471471229,1114
-167.11289431772548,1117
-164.59583779375328,1115
-162.07947738416453,1171
-159.5638128978386,1156
-157.04884414357605,1189
-154.53457093009854,1171
-152.02099306604828,1156
-149.50811035998936,1144
-146.99592262040665,1287
-144.48442965570587,1302
-141.97363127421409,1424
-139.46352728417958,1613
-136.95411749377126,1682
-134.44540171107985,1911
-131.93737974411636,1741
-129.43005140081357,1594
-126.92341648902493,1468
-124.41747481652521,1631
-121.91222619101006,1791
-119.40767042009657,1472
-116.90380731132257,1428
-114.40063667214702,1580
-111.8981583099503,1748
-109.3963720320337,1901
-106.89527764561933,1621
-104.39487495785067,1774
-101.89516377579241,1923
-99.39614390642998,1968
-96.89781515667039,1922
-94.40017733334128,2034
-91.90323024319173,1993
-89.40697369289148,2005
-86.91140748903172,1898
-84.41653143812482,2023
-81.92234534660395,2182
-79.42884902082358,2352
-76.93604226705907,2428
-74.4439248915071,2371
-71.95249670028534,2127
-69.46175749943245,2272
-66.97170709490854,2560
-64.48234529259423,3187
-61.99367189829195,3407
-59.50568671772464,3384
-57.01838955653636,3317
-54.53178022029283,3543
-52.045858514480074,3838
-49.560624244506016,4471
-47.07607721569923,4268
-44.59221723330904,3980
-42.10904410250669,4139
-39.62655762838392,5163
-37.14475761595372,6091
-34.66364387015028,6379
-32.18321619582866,7539
-29.70347439776515,8352
-27.224418280657005,9460
-24.74604764912317,12909
-22.26836230770266,18943
-19.7913620608565,30538
-17.315046712966478,45870
-14.83941606833514,50875
-12.36446993118659,65038
-9.89020810566592,65038
-7.416630395839093,65038
-4.94373660569363,65038
-2.471526539137585,65038
-6.821210263296962E-13,65038
2.47084320796705,65038
4.941003281093458,65038
7.410480415786196,65038
9.879274808531363,65038
12.347386655893956,65038
14.814816154518212,65038
17.28156350112681,65038
19.74762889252179,65038
22.21301252558385,65038
24.67771459727237,65038
27.141735304626195,49388
29.605074844762612,20221
32.06773341487792,11058
34.52971121224755,8236
36.99100843422559,8703
39.45162527824516,10730
41.91156194181792,9721
44.370818622535126,13916
46.82939551806646,18399
49.287292826160524,16631
51.74451074464503,14669
54.201049471426245,8773
56.65690920448981,5056
59.112090141899785,4159
61.56659248179983,4396
64.02041642241159,3939
66.4735621620365,3682
68.92602989905402,2623
71.37781983192338,2536
73.82893215918205,3571
76.27936707944684,2973
78.72912479141326,2659
81.17820549385567,2560
83.62660938562783,3057
86.07433666566146,2950
88.5213875329681,3050
90.96776218663751,2951
93.41346082583925,3009
95.85848364982041,3049
98.30283085790859,2285
100.7465026495089,2561
103.18949922410604,2809
105.63182078126385,2178
108.07346752062438,2485
110.51443964190923,2472
112.95473734491827,2052
115.39436082953114,1863
117.83331029570547,1837
120.27158594347827,2372
122.7091879729652,1754
125.1461165843615,1782
127.58237197794062,1693
130.01795435405518,1512
132.4528639131364,1555
134.88710085569494,1831
137.32066538231982,1886
139.75355769367923,1753
142.1857779905207,1729
144.61732647366978,1697
147.04820334403132,1593
149.47840880258934,1524
151.90794305040674,1587
154.33680628862487,1706
156.76499871846443,1614
159.19252054122433,1733
161.61937195828352,1937
164.04555317109896,1803
166.47106438120693,2031
168.89590579022217,2569
171.320077599839,2694
173.7435800118302,2411
176.16641322804742,2541
178.58857745042144,2707
181.01007288096173,2670
183.43089972175687,2631
185.85105817497413,2482
188.27054844285988,2505
190.6893707277394,2552
193.10752523201643,2583
195.5250121581745,2756
197.9418317087751,2854
200.3579840864594,2708
202.7734694939469,2704
205.18828813403627,2747
207.6024402096051,2685
210.01592592360964,2789
212.42874547908548,2866
214.84089907914665,2883
217.2523869269868,2759
219.66320922587727,2826
222.0733661791695,2816
224.48285799029293,2801
226.8916848627572,2846
229.29984700014882,2960
231.7073446061355,2970
234.11417788446204,2951
236.520347038953,2886
238.92585227351185,3197
241.33069379212054,3291
243.73487179884035,3081
246.1383864978112,2941
248.541238093252,3005
250.9434267894609,3088
253.34495279081432,3190
255.74581630176783,3019
258.1460175268563,3191
260.54555667069314,3238
262.9444339379703,3143
265.3426495334594,3032
267.7402036620107,3065
270.1370965285529,2966
272.53332833809407,2935
274.9288992957214,2899
277.32380960660055,2806
279.718059475976,2791
282.1116491091717,2774
284.5045787115897,2851
286.89684848871195,2847
289.2884586460981,2858
291.67940938938807,2899
294.0697009242996,2734
296.4593334566299,2749
298.84830719225477,2655
301.23662233712923,2760
303.6242790972866,2677
306.01127767884,2745
308.39761828798066,2710
310.78330113097934,2663
313.16832641418534,2707
315.5526943440269,2664
317.9364051270112,2583
320.3194589697242,2493
322.70185607883093,2434
325.0835966610754,2431
327.4646809232805,2458
329.8451090723478,2439
332.2248813152577,2569
334.6039978590701,2388
336.9824589109231,2387
339.36026467803447,2408
341.7374153677,2338
344.113911187295,2264
346.48975234427337,2289
348.8649390461686,2245
351.2394715005918,2229
353.61334991523415,2266
355.9865744978655,2235
358.35914545633375,2271
360.73106299856715,2329
363.10232733257146,2253
365.47293866643247,2253
367.84289720831396,2215
370.2122031664593,2233
372.5808567491905,2132
374.9488581649083,2159
377.31620762209275,2170
379.6829053293021,2183
382.0489514951745,2267
384.4143463284262,2238
386.7790900378528,2212
389.14318283232853,2161
391.50662492080653,2131
393.86941651231916,2113
396.23155781597745,2075
398.5930490409713,2152
400.9538903965696,2116
403.3140820921202,2082
405.6736243370498,2089
408.03251734086336,2163
410.3907613131465,2065
412.74835646356166,2004
415.10530300185144,2162
417.4616011378372,2128
419.81725108141893,2035
422.1722530425758,2104
424.5266072313656,1999
426.880313857925,2032
429.2333731324701,2105
431.58578526529516,2110
433.9375504667738,1976
436.2886689473588,2003
438.63914091758113,1989
440.9889665880513,2011
443.33814616945835,2052
445.68667987257015,1986
448.03456790823395,1930
450.3818104873759,2010
452.72840782100013,2081
455.07436012019105,1977
457.41966759611057,2013
459.7643304600007,1996
462.10834892318155,2001
464.4517231970525,2020
466.79445349309174,2027
469.1365400228566,2049
471.4779829979826,2033
473.81878263018564,2072
476.15893913125876,2060
478.4984527130747,2136
480.8373235875855,2199
483.17555196682144,2213
485.5131380628919,2347
487.8500820879857,2388
490.1863842543697,2576
492.52204477439034,2686
494.8570638604725,2952
497.1914417251204,3280
499.52517858091653,3716
501.85827464052306,3889
504.19073011668036,4017
506.5225452222086,4073
508.85372017000566,4104
511.18425517304956,3811
513.514150444396,3899
515.8434061971808,4290
518.1720226446176,4741
520.4999999999999,5071
522.8273384766991,5443
525.1540382881666,5578
527.480099647932,5434
529.8055227696037,4676
532.1303078668694,3410
534.454455153496,2545
536.777964843328,2174
539.1008371502907,2097
541.4230722883866,1928
543.744670471698,1943
546.0656319143858,1943
548.3859568306899,1951
550.7056454349294,1924
553.0246979415016,1883
555.3431145648834,1807
557.6608955196306,1784
559.978041020377,1822
562.2945512818363,1796
564.6104265188006,1856
566.9256669461412,1825
569.2402727788082,1784
571.5542442318302,1818
573.8675815203156,1833
576.1802848594508,1771
578.4923544645015,1736
580.8037905508126,1787
583.114593333807,1738
585.4247630289875,1743
587.7342998519354,1778
590.0432040183106,1742
592.3514757438526,1773
594.6591152443794,1785
596.9661227357875,1835
599.2724984340531,1776
601.578242555231,1778
603.8833553154542,1825
606.1878369309362,1888
608.4916876179676,1855
610.7949075929192,1915
613.0974970722403,1782
615.3994562724587,1754
617.7007854101818,1913
620.0014847020951,1788
622.3015543649641,1800
624.6009946156324,1756
626.8998056710224,1902
629.1979877481361,1853
631.4955410640538,1767
633.7924658359349,1818
636.0887622810175,1918
638.3844306166192,1814
640.6794710601358,1855
642.9738838290426,1853
645.2676691408932,1822
647.5608272133207,1830
649.853358264037,1838
652.1452625108324,1942
654.4365401715764,1798
656.7271914642178,1794
659.0172166067838,1814
661.3066158173809,1875
663.5953893141935,1829
665.8835373154867,1847
668.1710600396028,1862
670.4579577049639,1815
672.7442305300709,1949
675.0298787335033,1902
677.3149025339197,1850
679.599302150058,1888
681.8830778007342,1845
684.1662297048437,1859
686.4487580813608,1824
688.7306631493387,1880
691.0119451279091,1880
693.2926042362834,1873
695.5726406937516,1859
697.8520547196814,1787
700.1308465335215,1894
702.4090163547982,1809
704.6865644031171,1851
706.9634908981619,1835
709.2397960596965,1886
711.5154801075631,1880
713.7905432616823,1852
716.0649857420548,1824
718.3388077687592,1889
720.612009561953,1863
722.8845913418733,1838
725.1565533288352,1819
727.427895743234,1914
729.6986188055427,1881
731.9687227363137,1912
734.238207756178,1877
736.5070740858458,1801
738.7753219461066,1808
741.0429515578281,1872
743.3099631419569,1913
745.5763569195191,1887
747.8421331116193,1913
750.1072919394409,1802
752.3718336242467,1903
754.6357583873777,1929
756.8990664502545,1921
759.1617580343765,1898
761.423833361321,1900
763.6852926527457,1830
765.9461361303862,1791
768.206364016058,1809
770.4659765316536,1890
772.7249738991469,1845
774.9833563405886,1886
777.2411240781092,1885
779.4982773339183,1898
781.7548163303044,1967
784.010741289634,1953
786.2660524343538,1956
788.5207499869881,1850
790.7748341701416,1921
793.0283052064964,1953
795.2811633188143,1895
797.5334087299362,1894
799.7850416627813,1914
802.0360623403484,1965
804.2864709857143,1855
806.5362678220353,1907
808.7854530725468,1994
811.0340269605625,1886
813.2819897094754,1836
815.5293415427581,1860
817.77608268396,1913
820.0222133567116,1912
822.2677337847211,1948
824.5126441917765,1878
826.7569448017433,1920
829.0006358385675,1784
831.2437175262731,1852
833.4861900889629,1929
835.7280537508192,1847
837.9693087361026,1940
840.2099552691533,1986
842.4499935743896,1878
844.689423876309,1916
846.9282463994886,1899
849.1664613685833,1915
851.4040690083276,1844
853.6410695435349,1870
855.877463199097,1939
858.1132501999847,1888
860.3484307712487,1866
862.5830051380175,1885
864.8169735254988,1836
867.0503361589791,1918
869.2830932638243,1949
871.5152450654786,1907
873.7467917894654,1916
875.9777336613873,1991
878.2080709069252,1941
880.4378037518389,1900
882.666932421968,1963
884.8954571432301,1931
887.1233781416219,1944
889.3506956432192,1999
891.5774098741766,1958
893.803521060728,1917
896.0290294291852,1999
898.2539352059397,1893
900.4782386174619,1969
902.7019398903011,1962
904.925039251085,2003
907.147536926521,2049
909.3694331433943,1944
911.59072812857,1958
913.8114221089921,1903
916.0315153116827,1930
918.2510079637437,1945
920.4699002923547,1947
922.6881925247761,1969
924.905884888345,1938
927.1229776104793,1965
929.3394709186747,1893
931.555365040506,1942
933.7706602036275,1871
935.9853566357709,1841
938.1994545647489,1850
940.4129542184515,1853
942.6258558248488,1946
944.8381596119883,1859
947.0498658079974,1966
949.2609746410825,1980
951.4714863395287,1868
953.6814011316998,1859
955.8907192460387,1858
958.0994409110671,1845
960.3075663553858,1915
962.5150958076741,1938
964.7220294966913,1960
966.928367651274,1780
969.1341105003388,1792
971.3392582728806,1883
973.5438111979742,1786
975.747769504772,1875
977.9511334225061,1821
980.153903180487,1726
982.3560790081052,1709
984.5576611348289,1817
986.7586497902058,1810
988.9590452038618,1760
991.158847605503,1729
993.3580572249133,1684
995.5566742919558,1758
997.7546990365728,1740
999.952131688785,1700
1002.1489724786926,1649
1004.3452216364743,1607
1006.5408793923874,1591
1008.7359459767691,1646
1010.9304216200343,1614
1013.1243065526781,1587
1015.3176010052733,1575
1017.510305208472,1596
1019.7024193930064,1497
1021.8939437896848,1462
1024.0848786293977,1513
1026.2752241431122,1547
1028.4649805618747,1528
1030.6541481168115,1578
1032.842727039127,1498
1035.0307175601051,1449
1037.2181199111074,1469
1039.4049343235752,1475
1041.591161029029,1488
1043.7768002590683,1489
1045.9618522453698,1489
1048.1463172196918,1476
1050.3301954138697,1440
1052.513487059818,1443
1054.69619238953,1482
1056.8783116350783,1454
1059.0598450286152,1474
1061.2407928023704,1446
1063.4211551886528,1440
1065.6009324198508,1406
1067.780124728432,1462
1069.9587323469414,1420
1072.1367555080046,1416
1074.314194444325,1481
1076.4910493886855,1467
1078.667320573947,1395
1080.843008233051,1423
1083.0181125990161,1408
1085.1926339049414,1456
1087.3665723840027,1445
1089.5399282694575,1406
1091.7127017946405,1401
1093.8848931929647,1418
1096.0565026979243,1377
1098.2275305430899,1372
1100.3979769621128,1378
1102.567842188722,1359
1104.737126456726,1399
1106.9058300000124,1387
1109.0739530525475,1385
1111.2414958483764,1343
1113.4084586216231,1378
1115.5748416064907,1421
1117.7406450372605,1333
1119.9058691482942,1391
1122.0705141740304,1353
1124.2345803489884,1363
1126.3980679077658,1379
1128.5609770850388,1402
1130.7233081155623,1375
1132.8850612341707,1322
1135.0462366757774,1359
1137.2068346753745,1393
1139.3668554680326,1392
1141.526299288901,1357
1143.68516637321,1349
1145.8434569562655,1357
1148.001171273455,1265
1150.158309560244,1352
1152.3148720521767,1332
1154.470858984876,1355
1156.626270594044,1306
1158.7811071154629,1360
1160.9353687849912,1339
1163.089055838569,1344
1165.242168512213,1389
1167.3947070420209,1370
1169.5466716641677,1382
1171.6980626149075,1284
1173.8488801305748,1325
1175.9991244475814,1329
1178.1487958024186,1313
1180.2978944316555,1339
1182.4464205719428,1376
1184.5943744600072,1340
1186.7417563326567,1350
1188.8885664267755,1309
1191.0348049793297,1339
1193.1804722273619,1348
1195.325568407995,1324
1197.4700937584303,1402
1199.614048515948,1350
1201.7574329179074,1268
1203.900247201746,1282
1206.042491604982,1326
1208.1841663652099,1333
1210.3252717201053,1309
1212.465807907422,1344
1214.6057751649923,1342
1216.7451737307279,1381
1218.8840038426192,1341
1221.0222657387353,1358
1223.1599596572241,1345
1225.2970858363137,1311
1227.4336445143094,1373
1229.5696359295966,1357
1231.705060320639,1304
1233.8399179259786,1373
1235.9742089842384,1362
1238.107933734118,1317
1240.2410924143974,1288
1242.373685263935,1330
1244.5057125216676,1311
1246.6371744266116,1315
1248.7680712178621,1378
1250.898403134593,1368
1253.028170416058,1304
1255.1573733015875,1373
1257.2860120305932,1414
1259.4140868425648,1338
1261.54159797707,1327
1263.6685456737569,1344
1265.7949301723515,1333
1267.9207517126597,1368
1270.046010534565,1342
1272.1707068780306,1366
1274.2948409830983,1367
1276.4184130898889,1372
1278.541423438603,1352
1280.6638722695184,1387
1282.785759822993,1467
1284.9070863394636,1400
1287.0278520594447,1326
1289.1480572235314,1427
1291.2677020723963,1406
1293.3867868467923,1462
1295.5053117875495,1427
1297.623277135579,1430
1299.740683131868,1391
1301.8575300174857,1497
1303.973818033578,1490
1306.0895474213703,1496
1308.2047184221678,1466
1310.3193312773528,1455
1312.4333862283888,1478
1314.5468835168163,1483
1316.659823384255,1481
1318.7722060724045,1434
1320.8840318230418,1442
1322.9953008780249,1438
1325.1060134792888,1475
1327.2161698688478,1487
1329.3257702887959,1447
1331.4348149813054,1429
1333.5433041886276,1488
1335.6512381530933,1429
1337.7586171171101,1443
1339.8654413231675,1494
1341.9717110138317,1392
1344.0774264317488,1422
1346.1825878196432,1343
1348.2871954203192,1413
1350.3912494766587,1395
1352.4947502316231,1439
1354.5976979282532,1481
1356.7000928096686,1440
1358.8019351190665,1433
1360.9032250997243,1426
1363.0039629949988,1415
1365.1041490483235,1529
1367.2037835032133,1447
1369.3028666032606,1389
1371.401398592137,1442
1373.4993797135926,1435
1375.5968102114575,1409
1377.6936903296396,1465
1379.7900203121262,1452
1381.8858004029835,1376
1383.9810308463561,1432
1386.075711886469,1426
1388.1698437676241,1469
1390.2634267342032,1467
1392.356461030667,1433
1394.4489469015557,1472
1396.5408845914872,1440
1398.6322743451592,1383
1400.7231164073469,1413
1402.813411022907,1451
1404.903158436773,1441
1406.9923588939578,1436
1409.0810126395531,1445
1411.1691199187303,1493
1413.2566809767386,1462
1415.343696058907,1458
1417.4301654106425,1508
1419.5160892774315,1509
1421.6014679048399,1447
1423.6863015385125,1460
1425.7705904241707,1450
1427.8543348076178,1509
1429.9375349347342,1448
1432.0201910514802,1542
1434.102303403894,1522
1436.1838722380944,1538
1438.2648978002767,1482
1440.3453803367174,1472
1442.4253200937692,1529
1444.5047173178677,1528
1446.5835722555234,1542
1448.6618851533285,1551
1450.739656257952,1541
1452.8168858161434,1581
1454.8935740747306,1591
1456.96972128062,1588
1459.045327680797,1587
1461.120393522327,1677
1463.1949190523528,1672
1465.2689045180973,1650
1467.3423501668608,1620
1469.415256246024,1704
1471.4876230030463,1698
1473.559450685465,1650
1475.6307395408976,1675
1477.7014898170391,1788
1479.771701761665,1770
1481.8413756226287,1787
1483.9105116478618,1779
1485.9791100853772,1736
1488.0471711832643,1835
1490.1146951896926,1837
1492.1816823529098,1861
1494.2481329212433,1874
1496.3140471430984,1854
1498.3794252669609,1809
1500.4442675413939,1854
1502.5085742150404,1858
1504.572345536622,1938
1506.6355817549388,1870
1508.6982831188702,1858
1510.7604498773744,1884
1512.8220822794883,1920
1514.8831805743293,1936
1516.9437450110909,1950
1519.003775839048,1902
1521.0632733075522,1921
1523.1222376660367,1964
1525.1806691640113,1982
1527.2385680510652,1959
1529.2959345768668,1940
1531.3527689911643,1956
1533.4090715437833,2019
1535.4648424846291,1987
1537.5200820636855,2019
1539.5747905310159,2054
1541.6289681367616,1947
1543.6826151311434,2049
1545.7357317644614,2115
1547.7883182870937,2105
1549.8403749494987,2129
1551.8919020022113,2115
1553.9428996958477,2197
1555.9933682811015,2175
1558.0433080087469,2163
1560.0927191296346,2277
1562.1416018946961,2295
1564.1899565549415,2302
1566.2377833614592,2281
1568.2850825654164,2350
1570.3318544180606,2307
1572.3780991707158,2294
1574.423817074788,2297
1576.4690083817595,2166
1578.5136733431923,2123
1580.5578122107272,2031
1582.601425236085,2054
1584.6445126710646,2003
1586.6870747675434,1928
1588.7291117774776,1856
1590.7706239529034,1836
1592.8116115459347,1739
1594.8520748087658,1747
1596.8920139936686,1714
1598.9314293529933,1715
1600.9703211391711,1682
1603.008689604711,1671
1605.0465350022005,1630
1607.0838575843068,1543
1609.1206576037753,1498
1611.1569353134305,1522
1613.1926909661765,1522
1615.2279248149953,1490
1617.2626371129481,1482
1619.2968281131757,1433
1621.3304980688963,1507
1623.3636472334088,1449
1625.39627586009,1425
1627.428384202396,1458
1629.459972513861,1437
1631.4910410480993,1414
1633.5215900588028,1430
1635.551619799744,1457
1637.5811305247717,1434
1639.6101224878166,1357
1641.6385959428862,1360
1643.6665511440683,1366
1645.693988345528,1351
1647.7209078015112,1326
1649.7473097663405,1411
1651.7731944944203,1420
1653.7985622402307,1388
1655.823413258333,1359
1657.847747803366,1413
1659.8715661300494,1330
1661.8948684931793,1339
1663.9176551476316,1365
1665.9399263483624,1353
1667.9616823504057,1360
1669.982923408873,1327
1672.0036497789574,1319
1674.0238617159293,1354
1676.043559475138,1378
1678.0627433120121,1390
1680.081413482059,1361
1682.0995702408654,1430
1684.117213844096,1336
1686.134344547495,1414
1688.1509626068864,1337
1690.1670682781705,1331
1692.182661817329,1383
1694.1977434804217,1303
1696.2123135235875,1401
1698.226372203043,1367
1700.2399197750851,1354
1702.2529564960905,1358
1704.2654826225112,1310
1706.277498410882,1355
1708.2890041178139,1382
1710.2999999999988,1283
1712.3104863142066,1400
1714.3204633172854,1354
1716.329931266163,1359
1718.3388904178469,1329
1720.3473410294214,1334
1722.3552833580516,1338
1724.3627176609807,1307
1726.3696441955308,1328
1728.3760632191033,1316
1730.3819749891782,1353
1732.3873797633146,1379
1734.3922777991502,1321
1736.3966693544012,1271
1738.4005546868639,1306
1740.4039340544127,1304
1742.406807715001,1307
1744.4091759266616,1331
1746.4110389475054,1336
1748.4123970357223,1338
1750.413250449582,1296
1752.4135994474318,1315
1754.4134442876993,1323
1756.4127852288902,1303
1758.4116225295893,1309
1760.4099564484595,1302
1762.407787244244,1309
1764.405115175764,1368
1766.4019405019203,1302
1768.3982634816916,1335
1770.3940843741357,1287
1772.3894034383907,1293
1774.3842209336717,1250
1776.378537119274,1279
1778.372352254571,1306
1780.3656665990156,1306
1782.3584804121397,1302
1784.3507939535534,1287
1786.3426074829463,1313
1788.3339212600863,1284
1790.3247355448211,1293
1792.3150505970766,1334
1794.3048666768573,1307
1796.2941840442477,1351
1798.2830029594106,1340
1800.2713236825884,1322
1802.2591464741004,1284
1804.2464715943465,1308
1806.2332993038058,1271
1808.2196298630352,1264
1810.2054635326708,1239
1812.190800573428,1251
1814.175641246101,1274
1816.1599858115628,1272
1818.1438345307652,1275
1820.127187664738,1344
1822.1100454745924,1326
1824.092408221516,1314
1826.0742761667766,1278
1828.055649571721,1304
1830.0365286977735,1335
1832.0169138064398,1313
1833.9968051593014,1332
1835.9762030180214,1312
1837.9551076443408,1259
1839.9335193000788,1233
1841.9114382471344,1253
1843.888864747485,1282
1845.8657990631878,1326
1847.842241456378,1286
1849.8181921892697,1294
1851.7936515241558,1244
1853.7686197234098,1260
1855.7430970494815,1279
1857.7170837649014,1230
1859.6905801322787,1270
1861.6635864143004,1342
1863.6361028737338,1346
1865.608129773424,1293
1867.5796673762961,1233
1869.5507159453537,1299
1871.521275743678,1320
1873.4913470344313,1296
1875.4609300808534,1310
1877.4300251462632,1313
1879.3986324940588,1335
1881.366752387717,1308
1883.3343850907936,1263
1885.3015308669228,1281
1887.268189979819,1321
1889.2343626932739,1304
1891.2000492711595,1339
1893.1652499774254,1274
1895.1299650761011,1273
1897.0941948312952,1351
1899.0579395071945,1289
1901.0211993680641,1307
1902.98397467825,1319
1904.9462657021745,1278
1906.9080727043415,1267
1908.869395949332,1354
1910.8302357018065,1312
1912.790592226504,1327
1914.7504657882428,1268
1916.7098566519212,1283
1918.6687650825133,1294
1920.6271913450764,1279
1922.5851357047422,1325
1924.5425984267245,1307
1926.499579776314,1264
1928.4560800188833,1289
1930.4120994198802,1283
1932.367638244833,1325
1934.32269675935,1266
1936.2772752291175,1330
1938.231373919899,1284
1940.1849930975404,1310
1942.1381330279637,1341
1944.0907939771696,1323
1946.0429762112412,1303
1947.9946799963363,1270
1949.9459055986945,1241
1951.896653284633,1255
1953.8469233205478,1315
1955.7967159729142,1278
1957.7460315082863,1327
1959.6948701932974,1343
1961.6432322946594,1344
1963.5911180791632,1303
1965.5385278136787,1302
1967.4854617651545,1277
1969.4319202006182,1260
1971.377903387176,1311
1973.3234115920136,1292
1975.268445082395,1343
1977.2130041256642,1340
1979.1570889892423,1276
1981.1006999406304,1294
1983.04383724741,1263
1984.986501177238,1268
1986.928691997853,1326
1988.8704099770712,1268
1990.811655382789,1255
1992.7524284829801,1300
1994.692729545698,1295
1996.6325588390755,1292
1998.5719166313224,1299
2000.5108031907307,1302
2002.4492187856677,1314
2004.387163684583,1257
2006.3246381560011,1310
2008.2616424685298,1302
2010.1981768908527,1331
2012.1342416917332,1271
2014.069837140014,1304
2016.0049635046162,1286
2017.9396210545406,1250
2019.8738100588666,1268
2021.8075307867502,1282
2023.740783507431,1312
2025.6735684902228,1287
2027.6058860045214,1252
2029.5377363198004,1295
2031.4691197056118,1342
2033.4000364315875,1306
2035.3304867674374,1304
2037.260470982952,1247
2039.189989347998,1243
2041.1190421325232,1271
2043.047629606554,1246
2044.9757520401945,1283
2046.9034097036288,1205
2048.8306028671195,1201
2050.7573318010086,1272
2052.683596775716,1298
2054.609398061742,1304
2056.5347359296647,1234
2058.4596106501403,1295
2060.384022493906,1285
2062.3079717317764,1303
2064.231458634646,1272
2066.1544834734873,1251
2068.077046519352,1270
2069.99914804337,1299
2071.9207883167524,1286
2073.8419676107865,1243
2075.7626861968406,1303
2077.6829443463607,1266
2079.6027423308715,1276
2081.522080421977,1262
2083.440958891362,1269
2085.359378010786,1289
2087.2773380520907,1260
2089.194839287196,1267
2091.111881988101,1271
2093.0284664268825,1329
2094.9445928756973,1237
2096.86026160678,1319
2098.775472892446,1250
2100.690227005088,1227
2102.604524217178,1250
2104.5183648012676,1262
2106.431749029985,1293
2108.34467717604,1274
2110.2571495122206,1306
2112.169166311393,1240
2114.080727846503,1276
2115.9918343905747,1260
2117.902486216711,1273
2119.8126835980956,1294
2121.722426807987,1248
2123.6317161197285,1273
2125.5405518067364,1286
2127.448934142509,1254
2129.356863400624,1249
2131.264339854737,1242
2133.1713637785815,1247
2135.077935445972,1303
2136.9840551308002,1289
2138.889723107037,1256
2140.7949396487334,1253
2142.699705030018,1265
2144.6040195250994,1270
2146.507883408264,1300
2148.4112969538774,1287
2150.3142604363848,1252
2152.2167741303097,1319
2154.1188383102535,1289
2156.0204532508997,1258
2157.9216192270064,1261
2159.822336513414,1329
2161.7226053850413,1304
2163.622426116884,1271
2165.5217989840185,1259
2167.4207242616,1252
2169.319202224862,1305
2171.2172331491165,1264
2173.1148173097563,1308
2175.0119549822507,1277
2176.90864644215,1218
2178.8048919650823,1207
2180.7006918267534,1248
2182.596046302952,1263
2184.4909556695407,1246
2186.3854202024645,1300
2188.279440177746,1300
2190.173015871487,1311
2192.066147559868,1226
2193.958835519149,1280
2195.851080025667,1305
2197.7428813558417,1282
2199.6342397861667,1255
2201.5251555932186,1204
2203.415629053651,1279
2205.3056604441986,1266
2207.19525004167,1257
2209.084398122958,1332
2210.9731049650327,1275
2212.861370844941,1265
2214.749196039812,1296
2216.636580826851,1274
2218.523525483344,1279
2220.410030286655,1279
2222.296095514226,1312
2224.1817214435805,1248
2226.066908352319,1262
2227.951656518121,1262
2229.835966218746,1298
2231.71983773203,1292
2233.6032713358913,1261
2235.486267308324,1281
2237.3688259274036,1261
2239.2509474712824,1219
2241.132632218193,1295
2243.013880446447,1317
2244.8946924344323,1297
2246.7750684606203,1228
2248.6550088035574,1313
2250.534513741871,1281
2252.413583554265,1242
2254.292218519526,1255
2256.170418916517,1282
2258.0481850241786,1218
2259.925517121534,1253
2261.8024154876825,1295
2263.678880401803,1306
2265.5549121431536,1307
2267.430510991071,1246
2269.305677224971,1333
2271.180411124348,1269
2273.0547129687766,1297
2274.9285830379076,1242
2276.8020216114737,1279
2278.6750289692845,1267
2280.5476053912294,1285
2282.4197511572766,1273
2284.2914665474727,1232
2286.162751841943,1232
2288.0336073208937,1242
2289.904033264608,1264
2291.774029953448,1272
2293.6435976678554,1304
2295.5127366883517,1293
2297.381447295534,1314
2299.2497297700825,1309
2301.1175843927526,1265
2302.9850114443825,1266
2304.852011205885,1310
2306.7185839582553,1243
2308.5847299825664,1277
2310.4504495599676,1287
2312.3157429716925,1335
2314.1806104990483,1250
2316.0450524234247,1331
2317.9090690262888,1334
2319.772660589186,1306
2321.635827393742,1298
2323.498569721661,1286
2325.3608878547248,1245
2327.2227820747967,1300
2329.0842526638157,1251
2330.945299903803,1290
2332.805924076857,1245
2334.6661254651535,1307
2336.525904350951,1256
2338.3852610165827,1246
2340.244195744464,1317
2342.102708817088,1312
2343.9608005170253,1272
2345.8184711269287,1297
2347.675720929526,1263
2349.532550207628,1270
2351.38895924412,1302
2353.24494832197,1279
2355.100517724223,1299
2356.955667734004,1264
2358.810398634514,1304
2360.664710709037,1276
2362.5186042409337,1345
2364.3720795136437,1274
2366.225136810686,1293
2368.0777764156583,1288
2369.929998612237,1282
2371.7818036841777,1275
2373.633191915315,1300
2375.484163589562,1289
2377.3347189909114,1334
2379.184858403434,1345
2381.03458211128,1329
2382.8838903986775,1314
2384.732783549936,1239
2386.5812618494406,1274
2388.4293255816588,1282
2390.2769750311327,1309
2392.1242104824883,1303
2393.971032220427,1289
2395.8174405297295,1278
2397.6634356952563,1281
2399.509018001947,1298
2401.3541877348193,1316
2403.1989451789705,1322
2405.043290619576,1253
2406.8872243418905,1326
2408.730746631247,1295
2410.5738577730594,1237
2412.4165580528183,1354
2414.258847756095,1347
2416.100727168537,1333
2417.9421965758734,1330
2419.783256263912,1333
2421.623906518538,1329
2423.4641476257157,1325
2425.303979871491,1327
2427.143403541984,1367
2428.9824189233977,1355
2430.821026302012,1352
2432.6592259641866,1339
2434.497018196361,1349
2436.33440328505,1369
2438.171381516851,1311
2440.00795317844,1336
2441.844118556569,1349
2443.6798779380724,1337
2445.5152316098606,1273
2447.3501798589255,1362
2449.1847229723357,1373
2451.0188612372403,1372
2452.8525949408663,1357
2454.6859243705203,1305
2456.518849813587,1337
2458.3513715575314,1333
2460.183489889895,1326
2462.015205098301,1340
2463.8465174704493,1327
2465.67742729412,1334
2467.5079348571717,1239
2469.338040447542,1298
2471.1677443532476,1349
2472.9970468623833,1283
2474.825948263123,1291
2476.6544488437207,1252
2478.482548892508,1328
2480.310248697896,1329
2482.137548548374,1386
2483.9644487325118,1367
2485.790949538956,1335
2487.617051256433,1316
2489.44275417375,1322
2491.26805857979,1283
2493.0929647635157,1334
2494.917473013971,1329
2496.741583620276,1348
2498.5652968716304,1336
2500.3886130573137,1323
2502.2115324666834,1381
2504.0340553891765,1368
2505.856182114308,1349
2507.6779129316733,1322
2509.499248130945,1360
2511.3201880018764,1395
2513.140732834298,1393
2514.9608829181198,1301
2516.780638543331,1327
2518.6,1311
2520.418967578273,1338
2522.237541568376,1338
2524.0557222606144,1385
2525.8735099453706,1347
2527.6909049131086,1289
2529.507907454368,1367
2531.32451785977,1367
2533.140736420014,1396
2534.9565634258774,1377
2536.771999168218,1359
2538.5870439379714,1378
2540.4016980261526,1389
2542.2159617238544,1413
2544.02983532225,1330
2545.8433191125914,1363
2547.656413386209,1339
2549.4691184345115,1375
2551.2814345489874,1401
2553.093362021204,1476
2554.904901142808,1353
2556.716052205523,1399
2558.526815501153,1367
2560.3371913215824,1450
2562.147179958771,1432
2563.956781704761,1444
2565.7659968516705,1471
2567.5748256916986,1393
2569.3832685171224,1474
2571.1913256202984,1442
2572.9989972936614,1423
2574.806283829725,1467
2576.613185521084,1469
2578.4197026604074,1456
2580.2258355404483,1459
2582.031584454035,1430
2583.836949694077,1462
2585.6419315535613,1497
2587.4465303255533,1525
2589.2507463032002,1561
2591.0545797797245,1537
2592.8580310484303,1499
2594.6611004026995,1448
2596.463788135992,1486
2598.266094541849,1513
2600.0680199138874,1446
2601.869564545807,1434
2603.670728731383,1448
2605.4715127644704,1477
2607.2719169390048,1465
2609.071941548998,1460
2610.8715868885433,1523
2612.670853251811,1451
2614.469740933052,1453
2616.268250226594,1414
2618.0663814268455,1468
2619.864134828292,1467
2621.6615107255006,1451
2623.458509413115,1447
2625.2551311858597,1443
2627.0513763385347,1452
2628.8472451660223,1457
2630.6427379632833,1425
2632.4378550253564,1471
2634.232596647359,1423
2636.026963124488,1435
2637.8209547520187,1400
2639.6145718253065,1431
2641.407814639785,1427
2643.200683490966,1424
2644.9931786744414,1402
2646.7853004858807,1428
2648.577049221034,1333
2650.3684251757277,1412
2652.1594286458712,1386
2653.9500599274484,1379
2655.740319316525,1388
2657.5302071092437,1377
2659.3197236018286,1382
2661.10886909058,1427
2662.8976438718782,1363
2664.686048242183,1349
2666.4740824980327,1330
2668.2617469360443,1358
2670.0490418529134,1372
2671.8359675454153,1398
2673.622524310403,1400
2675.408712444811,1298
2677.1945322456495,1299
2678.979984010009,1357
2680.76506803506,1336
2682.5497846180497,1299
2684.334134056306,1304
2686.1181166472343,1330
2687.9017326883213,1363
2689.6849824771293,1325
2691.4678663113013,1314
2693.2503844885596,1326
2695.032537306705,1281
2696.8143250636167,1254
2698.5957480572542,1260
2700.3768065856534,1333
2702.1575009469316,1284
2703.937831439283,1242
2705.717798360982,1273
2707.4974020103837,1296
2709.276642685917,1303
2711.055520686095,1273
2712.834036309506,1288
2714.612189854819,1318
2716.389981620782,1312
2718.1674119062204,1204
2719.944481010041,1274
2721.721189231226,1270
2723.4975368688415,1286
2725.273524222027,1272
2727.0491515900053,1310
2728.824419272075,1341
2730.5993275676146,1316
2732.3738767760838,1257
2734.148067197016,1252
2735.921899130031,1280
2737.6953728748194,1268
2739.468488731156,1279
2741.2412469988926,1246
2743.0136479779617,1321
2744.785691968372,1322
2746.5573792702116,1273
2748.3287101836504,1256
2750.099685008934,1218
2751.870304046388,1290
2753.640567596418,1291
2755.4104759595057,1268
2757.1800294362156,1275
2758.949228327187,1279
2760.7180729331412,1315
2762.486563554877,1278
2764.254700493272,1277
2766.022484049284,1287
2767.789914523947,1300
2769.5569922183786,1301
2771.3237174337705,1299
2773.090090471394,1252
2774.8561116326036,1283
2776.6217812188274,1265
2778.3870995315756,1282
2780.1520668724356,1242
2781.9166835430747,1228
2783.6809498452394,1281
2785.444866080754,1318
2787.2084325515225,1242
2788.971649559527,1286
2790.73451740683,1292
2792.4970363955713,1211
2794.2592068279705,1270
2796.0210290063264,1227
2797.7825032330147,1252
2799.543629810493,1257
2801.304409041296,1261
2803.0648412280366,1249
2804.8249266734088,1251
2806.5846656801846,1268
2808.344058551212,1246
2810.1031055894246,1286
2811.8618070978273,1247
2813.6201633795085,1235
2815.378174737636,1338
2817.1358414754536,1263
2818.893163896285,1257
2820.6501423035334,1291
2822.4067770006814,1254
2824.1630682912883,1274
2825.9190164789957,1255
2827.6746218675207,1270
2829.429884760661,1285
2831.184805462294,1294
2832.9393842763743,1252
2834.693621506936,1277
2836.4475174580916,1231
2838.201072434034,1268
2839.954286739034,1325
2841.707160677441,1296
2843.459694553685,1266
2845.2118886722724,1271
2846.96374333779,1279
2848.7152588549034,1283
2850.4664355283567,1262
2852.217273662973,1325
2853.9677735636546,1276
2855.7179355353833,1270
2857.4677598832186,1272
2859.217246912299,1263
2860.9663969278427,1247
2862.715210235146,1330
2864.4636871395846,1273
2866.211827946614,1282
2867.9596329617652,1255
2869.7071024906536,1324
2871.4542368389684,1257
2873.20103631248,1250
2874.947501217038,1278
2876.6936318585695,1250
2878.4394285430812,1294
2880.1848915766604,1188
2881.9300212654707,1259
2883.6748179157553,1279
2885.4192818338374,1243
2887.1634133261173,1257
2888.907212699077,1243
2890.6506802592744,1261
2892.393816313348,1221
2894.1366211680142,1265
2895.8790951300693,1260
2897.621238506388,1345
2899.363051603925,1315
2901.1045347297118,1268
2902.8456881908596,1301
2904.58651229456,1233
2906.327007348081,1270
2908.067173658772,1307
2909.8070115340597,1340
2911.5465212814497,1264
2913.285703208527,1268
2915.0245576229563,1294
2916.7630848324807,1214
2918.5012851449196,1322
2920.2391588681758,1311
2921.976706310227,1250
2923.7139277791334,1247
2925.4508235830313,1219
2927.187394030137,1282
2928.923639428745,1272
2930.6595600872306,1261
2932.395156314046,1308
2934.1304284177218,1285
2935.8653767068713,1289
2937.6000014901815,1243
2939.3343030764227,1276
2941.068281774442,1261
2942.8019378931644,1288
2944.5352717415976,1282
2946.2682836288236,1292
2948.0009738640065,1281
2949.7333427563885,1260
2951.465390615289,1243
2953.1971177501086,1224
2954.9285244703265,1296
2956.6596110855,1293
2958.3903779052657,1303
2960.1208252393385,1241
2961.8509533975125,1248
2963.5807626896617,1277
2965.3102534257378,1264
2967.0394259157715,1258
2968.768280469873,1259
2970.496817398232,1277
2972.2250370111146,1251
2973.952939618869,1295
2975.6805255319196,1285
2977.4077950607707,1250
2979.134748516006,1282
2980.861386208289,1297
2982.587708448359,1225
2984.313715547037,1291
2986.039407815222,1319
2987.764785563891,1321
2989.489849104102,1266
2991.2145987469908,1299
2992.9390348037705,1260
2994.6631575857346,1265
2996.3869674042576,1216
2998.1104645707887,1261
2999.83364939686,1312
3001.5565221940783,1253
3003.2790832741334,1263
3005.0013329487924,1273
3006.7232715298996,1248
3008.4448993293804,1273
3010.166216659239,1315
3011.887223831558,1260
3013.607921158498,1204
3015.3283089522993,1305
3017.0483875252826,1247
3018.7681571898443,1175
3020.4876182584626,1303
3022.2067710436927,1262
3023.9256158581707,1236
3025.644153014609,1237
3027.362382825801,1301
3029.0803056046193,1263
3030.797921664012,1268
3032.5152313170106,1238
3034.2322348767225,1241
3035.9489326563353,1227
3037.665324969115,1238
3039.3814121284063,1243
3041.097194447633,1268
3042.812672240299,1277
3044.5278458199855,1257
3046.2427155003525,1230
3047.9572815951406,1276
3049.671544418167,1269
3051.38550428333,1248
3053.0991615046073,1242
3054.812516396051,1255
3056.5255692717974,1248
3058.2383204460575,1288
3059.9507702331257,1214
3061.662918947372,1254
3063.3747669032446,1269
3065.0863144152736,1233
3066.7975617980674,1266
3068.508509366309,1296
3070.219157434767,1267
3071.9295063182844,1266
3073.639556331785,1282
3075.3493077902704,1287
3077.058761008821,1280
3078.7679163025964,1199
3080.476773986837,1263
3082.1853343768594,1298
3083.89359778806,1258
3085.6015645359153,1243
3087.3092349359786,1274
3089.016609303884,1184
3090.7236879553434,1248
3092.4304712061476,1226
3094.136959372166,1246
3095.843152769349,1249
3097.5490517137237,1278
3099.2546565213966,1256
3100.959967508554,1268
3102.66498499146,1266
3104.3697092864577,1310
3106.0741407099695,1234
3107.778279578498,1257
3109.482126208622,1283
3111.1856809170004,1272
3112.8889440203716,1273
3114.5919158355528,1276
3116.294596679439,1250
3117.996986869006,1246
3119.6990867213062,1225
3121.4008965534726,1272
3123.102416682717,1315
3124.803647426329,1321
3126.5045891016784,1271
3128.205242026213,1254
3129.90560651746,1246
3131.605682893025,1264
3133.3054714705922,1249
3135.0049725679282,1302
3136.7041865028714,1264
3138.4031135933465,1235
3140.101754157353,1307
3141.800108512971,1286
3143.498176978357,1295
3145.1959598717494,1265
3146.8934575114636,1283
3148.5906702158954,1271
3150.2875983035183,1244
3151.9842420928853,1226
3153.680601902627,1274
3155.376678051456,1238
3157.07247085816,1255
3158.767980641609,1244
3160.463207720748,1265
3162.158152414606,1249
3163.8528150422862,1195
3165.5471959229726,1263
3167.2412953759303,1231
3168.9351137204976,1265
3170.628651276098,1268
3172.3219083622307,1279
3174.014885298474,1288
3175.707582404485,1303
3177.4000000000005,1262
3179.092138404835,1258
3180.7839979388846,1237
3182.47557892212,1285
3184.166881674594,1287
3185.8579065164386,1241
3187.5486537678626,1243
3189.2391237491547,1242
3190.9293167806827,1230
3192.6192331828934,1274
3194.3088732763117,1275
3195.998237381542,1267
3197.687325819268,1265
3199.376138910251,1269
3201.064676975334,1235
3202.7529403354347,1284
3204.4409293115523,1255
3206.1286442247647,1259
3207.816085396229,1287
3209.5032531471825,1233
3211.190147798936,1188
3212.8767696728846,1228
3214.5631190905015,1224
3216.2491963733373,1195
3217.9350018430214,1243
3219.6205358212637,1258
3221.305798629851,1189
3222.990790590651,1203
3224.6755120256103,1220
3226.359963256751,1201
3228.0441446061795,1224
3229.7280563960758,1240
3231.411698948703,1242
3233.0950725863995,1270
3234.778177631587,1206
3236.461014406761,1269
3238.1435832345005,1226
3239.8258844374595,1204
3241.507918338374,1208
3243.1896852600576,1238
3244.8711855254023,1247
3246.552419457381,1243
3248.233387379042,1242
3249.914089613516,1219
3251.59452648401,1243
3253.274698313813,1247
3254.95460542629,1207
3256.6342481448855,1202
3258.313626793125,1228
3259.9927416946084,1244
3261.6715931730196,1185
3263.3501815521176,1242
3265.0285071557437,1150
3266.706570307815,1243
3268.3843713323286,1213
3270.0619105533615,1263
3271.739188295068,1214
3273.4162048816834,1281
3275.0929606375184,1266
3276.769455886966,1267
3278.445690954498,1256
3280.1216661646613,1244
3281.797381842087,1214
3283.4728383114807,1159
3285.1480358976296,1193
3286.8229749253996,1239
3288.4976557197333,1279
3290.172078605655,1223
3291.846243908266,1218
3293.5201519527463,1236
3295.193803064357,1204
3296.8671975684374,1194
3298.5403357904024,1285
3300.21321805575,1283
3301.8858446900567,1234
3303.558216018975,1286
3305.23033236824,1216
3306.9021940636603,1238
3308.57380143113,1228
3310.2451547966184,1257
3311.916254486174,1207
3313.5871008259246,1246
3315.2576941420766,1242
3316.9280347609147,1239
3318.5981230088046,1230
3320.2679592121895,1217
3321.9375436975924,1258
3323.606876791612,1223
3325.27595882093,1157
3326.944790112305,1208
3328.6133709925753,1213
3330.2817017886573,1216
3331.949782827547,1233
3333.617614436319,1207
3335.2851969421245,1205
3336.952530672199,1209
3338.619615953853,1315
3340.286453114475,1212
3341.9530424815357,1241
3343.619384382583,1267
3345.2854791452437,1184
3346.951327097224,1273
3348.6169285663073,1269
3350.2822838803577,1232
3351.947393367319,1276
3353.61225735521,1302
3355.2768761721345,1281
3356.9412501462693,1251
3358.605379605873,1228
3360.2692648792827,1265
3361.9329062949146,1314
3363.596304181263,1186
