CollectionTime,9/25/2024 10:54:28 AM
ExposureUsed,3
CalibratedSpectrum
-962.7078968117929,511
-959.9714848408522,521
-957.2358232597828,513
-954.5009119013725,514
-951.7667505983302,557
-949.0333391832855,537
-946.3006774887896,552
-943.5687653473143,506
-940.837602591253,528
-938.1071890529199,514
-935.3775245645503,527
-932.6486089583007,517
-929.9204420662485,533
-927.1930237203925,590
-924.4663537526524,566
-921.7404319948689,577
-919.0152582788041,597
-916.2908324361409,629
-913.5671542984834,557
-910.8442236973568,557
-908.1220404642074,547
-905.4006044304027,602
-902.679915427231,557
-899.959973285902,533
-897.2407778375464,554
-894.5223289132158,554
-891.8046263438832,516
-889.0876699604426,505
-886.3714595937089,530
-883.6559950744183,522
-880.9412762332282,508
-878.2273029007168,497
-875.5140749073835,493
-872.8015920836489,522
-870.0898542598545,480
-867.3788612662631,499
-864.6686129330585,489
-861.9591090903457,508
-859.2503495681506,493
-856.5423341964203,468
-853.8350628050229,487
-851.1285352237478,522
-848.4227512823054,517
-845.7177108103272,532
-843.0134136373656,530
-840.3098595928943,537
-837.6070485063082,563
-834.9049802069229,560
-832.2036545239757,543
-829.5030712866244,490
-826.8032303239481,517
-824.1041314649472,539
-821.4057745385428,511
-818.7081593735775,528
-816.0112857988148,533
-813.3151536429393,545
-810.6197627345566,508
-807.9251129021936,512
-805.2312039742981,487
-802.5380357792392,500
-799.8456081453069,512
-797.1539209007124,528
-794.462973873588,539
-791.772766891987,534
-789.083299783884,565
-786.3945723771743,534
-783.7065844996748,530
-781.0193359791231,551
-778.3328266431781,544
-775.6470563194197,530
-772.9620248353489,501
-770.2777320183878,501
-767.5941776958798,519
-764.9113616950891,521
-762.2292838432011,518
-759.5479439673222,524
-756.8673418944801,505
-754.1874774516235,504
-751.5083504656222,520
-748.8299607632671,496
-746.15230817127,522
-743.475392516264,543
-740.7992136248035,602
-738.1237713233636,542
-735.4490654383407,522
-732.7750957960521,568
-730.1018622227365,589
-727.4293645445534,574
-724.7576025875837,563
-722.0865761778291,562
-719.4162851412126,564
-716.7467293035781,565
-714.0779084906909,568
-711.409822528237,571
-708.7424712418238,542
-706.0758544569796,548
-703.4099719991541,524
-700.7448236937178,541
-698.0804093659622,531
-695.4167288411002,550
-692.7537819442656,579
-690.0915685005134,571
-687.4300883348199,571
-684.7693412720819,592
-682.1093271371178,564
-679.4500457546669,576
-676.7914969493897,540
-674.1336805458676,568
-671.4765963686034,617
-668.8202442420206,578
-666.1646239904642,548
-663.5097354382001,541
-660.8555784094151,561
-658.2021527282176,558
-655.5494582186366,582
-652.8974947046223,600
-650.2462620100463,564
-647.5957599587009,574
-644.9459883742998,618
-642.2969470804776,591
-639.6486359007902,611
-637.0010546587141,568
-634.3542031776476,585
-631.7080812809096,587
-629.0626887917401,558
-626.4180255333008,640
-623.7740913286734,646
-621.1308860008619,645
-618.4884093727904,681
-615.8466612673046,631
-613.2056415071715,619
-610.5653499150785,624
-607.9257863136347,705
-605.28695052537,655
-602.6488423727357,623
-600.0114616781036,631
-597.3748082637674,665
-594.7388819519412,705
-592.1036825647604,706
-589.4692099242818,707
-586.8354638524829,760
-584.2024441712624,787
-581.5701507024403,737
-578.9385832677575,696
-576.3077416888759,667
-573.6776257873787,696
-571.0482353847704,703
-568.4195703024757,678
-565.7916303618415,716
-563.164415384135,691
-560.5379251905453,647
-557.9121596021815,635
-555.2871184400748,645
-552.6628015251767,726
-550.0392086783606,736
-547.4163397204204,730
-544.794194472071,733
-542.1727727539491,688
-539.5520743866118,737
-536.9320991905377,711
-534.3128469861261,735
-531.6943175936979,800
-529.0765108334947,833
-526.4594265256793,920
-523.8430644903358,1074
-521.2274245474689,1260
-518.612506517005,1241
-515.9983102187913,1390
-513.3848354725959,1521
-510.77208209810846,1854
-508.16004991493924,2158
-505.5487387426199,2346
-502.9381484006032,2228
-500.3282787082628,2120
-497.71912948489364,1857
-495.1107005497117,1634
-492.5029917218539,1317
-489.8960028203786,1101
-487.28973366426493,1003
-484.68418407241325,894
-482.07935386364494,844
-479.47524285670266,895
-476.87185087025,906
-474.2691777228715,882
-471.66722323307334,835
-469.0659872192821,847
-466.4654694998459,834
-463.86566989303384,861
-461.26658821703614,844
-458.66822428996414,889
-456.07057792985,810
-453.4736489546475,888
-450.877437182231,861
-448.28194243039627,848
-445.68716451686,792
-443.09310325926003,768
-440.49975847515555,793
-437.9071299820263,794
-435.31521759727354,858
-432.72402113821954,893
-430.13354042210767,940
-427.5437752661022,859
-424.95472548728867,839
-422.36639090267386,864
-419.7787713291855,927
-417.1918665836721,1016
-414.60567648290385,983
-412.0202008435715,899
-409.4354394822874,842
-406.8513922155845,947
-404.26805885991723,943
-401.685439231661,949
-399.103533147112,876
-396.522340422488,830
-393.9418608739278,835
-391.3620943174908,880
-388.7830405691583,881
-386.2046994448317,844
-383.6270707603344,801
-381.05015433141045,847
-378.473949973725,852
-375.8984575028645,811
-373.32367673433623,807
-370.74960748356875,776
-368.1762495659117,745
-365.60360279663576,709
-363.03166699093265,675
-360.4604419639154,651
-357.8899275306178,640
-355.32012350599507,567
-352.7510297049233,580
-350.1826459421999,554
-347.61497203254316,558
-345.04800779059235,563
-342.4817530309082,579
-339.91620756797226,665
-337.35137121618743,631
-334.7872437898774,718
-332.22382510328725,727
-329.66111497058273,738
-327.09911320585127,716
-324.53781962310075,664
-321.9772340362607,575
-319.4173562591816,587
-316.8581861056348,631
-314.2997233893127,605
-311.7419679238294,568
-309.1849195227194,549
-306.62857799943856,589
-304.0729431673641,688
-301.51801483979375,727
-298.963792829947,717
-296.41027695096386,662
-293.85746701590574,654
-291.3053628377552,918
-288.7539642294155,841
-286.2032710037115,745
-283.65328297338897,809
-281.1039999511146,825
-278.5554217494762,927
-276.007548180983,964
-273.4603790580651,867
-270.9139141930734,707
-268.3681533982807,717
-265.8230964858798,759
-263.27874326798565,891
-260.7350935566336,911
-258.1921471637804,956
-255.6499039013039,1005
-253.10836358100266,872
-250.56752601459698,831
-248.02739101372765,958
-245.48795838995704,1099
-242.94922795476816,963
-240.41119951956557,874
-237.8738728956746,885
-235.33724789434166,1028
-232.80132432673452,897
-230.2661020039418,883
-227.73158073697357,916
-225.19776033676033,1169
-222.66464061415422,1237
-220.1322213799284,1070
-217.60050244477725,960
-215.06948361931552,965
-212.53916471408013,1062
-210.00954553952818,1381
-207.48062590603843,1309
-204.9524056239104,1065
-202.4248845033651,1116
-199.8980623545441,1171
-197.37193898751036,1277
-194.84651421224817,1282
-192.32178783866232,1157
-189.79775967657952,1263
-187.27442953574644,1426
-184.7517972258321,1476
-182.2298625564256,1321
-179.7086253370378,1239
-177.18808537710026,1327
-174.66824248596583,1548
-172.14909647290835,1630
-169.6306471471229,1427
-167.11289431772548,1125
-164.59583779375328,1186
-162.07947738416453,1265
-159.5638128978386,1621
-157.04884414357605,2007
-154.53457093009854,1982
-152.02099306604828,1562
-149.50811035998936,1225
-146.99592262040665,1299
-144.48442965570587,1726
-141.97363127421409,2454
-139.46352728417958,2883
-136.95411749377126,2559
-134.44540171107985,1992
-131.93737974411636,1602
-129.43005140081357,1663
-126.92341648902493,2347
-124.41747481652521,3365
-121.91222619101006,4870
-119.40767042009657,5625
-116.90380731132257,5901
-114.40063667214702,5021
-111.8981583099503,4163
-109.3963720320337,4062
-106.89527764561933,4094
-104.39487495785067,4736
-101.89516377579241,7085
-99.39614390642998,9626
-96.89781515667039,12868
-94.40017733334128,11981
-91.90323024319173,9471
-89.40697369289148,7983
-86.91140748903172,7391
-84.41653143812482,9007
-81.92234534660395,10957
-79.42884902082358,13355
-76.93604226705907,15506
-74.4439248915071,19216
-71.95249670028534,30932
-69.46175749943245,46886
-66.97170709490854,58117
-64.48234529259423,64727
-61.99367189829195,65041
-59.50568671772464,58711
-57.01838955653636,46046
-54.53178022029283,37288
-52.045858514480074,33375
-49.560624244506016,28473
-47.07607721569923,25363
-44.59221723330904,25911
-42.10904410250669,24676
-39.62655762838392,21965
-37.14475761595372,22549
-34.66364387015028,27318
-32.18321619582866,27630
-29.70347439776515,30535
-27.224418280657005,32701
-24.74604764912317,40650
-22.26836230770266,65041
-19.7913620608565,65041
-17.315046712966478,65041
-14.83941606833514,65041
-12.36446993118659,65041
-9.89020810566592,65041
-7.416630395839093,65041
-4.94373660569363,65041
-2.471526539137585,65041
-6.821210263296962E-13,65041
2.47084320796705,65041
4.941003281093458,65041
7.410480415786196,65041
9.879274808531363,65041
12.347386655893956,65041
14.814816154518212,65041
17.28156350112681,65041
19.74762889252179,65041
22.21301252558385,65041
24.67771459727237,23994
27.141735304626195,7036
29.605074844762612,6379
32.06773341487792,6119
34.52971121224755,5037
36.99100843422559,4923
39.45162527824516,7051
41.91156194181792,7379
44.370818622535126,6186
46.82939551806646,5487
49.287292826160524,5691
51.74451074464503,6407
54.201049471426245,6910
56.65690920448981,5313
59.112090141899785,4455
61.56659248179983,3893
64.02041642241159,2619
66.4735621620365,2537
68.92602989905402,2661
71.37781983192338,2793
73.82893215918205,2374
76.27936707944684,2873
78.72912479141326,3300
81.17820549385567,2788
83.62660938562783,2881
86.07433666566146,3206
88.5213875329681,3219
90.96776218663751,2070
93.41346082583925,1689
95.85848364982041,2003
98.30283085790859,2196
100.7465026495089,2792
103.18949922410604,2864
105.63182078126385,3177
108.07346752062438,2575
110.51443964190923,2154
112.95473734491827,1854
115.39436082953114,1736
117.83331029570547,1788
120.27158594347827,1819
122.7091879729652,1569
125.1461165843615,1785
127.58237197794062,1832
130.01795435405518,1791
132.4528639131364,1540
134.88710085569494,1605
137.32066538231982,1738
139.75355769367923,1407
142.1857779905207,1412
144.61732647366978,1455
147.04820334403132,1500
149.47840880258934,1557
151.90794305040674,1410
154.33680628862487,1570
156.76499871846443,1636
159.19252054122433,1815
161.61937195828352,1824
164.04555317109896,1938
166.47106438120693,2045
168.89590579022217,2214
171.320077599839,2118
173.7435800118302,2264
176.16641322804742,2253
178.58857745042144,2317
181.01007288096173,2502
183.43089972175687,2495
185.85105817497413,2354
188.27054844285988,2313
190.6893707277394,2313
193.10752523201643,2326
195.5250121581745,2332
197.9418317087751,2430
200.3579840864594,2331
202.7734694939469,2465
205.18828813403627,2494
207.6024402096051,2464
210.01592592360964,2472
212.42874547908548,2490
214.84089907914665,2376
217.2523869269868,2427
219.66320922587727,2423
222.0733661791695,2428
224.48285799029293,2285
226.8916848627572,2280
229.29984700014882,2372
231.7073446061355,2439
234.11417788446204,2428
236.520347038953,2307
238.92585227351185,2255
241.33069379212054,2307
243.73487179884035,2442
246.1383864978112,2346
248.541238093252,2325
250.9434267894609,2441
253.34495279081432,2465
255.74581630176783,2442
258.1460175268563,2340
260.54555667069314,2284
262.9444339379703,2290
265.3426495334594,2452
267.7402036620107,2508
270.1370965285529,2552
272.53332833809407,2571
274.9288992957214,2342
277.32380960660055,2315
279.718059475976,2335
282.1116491091717,2304
284.5045787115897,2377
286.89684848871195,2293
289.2884586460981,2311
291.67940938938807,2345
294.0697009242996,2397
296.4593334566299,2439
298.84830719225477,2505
301.23662233712923,2479
303.6242790972866,2354
306.01127767884,2338
308.39761828798066,2268
310.78330113097934,2252
313.16832641418534,2263
315.5526943440269,2062
317.9364051270112,2162
320.3194589697242,2228
322.70185607883093,2202
325.0835966610754,2184
327.4646809232805,2189
329.8451090723478,2182
332.2248813152577,2151
334.6039978590701,2048
336.9824589109231,2090
339.36026467803447,2028
341.7374153677,2048
344.113911187295,2004
346.48975234427337,2005
348.8649390461686,1955
351.2394715005918,1994
353.61334991523415,1962
355.9865744978655,2001
358.35914545633375,2004
360.73106299856715,1896
363.10232733257146,1962
365.47293866643247,1983
367.84289720831396,1938
370.2122031664593,1838
372.5808567491905,1840
374.9488581649083,1905
377.31620762209275,1864
379.6829053293021,1867
382.0489514951745,1813
384.4143463284262,1837
386.7790900378528,1803
389.14318283232853,1859
391.50662492080653,1841
393.86941651231916,1862
396.23155781597745,1922
398.5930490409713,1875
400.9538903965696,1958
403.3140820921202,1923
405.6736243370498,1933
408.03251734086336,1932
410.3907613131465,1897
412.74835646356166,1815
415.10530300185144,1850
417.4616011378372,1856
419.81725108141893,1815
422.1722530425758,1845
424.5266072313656,1839
426.880313857925,1783
429.2333731324701,1740
431.58578526529516,1716
433.9375504667738,1713
436.2886689473588,1760
438.63914091758113,1803
440.9889665880513,1770
443.33814616945835,1745
445.68667987257015,1687
448.03456790823395,1704
450.3818104873759,1684
452.72840782100013,1738
455.07436012019105,1754
457.41966759611057,1719
459.7643304600007,1701
462.10834892318155,1719
464.4517231970525,1698
466.79445349309174,1756
469.1365400228566,1704
471.4779829979826,1763
473.81878263018564,1726
476.15893913125876,1722
478.4984527130747,1794
480.8373235875855,1874
483.17555196682144,1909
485.5131380628919,1957
487.8500820879857,2066
490.1863842543697,2122
492.52204477439034,2187
494.8570638604725,2512
497.1914417251204,2883
499.52517858091653,3386
501.85827464052306,4216
504.19073011668036,4884
506.5225452222086,5179
508.85372017000566,5272
511.18425517304956,5349
513.514150444396,5397
515.8434061971808,6030
518.1720226446176,6346
520.4999999999999,6139
522.8273384766991,5728
525.1540382881666,5039
527.480099647932,4387
529.8055227696037,3444
532.1303078668694,2598
534.454455153496,2183
536.777964843328,2029
539.1008371502907,1938
541.4230722883866,1836
543.744670471698,1780
546.0656319143858,1755
548.3859568306899,1752
550.7056454349294,1823
553.0246979415016,1850
555.3431145648834,1829
557.6608955196306,1744
559.978041020377,1757
562.2945512818363,1802
564.6104265188006,1808
566.9256669461412,1725
569.2402727788082,1677
571.5542442318302,1736
573.8675815203156,1758
576.1802848594508,1694
578.4923544645015,1740
580.8037905508126,1761
583.114593333807,1714
585.4247630289875,1728
587.7342998519354,1714
590.0432040183106,1733
592.3514757438526,1820
594.6591152443794,1775
596.9661227357875,1769
599.2724984340531,1725
601.578242555231,1714
603.8833553154542,1714
606.1878369309362,1731
608.4916876179676,1765
610.7949075929192,1667
613.0974970722403,1739
615.3994562724587,1737
617.7007854101818,1751
620.0014847020951,1733
622.3015543649641,1835
624.6009946156324,1773
626.8998056710224,1650
629.1979877481361,1708
631.4955410640538,1735
633.7924658359349,1792
636.0887622810175,1758
638.3844306166192,1787
640.6794710601358,1735
642.9738838290426,1851
645.2676691408932,1709
647.5608272133207,1802
649.853358264037,1766
652.1452625108324,1762
654.4365401715764,1754
656.7271914642178,1702
659.0172166067838,1749
661.3066158173809,1715
663.5953893141935,1711
665.8835373154867,1731
668.1710600396028,1806
670.4579577049639,1792
672.7442305300709,1829
675.0298787335033,1821
677.3149025339197,1826
679.599302150058,1705
681.8830778007342,1695
684.1662297048437,1670
686.4487580813608,1725
688.7306631493387,1742
691.0119451279091,1736
693.2926042362834,1780
695.5726406937516,1744
697.8520547196814,1768
700.1308465335215,1756
702.4090163547982,1679
704.6865644031171,1727
706.9634908981619,1790
709.2397960596965,1684
711.5154801075631,1714
713.7905432616823,1761
716.0649857420548,1785
718.3388077687592,1748
720.612009561953,1766
722.8845913418733,1789
725.1565533288352,1791
727.427895743234,1647
729.6986188055427,1686
731.9687227363137,1740
734.238207756178,1749
736.5070740858458,1798
738.7753219461066,1738
741.0429515578281,1664
743.3099631419569,1768
745.5763569195191,1806
747.8421331116193,1764
750.1072919394409,1808
752.3718336242467,1820
754.6357583873777,1831
756.8990664502545,1753
759.1617580343765,1753
761.423833361321,1722
763.6852926527457,1809
765.9461361303862,1821
768.206364016058,1748
770.4659765316536,1776
772.7249738991469,1794
774.9833563405886,1726
777.2411240781092,1728
779.4982773339183,1810
781.7548163303044,1798
784.010741289634,1817
786.2660524343538,1932
788.5207499869881,1782
790.7748341701416,1871
793.0283052064964,1809
795.2811633188143,1909
797.5334087299362,1804
799.7850416627813,1900
802.0360623403484,1889
804.2864709857143,1820
806.5362678220353,1895
808.7854530725468,1862
811.0340269605625,1882
813.2819897094754,1792
815.5293415427581,1829
817.77608268396,1789
820.0222133567116,1840
822.2677337847211,1837
824.5126441917765,1886
826.7569448017433,1886
829.0006358385675,1785
831.2437175262731,1833
833.4861900889629,1793
835.7280537508192,1805
837.9693087361026,1873
840.2099552691533,1874
842.4499935743896,1831
844.689423876309,1790
846.9282463994886,1841
849.1664613685833,1738
851.4040690083276,1847
853.6410695435349,1862
855.877463199097,1729
858.1132501999847,1792
860.3484307712487,1843
862.5830051380175,1782
864.8169735254988,1810
867.0503361589791,1779
869.2830932638243,1827
871.5152450654786,1903
873.7467917894654,1875
875.9777336613873,1766
878.2080709069252,1862
880.4378037518389,1855
882.666932421968,1800
884.8954571432301,1842
887.1233781416219,1895
889.3506956432192,1908
891.5774098741766,1894
893.803521060728,1841
896.0290294291852,1846
898.2539352059397,1863
900.4782386174619,1847
902.7019398903011,1882
904.925039251085,1944
907.147536926521,1885
909.3694331433943,1915
911.59072812857,1897
913.8114221089921,1942
916.0315153116827,1997
918.2510079637437,1927
920.4699002923547,1886
922.6881925247761,1893
924.905884888345,1897
927.1229776104793,1880
929.3394709186747,1883
931.555365040506,1880
933.7706602036275,1908
935.9853566357709,1863
938.1994545647489,1887
940.4129542184515,1907
942.6258558248488,1931
944.8381596119883,1955
947.0498658079974,1931
949.2609746410825,1978
951.4714863395287,1957
953.6814011316998,1941
955.8907192460387,1943
958.0994409110671,1866
960.3075663553858,1851
962.5150958076741,1924
964.7220294966913,1855
966.928367651274,1821
969.1341105003388,1891
971.3392582728806,1774
973.5438111979742,1774
975.747769504772,1819
977.9511334225061,1806
980.153903180487,1720
982.3560790081052,1747
984.5576611348289,1791
986.7586497902058,1705
988.9590452038618,1734
991.158847605503,1692
993.3580572249133,1661
995.5566742919558,1699
997.7546990365728,1623
999.952131688785,1636
1002.1489724786926,1595
1004.3452216364743,1574
1006.5408793923874,1489
1008.7359459767691,1449
1010.9304216200343,1525
1013.1243065526781,1505
1015.3176010052733,1451
1017.510305208472,1425
1019.7024193930064,1458
1021.8939437896848,1435
1024.0848786293977,1494
1026.2752241431122,1442
1028.4649805618747,1446
1030.6541481168115,1476
1032.842727039127,1394
1035.0307175601051,1476
1037.2181199111074,1414
1039.4049343235752,1407
1041.591161029029,1407
1043.7768002590683,1423
1045.9618522453698,1392
1048.1463172196918,1421
1050.3301954138697,1351
1052.513487059818,1420
1054.69619238953,1391
1056.8783116350783,1386
1059.0598450286152,1393
1061.2407928023704,1385
1063.4211551886528,1413
1065.6009324198508,1370
1067.780124728432,1363
1069.9587323469414,1396
1072.1367555080046,1433
1074.314194444325,1394
1076.4910493886855,1383
1078.667320573947,1414
1080.843008233051,1349
1083.0181125990161,1329
1085.1926339049414,1336
1087.3665723840027,1363
1089.5399282694575,1344
1091.7127017946405,1389
1093.8848931929647,1361
1096.0565026979243,1378
1098.2275305430899,1319
1100.3979769621128,1330
1102.567842188722,1299
1104.737126456726,1293
1106.9058300000124,1326
1109.0739530525475,1300
1111.2414958483764,1299
1113.4084586216231,1323
1115.5748416064907,1210
1117.7406450372605,1289
1119.9058691482942,1344
1122.0705141740304,1297
1124.2345803489884,1307
1126.3980679077658,1267
1128.5609770850388,1310
1130.7233081155623,1322
1132.8850612341707,1317
1135.0462366757774,1285
1137.2068346753745,1310
1139.3668554680326,1263
1141.526299288901,1325
1143.68516637321,1267
1145.8434569562655,1216
1148.001171273455,1278
1150.158309560244,1304
1152.3148720521767,1293
1154.470858984876,1310
1156.626270594044,1277
1158.7811071154629,1308
1160.9353687849912,1273
1163.089055838569,1263
1165.242168512213,1332
1167.3947070420209,1276
1169.5466716641677,1279
1171.6980626149075,1280
1173.8488801305748,1256
1175.9991244475814,1248
1178.1487958024186,1304
1180.2978944316555,1291
1182.4464205719428,1279
1184.5943744600072,1280
1186.7417563326567,1281
1188.8885664267755,1253
1191.0348049793297,1281
1193.1804722273619,1294
1195.325568407995,1247
1197.4700937584303,1287
1199.614048515948,1279
1201.7574329179074,1293
1203.900247201746,1250
1206.042491604982,1319
1208.1841663652099,1290
1210.3252717201053,1246
1212.465807907422,1217
1214.6057751649923,1231
1216.7451737307279,1254
1218.8840038426192,1296
1221.0222657387353,1275
1223.1599596572241,1356
1225.2970858363137,1295
1227.4336445143094,1257
1229.5696359295966,1284
1231.705060320639,1237
1233.8399179259786,1312
1235.9742089842384,1307
1238.107933734118,1328
1240.2410924143974,1325
1242.373685263935,1310
1244.5057125216676,1292
1246.6371744266116,1255
1248.7680712178621,1271
1250.898403134593,1240
1253.028170416058,1205
1255.1573733015875,1265
1257.2860120305932,1282
1259.4140868425648,1336
1261.54159797707,1266
1263.6685456737569,1318
1265.7949301723515,1291
1267.9207517126597,1234
1270.046010534565,1290
1272.1707068780306,1289
1274.2948409830983,1298
1276.4184130898889,1316
1278.541423438603,1333
1280.6638722695184,1323
1282.785759822993,1329
1284.9070863394636,1295
1287.0278520594447,1294
1289.1480572235314,1353
1291.2677020723963,1270
1293.3867868467923,1350
1295.5053117875495,1388
1297.623277135579,1326
1299.740683131868,1328
1301.8575300174857,1347
1303.973818033578,1325
1306.0895474213703,1333
1308.2047184221678,1294
1310.3193312773528,1352
1312.4333862283888,1333
1314.5468835168163,1334
1316.659823384255,1380
1318.7722060724045,1379
1320.8840318230418,1299
1322.9953008780249,1362
1325.1060134792888,1385
1327.2161698688478,1369
1329.3257702887959,1300
1331.4348149813054,1357
1333.5433041886276,1357
1335.6512381530933,1319
1337.7586171171101,1291
1339.8654413231675,1311
1341.9717110138317,1369
1344.0774264317488,1350
1346.1825878196432,1372
1348.2871954203192,1342
1350.3912494766587,1335
1352.4947502316231,1347
1354.5976979282532,1350
1356.7000928096686,1248
1358.8019351190665,1295
1360.9032250997243,1336
1363.0039629949988,1298
1365.1041490483235,1342
1367.2037835032133,1321
1369.3028666032606,1316
1371.401398592137,1320
1373.4993797135926,1285
1375.5968102114575,1293
1377.6936903296396,1293
1379.7900203121262,1328
1381.8858004029835,1330
1383.9810308463561,1318
1386.075711886469,1340
1388.1698437676241,1319
1390.2634267342032,1396
1392.356461030667,1332
1394.4489469015557,1384
1396.5408845914872,1363
1398.6322743451592,1310
1400.7231164073469,1307
1402.813411022907,1328
1404.903158436773,1370
1406.9923588939578,1338
1409.0810126395531,1336
1411.1691199187303,1317
1413.2566809767386,1338
1415.343696058907,1329
1417.4301654106425,1302
1419.5160892774315,1365
1421.6014679048399,1386
1423.6863015385125,1396
1425.7705904241707,1339
1427.8543348076178,1300
1429.9375349347342,1369
1432.0201910514802,1319
1434.102303403894,1300
1436.1838722380944,1290
1438.2648978002767,1326
1440.3453803367174,1313
1442.4253200937692,1318
1444.5047173178677,1323
1446.5835722555234,1391
1448.6618851533285,1303
1450.739656257952,1296
1452.8168858161434,1316
1454.8935740747306,1336
1456.96972128062,1362
1459.045327680797,1341
1461.120393522327,1319
1463.1949190523528,1356
1465.2689045180973,1346
1467.3423501668608,1404
1469.415256246024,1299
1471.4876230030463,1307
1473.559450685465,1292
1475.6307395408976,1374
1477.7014898170391,1374
1479.771701761665,1351
1481.8413756226287,1363
1483.9105116478618,1337
1485.9791100853772,1317
1488.0471711832643,1363
1490.1146951896926,1341
1492.1816823529098,1322
1494.2481329212433,1331
1496.3140471430984,1391
1498.3794252669609,1341
1500.4442675413939,1382
1502.5085742150404,1377
1504.572345536622,1315
1506.6355817549388,1345
1508.6982831188702,1354
1510.7604498773744,1372
1512.8220822794883,1319
1514.8831805743293,1328
1516.9437450110909,1442
1519.003775839048,1355
1521.0632733075522,1329
1523.1222376660367,1327
1525.1806691640113,1387
1527.2385680510652,1372
1529.2959345768668,1391
1531.3527689911643,1353
1533.4090715437833,1338
1535.4648424846291,1440
1537.5200820636855,1359
1539.5747905310159,1421
1541.6289681367616,1407
1543.6826151311434,1333
1545.7357317644614,1384
1547.7883182870937,1427
1549.8403749494987,1337
1551.8919020022113,1373
1553.9428996958477,1457
1555.9933682811015,1411
1558.0433080087469,1366
1560.0927191296346,1433
1562.1416018946961,1407
1564.1899565549415,1405
1566.2377833614592,1413
1568.2850825654164,1466
1570.3318544180606,1397
1572.3780991707158,1425
1574.423817074788,1459
1576.4690083817595,1529
1578.5136733431923,1416
1580.5578122107272,1461
1582.601425236085,1412
1584.6445126710646,1505
1586.6870747675434,1424
1588.7291117774776,1394
1590.7706239529034,1415
1592.8116115459347,1365
1594.8520748087658,1406
1596.8920139936686,1418
1598.9314293529933,1381
1600.9703211391711,1328
1603.008689604711,1367
1605.0465350022005,1370
1607.0838575843068,1324
1609.1206576037753,1323
1611.1569353134305,1300
1613.1926909661765,1298
1615.2279248149953,1354
1617.2626371129481,1302
1619.2968281131757,1358
1621.3304980688963,1280
1623.3636472334088,1343
1625.39627586009,1318
1627.428384202396,1293
1629.459972513861,1281
1631.4910410480993,1291
1633.5215900588028,1315
1635.551619799744,1252
1637.5811305247717,1324
1639.6101224878166,1302
1641.6385959428862,1279
1643.6665511440683,1249
1645.693988345528,1332
1647.7209078015112,1263
1649.7473097663405,1280
1651.7731944944203,1282
1653.7985622402307,1310
1655.823413258333,1309
1657.847747803366,1312
1659.8715661300494,1328
1661.8948684931793,1246
1663.9176551476316,1243
1665.9399263483624,1264
1667.9616823504057,1275
1669.982923408873,1254
1672.0036497789574,1315
1674.0238617159293,1228
1676.043559475138,1290
1678.0627433120121,1283
1680.081413482059,1252
1682.0995702408654,1235
1684.117213844096,1252
1686.134344547495,1298
1688.1509626068864,1262
1690.1670682781705,1245
1692.182661817329,1256
1694.1977434804217,1300
1696.2123135235875,1275
1698.226372203043,1286
1700.2399197750851,1329
1702.2529564960905,1317
1704.2654826225112,1332
1706.277498410882,1289
1708.2890041178139,1310
1710.2999999999988,1274
1712.3104863142066,1225
1714.3204633172854,1217
1716.329931266163,1272
1718.3388904178469,1318
1720.3473410294214,1262
1722.3552833580516,1275
1724.3627176609807,1296
1726.3696441955308,1303
1728.3760632191033,1285
1730.3819749891782,1254
1732.3873797633146,1266
1734.3922777991502,1305
1736.3966693544012,1276
1738.4005546868639,1308
1740.4039340544127,1309
1742.406807715001,1283
1744.4091759266616,1271
1746.4110389475054,1202
1748.4123970357223,1308
1750.413250449582,1315
1752.4135994474318,1315
1754.4134442876993,1224
1756.4127852288902,1231
1758.4116225295893,1281
1760.4099564484595,1312
1762.407787244244,1257
1764.405115175764,1270
1766.4019405019203,1222
1768.3982634816916,1312
1770.3940843741357,1285
1772.3894034383907,1333
1774.3842209336717,1284
1776.378537119274,1316
1778.372352254571,1281
1780.3656665990156,1321
1782.3584804121397,1261
1784.3507939535534,1287
1786.3426074829463,1308
1788.3339212600863,1331
1790.3247355448211,1281
1792.3150505970766,1323
1794.3048666768573,1256
1796.2941840442477,1300
1798.2830029594106,1315
1800.2713236825884,1383
1802.2591464741004,1285
1804.2464715943465,1306
1806.2332993038058,1314
1808.2196298630352,1361
1810.2054635326708,1311
1812.190800573428,1250
1814.175641246101,1302
1816.1599858115628,1304
1818.1438345307652,1306
1820.127187664738,1352
1822.1100454745924,1360
1824.092408221516,1270
1826.0742761667766,1316
1828.055649571721,1357
1830.0365286977735,1299
1832.0169138064398,1294
1833.9968051593014,1283
1835.9762030180214,1314
1837.9551076443408,1317
1839.9335193000788,1318
1841.9114382471344,1317
1843.888864747485,1255
1845.8657990631878,1274
1847.842241456378,1257
1849.8181921892697,1282
1851.7936515241558,1327
1853.7686197234098,1275
1855.7430970494815,1251
1857.7170837649014,1244
1859.6905801322787,1208
1861.6635864143004,1328
1863.6361028737338,1306
1865.608129773424,1317
1867.5796673762961,1280
1869.5507159453537,1272
1871.521275743678,1274
1873.4913470344313,1323
1875.4609300808534,1301
1877.4300251462632,1309
1879.3986324940588,1339
1881.366752387717,1301
1883.3343850907936,1344
1885.3015308669228,1329
1887.268189979819,1271
1889.2343626932739,1348
1891.2000492711595,1333
1893.1652499774254,1286
1895.1299650761011,1352
1897.0941948312952,1250
1899.0579395071945,1247
1901.0211993680641,1299
1902.98397467825,1338
1904.9462657021745,1319
1906.9080727043415,1295
1908.869395949332,1290
1910.8302357018065,1290
1912.790592226504,1311
1914.7504657882428,1313
1916.7098566519212,1310
1918.6687650825133,1262
1920.6271913450764,1323
1922.5851357047422,1309
1924.5425984267245,1273
1926.499579776314,1276
1928.4560800188833,1283
1930.4120994198802,1332
1932.367638244833,1295
1934.32269675935,1310
1936.2772752291175,1308
1938.231373919899,1375
1940.1849930975404,1291
1942.1381330279637,1326
1944.0907939771696,1282
1946.0429762112412,1278
1947.9946799963363,1265
1949.9459055986945,1234
1951.896653284633,1253
1953.8469233205478,1287
1955.7967159729142,1249
1957.7460315082863,1276
1959.6948701932974,1279
1961.6432322946594,1251
1963.5911180791632,1302
1965.5385278136787,1287
1967.4854617651545,1269
1969.4319202006182,1270
1971.377903387176,1277
1973.3234115920136,1258
1975.268445082395,1305
1977.2130041256642,1338
1979.1570889892423,1282
1981.1006999406304,1330
1983.04383724741,1308
1984.986501177238,1298
1986.928691997853,1344
1988.8704099770712,1293
1990.811655382789,1328
1992.7524284829801,1338
1994.692729545698,1301
1996.6325588390755,1250
1998.5719166313224,1282
2000.5108031907307,1291
2002.4492187856677,1284
2004.387163684583,1251
2006.3246381560011,1305
2008.2616424685298,1278
2010.1981768908527,1193
2012.1342416917332,1289
2014.069837140014,1295
2016.0049635046162,1298
2017.9396210545406,1258
2019.8738100588666,1305
2021.8075307867502,1288
2023.740783507431,1254
2025.6735684902228,1268
2027.6058860045214,1269
2029.5377363198004,1292
2031.4691197056118,1270
2033.4000364315875,1278
2035.3304867674374,1175
2037.260470982952,1264
2039.189989347998,1267
2041.1190421325232,1253
2043.047629606554,1265
2044.9757520401945,1272
2046.9034097036288,1283
2048.8306028671195,1232
2050.7573318010086,1236
2052.683596775716,1194
2054.609398061742,1268
2056.5347359296647,1241
2058.4596106501403,1251
2060.384022493906,1260
2062.3079717317764,1260
2064.231458634646,1229
2066.1544834734873,1236
2068.077046519352,1251
2069.99914804337,1274
2071.9207883167524,1247
2073.8419676107865,1273
2075.7626861968406,1279
2077.6829443463607,1252
2079.6027423308715,1328
2081.522080421977,1270
2083.440958891362,1296
2085.359378010786,1247
2087.2773380520907,1278
2089.194839287196,1295
2091.111881988101,1277
2093.0284664268825,1291
2094.9445928756973,1270
2096.86026160678,1262
2098.775472892446,1266
2100.690227005088,1310
2102.604524217178,1277
2104.5183648012676,1216
2106.431749029985,1229
2108.34467717604,1247
2110.2571495122206,1325
2112.169166311393,1274
2114.080727846503,1288
2115.9918343905747,1300
2117.902486216711,1252
2119.8126835980956,1262
2121.722426807987,1239
2123.6317161197285,1325
2125.5405518067364,1277
2127.448934142509,1283
2129.356863400624,1264
2131.264339854737,1322
2133.1713637785815,1270
2135.077935445972,1343
2136.9840551308002,1296
2138.889723107037,1221
2140.7949396487334,1269
2142.699705030018,1294
2144.6040195250994,1319
2146.507883408264,1318
2148.4112969538774,1307
2150.3142604363848,1349
2152.2167741303097,1321
2154.1188383102535,1334
2156.0204532508997,1233
2157.9216192270064,1263
2159.822336513414,1282
2161.7226053850413,1350
2163.622426116884,1334
2165.5217989840185,1311
2167.4207242616,1285
2169.319202224862,1306
2171.2172331491165,1275
2173.1148173097563,1268
2175.0119549822507,1321
2176.90864644215,1352
2178.8048919650823,1296
2180.7006918267534,1247
2182.596046302952,1269
2184.4909556695407,1324
2186.3854202024645,1282
2188.279440177746,1265
2190.173015871487,1273
2192.066147559868,1287
2193.958835519149,1294
2195.851080025667,1293
2197.7428813558417,1284
2199.6342397861667,1278
2201.5251555932186,1319
2203.415629053651,1289
2205.3056604441986,1261
2207.19525004167,1276
2209.084398122958,1297
2210.9731049650327,1274
2212.861370844941,1308
2214.749196039812,1319
2216.636580826851,1336
2218.523525483344,1332
2220.410030286655,1352
2222.296095514226,1281
2224.1817214435805,1294
2226.066908352319,1321
2227.951656518121,1271
2229.835966218746,1231
2231.71983773203,1354
2233.6032713358913,1340
2235.486267308324,1342
2237.3688259274036,1312
2239.2509474712824,1298
2241.132632218193,1369
2243.013880446447,1298
2244.8946924344323,1345
2246.7750684606203,1327
2248.6550088035574,1274
2250.534513741871,1319
2252.413583554265,1298
2254.292218519526,1348
2256.170418916517,1272
2258.0481850241786,1263
2259.925517121534,1286
2261.8024154876825,1256
2263.678880401803,1332
2265.5549121431536,1313
2267.430510991071,1352
2269.305677224971,1322
2271.180411124348,1312
2273.0547129687766,1331
2274.9285830379076,1291
2276.8020216114737,1334
2278.6750289692845,1334
2280.5476053912294,1333
2282.4197511572766,1381
2284.2914665474727,1331
2286.162751841943,1404
2288.0336073208937,1433
2289.904033264608,1372
2291.774029953448,1353
2293.6435976678554,1404
2295.5127366883517,1399
2297.381447295534,1329
2299.2497297700825,1256
2301.1175843927526,1313
2302.9850114443825,1237
2304.852011205885,1188
2306.7185839582553,1245
2308.5847299825664,1211
2310.4504495599676,1197
2312.3157429716925,1160
2314.1806104990483,1172
2316.0450524234247,1134
2317.9090690262888,1153
2319.772660589186,1142
2321.635827393742,1184
2323.498569721661,1122
2325.3608878547248,1112
2327.2227820747967,1140
2329.0842526638157,1121
2330.945299903803,1171
2332.805924076857,1137
2334.6661254651535,1132
2336.525904350951,1111
2338.3852610165827,1125
2340.244195744464,1142
2342.102708817088,1141
2343.9608005170253,1105
2345.8184711269287,1138
2347.675720929526,1110
2349.532550207628,1154
2351.38895924412,1172
2353.24494832197,1164
2355.100517724223,1215
2356.955667734004,1161
2358.810398634514,1163
2360.664710709037,1126
2362.5186042409337,1164
2364.3720795136437,1219
2366.225136810686,1173
2368.0777764156583,1109
2369.929998612237,1148
2371.7818036841777,1120
2373.633191915315,1138
2375.484163589562,1109
2377.3347189909114,1138
2379.184858403434,1087
2381.03458211128,1082
2382.8838903986775,1145
2384.732783549936,1176
2386.5812618494406,1184
2388.4293255816588,1161
2390.2769750311327,1156
2392.1242104824883,1130
2393.971032220427,1176
2395.8174405297295,1148
2397.6634356952563,1121
2399.509018001947,1182
2401.3541877348193,1153
2403.1989451789705,1128
2405.043290619576,1128
2406.8872243418905,1111
2408.730746631247,1138
2410.5738577730594,1111
2412.4165580528183,1138
2414.258847756095,1175
2416.100727168537,1190
2417.9421965758734,1154
2419.783256263912,1124
2421.623906518538,1185
2423.4641476257157,1165
2425.303979871491,1155
2427.143403541984,1199
2428.9824189233977,1171
2430.821026302012,1180
2432.6592259641866,1167
2434.497018196361,1133
2436.33440328505,1198
2438.171381516851,1164
2440.00795317844,1135
2441.844118556569,1174
2443.6798779380724,1141
2445.5152316098606,1188
2447.3501798589255,1153
2449.1847229723357,1163
2451.0188612372403,1143
2452.8525949408663,1138
2454.6859243705203,1124
2456.518849813587,1153
2458.3513715575314,1137
2460.183489889895,1133
2462.015205098301,1106
2463.8465174704493,1178
2465.67742729412,1144
2467.5079348571717,1128
2469.338040447542,1104
2471.1677443532476,1148
2472.9970468623833,1165
2474.825948263123,1122
2476.6544488437207,1062
2478.482548892508,1137
2480.310248697896,1171
2482.137548548374,1156
2483.9644487325118,1160
2485.790949538956,1140
2487.617051256433,1121
2489.44275417375,1158
2491.26805857979,1132
2493.0929647635157,1135
2494.917473013971,1143
2496.741583620276,1125
2498.5652968716304,1169
2500.3886130573137,1160
2502.2115324666834,1157
2504.0340553891765,1147
2505.856182114308,1166
2507.6779129316733,1163
2509.499248130945,1109
2511.3201880018764,1177
2513.140732834298,1141
2514.9608829181198,1185
2516.780638543331,1131
2518.6,1129
2520.418967578273,1130
2522.237541568376,1142
2524.0557222606144,1161
2525.8735099453706,1153
2527.6909049131086,1129
2529.507907454368,1142
2531.32451785977,1147
2533.140736420014,1140
2534.9565634258774,1179
2536.771999168218,1125
2538.5870439379714,1220
2540.4016980261526,1222
2542.2159617238544,1165
2544.02983532225,1120
2545.8433191125914,1155
2547.656413386209,1213
2549.4691184345115,1148
2551.2814345489874,1120
2553.093362021204,1208
2554.904901142808,1152
2556.716052205523,1129
2558.526815501153,1227
2560.3371913215824,1142
2562.147179958771,1130
2563.956781704761,1174
2565.7659968516705,1203
2567.5748256916986,1154
2569.3832685171224,1213
2571.1913256202984,1069
2572.9989972936614,1173
2574.806283829725,1171
2576.613185521084,1147
2578.4197026604074,1172
2580.2258355404483,1195
2582.031584454035,1097
2583.836949694077,1178
2585.6419315535613,1170
2587.4465303255533,1210
2589.2507463032002,1147
2591.0545797797245,1147
2592.8580310484303,1186
2594.6611004026995,1190
2596.463788135992,1211
2598.266094541849,1224
2600.0680199138874,1206
2601.869564545807,1173
2603.670728731383,1151
2605.4715127644704,1174
2607.2719169390048,1117
2609.071941548998,1178
2610.8715868885433,1220
2612.670853251811,1205
2614.469740933052,1144
2616.268250226594,1177
2618.0663814268455,1174
2619.864134828292,1157
2621.6615107255006,1213
2623.458509413115,1176
2625.2551311858597,1197
2627.0513763385347,1224
2628.8472451660223,1164
2630.6427379632833,1184
2632.4378550253564,1175
2634.232596647359,1165
2636.026963124488,1129
2637.8209547520187,1160
2639.6145718253065,1160
2641.407814639785,1137
2643.200683490966,1080
2644.9931786744414,1150
2646.7853004858807,1149
2648.577049221034,1103
2650.3684251757277,1200
2652.1594286458712,1126
2653.9500599274484,1135
2655.740319316525,1154
2657.5302071092437,1154
2659.3197236018286,1136
2661.10886909058,1150
2662.8976438718782,1113
2664.686048242183,1156
2666.4740824980327,1161
2668.2617469360443,1152
2670.0490418529134,1145
2671.8359675454153,1152
2673.622524310403,1152
2675.408712444811,1163
2677.1945322456495,1136
2678.979984010009,1194
2680.76506803506,1135
2682.5497846180497,1175
2684.334134056306,1133
2686.1181166472343,1162
2687.9017326883213,1173
2689.6849824771293,1220
2691.4678663113013,1151
2693.2503844885596,1131
2695.032537306705,1166
2696.8143250636167,1152
2698.5957480572542,1185
2700.3768065856534,1125
2702.1575009469316,1172
2703.937831439283,1134
2705.717798360982,1104
2707.4974020103837,1163
2709.276642685917,1166
2711.055520686095,1102
2712.834036309506,1125
2714.612189854819,1121
2716.389981620782,1099
2718.1674119062204,1114
2719.944481010041,1157
2721.721189231226,1138
2723.4975368688415,1126
2725.273524222027,1148
2727.0491515900053,1148
2728.824419272075,1127
2730.5993275676146,1150
2732.3738767760838,1141
2734.148067197016,1146
2735.921899130031,1097
2737.6953728748194,1192
2739.468488731156,1160
2741.2412469988926,1105
2743.0136479779617,1139
2744.785691968372,1188
2746.5573792702116,1187
2748.3287101836504,1101
2750.099685008934,1137
2751.870304046388,1185
2753.640567596418,1163
2755.4104759595057,1141
2757.1800294362156,1119
2758.949228327187,1103
2760.7180729331412,1145
2762.486563554877,1167
2764.254700493272,1110
2766.022484049284,1149
2767.789914523947,1144
2769.5569922183786,1149
2771.3237174337705,1140
2773.090090471394,1154
2774.8561116326036,1147
2776.6217812188274,1121
2778.3870995315756,1126
2780.1520668724356,1150
2781.9166835430747,1136
2783.6809498452394,1141
2785.444866080754,1142
2787.2084325515225,1129
2788.971649559527,1122
2790.73451740683,1119
2792.4970363955713,1172
2794.2592068279705,1189
2796.0210290063264,1116
2797.7825032330147,1132
2799.543629810493,1161
2801.304409041296,1176
2803.0648412280366,1152
2804.8249266734088,1150
2806.5846656801846,1140
2808.344058551212,1152
2810.1031055894246,1150
2811.8618070978273,1181
2813.6201633795085,1165
2815.378174737636,1187
2817.1358414754536,1169
2818.893163896285,1165
2820.6501423035334,1168
2822.4067770006814,1156
2824.1630682912883,1150
2825.9190164789957,1100
2827.6746218675207,1165
2829.429884760661,1166
2831.184805462294,1165
2832.9393842763743,1096
2834.693621506936,1130
2836.4475174580916,1161
2838.201072434034,1145
2839.954286739034,1178
2841.707160677441,1150
2843.459694553685,1126
2845.2118886722724,1212
2846.96374333779,1198
2848.7152588549034,1177
2850.4664355283567,1142
2852.217273662973,1152
2853.9677735636546,1152
2855.7179355353833,1183
2857.4677598832186,1181
2859.217246912299,1126
2860.9663969278427,1126
2862.715210235146,1111
2864.4636871395846,1141
2866.211827946614,1092
2867.9596329617652,1155
2869.7071024906536,1106
2871.4542368389684,1093
2873.20103631248,1171
2874.947501217038,1123
2876.6936318585695,1129
2878.4394285430812,1174
2880.1848915766604,1134
2881.9300212654707,1175
2883.6748179157553,1131
2885.4192818338374,1130
2887.1634133261173,1119
2888.907212699077,1135
2890.6506802592744,1157
2892.393816313348,1221
2894.1366211680142,1119
2895.8790951300693,1131
2897.621238506388,1147
2899.363051603925,1194
2901.1045347297118,1197
2902.8456881908596,1132
2904.58651229456,1207
2906.327007348081,1152
2908.067173658772,1152
2909.8070115340597,1167
2911.5465212814497,1122
2913.285703208527,1122
2915.0245576229563,1119
2916.7630848324807,1130
2918.5012851449196,1142
2920.2391588681758,1125
2921.976706310227,1151
2923.7139277791334,1157
2925.4508235830313,1107
2927.187394030137,1211
2928.923639428745,1144
2930.6595600872306,1122
2932.395156314046,1183
2934.1304284177218,1190
2935.8653767068713,1119
2937.6000014901815,1174
2939.3343030764227,1175
2941.068281774442,1194
2942.8019378931644,1201
2944.5352717415976,1168
2946.2682836288236,1197
2948.0009738640065,1172
2949.7333427563885,1193
2951.465390615289,1162
2953.1971177501086,1151
2954.9285244703265,1187
2956.6596110855,1130
2958.3903779052657,1166
2960.1208252393385,1145
2961.8509533975125,1096
2963.5807626896617,1160
2965.3102534257378,1102
2967.0394259157715,1096
2968.768280469873,1117
2970.496817398232,1198
2972.2250370111146,1181
2973.952939618869,1165
2975.6805255319196,1105
2977.4077950607707,1210
2979.134748516006,1183
2980.861386208289,1191
2982.587708448359,1172
2984.313715547037,1125
2986.039407815222,1148
2987.764785563891,1116
2989.489849104102,1121
2991.2145987469908,1112
2992.9390348037705,1190
2994.6631575857346,1126
2996.3869674042576,1108
2998.1104645707887,1152
2999.83364939686,1187
3001.5565221940783,1138
3003.2790832741334,1119
3005.0013329487924,1145
3006.7232715298996,1141
3008.4448993293804,1129
3010.166216659239,1116
3011.887223831558,1109
3013.607921158498,1162
3015.3283089522993,1150
3017.0483875252826,1134
3018.7681571898443,1136
3020.4876182584626,1146
3022.2067710436927,1157
3023.9256158581707,1113
3025.644153014609,1147
3027.362382825801,1157
3029.0803056046193,1139
3030.797921664012,1100
3032.5152313170106,1121
3034.2322348767225,1127
3035.9489326563353,1144
3037.665324969115,1106
3039.3814121284063,1102
3041.097194447633,1149
3042.812672240299,1179
3044.5278458199855,1172
3046.2427155003525,1125
3047.9572815951406,1130
3049.671544418167,1175
3051.38550428333,1093
3053.0991615046073,1107
3054.812516396051,1122
3056.5255692717974,1165
3058.2383204460575,1121
3059.9507702331257,1140
3061.662918947372,1196
3063.3747669032446,1155
3065.0863144152736,1104
3066.7975617980674,1174
3068.508509366309,1109
3070.219157434767,1135
3071.9295063182844,1141
3073.639556331785,1112
3075.3493077902704,1150
3077.058761008821,1102
3078.7679163025964,1107
3080.476773986837,1141
3082.1853343768594,1179
3083.89359778806,1105
3085.6015645359153,1133
3087.3092349359786,1092
3089.016609303884,1145
3090.7236879553434,1103
3092.4304712061476,1094
3094.136959372166,1078
3095.843152769349,1149
3097.5490517137237,1117
3099.2546565213966,1076
3100.959967508554,1145
3102.66498499146,1075
3104.3697092864577,1175
3106.0741407099695,1077
3107.778279578498,1146
3109.482126208622,1136
3111.1856809170004,1133
3112.8889440203716,1225
3114.5919158355528,1179
3116.294596679439,1159
3117.996986869006,1172
3119.6990867213062,1160
3121.4008965534726,1166
3123.102416682717,1151
3124.803647426329,1169
3126.5045891016784,1127
3128.205242026213,1132
3129.90560651746,1138
3131.605682893025,1109
3133.3054714705922,1107
3135.0049725679282,1140
3136.7041865028714,1118
3138.4031135933465,1080
3140.101754157353,1146
3141.800108512971,1097
3143.498176978357,1053
3145.1959598717494,1145
3146.8934575114636,1157
3148.5906702158954,1062
3150.2875983035183,1103
3151.9842420928853,1116
3153.680601902627,1135
3155.376678051456,1109
3157.07247085816,1097
3158.767980641609,1108
3160.463207720748,1112
3162.158152414606,1121
3163.8528150422862,1150
3165.5471959229726,1149
3167.2412953759303,1113
3168.9351137204976,1160
3170.628651276098,1158
3172.3219083622307,1101
3174.014885298474,1103
3175.707582404485,1135
3177.4000000000005,1173
3179.092138404835,1113
3180.7839979388846,1102
3182.47557892212,1141
3184.166881674594,1134
3185.8579065164386,1161
3187.5486537678626,1107
3189.2391237491547,1064
3190.9293167806827,1126
3192.6192331828934,1094
3194.3088732763117,1072
3195.998237381542,1111
3197.687325819268,1100
3199.376138910251,1143
3201.064676975334,1119
3202.7529403354347,1131
3204.4409293115523,1089
3206.1286442247647,1156
3207.816085396229,1141
3209.5032531471825,1157
3211.190147798936,1149
3212.8767696728846,1108
3214.5631190905015,1113
3216.2491963733373,1061
3217.9350018430214,1113
3219.6205358212637,1133
3221.305798629851,1061
3222.990790590651,1133
3224.6755120256103,1087
3226.359963256751,1088
3228.0441446061795,1086
3229.7280563960758,1100
3231.411698948703,1146
3233.0950725863995,1094
3234.778177631587,1103
3236.461014406761,1158
3238.1435832345005,1096
3239.8258844374595,1104
3241.507918338374,1118
3243.1896852600576,1119
3244.8711855254023,1156
3246.552419457381,1095
3248.233387379042,1125
3249.914089613516,1135
3251.59452648401,1125
3253.274698313813,1190
3254.95460542629,1117
3256.6342481448855,1125
3258.313626793125,1087
3259.9927416946084,1154
3261.6715931730196,1120
3263.3501815521176,1118
3265.0285071557437,1088
3266.706570307815,1113
3268.3843713323286,1127
3270.0619105533615,1103
3271.739188295068,1135
3273.4162048816834,1113
3275.0929606375184,1108
3276.769455886966,1095
3278.445690954498,1136
3280.1216661646613,1130
3281.797381842087,1129
3283.4728383114807,1127
3285.1480358976296,1170
3286.8229749253996,1094
3288.4976557197333,1069
3290.172078605655,1143
3291.846243908266,1143
3293.5201519527463,1124
3295.193803064357,1118
3296.8671975684374,1132
3298.5403357904024,1142
3300.21321805575,1072
3301.8858446900567,1151
3303.558216018975,1079
3305.23033236824,1159
3306.9021940636603,1089
3308.57380143113,1147
3310.2451547966184,1201
3311.916254486174,1238
3313.5871008259246,1175
3315.2576941420766,1193
3316.9280347609147,1172
3318.5981230088046,1154
3320.2679592121895,1097
3321.9375436975924,1086
3323.606876791612,1115
3325.27595882093,1120
3326.944790112305,1096
3328.6133709925753,1138
3330.2817017886573,1145
3331.949782827547,1129
3333.617614436319,1076
3335.2851969421245,1170
3336.952530672199,1190
3338.619615953853,1158
3340.286453114475,1115
3341.9530424815357,1144
3343.619384382583,1145
3345.2854791452437,1120
3346.951327097224,1101
3348.6169285663073,1091
3350.2822838803577,1083
3351.947393367319,1140
3353.61225735521,1166
3355.2768761721345,1146
3356.9412501462693,1129
3358.605379605873,1143
3360.2692648792827,1134
3361.9329062949146,1112
3363.596304181263,1026
