CollectionTime,9/25/2024 10:53:52 AM
ExposureUsed,3
CalibratedSpectrum
-962.7078968117929,461
-959.9714848408522,543
-957.2358232597828,509
-954.5009119013725,513
-951.7667505983302,572
-949.0333391832855,551
-946.3006774887896,543
-943.5687653473143,530
-940.837602591253,519
-938.1071890529199,551
-935.3775245645503,549
-932.6486089583007,526
-929.9204420662485,545
-927.1930237203925,571
-924.4663537526524,579
-921.7404319948689,559
-919.0152582788041,597
-916.2908324361409,634
-913.5671542984834,591
-910.8442236973568,578
-908.1220404642074,587
-905.4006044304027,577
-902.679915427231,579
-899.959973285902,557
-897.2407778375464,547
-894.5223289132158,554
-891.8046263438832,520
-889.0876699604426,501
-886.3714595937089,490
-883.6559950744183,526
-880.9412762332282,519
-878.2273029007168,507
-875.5140749073835,497
-872.8015920836489,497
-870.0898542598545,478
-867.3788612662631,483
-864.6686129330585,492
-861.9591090903457,526
-859.2503495681506,505
-856.5423341964203,453
-853.8350628050229,494
-851.1285352237478,493
-848.4227512823054,513
-845.7177108103272,543
-843.0134136373656,519
-840.3098595928943,531
-837.6070485063082,543
-834.9049802069229,542
-832.2036545239757,532
-829.5030712866244,510
-826.8032303239481,530
-824.1041314649472,518
-821.4057745385428,469
-818.7081593735775,538
-816.0112857988148,568
-813.3151536429393,550
-810.6197627345566,544
-807.9251129021936,503
-805.2312039742981,514
-802.5380357792392,507
-799.8456081453069,542
-797.1539209007124,533
-794.462973873588,528
-791.772766891987,524
-789.083299783884,540
-786.3945723771743,547
-783.7065844996748,555
-781.0193359791231,553
-778.3328266431781,544
-775.6470563194197,547
-772.9620248353489,501
-770.2777320183878,535
-767.5941776958798,532
-764.9113616950891,491
-762.2292838432011,490
-759.5479439673222,499
-756.8673418944801,525
-754.1874774516235,534
-751.5083504656222,534
-748.8299607632671,516
-746.15230817127,526
-743.475392516264,569
-740.7992136248035,578
-738.1237713233636,541
-735.4490654383407,523
-732.7750957960521,555
-730.1018622227365,576
-727.4293645445534,545
-724.7576025875837,555
-722.0865761778291,555
-719.4162851412126,537
-716.7467293035781,603
-714.0779084906909,556
-711.409822528237,554
-708.7424712418238,564
-706.0758544569796,548
-703.4099719991541,522
-700.7448236937178,543
-698.0804093659622,555
-695.4167288411002,540
-692.7537819442656,557
-690.0915685005134,573
-687.4300883348199,551
-684.7693412720819,585
-682.1093271371178,586
-679.4500457546669,567
-676.7914969493897,518
-674.1336805458676,564
-671.4765963686034,606
-668.8202442420206,580
-666.1646239904642,584
-663.5097354382001,537
-660.8555784094151,523
-658.2021527282176,567
-655.5494582186366,565
-652.8974947046223,618
-650.2462620100463,604
-647.5957599587009,591
-644.9459883742998,611
-642.2969470804776,571
-639.6486359007902,608
-637.0010546587141,590
-634.3542031776476,599
-631.7080812809096,626
-629.0626887917401,607
-626.4180255333008,633
-623.7740913286734,671
-621.1308860008619,685
-618.4884093727904,658
-615.8466612673046,657
-613.2056415071715,647
-610.5653499150785,629
-607.9257863136347,649
-605.28695052537,657
-602.6488423727357,605
-600.0114616781036,664
-597.3748082637674,687
-594.7388819519412,719
-592.1036825647604,723
-589.4692099242818,633
-586.8354638524829,732
-584.2024441712624,737
-581.5701507024403,720
-578.9385832677575,674
-576.3077416888759,702
-573.6776257873787,714
-571.0482353847704,699
-568.4195703024757,665
-565.7916303618415,651
-563.164415384135,642
-560.5379251905453,647
-557.9121596021815,646
-555.2871184400748,659
-552.6628015251767,671
-550.0392086783606,717
-547.4163397204204,735
-544.794194472071,741
-542.1727727539491,666
-539.5520743866118,764
-536.9320991905377,742
-534.3128469861261,762
-531.6943175936979,802
-529.0765108334947,863
-526.4594265256793,922
-523.8430644903358,1084
-521.2274245474689,1188
-518.612506517005,1274
-515.9983102187913,1392
-513.3848354725959,1598
-510.77208209810846,1857
-508.16004991493924,2176
-505.5487387426199,2321
-502.9381484006032,2378
-500.3282787082628,2164
-497.71912948489364,1902
-495.1107005497117,1677
-492.5029917218539,1339
-489.8960028203786,1167
-487.28973366426493,996
-484.68418407241325,963
-482.07935386364494,883
-479.47524285670266,880
-476.87185087025,947
-474.2691777228715,918
-471.66722323307334,847
-469.0659872192821,832
-466.4654694998459,822
-463.86566989303384,857
-461.26658821703614,822
-458.66822428996414,850
-456.07057792985,895
-453.4736489546475,918
-450.877437182231,881
-448.28194243039627,841
-445.68716451686,822
-443.09310325926003,772
-440.49975847515555,766
-437.9071299820263,787
-435.31521759727354,815
-432.72402113821954,843
-430.13354042210767,989
-427.5437752661022,907
-424.95472548728867,810
-422.36639090267386,898
-419.7787713291855,949
-417.1918665836721,958
-414.60567648290385,972
-412.0202008435715,869
-409.4354394822874,845
-406.8513922155845,933
-404.26805885991723,922
-401.685439231661,915
-399.103533147112,898
-396.522340422488,871
-393.9418608739278,889
-391.3620943174908,874
-388.7830405691583,898
-386.2046994448317,858
-383.6270707603344,843
-381.05015433141045,836
-378.473949973725,850
-375.8984575028645,765
-373.32367673433623,791
-370.74960748356875,743
-368.1762495659117,720
-365.60360279663576,681
-363.03166699093265,695
-360.4604419639154,637
-357.8899275306178,556
-355.32012350599507,584
-352.7510297049233,632
-350.1826459421999,575
-347.61497203254316,557
-345.04800779059235,594
-342.4817530309082,602
-339.91620756797226,651
-337.35137121618743,639
-334.7872437898774,683
-332.22382510328725,712
-329.66111497058273,713
-327.09911320585127,755
-324.53781962310075,601
-321.9772340362607,588
-319.4173562591816,612
-316.8581861056348,580
-314.2997233893127,605
-311.7419679238294,538
-309.1849195227194,548
-306.62857799943856,583
-304.0729431673641,685
-301.51801483979375,783
-298.963792829947,723
-296.41027695096386,656
-293.85746701590574,733
-291.3053628377552,906
-288.7539642294155,893
-286.2032710037115,820
-283.65328297338897,794
-281.1039999511146,851
-278.5554217494762,1008
-276.007548180983,1031
-273.4603790580651,926
-270.9139141930734,708
-268.3681533982807,722
-265.8230964858798,758
-263.27874326798565,931
-260.7350935566336,894
-258.1921471637804,1033
-255.6499039013039,1041
-253.10836358100266,899
-250.56752601459698,898
-248.02739101372765,999
-245.48795838995704,1058
-242.94922795476816,971
-240.41119951956557,935
-237.8738728956746,938
-235.33724789434166,997
-232.80132432673452,914
-230.2661020039418,845
-227.73158073697357,935
-225.19776033676033,1156
-222.66464061415422,1216
-220.1322213799284,1054
-217.60050244477725,861
-215.06948361931552,963
-212.53916471408013,1084
-210.00954553952818,1346
-207.48062590603843,1306
-204.9524056239104,1060
-202.4248845033651,1088
-199.8980623545441,1187
-197.37193898751036,1310
-194.84651421224817,1182
-192.32178783866232,1036
-189.79775967657952,1242
-187.27442953574644,1335
-184.7517972258321,1455
-182.2298625564256,1286
-179.7086253370378,1182
-177.18808537710026,1204
-174.66824248596583,1511
-172.14909647290835,1570
-169.6306471471229,1386
-167.11289431772548,1134
-164.59583779375328,1211
-162.07947738416453,1335
-159.5638128978386,1617
-157.04884414357605,1893
-154.53457093009854,2077
-152.02099306604828,1653
-149.50811035998936,1267
-146.99592262040665,1296
-144.48442965570587,1855
-141.97363127421409,2508
-139.46352728417958,2925
-136.95411749377126,2717
-134.44540171107985,2177
-131.93737974411636,1602
-129.43005140081357,1613
-126.92341648902493,2382
-124.41747481652521,3448
-121.91222619101006,4878
-119.40767042009657,5517
-116.90380731132257,5876
-114.40063667214702,5334
-111.8981583099503,4409
-109.3963720320337,4448
-106.89527764561933,4546
-104.39487495785067,5138
-101.89516377579241,7754
-99.39614390642998,10545
-96.89781515667039,14432
-94.40017733334128,13237
-91.90323024319173,10127
-89.40697369289148,8366
-86.91140748903172,7373
-84.41653143812482,8496
-81.92234534660395,10709
-79.42884902082358,13354
-76.93604226705907,16201
-74.4439248915071,18013
-71.95249670028534,28868
-69.46175749943245,42990
-66.97170709490854,55057
-64.48234529259423,63086
-61.99367189829195,65022
-59.50568671772464,58816
-57.01838955653636,47683
-54.53178022029283,39582
-52.045858514480074,36876
-49.560624244506016,32270
-47.07607721569923,28985
-44.59221723330904,27101
-42.10904410250669,25664
-39.62655762838392,22013
-37.14475761595372,20795
-34.66364387015028,23255
-32.18321619582866,24989
-29.70347439776515,30181
-27.224418280657005,32765
-24.74604764912317,42416
-22.26836230770266,65043
-19.7913620608565,65043
-17.315046712966478,65043
-14.83941606833514,65043
-12.36446993118659,65043
-9.89020810566592,65043
-7.416630395839093,65043
-4.94373660569363,65043
-2.471526539137585,65043
-6.821210263296962E-13,65043
2.47084320796705,65043
4.941003281093458,65043
7.410480415786196,65043
9.879274808531363,65043
12.347386655893956,65043
14.814816154518212,65043
17.28156350112681,65043
19.74762889252179,65043
22.21301252558385,25548
24.67771459727237,7759
27.141735304626195,5823
29.605074844762612,6060
32.06773341487792,6201
34.52971121224755,4977
36.99100843422559,5108
39.45162527824516,8358
41.91156194181792,8824
44.370818622535126,6396
46.82939551806646,5705
49.287292826160524,5929
51.74451074464503,6041
54.201049471426245,6556
56.65690920448981,4824
59.112090141899785,3827
61.56659248179983,3921
64.02041642241159,2738
66.4735621620365,2744
68.92602989905402,2783
71.37781983192338,2812
73.82893215918205,2388
76.27936707944684,2993
78.72912479141326,3311
81.17820549385567,3007
83.62660938562783,2772
86.07433666566146,2980
88.5213875329681,3214
90.96776218663751,2240
93.41346082583925,1888
95.85848364982041,2121
98.30283085790859,2321
100.7465026495089,2910
103.18949922410604,2896
105.63182078126385,3449
108.07346752062438,2808
110.51443964190923,2158
112.95473734491827,1800
115.39436082953114,1683
117.83331029570547,1976
120.27158594347827,1946
122.7091879729652,1904
125.1461165843615,1923
127.58237197794062,1840
130.01795435405518,1825
132.4528639131364,1510
134.88710085569494,1758
137.32066538231982,1849
139.75355769367923,1486
142.1857779905207,1279
144.61732647366978,1417
147.04820334403132,1549
149.47840880258934,1620
151.90794305040674,1448
154.33680628862487,1486
156.76499871846443,1599
159.19252054122433,1852
161.61937195828352,1787
164.04555317109896,1923
166.47106438120693,2100
168.89590579022217,2331
171.320077599839,2291
173.7435800118302,2044
176.16641322804742,2179
178.58857745042144,2468
181.01007288096173,2519
183.43089972175687,2441
185.85105817497413,2470
188.27054844285988,2423
190.6893707277394,2399
193.10752523201643,2343
195.5250121581745,2485
197.9418317087751,2492
200.3579840864594,2407
202.7734694939469,2554
205.18828813403627,2534
207.6024402096051,2546
210.01592592360964,2529
212.42874547908548,2642
214.84089907914665,2466
217.2523869269868,2484
219.66320922587727,2623
222.0733661791695,2481
224.48285799029293,2276
226.8916848627572,2362
229.29984700014882,2482
231.7073446061355,2472
234.11417788446204,2396
236.520347038953,2353
238.92585227351185,2323
241.33069379212054,2359
243.73487179884035,2471
246.1383864978112,2360
248.541238093252,2353
250.9434267894609,2430
253.34495279081432,2444
255.74581630176783,2558
258.1460175268563,2378
260.54555667069314,2279
262.9444339379703,2316
265.3426495334594,2524
267.7402036620107,2571
270.1370965285529,2609
272.53332833809407,2643
274.9288992957214,2460
277.32380960660055,2303
279.718059475976,2437
282.1116491091717,2395
284.5045787115897,2485
286.89684848871195,2437
289.2884586460981,2323
291.67940938938807,2421
294.0697009242996,2536
296.4593334566299,2571
298.84830719225477,2499
301.23662233712923,2533
303.6242790972866,2431
306.01127767884,2437
308.39761828798066,2279
310.78330113097934,2314
313.16832641418534,2181
315.5526943440269,2169
317.9364051270112,2191
320.3194589697242,2296
322.70185607883093,2127
325.0835966610754,2211
327.4646809232805,2182
329.8451090723478,2192
332.2248813152577,2083
334.6039978590701,2100
336.9824589109231,2135
339.36026467803447,2074
341.7374153677,2077
344.113911187295,1997
346.48975234427337,1961
348.8649390461686,1965
351.2394715005918,1946
353.61334991523415,2056
355.9865744978655,1989
358.35914545633375,2015
360.73106299856715,1983
363.10232733257146,2032
365.47293866643247,1950
367.84289720831396,1935
370.2122031664593,1887
372.5808567491905,1859
374.9488581649083,1903
377.31620762209275,1885
379.6829053293021,1908
382.0489514951745,1948
384.4143463284262,1927
386.7790900378528,1851
389.14318283232853,1886
391.50662492080653,1869
393.86941651231916,1875
396.23155781597745,1962
398.5930490409713,1961
400.9538903965696,1929
403.3140820921202,1895
405.6736243370498,1820
408.03251734086336,1904
410.3907613131465,1863
412.74835646356166,1953
415.10530300185144,1784
417.4616011378372,1825
419.81725108141893,1809
422.1722530425758,1895
424.5266072313656,1913
426.880313857925,1870
429.2333731324701,1785
431.58578526529516,1837
433.9375504667738,1787
436.2886689473588,1753
438.63914091758113,1832
440.9889665880513,1757
443.33814616945835,1765
445.68667987257015,1743
448.03456790823395,1728
450.3818104873759,1765
452.72840782100013,1755
455.07436012019105,1675
457.41966759611057,1791
459.7643304600007,1761
462.10834892318155,1772
464.4517231970525,1721
466.79445349309174,1783
469.1365400228566,1778
471.4779829979826,1761
473.81878263018564,1798
476.15893913125876,1791
478.4984527130747,1864
480.8373235875855,1965
483.17555196682144,2041
485.5131380628919,2068
487.8500820879857,2107
490.1863842543697,2146
492.52204477439034,2314
494.8570638604725,2537
497.1914417251204,2879
499.52517858091653,3594
501.85827464052306,4382
504.19073011668036,5029
506.5225452222086,5398
508.85372017000566,5519
511.18425517304956,5388
513.514150444396,5577
515.8434061971808,6191
518.1720226446176,6505
520.4999999999999,6279
522.8273384766991,5666
525.1540382881666,5180
527.480099647932,4496
529.8055227696037,3554
532.1303078668694,2750
534.454455153496,2248
536.777964843328,2116
539.1008371502907,1989
541.4230722883866,1813
543.744670471698,1783
546.0656319143858,1755
548.3859568306899,1827
550.7056454349294,1826
553.0246979415016,1916
555.3431145648834,1831
557.6608955196306,1745
559.978041020377,1807
562.2945512818363,1795
564.6104265188006,1728
566.9256669461412,1772
569.2402727788082,1763
571.5542442318302,1687
573.8675815203156,1760
576.1802848594508,1859
578.4923544645015,1863
580.8037905508126,1817
583.114593333807,1834
585.4247630289875,1748
587.7342998519354,1767
590.0432040183106,1826
592.3514757438526,1869
594.6591152443794,1865
596.9661227357875,1756
599.2724984340531,1814
601.578242555231,1767
603.8833553154542,1744
606.1878369309362,1805
608.4916876179676,1764
610.7949075929192,1835
613.0974970722403,1832
615.3994562724587,1813
617.7007854101818,1837
620.0014847020951,1773
622.3015543649641,1850
624.6009946156324,1783
626.8998056710224,1773
629.1979877481361,1751
631.4955410640538,1767
633.7924658359349,1831
636.0887622810175,1772
638.3844306166192,1770
640.6794710601358,1784
642.9738838290426,1854
645.2676691408932,1781
647.5608272133207,1786
649.853358264037,1866
652.1452625108324,1801
654.4365401715764,1704
656.7271914642178,1765
659.0172166067838,1819
661.3066158173809,1737
663.5953893141935,1812
665.8835373154867,1731
668.1710600396028,1873
670.4579577049639,1846
672.7442305300709,1900
675.0298787335033,1828
677.3149025339197,1780
679.599302150058,1785
681.8830778007342,1811
684.1662297048437,1784
686.4487580813608,1748
688.7306631493387,1764
691.0119451279091,1760
693.2926042362834,1782
695.5726406937516,1805
697.8520547196814,1767
700.1308465335215,1805
702.4090163547982,1744
704.6865644031171,1791
706.9634908981619,1779
709.2397960596965,1781
711.5154801075631,1759
713.7905432616823,1723
716.0649857420548,1756
718.3388077687592,1785
720.612009561953,1767
722.8845913418733,1850
725.1565533288352,1699
727.427895743234,1713
729.6986188055427,1767
731.9687227363137,1743
734.238207756178,1787
736.5070740858458,1766
738.7753219461066,1785
741.0429515578281,1761
743.3099631419569,1778
745.5763569195191,1789
747.8421331116193,1845
750.1072919394409,1744
752.3718336242467,1741
754.6357583873777,1789
756.8990664502545,1776
759.1617580343765,1852
761.423833361321,1774
763.6852926527457,1759
765.9461361303862,1819
768.206364016058,1764
770.4659765316536,1782
772.7249738991469,1836
774.9833563405886,1835
777.2411240781092,1784
779.4982773339183,1783
781.7548163303044,1787
784.010741289634,1860
786.2660524343538,1929
788.5207499869881,1818
790.7748341701416,1823
793.0283052064964,1833
795.2811633188143,1907
797.5334087299362,1857
799.7850416627813,1860
802.0360623403484,1898
804.2864709857143,1818
806.5362678220353,1912
808.7854530725468,1860
811.0340269605625,1862
813.2819897094754,1870
815.5293415427581,1922
817.77608268396,1868
820.0222133567116,1933
822.2677337847211,1864
824.5126441917765,1963
826.7569448017433,1912
829.0006358385675,1795
831.2437175262731,1804
833.4861900889629,1829
835.7280537508192,1848
837.9693087361026,1901
840.2099552691533,1862
842.4499935743896,1805
844.689423876309,1867
846.9282463994886,1837
849.1664613685833,1824
851.4040690083276,1859
853.6410695435349,1822
855.877463199097,1816
858.1132501999847,1802
860.3484307712487,1777
862.5830051380175,1928
864.8169735254988,1845
867.0503361589791,1826
869.2830932638243,1870
871.5152450654786,1837
873.7467917894654,1908
875.9777336613873,1851
878.2080709069252,1882
880.4378037518389,1868
882.666932421968,1877
884.8954571432301,1882
887.1233781416219,1882
889.3506956432192,1782
891.5774098741766,1806
893.803521060728,1898
896.0290294291852,1890
898.2539352059397,1907
900.4782386174619,1963
902.7019398903011,1958
904.925039251085,1990
907.147536926521,1976
909.3694331433943,1978
911.59072812857,1973
913.8114221089921,1956
916.0315153116827,1940
918.2510079637437,1934
920.4699002923547,1960
922.6881925247761,1966
924.905884888345,1928
927.1229776104793,1897
929.3394709186747,1960
931.555365040506,1886
933.7706602036275,1924
935.9853566357709,1910
938.1994545647489,1918
940.4129542184515,1989
942.6258558248488,1952
944.8381596119883,1963
947.0498658079974,1958
949.2609746410825,1983
951.4714863395287,2009
953.6814011316998,1946
955.8907192460387,1926
958.0994409110671,1894
960.3075663553858,1880
962.5150958076741,1868
964.7220294966913,1881
966.928367651274,1818
969.1341105003388,1810
971.3392582728806,1803
973.5438111979742,1783
975.747769504772,1778
977.9511334225061,1783
980.153903180487,1765
982.3560790081052,1777
984.5576611348289,1775
986.7586497902058,1731
988.9590452038618,1752
991.158847605503,1681
993.3580572249133,1794
995.5566742919558,1736
997.7546990365728,1672
999.952131688785,1659
1002.1489724786926,1588
1004.3452216364743,1549
1006.5408793923874,1559
1008.7359459767691,1497
1010.9304216200343,1550
1013.1243065526781,1479
1015.3176010052733,1480
1017.510305208472,1489
1019.7024193930064,1478
1021.8939437896848,1453
1024.0848786293977,1470
1026.2752241431122,1463
1028.4649805618747,1430
1030.6541481168115,1484
1032.842727039127,1415
1035.0307175601051,1406
1037.2181199111074,1404
1039.4049343235752,1422
1041.591161029029,1437
1043.7768002590683,1414
1045.9618522453698,1379
1048.1463172196918,1425
1050.3301954138697,1438
1052.513487059818,1364
1054.69619238953,1362
1056.8783116350783,1417
1059.0598450286152,1400
1061.2407928023704,1402
1063.4211551886528,1428
1065.6009324198508,1395
1067.780124728432,1444
1069.9587323469414,1409
1072.1367555080046,1362
1074.314194444325,1444
1076.4910493886855,1429
1078.667320573947,1419
1080.843008233051,1324
1083.0181125990161,1357
1085.1926339049414,1373
1087.3665723840027,1376
1089.5399282694575,1333
1091.7127017946405,1338
1093.8848931929647,1377
1096.0565026979243,1361
1098.2275305430899,1311
1100.3979769621128,1294
1102.567842188722,1316
1104.737126456726,1310
1106.9058300000124,1335
1109.0739530525475,1347
1111.2414958483764,1316
1113.4084586216231,1302
1115.5748416064907,1312
1117.7406450372605,1363
1119.9058691482942,1344
1122.0705141740304,1324
1124.2345803489884,1348
1126.3980679077658,1357
1128.5609770850388,1363
1130.7233081155623,1311
1132.8850612341707,1371
1135.0462366757774,1254
1137.2068346753745,1311
1139.3668554680326,1315
1141.526299288901,1298
1143.68516637321,1306
1145.8434569562655,1292
1148.001171273455,1296
1150.158309560244,1352
1152.3148720521767,1352
1154.470858984876,1253
1156.626270594044,1288
1158.7811071154629,1302
1160.9353687849912,1233
1163.089055838569,1254
1165.242168512213,1300
1167.3947070420209,1297
1169.5466716641677,1311
1171.6980626149075,1234
1173.8488801305748,1258
1175.9991244475814,1289
1178.1487958024186,1316
1180.2978944316555,1318
1182.4464205719428,1310
1184.5943744600072,1299
1186.7417563326567,1258
1188.8885664267755,1273
1191.0348049793297,1288
1193.1804722273619,1224
1195.325568407995,1269
1197.4700937584303,1269
1199.614048515948,1336
1201.7574329179074,1273
1203.900247201746,1287
1206.042491604982,1292
1208.1841663652099,1317
1210.3252717201053,1320
1212.465807907422,1245
1214.6057751649923,1339
1216.7451737307279,1310
1218.8840038426192,1271
1221.0222657387353,1278
1223.1599596572241,1305
1225.2970858363137,1271
1227.4336445143094,1249
1229.5696359295966,1311
1231.705060320639,1252
1233.8399179259786,1299
1235.9742089842384,1295
1238.107933734118,1325
1240.2410924143974,1340
1242.373685263935,1267
1244.5057125216676,1294
1246.6371744266116,1280
1248.7680712178621,1282
1250.898403134593,1314
1253.028170416058,1295
1255.1573733015875,1291
1257.2860120305932,1306
1259.4140868425648,1270
1261.54159797707,1299
1263.6685456737569,1271
1265.7949301723515,1328
1267.9207517126597,1338
1270.046010534565,1315
1272.1707068780306,1296
1274.2948409830983,1284
1276.4184130898889,1293
1278.541423438603,1337
1280.6638722695184,1310
1282.785759822993,1342
1284.9070863394636,1233
1287.0278520594447,1337
1289.1480572235314,1275
1291.2677020723963,1347
1293.3867868467923,1342
1295.5053117875495,1300
1297.623277135579,1283
1299.740683131868,1356
1301.8575300174857,1279
1303.973818033578,1311
1306.0895474213703,1311
1308.2047184221678,1281
1310.3193312773528,1409
1312.4333862283888,1328
1314.5468835168163,1343
1316.659823384255,1370
1318.7722060724045,1343
1320.8840318230418,1293
1322.9953008780249,1347
1325.1060134792888,1316
1327.2161698688478,1327
1329.3257702887959,1272
1331.4348149813054,1377
1333.5433041886276,1361
1335.6512381530933,1348
1337.7586171171101,1309
1339.8654413231675,1319
1341.9717110138317,1308
1344.0774264317488,1319
1346.1825878196432,1296
1348.2871954203192,1272
1350.3912494766587,1350
1352.4947502316231,1275
1354.5976979282532,1325
1356.7000928096686,1296
1358.8019351190665,1358
1360.9032250997243,1302
1363.0039629949988,1268
1365.1041490483235,1371
1367.2037835032133,1272
1369.3028666032606,1358
1371.401398592137,1327
1373.4993797135926,1339
1375.5968102114575,1379
1377.6936903296396,1295
1379.7900203121262,1331
1381.8858004029835,1338
1383.9810308463561,1338
1386.075711886469,1268
1388.1698437676241,1270
1390.2634267342032,1383
1392.356461030667,1326
1394.4489469015557,1329
1396.5408845914872,1248
1398.6322743451592,1282
1400.7231164073469,1310
1402.813411022907,1339
1404.903158436773,1373
1406.9923588939578,1332
1409.0810126395531,1382
1411.1691199187303,1360
1413.2566809767386,1387
1415.343696058907,1344
1417.4301654106425,1350
1419.5160892774315,1350
1421.6014679048399,1412
1423.6863015385125,1361
1425.7705904241707,1365
1427.8543348076178,1444
1429.9375349347342,1387
1432.0201910514802,1360
1434.102303403894,1317
1436.1838722380944,1347
1438.2648978002767,1349
1440.3453803367174,1283
1442.4253200937692,1376
1444.5047173178677,1357
1446.5835722555234,1381
1448.6618851533285,1320
1450.739656257952,1367
1452.8168858161434,1306
1454.8935740747306,1380
1456.96972128062,1400
1459.045327680797,1289
1461.120393522327,1372
1463.1949190523528,1325
1465.2689045180973,1356
1467.3423501668608,1328
1469.415256246024,1342
1471.4876230030463,1346
1473.559450685465,1348
1475.6307395408976,1339
1477.7014898170391,1344
1479.771701761665,1380
1481.8413756226287,1342
1483.9105116478618,1306
1485.9791100853772,1349
1488.0471711832643,1336
1490.1146951896926,1365
1492.1816823529098,1352
1494.2481329212433,1356
1496.3140471430984,1326
1498.3794252669609,1343
1500.4442675413939,1351
1502.5085742150404,1332
1504.572345536622,1374
1506.6355817549388,1393
1508.6982831188702,1422
1510.7604498773744,1347
1512.8220822794883,1384
1514.8831805743293,1359
1516.9437450110909,1373
1519.003775839048,1351
1521.0632733075522,1417
1523.1222376660367,1378
1525.1806691640113,1410
1527.2385680510652,1373
1529.2959345768668,1307
1531.3527689911643,1345
1533.4090715437833,1368
1535.4648424846291,1329
1537.5200820636855,1375
1539.5747905310159,1413
1541.6289681367616,1354
1543.6826151311434,1344
1545.7357317644614,1346
1547.7883182870937,1347
1549.8403749494987,1338
1551.8919020022113,1372
1553.9428996958477,1387
1555.9933682811015,1349
1558.0433080087469,1448
1560.0927191296346,1377
1562.1416018946961,1408
1564.1899565549415,1437
1566.2377833614592,1383
1568.2850825654164,1365
1570.3318544180606,1379
1572.3780991707158,1389
1574.423817074788,1473
1576.4690083817595,1373
1578.5136733431923,1364
1580.5578122107272,1427
1582.601425236085,1347
1584.6445126710646,1368
1586.6870747675434,1420
1588.7291117774776,1396
1590.7706239529034,1337
1592.8116115459347,1358
1594.8520748087658,1385
1596.8920139936686,1345
1598.9314293529933,1346
1600.9703211391711,1320
1603.008689604711,1400
1605.0465350022005,1369
1607.0838575843068,1385
1609.1206576037753,1332
1611.1569353134305,1300
1613.1926909661765,1294
1615.2279248149953,1424
1617.2626371129481,1301
1619.2968281131757,1393
1621.3304980688963,1321
1623.3636472334088,1314
1625.39627586009,1303
1627.428384202396,1312
1629.459972513861,1313
1631.4910410480993,1336
1633.5215900588028,1359
1635.551619799744,1317
1637.5811305247717,1308
1639.6101224878166,1347
1641.6385959428862,1274
1643.6665511440683,1304
1645.693988345528,1250
1647.7209078015112,1267
1649.7473097663405,1295
1651.7731944944203,1313
1653.7985622402307,1331
1655.823413258333,1313
1657.847747803366,1264
1659.8715661300494,1310
1661.8948684931793,1302
1663.9176551476316,1300
1665.9399263483624,1326
1667.9616823504057,1293
1669.982923408873,1310
1672.0036497789574,1289
1674.0238617159293,1290
1676.043559475138,1281
1678.0627433120121,1277
1680.081413482059,1281
1682.0995702408654,1302
1684.117213844096,1318
1686.134344547495,1247
1688.1509626068864,1307
1690.1670682781705,1295
1692.182661817329,1309
1694.1977434804217,1258
1696.2123135235875,1296
1698.226372203043,1314
1700.2399197750851,1281
1702.2529564960905,1338
1704.2654826225112,1342
1706.277498410882,1310
1708.2890041178139,1328
1710.2999999999988,1319
1712.3104863142066,1250
1714.3204633172854,1315
1716.329931266163,1256
1718.3388904178469,1290
1720.3473410294214,1323
1722.3552833580516,1283
1724.3627176609807,1335
1726.3696441955308,1299
1728.3760632191033,1258
1730.3819749891782,1286
1732.3873797633146,1340
1734.3922777991502,1287
1736.3966693544012,1303
1738.4005546868639,1324
1740.4039340544127,1315
1742.406807715001,1392
1744.4091759266616,1299
1746.4110389475054,1342
1748.4123970357223,1369
1750.413250449582,1364
1752.4135994474318,1329
1754.4134442876993,1356
1756.4127852288902,1240
1758.4116225295893,1315
1760.4099564484595,1306
1762.407787244244,1260
1764.405115175764,1276
1766.4019405019203,1306
1768.3982634816916,1307
1770.3940843741357,1310
1772.3894034383907,1352
1774.3842209336717,1326
1776.378537119274,1325
1778.372352254571,1288
1780.3656665990156,1300
1782.3584804121397,1298
1784.3507939535534,1361
1786.3426074829463,1365
1788.3339212600863,1325
1790.3247355448211,1346
1792.3150505970766,1352
1794.3048666768573,1271
1796.2941840442477,1294
1798.2830029594106,1283
1800.2713236825884,1306
1802.2591464741004,1295
1804.2464715943465,1357
1806.2332993038058,1341
1808.2196298630352,1330
1810.2054635326708,1343
1812.190800573428,1283
1814.175641246101,1297
1816.1599858115628,1278
1818.1438345307652,1357
1820.127187664738,1339
1822.1100454745924,1340
1824.092408221516,1309
1826.0742761667766,1289
1828.055649571721,1267
1830.0365286977735,1282
1832.0169138064398,1257
1833.9968051593014,1322
1835.9762030180214,1328
1837.9551076443408,1300
1839.9335193000788,1337
1841.9114382471344,1257
1843.888864747485,1261
1845.8657990631878,1346
1847.842241456378,1250
1849.8181921892697,1272
1851.7936515241558,1231
1853.7686197234098,1285
1855.7430970494815,1256
1857.7170837649014,1266
1859.6905801322787,1265
1861.6635864143004,1324
1863.6361028737338,1326
1865.608129773424,1286
1867.5796673762961,1315
1869.5507159453537,1280
1871.521275743678,1254
1873.4913470344313,1292
1875.4609300808534,1308
1877.4300251462632,1295
1879.3986324940588,1296
1881.366752387717,1298
1883.3343850907936,1273
1885.3015308669228,1312
1887.268189979819,1259
1889.2343626932739,1337
1891.2000492711595,1355
1893.1652499774254,1212
1895.1299650761011,1287
1897.0941948312952,1288
1899.0579395071945,1273
1901.0211993680641,1311
1902.98397467825,1367
1904.9462657021745,1297
1906.9080727043415,1346
1908.869395949332,1325
1910.8302357018065,1277
1912.790592226504,1279
1914.7504657882428,1259
1916.7098566519212,1283
1918.6687650825133,1231
1920.6271913450764,1293
1922.5851357047422,1300
1924.5425984267245,1255
1926.499579776314,1282
1928.4560800188833,1325
1930.4120994198802,1280
1932.367638244833,1267
1934.32269675935,1369
1936.2772752291175,1341
1938.231373919899,1283
1940.1849930975404,1362
1942.1381330279637,1343
1944.0907939771696,1302
1946.0429762112412,1350
1947.9946799963363,1282
1949.9459055986945,1295
1951.896653284633,1255
1953.8469233205478,1308
1955.7967159729142,1256
1957.7460315082863,1347
1959.6948701932974,1304
1961.6432322946594,1260
1963.5911180791632,1291
1965.5385278136787,1260
1967.4854617651545,1252
1969.4319202006182,1318
1971.377903387176,1312
1973.3234115920136,1284
1975.268445082395,1255
1977.2130041256642,1259
1979.1570889892423,1309
1981.1006999406304,1321
1983.04383724741,1300
1984.986501177238,1215
1986.928691997853,1258
1988.8704099770712,1290
1990.811655382789,1271
1992.7524284829801,1314
1994.692729545698,1282
1996.6325588390755,1304
1998.5719166313224,1280
2000.5108031907307,1320
2002.4492187856677,1282
2004.387163684583,1233
2006.3246381560011,1294
2008.2616424685298,1288
2010.1981768908527,1334
2012.1342416917332,1254
2014.069837140014,1303
2016.0049635046162,1277
2017.9396210545406,1344
2019.8738100588666,1274
2021.8075307867502,1230
2023.740783507431,1266
2025.6735684902228,1320
2027.6058860045214,1275
2029.5377363198004,1299
2031.4691197056118,1275
2033.4000364315875,1278
2035.3304867674374,1267
2037.260470982952,1328
2039.189989347998,1284
2041.1190421325232,1250
2043.047629606554,1308
2044.9757520401945,1269
2046.9034097036288,1233
2048.8306028671195,1253
2050.7573318010086,1308
2052.683596775716,1277
2054.609398061742,1290
2056.5347359296647,1306
2058.4596106501403,1289
2060.384022493906,1259
2062.3079717317764,1279
2064.231458634646,1236
2066.1544834734873,1219
2068.077046519352,1263
2069.99914804337,1262
2071.9207883167524,1283
2073.8419676107865,1236
2075.7626861968406,1296
2077.6829443463607,1204
2079.6027423308715,1265
2081.522080421977,1285
2083.440958891362,1241
2085.359378010786,1263
2087.2773380520907,1253
2089.194839287196,1293
2091.111881988101,1305
2093.0284664268825,1252
2094.9445928756973,1275
2096.86026160678,1297
2098.775472892446,1318
2100.690227005088,1274
2102.604524217178,1252
2104.5183648012676,1263
2106.431749029985,1310
2108.34467717604,1286
2110.2571495122206,1295
2112.169166311393,1302
2114.080727846503,1298
2115.9918343905747,1283
2117.902486216711,1261
2119.8126835980956,1325
2121.722426807987,1312
2123.6317161197285,1342
2125.5405518067364,1264
2127.448934142509,1286
2129.356863400624,1321
2131.264339854737,1288
2133.1713637785815,1300
2135.077935445972,1355
2136.9840551308002,1303
2138.889723107037,1253
2140.7949396487334,1279
2142.699705030018,1265
2144.6040195250994,1275
2146.507883408264,1284
2148.4112969538774,1290
2150.3142604363848,1328
2152.2167741303097,1322
2154.1188383102535,1306
2156.0204532508997,1315
2157.9216192270064,1286
2159.822336513414,1320
2161.7226053850413,1311
2163.622426116884,1369
2165.5217989840185,1338
2167.4207242616,1316
2169.319202224862,1322
2171.2172331491165,1284
2173.1148173097563,1301
2175.0119549822507,1297
2176.90864644215,1312
2178.8048919650823,1298
2180.7006918267534,1371
2182.596046302952,1299
2184.4909556695407,1352
2186.3854202024645,1358
2188.279440177746,1279
2190.173015871487,1323
2192.066147559868,1272
2193.958835519149,1311
2195.851080025667,1321
2197.7428813558417,1313
2199.6342397861667,1338
2201.5251555932186,1339
2203.415629053651,1305
2205.3056604441986,1348
2207.19525004167,1306
2209.084398122958,1257
2210.9731049650327,1355
2212.861370844941,1390
2214.749196039812,1334
2216.636580826851,1330
2218.523525483344,1343
2220.410030286655,1352
2222.296095514226,1389
2224.1817214435805,1314
2226.066908352319,1286
2227.951656518121,1311
2229.835966218746,1366
2231.71983773203,1330
2233.6032713358913,1327
2235.486267308324,1278
2237.3688259274036,1320
2239.2509474712824,1289
2241.132632218193,1316
2243.013880446447,1347
2244.8946924344323,1308
2246.7750684606203,1327
2248.6550088035574,1314
2250.534513741871,1265
2252.413583554265,1355
2254.292218519526,1355
2256.170418916517,1327
2258.0481850241786,1339
2259.925517121534,1307
2261.8024154876825,1334
2263.678880401803,1321
2265.5549121431536,1320
2267.430510991071,1365
2269.305677224971,1311
2271.180411124348,1356
2273.0547129687766,1310
2274.9285830379076,1326
2276.8020216114737,1282
2278.6750289692845,1281
2280.5476053912294,1270
2282.4197511572766,1382
2284.2914665474727,1336
2286.162751841943,1340
2288.0336073208937,1349
2289.904033264608,1400
2291.774029953448,1376
2293.6435976678554,1323
2295.5127366883517,1325
2297.381447295534,1342
2299.2497297700825,1319
2301.1175843927526,1275
2302.9850114443825,1267
2304.852011205885,1218
2306.7185839582553,1239
2308.5847299825664,1262
2310.4504495599676,1189
2312.3157429716925,1137
2314.1806104990483,1164
2316.0450524234247,1171
2317.9090690262888,1166
2319.772660589186,1239
2321.635827393742,1179
2323.498569721661,1125
2325.3608878547248,1156
2327.2227820747967,1181
2329.0842526638157,1191
2330.945299903803,1119
2332.805924076857,1142
2334.6661254651535,1095
2336.525904350951,1135
2338.3852610165827,1126
2340.244195744464,1177
2342.102708817088,1161
2343.9608005170253,1159
2345.8184711269287,1120
2347.675720929526,1156
2349.532550207628,1136
2351.38895924412,1145
2353.24494832197,1125
2355.100517724223,1120
2356.955667734004,1153
2358.810398634514,1149
2360.664710709037,1165
2362.5186042409337,1185
2364.3720795136437,1145
2366.225136810686,1171
2368.0777764156583,1120
2369.929998612237,1165
2371.7818036841777,1170
2373.633191915315,1179
2375.484163589562,1169
2377.3347189909114,1155
2379.184858403434,1147
2381.03458211128,1141
2382.8838903986775,1093
2384.732783549936,1197
2386.5812618494406,1123
2388.4293255816588,1128
2390.2769750311327,1156
2392.1242104824883,1138
2393.971032220427,1150
2395.8174405297295,1151
2397.6634356952563,1146
2399.509018001947,1194
2401.3541877348193,1160
2403.1989451789705,1175
2405.043290619576,1159
2406.8872243418905,1117
2408.730746631247,1124
2410.5738577730594,1187
2412.4165580528183,1226
2414.258847756095,1162
2416.100727168537,1223
2417.9421965758734,1158
2419.783256263912,1204
2421.623906518538,1185
2423.4641476257157,1166
2425.303979871491,1151
2427.143403541984,1158
2428.9824189233977,1174
2430.821026302012,1182
2432.6592259641866,1200
2434.497018196361,1127
2436.33440328505,1174
2438.171381516851,1141
2440.00795317844,1141
2441.844118556569,1196
2443.6798779380724,1184
2445.5152316098606,1144
2447.3501798589255,1154
2449.1847229723357,1181
2451.0188612372403,1186
2452.8525949408663,1137
2454.6859243705203,1129
2456.518849813587,1119
2458.3513715575314,1137
2460.183489889895,1113
2462.015205098301,1185
2463.8465174704493,1120
2465.67742729412,1120
2467.5079348571717,1134
2469.338040447542,1130
2471.1677443532476,1122
2472.9970468623833,1149
2474.825948263123,1179
2476.6544488437207,1174
2478.482548892508,1138
2480.310248697896,1107
2482.137548548374,1119
2483.9644487325118,1201
2485.790949538956,1114
2487.617051256433,1164
2489.44275417375,1113
2491.26805857979,1164
2493.0929647635157,1168
2494.917473013971,1151
2496.741583620276,1125
2498.5652968716304,1155
2500.3886130573137,1143
2502.2115324666834,1163
2504.0340553891765,1179
2505.856182114308,1159
2507.6779129316733,1150
2509.499248130945,1136
2511.3201880018764,1138
2513.140732834298,1181
2514.9608829181198,1166
2516.780638543331,1127
2518.6,1110
2520.418967578273,1114
2522.237541568376,1114
2524.0557222606144,1132
2525.8735099453706,1126
2527.6909049131086,1187
2529.507907454368,1177
2531.32451785977,1119
2533.140736420014,1149
2534.9565634258774,1156
2536.771999168218,1152
2538.5870439379714,1191
2540.4016980261526,1152
2542.2159617238544,1186
2544.02983532225,1176
2545.8433191125914,1112
2547.656413386209,1171
2549.4691184345115,1206
2551.2814345489874,1160
2553.093362021204,1170
2554.904901142808,1130
2556.716052205523,1144
2558.526815501153,1167
2560.3371913215824,1136
2562.147179958771,1140
2563.956781704761,1134
2565.7659968516705,1137
2567.5748256916986,1171
2569.3832685171224,1141
2571.1913256202984,1135
2572.9989972936614,1163
2574.806283829725,1122
2576.613185521084,1169
2578.4197026604074,1151
2580.2258355404483,1112
2582.031584454035,1169
2583.836949694077,1244
2585.6419315535613,1146
2587.4465303255533,1195
2589.2507463032002,1202
2591.0545797797245,1155
2592.8580310484303,1131
2594.6611004026995,1225
2596.463788135992,1130
2598.266094541849,1185
2600.0680199138874,1167
2601.869564545807,1158
2603.670728731383,1161
2605.4715127644704,1100
2607.2719169390048,1161
2609.071941548998,1180
2610.8715868885433,1161
2612.670853251811,1207
2614.469740933052,1188
2616.268250226594,1126
2618.0663814268455,1160
2619.864134828292,1155
2621.6615107255006,1125
2623.458509413115,1110
2625.2551311858597,1167
2627.0513763385347,1115
2628.8472451660223,1164
2630.6427379632833,1155
2632.4378550253564,1146
2634.232596647359,1119
2636.026963124488,1164
2637.8209547520187,1191
2639.6145718253065,1175
2641.407814639785,1141
2643.200683490966,1212
2644.9931786744414,1152
2646.7853004858807,1218
2648.577049221034,1161
2650.3684251757277,1154
2652.1594286458712,1096
2653.9500599274484,1102
2655.740319316525,1203
2657.5302071092437,1122
2659.3197236018286,1158
2661.10886909058,1144
2662.8976438718782,1163
2664.686048242183,1107
2666.4740824980327,1165
2668.2617469360443,1148
2670.0490418529134,1137
2671.8359675454153,1207
2673.622524310403,1164
2675.408712444811,1203
2677.1945322456495,1199
2678.979984010009,1237
2680.76506803506,1199
2682.5497846180497,1105
2684.334134056306,1146
2686.1181166472343,1111
2687.9017326883213,1160
2689.6849824771293,1184
2691.4678663113013,1159
2693.2503844885596,1224
2695.032537306705,1150
2696.8143250636167,1130
2698.5957480572542,1186
2700.3768065856534,1176
2702.1575009469316,1144
2703.937831439283,1168
2705.717798360982,1131
2707.4974020103837,1170
2709.276642685917,1140
2711.055520686095,1133
2712.834036309506,1204
2714.612189854819,1102
2716.389981620782,1176
2718.1674119062204,1169
2719.944481010041,1112
2721.721189231226,1137
2723.4975368688415,1188
2725.273524222027,1142
2727.0491515900053,1119
2728.824419272075,1195
2730.5993275676146,1211
2732.3738767760838,1142
2734.148067197016,1139
2735.921899130031,1133
2737.6953728748194,1119
2739.468488731156,1106
2741.2412469988926,1145
2743.0136479779617,1108
2744.785691968372,1164
2746.5573792702116,1215
2748.3287101836504,1183
2750.099685008934,1094
2751.870304046388,1184
2753.640567596418,1134
2755.4104759595057,1164
2757.1800294362156,1161
2758.949228327187,1135
2760.7180729331412,1165
2762.486563554877,1154
2764.254700493272,1147
2766.022484049284,1083
2767.789914523947,1145
2769.5569922183786,1137
2771.3237174337705,1103
2773.090090471394,1187
2774.8561116326036,1108
2776.6217812188274,1163
2778.3870995315756,1152
2780.1520668724356,1162
2781.9166835430747,1150
2783.6809498452394,1151
2785.444866080754,1144
2787.2084325515225,1147
2788.971649559527,1169
2790.73451740683,1160
2792.4970363955713,1166
2794.2592068279705,1147
2796.0210290063264,1148
2797.7825032330147,1189
2799.543629810493,1225
2801.304409041296,1147
2803.0648412280366,1146
2804.8249266734088,1185
2806.5846656801846,1173
2808.344058551212,1177
2810.1031055894246,1152
2811.8618070978273,1124
2813.6201633795085,1215
2815.378174737636,1217
2817.1358414754536,1218
2818.893163896285,1211
2820.6501423035334,1167
2822.4067770006814,1127
2824.1630682912883,1163
2825.9190164789957,1142
2827.6746218675207,1150
2829.429884760661,1138
2831.184805462294,1137
2832.9393842763743,1171
2834.693621506936,1137
2836.4475174580916,1152
2838.201072434034,1160
2839.954286739034,1156
2841.707160677441,1186
2843.459694553685,1127
2845.2118886722724,1148
2846.96374333779,1118
2848.7152588549034,1153
2850.4664355283567,1148
2852.217273662973,1178
2853.9677735636546,1191
2855.7179355353833,1152
2857.4677598832186,1138
2859.217246912299,1164
2860.9663969278427,1151
2862.715210235146,1122
2864.4636871395846,1195
2866.211827946614,1162
2867.9596329617652,1153
2869.7071024906536,1159
2871.4542368389684,1202
2873.20103631248,1183
2874.947501217038,1135
2876.6936318585695,1144
2878.4394285430812,1155
2880.1848915766604,1178
2881.9300212654707,1146
2883.6748179157553,1099
2885.4192818338374,1106
2887.1634133261173,1157
2888.907212699077,1185
2890.6506802592744,1185
2892.393816313348,1172
2894.1366211680142,1167
2895.8790951300693,1143
2897.621238506388,1167
2899.363051603925,1099
2901.1045347297118,1219
2902.8456881908596,1220
2904.58651229456,1153
2906.327007348081,1193
2908.067173658772,1175
2909.8070115340597,1185
2911.5465212814497,1159
2913.285703208527,1139
2915.0245576229563,1120
2916.7630848324807,1165
2918.5012851449196,1123
2920.2391588681758,1118
2921.976706310227,1136
2923.7139277791334,1173
2925.4508235830313,1112
2927.187394030137,1155
2928.923639428745,1167
2930.6595600872306,1225
2932.395156314046,1188
2934.1304284177218,1191
2935.8653767068713,1134
2937.6000014901815,1158
2939.3343030764227,1135
2941.068281774442,1160
2942.8019378931644,1201
2944.5352717415976,1169
2946.2682836288236,1202
2948.0009738640065,1274
2949.7333427563885,1223
2951.465390615289,1170
2953.1971177501086,1145
2954.9285244703265,1213
2956.6596110855,1178
2958.3903779052657,1173
2960.1208252393385,1159
2961.8509533975125,1175
2963.5807626896617,1192
2965.3102534257378,1164
2967.0394259157715,1164
2968.768280469873,1212
2970.496817398232,1144
2972.2250370111146,1210
2973.952939618869,1183
2975.6805255319196,1150
2977.4077950607707,1184
2979.134748516006,1218
2980.861386208289,1189
2982.587708448359,1172
2984.313715547037,1158
2986.039407815222,1188
2987.764785563891,1159
2989.489849104102,1173
2991.2145987469908,1146
2992.9390348037705,1136
2994.6631575857346,1119
2996.3869674042576,1155
2998.1104645707887,1161
2999.83364939686,1134
3001.5565221940783,1126
3003.2790832741334,1131
3005.0013329487924,1196
3006.7232715298996,1211
3008.4448993293804,1095
3010.166216659239,1116
3011.887223831558,1141
3013.607921158498,1158
3015.3283089522993,1186
3017.0483875252826,1156
3018.7681571898443,1157
3020.4876182584626,1142
3022.2067710436927,1200
3023.9256158581707,1151
3025.644153014609,1156
3027.362382825801,1174
3029.0803056046193,1136
3030.797921664012,1203
3032.5152313170106,1133
3034.2322348767225,1146
3035.9489326563353,1127
3037.665324969115,1164
3039.3814121284063,1106
3041.097194447633,1178
3042.812672240299,1242
3044.5278458199855,1196
3046.2427155003525,1143
3047.9572815951406,1178
3049.671544418167,1119
3051.38550428333,1175
3053.0991615046073,1134
3054.812516396051,1175
3056.5255692717974,1140
3058.2383204460575,1151
3059.9507702331257,1186
3061.662918947372,1195
3063.3747669032446,1162
3065.0863144152736,1142
3066.7975617980674,1169
3068.508509366309,1092
3070.219157434767,1140
3071.9295063182844,1177
3073.639556331785,1142
3075.3493077902704,1126
3077.058761008821,1150
3078.7679163025964,1163
3080.476773986837,1116
3082.1853343768594,1151
3083.89359778806,1164
3085.6015645359153,1177
3087.3092349359786,1181
3089.016609303884,1133
3090.7236879553434,1169
3092.4304712061476,1145
3094.136959372166,1188
3095.843152769349,1118
3097.5490517137237,1223
3099.2546565213966,1170
3100.959967508554,1142
3102.66498499146,1132
3104.3697092864577,1212
3106.0741407099695,1122
3107.778279578498,1126
3109.482126208622,1124
3111.1856809170004,1125
3112.8889440203716,1158
3114.5919158355528,1146
3116.294596679439,1134
3117.996986869006,1145
3119.6990867213062,1205
3121.4008965534726,1175
3123.102416682717,1145
3124.803647426329,1181
3126.5045891016784,1135
3128.205242026213,1176
3129.90560651746,1170
3131.605682893025,1123
3133.3054714705922,1118
3135.0049725679282,1178
3136.7041865028714,1175
3138.4031135933465,1086
3140.101754157353,1175
3141.800108512971,1160
3143.498176978357,1134
3145.1959598717494,1128
3146.8934575114636,1132
3148.5906702158954,1150
3150.2875983035183,1150
3151.9842420928853,1133
3153.680601902627,1136
3155.376678051456,1183
3157.07247085816,1142
3158.767980641609,1151
3160.463207720748,1129
3162.158152414606,1120
3163.8528150422862,1132
3165.5471959229726,1099
3167.2412953759303,1170
3168.9351137204976,1137
3170.628651276098,1094
3172.3219083622307,1089
3174.014885298474,1098
3175.707582404485,1136
3177.4000000000005,1174
3179.092138404835,1150
3180.7839979388846,1149
3182.47557892212,1143
3184.166881674594,1137
3185.8579065164386,1167
3187.5486537678626,1160
3189.2391237491547,1084
3190.9293167806827,1138
3192.6192331828934,1120
3194.3088732763117,1158
3195.998237381542,1132
3197.687325819268,1150
3199.376138910251,1088
3201.064676975334,1119
3202.7529403354347,1124
3204.4409293115523,1132
3206.1286442247647,1143
3207.816085396229,1106
3209.5032531471825,1145
3211.190147798936,1122
3212.8767696728846,1101
3214.5631190905015,1081
3216.2491963733373,1108
3217.9350018430214,1132
3219.6205358212637,1100
3221.305798629851,1111
3222.990790590651,1062
3224.6755120256103,1137
3226.359963256751,1134
3228.0441446061795,1095
3229.7280563960758,1154
3231.411698948703,1108
3233.0950725863995,1119
3234.778177631587,1136
3236.461014406761,1102
3238.1435832345005,1147
3239.8258844374595,1122
3241.507918338374,1176
3243.1896852600576,1151
3244.8711855254023,1147
3246.552419457381,1123
3248.233387379042,1165
3249.914089613516,1122
3251.59452648401,1147
3253.274698313813,1185
3254.95460542629,1150
3256.6342481448855,1123
3258.313626793125,1091
3259.9927416946084,1114
3261.6715931730196,1112
3263.3501815521176,1128
3265.0285071557437,1124
3266.706570307815,1127
3268.3843713323286,1077
3270.0619105533615,1121
3271.739188295068,1135
3273.4162048816834,1136
3275.0929606375184,1111
3276.769455886966,1105
3278.445690954498,1134
3280.1216661646613,1161
3281.797381842087,1178
3283.4728383114807,1144
3285.1480358976296,1124
3286.8229749253996,1113
3288.4976557197333,1138
3290.172078605655,1156
3291.846243908266,1169
3293.5201519527463,1154
3295.193803064357,1170
3296.8671975684374,1104
3298.5403357904024,1071
3300.21321805575,1106
3301.8858446900567,1099
3303.558216018975,1167
3305.23033236824,1178
3306.9021940636603,1155
3308.57380143113,1171
3310.2451547966184,1205
3311.916254486174,1208
3313.5871008259246,1179
3315.2576941420766,1146
3316.9280347609147,1169
3318.5981230088046,1158
3320.2679592121895,1148
3321.9375436975924,1116
3323.606876791612,1096
3325.27595882093,1084
3326.944790112305,1082
3328.6133709925753,1113
3330.2817017886573,1150
3331.949782827547,1094
3333.617614436319,1166
3335.2851969421245,1161
3336.952530672199,1142
3338.619615953853,1198
3340.286453114475,1132
3341.9530424815357,1169
3343.619384382583,1176
3345.2854791452437,1117
3346.951327097224,1106
3348.6169285663073,1107
3350.2822838803577,1212
3351.947393367319,1108
3353.61225735521,1169
3355.2768761721345,1143
3356.9412501462693,1131
3358.605379605873,1103
3360.2692648792827,1106
3361.9329062949146,1102
3363.596304181263,1095
