CollectionTime,9/25/2024 10:54:02 AM
ExposureUsed,3
CalibratedSpectrum
-962.7078968117929,492
-959.9714848408522,550
-957.2358232597828,532
-954.5009119013725,548
-951.7667505983302,524
-949.0333391832855,533
-946.3006774887896,553
-943.5687653473143,536
-940.837602591253,518
-938.1071890529199,547
-935.3775245645503,547
-932.6486089583007,511
-929.9204420662485,526
-927.1930237203925,599
-924.4663537526524,588
-921.7404319948689,575
-919.0152582788041,577
-916.2908324361409,607
-913.5671542984834,593
-910.8442236973568,524
-908.1220404642074,569
-905.4006044304027,560
-902.679915427231,546
-899.959973285902,533
-897.2407778375464,582
-894.5223289132158,562
-891.8046263438832,515
-889.0876699604426,501
-886.3714595937089,494
-883.6559950744183,520
-880.9412762332282,534
-878.2273029007168,499
-875.5140749073835,485
-872.8015920836489,503
-870.0898542598545,515
-867.3788612662631,480
-864.6686129330585,514
-861.9591090903457,521
-859.2503495681506,500
-856.5423341964203,482
-853.8350628050229,480
-851.1285352237478,505
-848.4227512823054,516
-845.7177108103272,524
-843.0134136373656,509
-840.3098595928943,529
-837.6070485063082,539
-834.9049802069229,539
-832.2036545239757,514
-829.5030712866244,524
-826.8032303239481,528
-824.1041314649472,522
-821.4057745385428,530
-818.7081593735775,525
-816.0112857988148,525
-813.3151536429393,547
-810.6197627345566,537
-807.9251129021936,494
-805.2312039742981,501
-802.5380357792392,490
-799.8456081453069,505
-797.1539209007124,533
-794.462973873588,553
-791.772766891987,550
-789.083299783884,537
-786.3945723771743,510
-783.7065844996748,547
-781.0193359791231,525
-778.3328266431781,542
-775.6470563194197,523
-772.9620248353489,505
-770.2777320183878,499
-767.5941776958798,505
-764.9113616950891,488
-762.2292838432011,520
-759.5479439673222,506
-756.8673418944801,525
-754.1874774516235,551
-751.5083504656222,540
-748.8299607632671,525
-746.15230817127,514
-743.475392516264,546
-740.7992136248035,545
-738.1237713233636,526
-735.4490654383407,507
-732.7750957960521,536
-730.1018622227365,563
-727.4293645445534,553
-724.7576025875837,576
-722.0865761778291,554
-719.4162851412126,563
-716.7467293035781,571
-714.0779084906909,585
-711.409822528237,562
-708.7424712418238,540
-706.0758544569796,564
-703.4099719991541,535
-700.7448236937178,554
-698.0804093659622,567
-695.4167288411002,556
-692.7537819442656,569
-690.0915685005134,525
-687.4300883348199,555
-684.7693412720819,569
-682.1093271371178,509
-679.4500457546669,543
-676.7914969493897,551
-674.1336805458676,567
-671.4765963686034,579
-668.8202442420206,574
-666.1646239904642,546
-663.5097354382001,536
-660.8555784094151,522
-658.2021527282176,542
-655.5494582186366,556
-652.8974947046223,584
-650.2462620100463,539
-647.5957599587009,576
-644.9459883742998,595
-642.2969470804776,601
-639.6486359007902,591
-637.0010546587141,596
-634.3542031776476,572
-631.7080812809096,594
-629.0626887917401,604
-626.4180255333008,614
-623.7740913286734,659
-621.1308860008619,694
-618.4884093727904,657
-615.8466612673046,613
-613.2056415071715,601
-610.5653499150785,619
-607.9257863136347,662
-605.28695052537,631
-602.6488423727357,615
-600.0114616781036,623
-597.3748082637674,674
-594.7388819519412,693
-592.1036825647604,682
-589.4692099242818,681
-586.8354638524829,726
-584.2024441712624,728
-581.5701507024403,696
-578.9385832677575,675
-576.3077416888759,633
-573.6776257873787,692
-571.0482353847704,642
-568.4195703024757,666
-565.7916303618415,645
-563.164415384135,681
-560.5379251905453,619
-557.9121596021815,633
-555.2871184400748,635
-552.6628015251767,671
-550.0392086783606,664
-547.4163397204204,672
-544.794194472071,688
-542.1727727539491,698
-539.5520743866118,751
-536.9320991905377,725
-534.3128469861261,766
-531.6943175936979,756
-529.0765108334947,815
-526.4594265256793,912
-523.8430644903358,1059
-521.2274245474689,1174
-518.612506517005,1292
-515.9983102187913,1427
-513.3848354725959,1573
-510.77208209810846,1844
-508.16004991493924,2145
-505.5487387426199,2354
-502.9381484006032,2301
-500.3282787082628,2313
-497.71912948489364,1925
-495.1107005497117,1605
-492.5029917218539,1318
-489.8960028203786,1174
-487.28973366426493,953
-484.68418407241325,957
-482.07935386364494,881
-479.47524285670266,919
-476.87185087025,917
-474.2691777228715,898
-471.66722323307334,838
-469.0659872192821,807
-466.4654694998459,837
-463.86566989303384,858
-461.26658821703614,798
-458.66822428996414,880
-456.07057792985,850
-453.4736489546475,835
-450.877437182231,888
-448.28194243039627,846
-445.68716451686,786
-443.09310325926003,771
-440.49975847515555,754
-437.9071299820263,768
-435.31521759727354,859
-432.72402113821954,845
-430.13354042210767,878
-427.5437752661022,817
-424.95472548728867,837
-422.36639090267386,867
-419.7787713291855,889
-417.1918665836721,895
-414.60567648290385,908
-412.0202008435715,918
-409.4354394822874,878
-406.8513922155845,851
-404.26805885991723,903
-401.685439231661,921
-399.103533147112,879
-396.522340422488,857
-393.9418608739278,904
-391.3620943174908,881
-388.7830405691583,855
-386.2046994448317,859
-383.6270707603344,824
-381.05015433141045,858
-378.473949973725,797
-375.8984575028645,766
-373.32367673433623,790
-370.74960748356875,747
-368.1762495659117,687
-365.60360279663576,680
-363.03166699093265,630
-360.4604419639154,646
-357.8899275306178,577
-355.32012350599507,559
-352.7510297049233,612
-350.1826459421999,499
-347.61497203254316,533
-345.04800779059235,543
-342.4817530309082,579
-339.91620756797226,673
-337.35137121618743,656
-334.7872437898774,652
-332.22382510328725,697
-329.66111497058273,702
-327.09911320585127,694
-324.53781962310075,584
-321.9772340362607,531
-319.4173562591816,546
-316.8581861056348,587
-314.2997233893127,567
-311.7419679238294,537
-309.1849195227194,542
-306.62857799943856,601
-304.0729431673641,657
-301.51801483979375,709
-298.963792829947,648
-296.41027695096386,603
-293.85746701590574,698
-291.3053628377552,840
-288.7539642294155,786
-286.2032710037115,702
-283.65328297338897,716
-281.1039999511146,815
-278.5554217494762,1022
-276.007548180983,979
-273.4603790580651,903
-270.9139141930734,706
-268.3681533982807,689
-265.8230964858798,711
-263.27874326798565,850
-260.7350935566336,827
-258.1921471637804,912
-255.6499039013039,952
-253.10836358100266,825
-250.56752601459698,814
-248.02739101372765,889
-245.48795838995704,966
-242.94922795476816,909
-240.41119951956557,853
-237.8738728956746,875
-235.33724789434166,1040
-232.80132432673452,855
-230.2661020039418,795
-227.73158073697357,833
-225.19776033676033,1065
-222.66464061415422,1146
-220.1322213799284,961
-217.60050244477725,823
-215.06948361931552,924
-212.53916471408013,959
-210.00954553952818,1268
-207.48062590603843,1215
-204.9524056239104,989
-202.4248845033651,999
-199.8980623545441,1113
-197.37193898751036,1154
-194.84651421224817,1150
-192.32178783866232,953
-189.79775967657952,1093
-187.27442953574644,1294
-184.7517972258321,1369
-182.2298625564256,1227
-179.7086253370378,1124
-177.18808537710026,1156
-174.66824248596583,1445
-172.14909647290835,1558
-169.6306471471229,1298
-167.11289431772548,1067
-164.59583779375328,1148
-162.07947738416453,1209
-159.5638128978386,1457
-157.04884414357605,1706
-154.53457093009854,1865
-152.02099306604828,1507
-149.50811035998936,1234
-146.99592262040665,1162
-144.48442965570587,1552
-141.97363127421409,2159
-139.46352728417958,2650
-136.95411749377126,2371
-134.44540171107985,1871
-131.93737974411636,1417
-129.43005140081357,1579
-126.92341648902493,2332
-124.41747481652521,3335
-121.91222619101006,4679
-119.40767042009657,5517
-116.90380731132257,5793
-114.40063667214702,5076
-111.8981583099503,4325
-109.3963720320337,4622
-106.89527764561933,4359
-104.39487495785067,4670
-101.89516377579241,6924
-99.39614390642998,9320
-96.89781515667039,12685
-94.40017733334128,11750
-91.90323024319173,9296
-89.40697369289148,7737
-86.91140748903172,6731
-84.41653143812482,7957
-81.92234534660395,10298
-79.42884902082358,12593
-76.93604226705907,14955
-74.4439248915071,17185
-71.95249670028534,27610
-69.46175749943245,41689
-66.97170709490854,53970
-64.48234529259423,61268
-61.99367189829195,61858
-59.50568671772464,57063
-57.01838955653636,46372
-54.53178022029283,38297
-52.045858514480074,37156
-49.560624244506016,32484
-47.07607721569923,26890
-44.59221723330904,22720
-42.10904410250669,21630
-39.62655762838392,18924
-37.14475761595372,17418
-34.66364387015028,20225
-32.18321619582866,22391
-29.70347439776515,27600
-27.224418280657005,31075
-24.74604764912317,40025
-22.26836230770266,65043
-19.7913620608565,65043
-17.315046712966478,65043
-14.83941606833514,65043
-12.36446993118659,65043
-9.89020810566592,65043
-7.416630395839093,65043
-4.94373660569363,65043
-2.471526539137585,65043
-6.821210263296962E-13,65043
2.47084320796705,65043
4.941003281093458,65043
7.410480415786196,65043
9.879274808531363,65043
12.347386655893956,65043
14.814816154518212,65043
17.28156350112681,65043
19.74762889252179,65043
22.21301252558385,25097
24.67771459727237,7382
27.141735304626195,5349
29.605074844762612,5293
32.06773341487792,5793
34.52971121224755,5005
36.99100843422559,4842
39.45162527824516,8103
41.91156194181792,8041
44.370818622535126,5637
46.82939551806646,4898
49.287292826160524,5009
51.74451074464503,5247
54.201049471426245,5869
56.65690920448981,4435
59.112090141899785,3673
61.56659248179983,3550
64.02041642241159,2520
66.4735621620365,2592
68.92602989905402,2655
71.37781983192338,2427
73.82893215918205,2163
76.27936707944684,2526
78.72912479141326,2809
81.17820549385567,2599
83.62660938562783,2488
86.07433666566146,2854
88.5213875329681,3007
90.96776218663751,2095
93.41346082583925,1738
95.85848364982041,1956
98.30283085790859,2193
100.7465026495089,2788
103.18949922410604,2636
105.63182078126385,3114
108.07346752062438,2478
110.51443964190923,1939
112.95473734491827,1598
115.39436082953114,1513
117.83331029570547,1694
120.27158594347827,1728
122.7091879729652,1701
125.1461165843615,1641
127.58237197794062,1485
130.01795435405518,1501
132.4528639131364,1397
134.88710085569494,1593
137.32066538231982,1702
139.75355769367923,1383
142.1857779905207,1213
144.61732647366978,1356
147.04820334403132,1478
149.47840880258934,1409
151.90794305040674,1359
154.33680628862487,1382
156.76499871846443,1536
159.19252054122433,1666
161.61937195828352,1647
164.04555317109896,1812
166.47106438120693,1970
168.89590579022217,2186
171.320077599839,2099
173.7435800118302,2021
176.16641322804742,2192
178.58857745042144,2399
181.01007288096173,2445
183.43089972175687,2459
185.85105817497413,2359
188.27054844285988,2445
190.6893707277394,2363
193.10752523201643,2376
195.5250121581745,2367
197.9418317087751,2367
200.3579840864594,2255
202.7734694939469,2444
205.18828813403627,2370
207.6024402096051,2436
210.01592592360964,2472
212.42874547908548,2573
214.84089907914665,2369
217.2523869269868,2406
219.66320922587727,2470
222.0733661791695,2500
224.48285799029293,2320
226.8916848627572,2346
229.29984700014882,2434
231.7073446061355,2398
234.11417788446204,2388
236.520347038953,2329
238.92585227351185,2356
241.33069379212054,2344
243.73487179884035,2391
246.1383864978112,2378
248.541238093252,2395
250.9434267894609,2282
253.34495279081432,2378
255.74581630176783,2436
258.1460175268563,2371
260.54555667069314,2224
262.9444339379703,2282
265.3426495334594,2375
267.7402036620107,2422
270.1370965285529,2528
272.53332833809407,2554
274.9288992957214,2343
277.32380960660055,2363
279.718059475976,2371
282.1116491091717,2411
284.5045787115897,2379
286.89684848871195,2375
289.2884586460981,2341
291.67940938938807,2426
294.0697009242996,2377
296.4593334566299,2455
298.84830719225477,2537
301.23662233712923,2456
303.6242790972866,2450
306.01127767884,2314
308.39761828798066,2227
310.78330113097934,2288
313.16832641418534,2163
315.5526943440269,2130
317.9364051270112,2199
320.3194589697242,2254
322.70185607883093,2223
325.0835966610754,2200
327.4646809232805,2136
329.8451090723478,2152
332.2248813152577,2077
334.6039978590701,2133
336.9824589109231,2056
339.36026467803447,2070
341.7374153677,2014
344.113911187295,2042
346.48975234427337,2018
348.8649390461686,1989
351.2394715005918,1970
353.61334991523415,2026
355.9865744978655,1979
358.35914545633375,1974
360.73106299856715,1951
363.10232733257146,1976
365.47293866643247,2036
367.84289720831396,1981
370.2122031664593,1841
372.5808567491905,1961
374.9488581649083,1894
377.31620762209275,1810
379.6829053293021,1874
382.0489514951745,1891
384.4143463284262,1899
386.7790900378528,1834
389.14318283232853,1790
391.50662492080653,1809
393.86941651231916,1824
396.23155781597745,1885
398.5930490409713,1857
400.9538903965696,1880
403.3140820921202,1877
405.6736243370498,1936
408.03251734086336,1925
410.3907613131465,1881
412.74835646356166,1851
415.10530300185144,1838
417.4616011378372,1807
419.81725108141893,1880
422.1722530425758,1818
424.5266072313656,1813
426.880313857925,1850
429.2333731324701,1823
431.58578526529516,1835
433.9375504667738,1798
436.2886689473588,1785
438.63914091758113,1879
440.9889665880513,1755
443.33814616945835,1780
445.68667987257015,1818
448.03456790823395,1816
450.3818104873759,1717
452.72840782100013,1733
455.07436012019105,1768
457.41966759611057,1691
459.7643304600007,1681
462.10834892318155,1758
464.4517231970525,1726
466.79445349309174,1828
469.1365400228566,1789
471.4779829979826,1733
473.81878263018564,1809
476.15893913125876,1734
478.4984527130747,1836
480.8373235875855,1819
483.17555196682144,1858
485.5131380628919,1932
487.8500820879857,2027
490.1863842543697,2169
492.52204477439034,2317
494.8570638604725,2526
497.1914417251204,2971
499.52517858091653,3619
501.85827464052306,4341
504.19073011668036,5061
506.5225452222086,5378
508.85372017000566,5350
511.18425517304956,5243
513.514150444396,5580
515.8434061971808,6010
518.1720226446176,6512
520.4999999999999,6296
522.8273384766991,5757
525.1540382881666,5190
527.480099647932,4409
529.8055227696037,3560
532.1303078668694,2676
534.454455153496,2197
536.777964843328,2049
539.1008371502907,1944
541.4230722883866,1799
543.744670471698,1783
546.0656319143858,1789
548.3859568306899,1819
550.7056454349294,1778
553.0246979415016,1888
555.3431145648834,1884
557.6608955196306,1774
559.978041020377,1778
562.2945512818363,1828
564.6104265188006,1738
566.9256669461412,1745
569.2402727788082,1760
571.5542442318302,1836
573.8675815203156,1770
576.1802848594508,1802
578.4923544645015,1809
580.8037905508126,1775
583.114593333807,1828
585.4247630289875,1860
587.7342998519354,1778
590.0432040183106,1815
592.3514757438526,1832
594.6591152443794,1840
596.9661227357875,1841
599.2724984340531,1843
601.578242555231,1805
603.8833553154542,1822
606.1878369309362,1743
608.4916876179676,1764
610.7949075929192,1748
613.0974970722403,1873
615.3994562724587,1851
617.7007854101818,1834
620.0014847020951,1815
622.3015543649641,1810
624.6009946156324,1764
626.8998056710224,1822
629.1979877481361,1771
631.4955410640538,1735
633.7924658359349,1759
636.0887622810175,1747
638.3844306166192,1822
640.6794710601358,1802
642.9738838290426,1831
645.2676691408932,1879
647.5608272133207,1805
649.853358264037,1831
652.1452625108324,1796
654.4365401715764,1756
656.7271914642178,1757
659.0172166067838,1824
661.3066158173809,1755
663.5953893141935,1753
665.8835373154867,1793
668.1710600396028,1879
670.4579577049639,1803
672.7442305300709,1862
675.0298787335033,1791
677.3149025339197,1807
679.599302150058,1833
681.8830778007342,1722
684.1662297048437,1760
686.4487580813608,1809
688.7306631493387,1823
691.0119451279091,1799
693.2926042362834,1778
695.5726406937516,1790
697.8520547196814,1816
700.1308465335215,1757
702.4090163547982,1756
704.6865644031171,1819
706.9634908981619,1758
709.2397960596965,1761
711.5154801075631,1720
713.7905432616823,1739
716.0649857420548,1788
718.3388077687592,1842
720.612009561953,1768
722.8845913418733,1816
725.1565533288352,1826
727.427895743234,1772
729.6986188055427,1740
731.9687227363137,1766
734.238207756178,1819
736.5070740858458,1797
738.7753219461066,1796
741.0429515578281,1785
743.3099631419569,1823
745.5763569195191,1783
747.8421331116193,1831
750.1072919394409,1768
752.3718336242467,1747
754.6357583873777,1815
756.8990664502545,1921
759.1617580343765,1826
761.423833361321,1816
763.6852926527457,1821
765.9461361303862,1787
768.206364016058,1862
770.4659765316536,1839
772.7249738991469,1851
774.9833563405886,1838
777.2411240781092,1802
779.4982773339183,1718
781.7548163303044,1788
784.010741289634,1800
786.2660524343538,1912
788.5207499869881,1879
790.7748341701416,1904
793.0283052064964,1850
795.2811633188143,1922
797.5334087299362,1876
799.7850416627813,1836
802.0360623403484,1830
804.2864709857143,1900
806.5362678220353,1897
808.7854530725468,1806
811.0340269605625,1797
813.2819897094754,1851
815.5293415427581,1848
817.77608268396,1854
820.0222133567116,1835
822.2677337847211,1807
824.5126441917765,1882
826.7569448017433,1881
829.0006358385675,1855
831.2437175262731,1844
833.4861900889629,1818
835.7280537508192,1787
837.9693087361026,1889
840.2099552691533,1999
842.4499935743896,1863
844.689423876309,1780
846.9282463994886,1828
849.1664613685833,1812
851.4040690083276,1897
853.6410695435349,1870
855.877463199097,1829
858.1132501999847,1804
860.3484307712487,1868
862.5830051380175,1912
864.8169735254988,1854
867.0503361589791,1814
869.2830932638243,1827
871.5152450654786,1854
873.7467917894654,1829
875.9777336613873,1853
878.2080709069252,1883
880.4378037518389,1858
882.666932421968,1840
884.8954571432301,1861
887.1233781416219,1844
889.3506956432192,1976
891.5774098741766,1900
893.803521060728,1842
896.0290294291852,1853
898.2539352059397,1925
900.4782386174619,1953
902.7019398903011,1974
904.925039251085,1909
907.147536926521,1924
909.3694331433943,1996
911.59072812857,1995
913.8114221089921,1935
916.0315153116827,1922
918.2510079637437,1908
920.4699002923547,1910
922.6881925247761,1955
924.905884888345,1913
927.1229776104793,1920
929.3394709186747,1958
931.555365040506,1963
933.7706602036275,1919
935.9853566357709,1921
938.1994545647489,1906
940.4129542184515,1984
942.6258558248488,1923
944.8381596119883,1944
947.0498658079974,1992
949.2609746410825,1987
951.4714863395287,1995
953.6814011316998,1932
955.8907192460387,1915
958.0994409110671,1913
960.3075663553858,1944
962.5150958076741,1948
964.7220294966913,1917
966.928367651274,1916
969.1341105003388,1873
971.3392582728806,1820
973.5438111979742,1883
975.747769504772,1791
977.9511334225061,1796
980.153903180487,1808
982.3560790081052,1755
984.5576611348289,1787
986.7586497902058,1717
988.9590452038618,1740
991.158847605503,1715
993.3580572249133,1770
995.5566742919558,1690
997.7546990365728,1677
999.952131688785,1630
1002.1489724786926,1609
1004.3452216364743,1532
1006.5408793923874,1541
1008.7359459767691,1501
1010.9304216200343,1533
1013.1243065526781,1538
1015.3176010052733,1463
1017.510305208472,1506
1019.7024193930064,1493
1021.8939437896848,1512
1024.0848786293977,1511
1026.2752241431122,1508
1028.4649805618747,1446
1030.6541481168115,1440
1032.842727039127,1474
1035.0307175601051,1448
1037.2181199111074,1452
1039.4049343235752,1431
1041.591161029029,1425
1043.7768002590683,1445
1045.9618522453698,1402
1048.1463172196918,1404
1050.3301954138697,1414
1052.513487059818,1356
1054.69619238953,1392
1056.8783116350783,1426
1059.0598450286152,1389
1061.2407928023704,1414
1063.4211551886528,1421
1065.6009324198508,1380
1067.780124728432,1410
1069.9587323469414,1442
1072.1367555080046,1375
1074.314194444325,1412
1076.4910493886855,1411
1078.667320573947,1355
1080.843008233051,1360
1083.0181125990161,1366
1085.1926339049414,1389
1087.3665723840027,1390
1089.5399282694575,1376
1091.7127017946405,1403
1093.8848931929647,1387
1096.0565026979243,1384
1098.2275305430899,1349
1100.3979769621128,1293
1102.567842188722,1307
1104.737126456726,1263
1106.9058300000124,1369
1109.0739530525475,1341
1111.2414958483764,1283
1113.4084586216231,1343
1115.5748416064907,1288
1117.7406450372605,1323
1119.9058691482942,1364
1122.0705141740304,1344
1124.2345803489884,1306
1126.3980679077658,1325
1128.5609770850388,1352
1130.7233081155623,1334
1132.8850612341707,1326
1135.0462366757774,1358
1137.2068346753745,1348
1139.3668554680326,1341
1141.526299288901,1324
1143.68516637321,1279
1145.8434569562655,1310
1148.001171273455,1289
1150.158309560244,1276
1152.3148720521767,1290
1154.470858984876,1243
1156.626270594044,1352
1158.7811071154629,1271
1160.9353687849912,1345
1163.089055838569,1268
1165.242168512213,1268
1167.3947070420209,1275
1169.5466716641677,1329
1171.6980626149075,1262
1173.8488801305748,1297
1175.9991244475814,1290
1178.1487958024186,1374
1180.2978944316555,1350
1182.4464205719428,1317
1184.5943744600072,1267
1186.7417563326567,1295
1188.8885664267755,1304
1191.0348049793297,1296
1193.1804722273619,1291
1195.325568407995,1330
1197.4700937584303,1326
1199.614048515948,1261
1201.7574329179074,1264
1203.900247201746,1317
1206.042491604982,1344
1208.1841663652099,1252
1210.3252717201053,1292
1212.465807907422,1300
1214.6057751649923,1312
1216.7451737307279,1229
1218.8840038426192,1290
1221.0222657387353,1288
1223.1599596572241,1294
1225.2970858363137,1327
1227.4336445143094,1278
1229.5696359295966,1306
1231.705060320639,1227
1233.8399179259786,1270
1235.9742089842384,1244
1238.107933734118,1289
1240.2410924143974,1333
1242.373685263935,1352
1244.5057125216676,1286
1246.6371744266116,1256
1248.7680712178621,1288
1250.898403134593,1252
1253.028170416058,1320
1255.1573733015875,1319
1257.2860120305932,1288
1259.4140868425648,1307
1261.54159797707,1327
1263.6685456737569,1326
1265.7949301723515,1317
1267.9207517126597,1277
1270.046010534565,1333
1272.1707068780306,1346
1274.2948409830983,1337
1276.4184130898889,1300
1278.541423438603,1297
1280.6638722695184,1359
1282.785759822993,1339
1284.9070863394636,1319
1287.0278520594447,1312
1289.1480572235314,1335
1291.2677020723963,1349
1293.3867868467923,1322
1295.5053117875495,1295
1297.623277135579,1315
1299.740683131868,1307
1301.8575300174857,1311
1303.973818033578,1304
1306.0895474213703,1297
1308.2047184221678,1322
1310.3193312773528,1329
1312.4333862283888,1318
1314.5468835168163,1289
1316.659823384255,1375
1318.7722060724045,1279
1320.8840318230418,1321
1322.9953008780249,1295
1325.1060134792888,1339
1327.2161698688478,1317
1329.3257702887959,1332
1331.4348149813054,1332
1333.5433041886276,1324
1335.6512381530933,1356
1337.7586171171101,1332
1339.8654413231675,1407
1341.9717110138317,1346
1344.0774264317488,1306
1346.1825878196432,1312
1348.2871954203192,1372
1350.3912494766587,1364
1352.4947502316231,1352
1354.5976979282532,1357
1356.7000928096686,1311
1358.8019351190665,1278
1360.9032250997243,1347
1363.0039629949988,1354
1365.1041490483235,1365
1367.2037835032133,1300
1369.3028666032606,1372
1371.401398592137,1386
1373.4993797135926,1334
1375.5968102114575,1332
1377.6936903296396,1335
1379.7900203121262,1332
1381.8858004029835,1325
1383.9810308463561,1308
1386.075711886469,1371
1388.1698437676241,1342
1390.2634267342032,1377
1392.356461030667,1349
1394.4489469015557,1368
1396.5408845914872,1334
1398.6322743451592,1391
1400.7231164073469,1362
1402.813411022907,1343
1404.903158436773,1366
1406.9923588939578,1385
1409.0810126395531,1352
1411.1691199187303,1366
1413.2566809767386,1376
1415.343696058907,1350
1417.4301654106425,1342
1419.5160892774315,1402
1421.6014679048399,1383
1423.6863015385125,1371
1425.7705904241707,1328
1427.8543348076178,1378
1429.9375349347342,1321
1432.0201910514802,1432
1434.102303403894,1354
1436.1838722380944,1334
1438.2648978002767,1341
1440.3453803367174,1321
1442.4253200937692,1343
1444.5047173178677,1367
1446.5835722555234,1321
1448.6618851533285,1370
1450.739656257952,1365
1452.8168858161434,1399
1454.8935740747306,1380
1456.96972128062,1375
1459.045327680797,1373
1461.120393522327,1391
1463.1949190523528,1387
1465.2689045180973,1387
1467.3423501668608,1379
1469.415256246024,1376
1471.4876230030463,1403
1473.559450685465,1437
1475.6307395408976,1403
1477.7014898170391,1344
1479.771701761665,1327
1481.8413756226287,1358
1483.9105116478618,1393
1485.9791100853772,1334
1488.0471711832643,1334
1490.1146951896926,1397
1492.1816823529098,1329
1494.2481329212433,1451
1496.3140471430984,1375
1498.3794252669609,1393
1500.4442675413939,1438
1502.5085742150404,1359
1504.572345536622,1367
1506.6355817549388,1366
1508.6982831188702,1417
1510.7604498773744,1320
1512.8220822794883,1448
1514.8831805743293,1409
1516.9437450110909,1448
1519.003775839048,1382
1521.0632733075522,1397
1523.1222376660367,1422
1525.1806691640113,1377
1527.2385680510652,1354
1529.2959345768668,1334
1531.3527689911643,1356
1533.4090715437833,1321
1535.4648424846291,1391
1537.5200820636855,1437
1539.5747905310159,1375
1541.6289681367616,1418
1543.6826151311434,1411
1545.7357317644614,1422
1547.7883182870937,1313
1549.8403749494987,1361
1551.8919020022113,1344
1553.9428996958477,1418
1555.9933682811015,1404
1558.0433080087469,1470
1560.0927191296346,1465
1562.1416018946961,1433
1564.1899565549415,1433
1566.2377833614592,1430
1568.2850825654164,1447
1570.3318544180606,1384
1572.3780991707158,1441
1574.423817074788,1459
1576.4690083817595,1399
1578.5136733431923,1412
1580.5578122107272,1392
1582.601425236085,1374
1584.6445126710646,1460
1586.6870747675434,1439
1588.7291117774776,1408
1590.7706239529034,1383
1592.8116115459347,1382
1594.8520748087658,1395
1596.8920139936686,1387
1598.9314293529933,1381
1600.9703211391711,1376
1603.008689604711,1391
1605.0465350022005,1435
1607.0838575843068,1369
1609.1206576037753,1374
1611.1569353134305,1371
1613.1926909661765,1375
1615.2279248149953,1370
1617.2626371129481,1339
1619.2968281131757,1345
1621.3304980688963,1439
1623.3636472334088,1445
1625.39627586009,1372
1627.428384202396,1359
1629.459972513861,1315
1631.4910410480993,1340
1633.5215900588028,1356
1635.551619799744,1321
1637.5811305247717,1359
1639.6101224878166,1281
1641.6385959428862,1344
1643.6665511440683,1311
1645.693988345528,1299
1647.7209078015112,1327
1649.7473097663405,1325
1651.7731944944203,1309
1653.7985622402307,1270
1655.823413258333,1382
1657.847747803366,1306
1659.8715661300494,1278
1661.8948684931793,1285
1663.9176551476316,1319
1665.9399263483624,1379
1667.9616823504057,1318
1669.982923408873,1272
1672.0036497789574,1248
1674.0238617159293,1310
1676.043559475138,1351
1678.0627433120121,1319
1680.081413482059,1291
1682.0995702408654,1282
1684.117213844096,1332
1686.134344547495,1338
1688.1509626068864,1322
1690.1670682781705,1300
1692.182661817329,1354
1694.1977434804217,1345
1696.2123135235875,1323
1698.226372203043,1284
1700.2399197750851,1373
1702.2529564960905,1347
1704.2654826225112,1333
1706.277498410882,1368
1708.2890041178139,1324
1710.2999999999988,1333
1712.3104863142066,1358
1714.3204633172854,1353
1716.329931266163,1278
1718.3388904178469,1270
1720.3473410294214,1325
1722.3552833580516,1384
1724.3627176609807,1300
1726.3696441955308,1350
1728.3760632191033,1338
1730.3819749891782,1294
1732.3873797633146,1313
1734.3922777991502,1313
1736.3966693544012,1295
1738.4005546868639,1308
1740.4039340544127,1288
1742.406807715001,1295
1744.4091759266616,1320
1746.4110389475054,1308
1748.4123970357223,1300
1750.413250449582,1367
1752.4135994474318,1357
1754.4134442876993,1263
1756.4127852288902,1288
1758.4116225295893,1319
1760.4099564484595,1363
1762.407787244244,1348
1764.405115175764,1310
1766.4019405019203,1267
1768.3982634816916,1305
1770.3940843741357,1373
1772.3894034383907,1325
1774.3842209336717,1387
1776.378537119274,1348
1778.372352254571,1312
1780.3656665990156,1330
1782.3584804121397,1292
1784.3507939535534,1282
1786.3426074829463,1311
1788.3339212600863,1342
1790.3247355448211,1317
1792.3150505970766,1394
1794.3048666768573,1300
1796.2941840442477,1305
1798.2830029594106,1234
1800.2713236825884,1365
1802.2591464741004,1391
1804.2464715943465,1328
1806.2332993038058,1322
1808.2196298630352,1324
1810.2054635326708,1318
1812.190800573428,1351
1814.175641246101,1390
1816.1599858115628,1348
1818.1438345307652,1338
1820.127187664738,1298
1822.1100454745924,1291
1824.092408221516,1282
1826.0742761667766,1322
1828.055649571721,1363
1830.0365286977735,1292
1832.0169138064398,1369
1833.9968051593014,1380
1835.9762030180214,1311
1837.9551076443408,1338
1839.9335193000788,1383
1841.9114382471344,1311
1843.888864747485,1241
1845.8657990631878,1383
1847.842241456378,1291
1849.8181921892697,1275
1851.7936515241558,1276
1853.7686197234098,1305
1855.7430970494815,1326
1857.7170837649014,1296
1859.6905801322787,1271
1861.6635864143004,1290
1863.6361028737338,1321
1865.608129773424,1240
1867.5796673762961,1325
1869.5507159453537,1294
1871.521275743678,1276
1873.4913470344313,1293
1875.4609300808534,1349
1877.4300251462632,1284
1879.3986324940588,1322
1881.366752387717,1286
1883.3343850907936,1264
1885.3015308669228,1317
1887.268189979819,1346
1889.2343626932739,1355
1891.2000492711595,1358
1893.1652499774254,1322
1895.1299650761011,1289
1897.0941948312952,1334
1899.0579395071945,1323
1901.0211993680641,1295
1902.98397467825,1333
1904.9462657021745,1353
1906.9080727043415,1336
1908.869395949332,1304
1910.8302357018065,1321
1912.790592226504,1256
1914.7504657882428,1328
1916.7098566519212,1283
1918.6687650825133,1277
1920.6271913450764,1321
1922.5851357047422,1326
1924.5425984267245,1269
1926.499579776314,1347
1928.4560800188833,1339
1930.4120994198802,1339
1932.367638244833,1319
1934.32269675935,1361
1936.2772752291175,1320
1938.231373919899,1319
1940.1849930975404,1315
1942.1381330279637,1336
1944.0907939771696,1342
1946.0429762112412,1299
1947.9946799963363,1280
1949.9459055986945,1280
1951.896653284633,1261
1953.8469233205478,1265
1955.7967159729142,1270
1957.7460315082863,1348
1959.6948701932974,1289
1961.6432322946594,1331
1963.5911180791632,1326
1965.5385278136787,1308
1967.4854617651545,1265
1969.4319202006182,1250
1971.377903387176,1316
1973.3234115920136,1318
1975.268445082395,1333
1977.2130041256642,1341
1979.1570889892423,1277
1981.1006999406304,1300
1983.04383724741,1309
1984.986501177238,1258
1986.928691997853,1290
1988.8704099770712,1315
1990.811655382789,1295
1992.7524284829801,1296
1994.692729545698,1286
1996.6325588390755,1308
1998.5719166313224,1312
2000.5108031907307,1362
2002.4492187856677,1307
2004.387163684583,1256
2006.3246381560011,1283
2008.2616424685298,1303
2010.1981768908527,1272
2012.1342416917332,1276
2014.069837140014,1311
2016.0049635046162,1335
2017.9396210545406,1260
2019.8738100588666,1339
2021.8075307867502,1238
2023.740783507431,1311
2025.6735684902228,1268
2027.6058860045214,1300
2029.5377363198004,1300
2031.4691197056118,1247
2033.4000364315875,1305
2035.3304867674374,1292
2037.260470982952,1248
2039.189989347998,1292
2041.1190421325232,1283
2043.047629606554,1279
2044.9757520401945,1300
2046.9034097036288,1333
2048.8306028671195,1262
2050.7573318010086,1296
2052.683596775716,1215
2054.609398061742,1250
2056.5347359296647,1297
2058.4596106501403,1314
2060.384022493906,1310
2062.3079717317764,1231
2064.231458634646,1256
2066.1544834734873,1331
2068.077046519352,1304
2069.99914804337,1260
2071.9207883167524,1226
2073.8419676107865,1317
2075.7626861968406,1261
2077.6829443463607,1271
2079.6027423308715,1282
2081.522080421977,1266
2083.440958891362,1313
2085.359378010786,1298
2087.2773380520907,1234
2089.194839287196,1300
2091.111881988101,1272
2093.0284664268825,1328
2094.9445928756973,1262
2096.86026160678,1293
2098.775472892446,1307
2100.690227005088,1300
2102.604524217178,1341
2104.5183648012676,1243
2106.431749029985,1333
2108.34467717604,1325
2110.2571495122206,1251
2112.169166311393,1287
2114.080727846503,1299
2115.9918343905747,1289
2117.902486216711,1363
2119.8126835980956,1329
2121.722426807987,1276
2123.6317161197285,1271
2125.5405518067364,1287
2127.448934142509,1271
2129.356863400624,1285
2131.264339854737,1352
2133.1713637785815,1290
2135.077935445972,1302
2136.9840551308002,1304
2138.889723107037,1328
2140.7949396487334,1315
2142.699705030018,1309
2144.6040195250994,1341
2146.507883408264,1370
2148.4112969538774,1311
2150.3142604363848,1279
2152.2167741303097,1307
2154.1188383102535,1363
2156.0204532508997,1281
2157.9216192270064,1320
2159.822336513414,1351
2161.7226053850413,1359
2163.622426116884,1249
2165.5217989840185,1322
2167.4207242616,1357
2169.319202224862,1382
2171.2172331491165,1299
2173.1148173097563,1383
2175.0119549822507,1345
2176.90864644215,1403
2178.8048919650823,1304
2180.7006918267534,1406
2182.596046302952,1357
2184.4909556695407,1383
2186.3854202024645,1340
2188.279440177746,1318
2190.173015871487,1303
2192.066147559868,1382
2193.958835519149,1283
2195.851080025667,1325
2197.7428813558417,1310
2199.6342397861667,1377
2201.5251555932186,1344
2203.415629053651,1370
2205.3056604441986,1337
2207.19525004167,1339
2209.084398122958,1364
2210.9731049650327,1367
2212.861370844941,1401
2214.749196039812,1351
2216.636580826851,1374
2218.523525483344,1407
2220.410030286655,1336
2222.296095514226,1360
2224.1817214435805,1357
2226.066908352319,1380
2227.951656518121,1390
2229.835966218746,1438
2231.71983773203,1372
2233.6032713358913,1381
2235.486267308324,1368
2237.3688259274036,1434
2239.2509474712824,1328
2241.132632218193,1359
2243.013880446447,1389
2244.8946924344323,1326
2246.7750684606203,1365
2248.6550088035574,1279
2250.534513741871,1351
2252.413583554265,1350
2254.292218519526,1353
2256.170418916517,1374
2258.0481850241786,1286
2259.925517121534,1302
2261.8024154876825,1378
2263.678880401803,1368
2265.5549121431536,1374
2267.430510991071,1365
2269.305677224971,1313
2271.180411124348,1384
2273.0547129687766,1319
2274.9285830379076,1316
2276.8020216114737,1285
2278.6750289692845,1358
2280.5476053912294,1369
2282.4197511572766,1369
2284.2914665474727,1406
2286.162751841943,1371
2288.0336073208937,1352
2289.904033264608,1404
2291.774029953448,1389
2293.6435976678554,1354
2295.5127366883517,1326
2297.381447295534,1374
2299.2497297700825,1372
2301.1175843927526,1331
2302.9850114443825,1272
2304.852011205885,1230
2306.7185839582553,1194
2308.5847299825664,1209
2310.4504495599676,1197
2312.3157429716925,1127
2314.1806104990483,1161
2316.0450524234247,1108
2317.9090690262888,1188
2319.772660589186,1195
2321.635827393742,1262
2323.498569721661,1173
2325.3608878547248,1206
2327.2227820747967,1158
2329.0842526638157,1124
2330.945299903803,1159
2332.805924076857,1116
2334.6661254651535,1206
2336.525904350951,1171
2338.3852610165827,1190
2340.244195744464,1161
2342.102708817088,1145
2343.9608005170253,1146
2345.8184711269287,1132
2347.675720929526,1118
2349.532550207628,1168
2351.38895924412,1187
2353.24494832197,1146
2355.100517724223,1156
2356.955667734004,1162
2358.810398634514,1164
2360.664710709037,1179
2362.5186042409337,1221
2364.3720795136437,1157
2366.225136810686,1161
2368.0777764156583,1157
2369.929998612237,1148
2371.7818036841777,1191
2373.633191915315,1143
2375.484163589562,1136
2377.3347189909114,1126
2379.184858403434,1180
2381.03458211128,1171
2382.8838903986775,1130
2384.732783549936,1158
2386.5812618494406,1125
2388.4293255816588,1161
2390.2769750311327,1172
2392.1242104824883,1157
2393.971032220427,1158
2395.8174405297295,1164
2397.6634356952563,1176
2399.509018001947,1165
2401.3541877348193,1166
2403.1989451789705,1168
2405.043290619576,1136
2406.8872243418905,1239
2408.730746631247,1159
2410.5738577730594,1118
2412.4165580528183,1179
2414.258847756095,1185
2416.100727168537,1157
2417.9421965758734,1143
2419.783256263912,1182
2421.623906518538,1174
2423.4641476257157,1198
2425.303979871491,1174
2427.143403541984,1183
2428.9824189233977,1231
2430.821026302012,1185
2432.6592259641866,1227
2434.497018196361,1196
2436.33440328505,1222
2438.171381516851,1195
2440.00795317844,1210
2441.844118556569,1224
2443.6798779380724,1166
2445.5152316098606,1103
2447.3501798589255,1164
2449.1847229723357,1167
2451.0188612372403,1226
2452.8525949408663,1232
2454.6859243705203,1177
2456.518849813587,1154
2458.3513715575314,1150
2460.183489889895,1093
2462.015205098301,1169
2463.8465174704493,1178
2465.67742729412,1216
2467.5079348571717,1169
2469.338040447542,1153
2471.1677443532476,1192
2472.9970468623833,1147
2474.825948263123,1151
2476.6544488437207,1130
2478.482548892508,1169
2480.310248697896,1181
2482.137548548374,1137
2483.9644487325118,1155
2485.790949538956,1135
2487.617051256433,1154
2489.44275417375,1190
2491.26805857979,1127
2493.0929647635157,1119
2494.917473013971,1157
2496.741583620276,1162
2498.5652968716304,1183
2500.3886130573137,1176
2502.2115324666834,1177
2504.0340553891765,1186
2505.856182114308,1152
2507.6779129316733,1195
2509.499248130945,1170
2511.3201880018764,1136
2513.140732834298,1144
2514.9608829181198,1160
2516.780638543331,1136
2518.6,1183
2520.418967578273,1158
2522.237541568376,1098
2524.0557222606144,1114
2525.8735099453706,1193
2527.6909049131086,1179
2529.507907454368,1165
2531.32451785977,1179
2533.140736420014,1153
2534.9565634258774,1154
2536.771999168218,1204
2538.5870439379714,1170
2540.4016980261526,1172
2542.2159617238544,1226
2544.02983532225,1162
2545.8433191125914,1148
2547.656413386209,1167
2549.4691184345115,1185
2551.2814345489874,1200
2553.093362021204,1185
2554.904901142808,1193
2556.716052205523,1167
2558.526815501153,1100
2560.3371913215824,1142
2562.147179958771,1204
2563.956781704761,1185
2565.7659968516705,1184
2567.5748256916986,1162
2569.3832685171224,1179
2571.1913256202984,1161
2572.9989972936614,1184
2574.806283829725,1173
2576.613185521084,1163
2578.4197026604074,1194
2580.2258355404483,1179
2582.031584454035,1173
2583.836949694077,1168
2585.6419315535613,1206
2587.4465303255533,1218
2589.2507463032002,1209
2591.0545797797245,1206
2592.8580310484303,1189
2594.6611004026995,1150
2596.463788135992,1238
2598.266094541849,1220
2600.0680199138874,1176
2601.869564545807,1164
2603.670728731383,1148
2605.4715127644704,1160
2607.2719169390048,1140
2609.071941548998,1147
2610.8715868885433,1202
2612.670853251811,1240
2614.469740933052,1147
2616.268250226594,1204
2618.0663814268455,1204
2619.864134828292,1184
2621.6615107255006,1166
2623.458509413115,1161
2625.2551311858597,1155
2627.0513763385347,1167
2628.8472451660223,1155
2630.6427379632833,1165
2632.4378550253564,1187
2634.232596647359,1156
2636.026963124488,1115
2637.8209547520187,1145
2639.6145718253065,1183
2641.407814639785,1152
2643.200683490966,1178
2644.9931786744414,1185
2646.7853004858807,1153
2648.577049221034,1136
2650.3684251757277,1127
2652.1594286458712,1175
2653.9500599274484,1154
2655.740319316525,1136
2657.5302071092437,1148
2659.3197236018286,1154
2661.10886909058,1131
2662.8976438718782,1143
2664.686048242183,1188
2666.4740824980327,1226
2668.2617469360443,1230
2670.0490418529134,1152
2671.8359675454153,1111
2673.622524310403,1227
2675.408712444811,1187
2677.1945322456495,1145
2678.979984010009,1162
2680.76506803506,1200
2682.5497846180497,1191
2684.334134056306,1198
2686.1181166472343,1125
2687.9017326883213,1121
2689.6849824771293,1138
2691.4678663113013,1164
2693.2503844885596,1180
2695.032537306705,1183
2696.8143250636167,1189
2698.5957480572542,1119
2700.3768065856534,1158
2702.1575009469316,1166
2703.937831439283,1111
2705.717798360982,1151
2707.4974020103837,1116
2709.276642685917,1143
2711.055520686095,1113
2712.834036309506,1115
2714.612189854819,1151
2716.389981620782,1128
2718.1674119062204,1133
2719.944481010041,1164
2721.721189231226,1148
2723.4975368688415,1169
2725.273524222027,1161
2727.0491515900053,1123
2728.824419272075,1139
2730.5993275676146,1171
2732.3738767760838,1118
2734.148067197016,1109
2735.921899130031,1106
2737.6953728748194,1131
2739.468488731156,1103
2741.2412469988926,1155
2743.0136479779617,1130
2744.785691968372,1103
2746.5573792702116,1163
2748.3287101836504,1134
2750.099685008934,1153
2751.870304046388,1139
2753.640567596418,1173
2755.4104759595057,1164
2757.1800294362156,1160
2758.949228327187,1140
2760.7180729331412,1141
2762.486563554877,1105
2764.254700493272,1121
2766.022484049284,1190
2767.789914523947,1100
2769.5569922183786,1099
2771.3237174337705,1175
2773.090090471394,1191
2774.8561116326036,1116
2776.6217812188274,1141
2778.3870995315756,1164
2780.1520668724356,1156
2781.9166835430747,1163
2783.6809498452394,1158
2785.444866080754,1141
2787.2084325515225,1160
2788.971649559527,1172
2790.73451740683,1152
2792.4970363955713,1159
2794.2592068279705,1148
2796.0210290063264,1155
2797.7825032330147,1184
2799.543629810493,1174
2801.304409041296,1191
2803.0648412280366,1192
2804.8249266734088,1207
2806.5846656801846,1172
2808.344058551212,1155
2810.1031055894246,1156
2811.8618070978273,1177
2813.6201633795085,1226
2815.378174737636,1169
2817.1358414754536,1098
2818.893163896285,1171
2820.6501423035334,1141
2822.4067770006814,1174
2824.1630682912883,1156
2825.9190164789957,1134
2827.6746218675207,1170
2829.429884760661,1151
2831.184805462294,1156
2832.9393842763743,1207
2834.693621506936,1157
2836.4475174580916,1151
2838.201072434034,1174
2839.954286739034,1209
2841.707160677441,1215
2843.459694553685,1174
2845.2118886722724,1183
2846.96374333779,1194
2848.7152588549034,1225
2850.4664355283567,1121
2852.217273662973,1154
2853.9677735636546,1195
2855.7179355353833,1168
2857.4677598832186,1110
2859.217246912299,1214
2860.9663969278427,1197
2862.715210235146,1166
2864.4636871395846,1157
2866.211827946614,1166
2867.9596329617652,1176
2869.7071024906536,1143
2871.4542368389684,1143
2873.20103631248,1178
2874.947501217038,1191
2876.6936318585695,1143
2878.4394285430812,1110
2880.1848915766604,1187
2881.9300212654707,1184
2883.6748179157553,1169
2885.4192818338374,1177
2887.1634133261173,1185
2888.907212699077,1149
2890.6506802592744,1185
2892.393816313348,1196
2894.1366211680142,1165
2895.8790951300693,1188
2897.621238506388,1148
2899.363051603925,1169
2901.1045347297118,1155
2902.8456881908596,1140
2904.58651229456,1161
2906.327007348081,1174
2908.067173658772,1168
2909.8070115340597,1137
2911.5465212814497,1161
2913.285703208527,1184
2915.0245576229563,1201
2916.7630848324807,1177
2918.5012851449196,1133
2920.2391588681758,1143
2921.976706310227,1169
2923.7139277791334,1164
2925.4508235830313,1148
2927.187394030137,1128
2928.923639428745,1212
2930.6595600872306,1190
2932.395156314046,1178
2934.1304284177218,1223
2935.8653767068713,1166
2937.6000014901815,1165
2939.3343030764227,1154
2941.068281774442,1149
2942.8019378931644,1165
2944.5352717415976,1189
2946.2682836288236,1147
2948.0009738640065,1167
2949.7333427563885,1209
2951.465390615289,1192
2953.1971177501086,1139
2954.9285244703265,1190
2956.6596110855,1192
2958.3903779052657,1137
2960.1208252393385,1180
2961.8509533975125,1125
2963.5807626896617,1199
2965.3102534257378,1160
2967.0394259157715,1190
2968.768280469873,1164
2970.496817398232,1135
2972.2250370111146,1177
2973.952939618869,1189
2975.6805255319196,1174
2977.4077950607707,1187
2979.134748516006,1230
2980.861386208289,1159
2982.587708448359,1204
2984.313715547037,1208
2986.039407815222,1138
2987.764785563891,1186
2989.489849104102,1132
2991.2145987469908,1166
2992.9390348037705,1124
2994.6631575857346,1189
2996.3869674042576,1118
2998.1104645707887,1157
2999.83364939686,1201
3001.5565221940783,1133
3003.2790832741334,1141
3005.0013329487924,1115
3006.7232715298996,1129
3008.4448993293804,1138
3010.166216659239,1153
3011.887223831558,1137
3013.607921158498,1139
3015.3283089522993,1215
3017.0483875252826,1193
3018.7681571898443,1167
3020.4876182584626,1154
3022.2067710436927,1174
3023.9256158581707,1166
3025.644153014609,1184
3027.362382825801,1156
3029.0803056046193,1159
3030.797921664012,1105
3032.5152313170106,1092
3034.2322348767225,1156
3035.9489326563353,1117
3037.665324969115,1147
3039.3814121284063,1152
3041.097194447633,1152
3042.812672240299,1156
3044.5278458199855,1165
3046.2427155003525,1184
3047.9572815951406,1142
3049.671544418167,1165
3051.38550428333,1153
3053.0991615046073,1147
3054.812516396051,1153
3056.5255692717974,1119
3058.2383204460575,1146
3059.9507702331257,1113
3061.662918947372,1129
3063.3747669032446,1151
3065.0863144152736,1193
3066.7975617980674,1172
3068.508509366309,1135
3070.219157434767,1140
3071.9295063182844,1113
3073.639556331785,1150
3075.3493077902704,1129
3077.058761008821,1197
3078.7679163025964,1167
3080.476773986837,1140
3082.1853343768594,1103
3083.89359778806,1131
3085.6015645359153,1148
3087.3092349359786,1156
3089.016609303884,1186
3090.7236879553434,1150
3092.4304712061476,1168
3094.136959372166,1150
3095.843152769349,1164
3097.5490517137237,1141
3099.2546565213966,1201
3100.959967508554,1097
3102.66498499146,1111
3104.3697092864577,1085
3106.0741407099695,1149
3107.778279578498,1118
3109.482126208622,1113
3111.1856809170004,1155
3112.8889440203716,1140
3114.5919158355528,1204
3116.294596679439,1219
3117.996986869006,1200
3119.6990867213062,1157
3121.4008965534726,1118
3123.102416682717,1135
3124.803647426329,1125
3126.5045891016784,1222
3128.205242026213,1182
3129.90560651746,1176
3131.605682893025,1127
3133.3054714705922,1129
3135.0049725679282,1107
3136.7041865028714,1181
3138.4031135933465,1153
3140.101754157353,1197
3141.800108512971,1165
3143.498176978357,1130
3145.1959598717494,1171
3146.8934575114636,1157
3148.5906702158954,1108
3150.2875983035183,1173
3151.9842420928853,1181
3153.680601902627,1155
3155.376678051456,1127
3157.07247085816,1109
3158.767980641609,1126
3160.463207720748,1129
3162.158152414606,1143
3163.8528150422862,1095
3165.5471959229726,1156
3167.2412953759303,1158
3168.9351137204976,1213
3170.628651276098,1159
3172.3219083622307,1185
3174.014885298474,1104
3175.707582404485,1163
3177.4000000000005,1149
3179.092138404835,1135
3180.7839979388846,1142
3182.47557892212,1128
3184.166881674594,1139
3185.8579065164386,1150
3187.5486537678626,1172
3189.2391237491547,1113
3190.9293167806827,1125
3192.6192331828934,1172
3194.3088732763117,1138
3195.998237381542,1185
3197.687325819268,1144
3199.376138910251,1160
3201.064676975334,1104
3202.7529403354347,1100
3204.4409293115523,1124
3206.1286442247647,1170
3207.816085396229,1125
3209.5032531471825,1126
3211.190147798936,1130
3212.8767696728846,1167
3214.5631190905015,1094
3216.2491963733373,1165
3217.9350018430214,1128
3219.6205358212637,1104
3221.305798629851,1077
3222.990790590651,1098
3224.6755120256103,1099
3226.359963256751,1123
3228.0441446061795,1088
3229.7280563960758,1124
3231.411698948703,1135
3233.0950725863995,1088
3234.778177631587,1167
3236.461014406761,1141
3238.1435832345005,1137
3239.8258844374595,1115
3241.507918338374,1160
3243.1896852600576,1184
3244.8711855254023,1157
3246.552419457381,1110
3248.233387379042,1134
3249.914089613516,1146
3251.59452648401,1157
3253.274698313813,1148
3254.95460542629,1141
3256.6342481448855,1193
3258.313626793125,1124
3259.9927416946084,1091
3261.6715931730196,1085
3263.3501815521176,1129
3265.0285071557437,1119
3266.706570307815,1085
3268.3843713323286,1135
3270.0619105533615,1131
3271.739188295068,1107
3273.4162048816834,1160
3275.0929606375184,1154
3276.769455886966,1139
3278.445690954498,1123
3280.1216661646613,1146
3281.797381842087,1150
3283.4728383114807,1120
3285.1480358976296,1185
3286.8229749253996,1127
3288.4976557197333,1082
3290.172078605655,1098
3291.846243908266,1170
3293.5201519527463,1162
3295.193803064357,1118
3296.8671975684374,1108
3298.5403357904024,1141
3300.21321805575,1107
3301.8858446900567,1109
3303.558216018975,1155
3305.23033236824,1113
3306.9021940636603,1097
3308.57380143113,1131
3310.2451547966184,1197
3311.916254486174,1190
3313.5871008259246,1173
3315.2576941420766,1188
3316.9280347609147,1137
3318.5981230088046,1181
3320.2679592121895,1103
3321.9375436975924,1101
3323.606876791612,1113
3325.27595882093,1132
3326.944790112305,1102
3328.6133709925753,1063
3330.2817017886573,1090
3331.949782827547,1170
3333.617614436319,1175
3335.2851969421245,1172
3336.952530672199,1163
3338.619615953853,1202
3340.286453114475,1151
3341.9530424815357,1108
3343.619384382583,1174
3345.2854791452437,1181
3346.951327097224,1119
3348.6169285663073,1121
3350.2822838803577,1161
3351.947393367319,1159
3353.61225735521,1141
3355.2768761721345,1126
3356.9412501462693,1129
3358.605379605873,1142
3360.2692648792827,1133
3361.9329062949146,1103
3363.596304181263,1061
