CollectionTime,7/9/2024 12:31:19 PM
ExposureUsed,3
CalibratedSpectrum
-962.7078968117929,511
-959.9714848408522,537
-957.2358232597828,547
-954.5009119013725,555
-951.7667505983302,558
-949.0333391832855,568
-946.3006774887896,566
-943.5687653473143,559
-940.837602591253,568
-938.1071890529199,546
-935.3775245645503,574
-932.6486089583007,540
-929.9204420662485,558
-927.1930237203925,568
-924.4663537526524,558
-921.7404319948689,581
-919.0152582788041,554
-916.2908324361409,598
-913.5671542984834,568
-910.8442236973568,567
-908.1220404642074,545
-905.4006044304027,568
-902.679915427231,552
-899.959973285902,556
-897.2407778375464,526
-894.5223289132158,534
-891.8046263438832,559
-889.0876699604426,543
-886.3714595937089,531
-883.6559950744183,543
-880.9412762332282,544
-878.2273029007168,552
-875.5140749073835,518
-872.8015920836489,537
-870.0898542598545,531
-867.3788612662631,554
-864.6686129330585,540
-861.9591090903457,564
-859.2503495681506,571
-856.5423341964203,577
-853.8350628050229,524
-851.1285352237478,521
-848.4227512823054,569
-845.7177108103272,551
-843.0134136373656,570
-840.3098595928943,559
-837.6070485063082,574
-834.9049802069229,594
-832.2036545239757,541
-829.5030712866244,543
-826.8032303239481,544
-824.1041314649472,566
-821.4057745385428,561
-818.7081593735775,552
-816.0112857988148,556
-813.3151536429393,539
-810.6197627345566,533
-807.9251129021936,546
-805.2312039742981,582
-802.5380357792392,568
-799.8456081453069,561
-797.1539209007124,548
-794.462973873588,568
-791.772766891987,612
-789.083299783884,592
-786.3945723771743,554
-783.7065844996748,546
-781.0193359791231,574
-778.3328266431781,569
-775.6470563194197,561
-772.9620248353489,584
-770.2777320183878,566
-767.5941776958798,557
-764.9113616950891,591
-762.2292838432011,590
-759.5479439673222,575
-756.8673418944801,557
-754.1874774516235,569
-751.5083504656222,605
-748.8299607632671,572
-746.15230817127,583
-743.475392516264,556
-740.7992136248035,604
-738.1237713233636,619
-735.4490654383407,581
-732.7750957960521,608
-730.1018622227365,601
-727.4293645445534,602
-724.7576025875837,585
-722.0865761778291,592
-719.4162851412126,609
-716.7467293035781,632
-714.0779084906909,575
-711.409822528237,620
-708.7424712418238,606
-706.0758544569796,635
-703.4099719991541,641
-700.7448236937178,629
-698.0804093659622,601
-695.4167288411002,640
-692.7537819442656,623
-690.0915685005134,651
-687.4300883348199,654
-684.7693412720819,689
-682.1093271371178,633
-679.4500457546669,663
-676.7914969493897,648
-674.1336805458676,635
-671.4765963686034,613
-668.8202442420206,661
-666.1646239904642,644
-663.5097354382001,663
-660.8555784094151,650
-658.2021527282176,668
-655.5494582186366,690
-652.8974947046223,677
-650.2462620100463,655
-647.5957599587009,660
-644.9459883742998,649
-642.2969470804776,657
-639.6486359007902,694
-637.0010546587141,676
-634.3542031776476,688
-631.7080812809096,673
-629.0626887917401,656
-626.4180255333008,652
-623.7740913286734,662
-621.1308860008619,642
-618.4884093727904,666
-615.8466612673046,714
-613.2056415071715,651
-610.5653499150785,658
-607.9257863136347,663
-605.28695052537,684
-602.6488423727357,661
-600.0114616781036,683
-597.3748082637674,682
-594.7388819519412,658
-592.1036825647604,653
-589.4692099242818,703
-586.8354638524829,657
-584.2024441712624,712
-581.5701507024403,711
-578.9385832677575,682
-576.3077416888759,690
-573.6776257873787,700
-571.0482353847704,692
-568.4195703024757,649
-565.7916303618415,645
-563.164415384135,693
-560.5379251905453,700
-557.9121596021815,698
-555.2871184400748,686
-552.6628015251767,663
-550.0392086783606,707
-547.4163397204204,696
-544.794194472071,728
-542.1727727539491,695
-539.5520743866118,708
-536.9320991905377,740
-534.3128469861261,749
-531.6943175936979,796
-529.0765108334947,746
-526.4594265256793,804
-523.8430644903358,932
-521.2274245474689,947
-518.612506517005,1042
-515.9983102187913,973
-513.3848354725959,1049
-510.77208209810846,1076
-508.16004991493924,1181
-505.5487387426199,1307
-502.9381484006032,1421
-500.3282787082628,1460
-497.71912948489364,1339
-495.1107005497117,1207
-492.5029917218539,1103
-489.8960028203786,994
-487.28973366426493,953
-484.68418407241325,892
-482.07935386364494,880
-479.47524285670266,886
-476.87185087025,828
-474.2691777228715,838
-471.66722323307334,855
-469.0659872192821,861
-466.4654694998459,825
-463.86566989303384,879
-461.26658821703614,869
-458.66822428996414,844
-456.07057792985,890
-453.4736489546475,882
-450.877437182231,848
-448.28194243039627,847
-445.68716451686,839
-443.09310325926003,864
-440.49975847515555,873
-437.9071299820263,836
-435.31521759727354,896
-432.72402113821954,888
-430.13354042210767,852
-427.5437752661022,911
-424.95472548728867,885
-422.36639090267386,855
-419.7787713291855,888
-417.1918665836721,906
-414.60567648290385,917
-412.0202008435715,855
-409.4354394822874,884
-406.8513922155845,935
-404.26805885991723,931
-401.685439231661,914
-399.103533147112,942
-396.522340422488,929
-393.9418608739278,896
-391.3620943174908,853
-388.7830405691583,870
-386.2046994448317,820
-383.6270707603344,823
-381.05015433141045,782
-378.473949973725,755
-375.8984575028645,705
-373.32367673433623,650
-370.74960748356875,615
-368.1762495659117,568
-365.60360279663576,553
-363.03166699093265,546
-360.4604419639154,486
-357.8899275306178,468
-355.32012350599507,480
-352.7510297049233,435
-350.1826459421999,439
-347.61497203254316,436
-345.04800779059235,434
-342.4817530309082,433
-339.91620756797226,430
-337.35137121618743,439
-334.7872437898774,413
-332.22382510328725,437
-329.66111497058273,452
-327.09911320585127,448
-324.53781962310075,477
-321.9772340362607,490
-319.4173562591816,463
-316.8581861056348,454
-314.2997233893127,439
-311.7419679238294,465
-309.1849195227194,455
-306.62857799943856,479
-304.0729431673641,488
-301.51801483979375,516
-298.963792829947,495
-296.41027695096386,482
-293.85746701590574,492
-291.3053628377552,516
-288.7539642294155,515
-286.2032710037115,498
-283.65328297338897,509
-281.1039999511146,508
-278.5554217494762,508
-276.007548180983,520
-273.4603790580651,521
-270.9139141930734,507
-268.3681533982807,523
-265.8230964858798,566
-263.27874326798565,578
-260.7350935566336,556
-258.1921471637804,556
-255.6499039013039,549
-253.10836358100266,581
-250.56752601459698,559
-248.02739101372765,572
-245.48795838995704,576
-242.94922795476816,569
-240.41119951956557,565
-237.8738728956746,634
-235.33724789434166,624
-232.80132432673452,580
-230.2661020039418,570
-227.73158073697357,582
-225.19776033676033,609
-222.66464061415422,627
-220.1322213799284,565
-217.60050244477725,571
-215.06948361931552,545
-212.53916471408013,585
-210.00954553952818,603
-207.48062590603843,581
-204.9524056239104,626
-202.4248845033651,705
-199.8980623545441,688
-197.37193898751036,668
-194.84651421224817,641
-192.32178783866232,684
-189.79775967657952,716
-187.27442953574644,659
-184.7517972258321,647
-182.2298625564256,632
-179.7086253370378,609
-177.18808537710026,618
-174.66824248596583,632
-172.14909647290835,708
-169.6306471471229,725
-167.11289431772548,757
-164.59583779375328,718
-162.07947738416453,714
-159.5638128978386,775
-157.04884414357605,771
-154.53457093009854,839
-152.02099306604828,789
-149.50811035998936,768
-146.99592262040665,732
-144.48442965570587,778
-141.97363127421409,785
-139.46352728417958,845
-136.95411749377126,1016
-134.44540171107985,974
-131.93737974411636,930
-129.43005140081357,817
-126.92341648902493,872
-124.41747481652521,1010
-121.91222619101006,1237
-119.40767042009657,1502
-116.90380731132257,1582
-114.40063667214702,1563
-111.8981583099503,1467
-109.3963720320337,1343
-106.89527764561933,1382
-104.39487495785067,1421
-101.89516377579241,1603
-99.39614390642998,2301
-96.89781515667039,2833
-94.40017733334128,2959
-91.90323024319173,2910
-89.40697369289148,2616
-86.91140748903172,2265
-84.41653143812482,2608
-81.92234534660395,2681
-79.42884902082358,2654
-76.93604226705907,2693
-74.4439248915071,2971
-71.95249670028534,4070
-69.46175749943245,5009
-66.97170709490854,6063
-64.48234529259423,6803
-61.99367189829195,7644
-59.50568671772464,7440
-57.01838955653636,7132
-54.53178022029283,7979
-52.045858514480074,8913
-49.560624244506016,10254
-47.07607721569923,10291
-44.59221723330904,9580
-42.10904410250669,9205
-39.62655762838392,8012
-37.14475761595372,6645
-34.66364387015028,7289
-32.18321619582866,7291
-29.70347439776515,7570
-27.224418280657005,8594
-24.74604764912317,8470
-22.26836230770266,10204
-19.7913620608565,16727
-17.315046712966478,27111
-14.83941606833514,37341
-12.36446993118659,49044
-9.89020810566592,65040
-7.416630395839093,65040
-4.94373660569363,65040
-2.471526539137585,65040
-6.821210263296962E-13,65040
2.47084320796705,65040
4.941003281093458,65040
7.410480415786196,65040
9.879274808531363,65040
12.347386655893956,65040
14.814816154518212,65040
17.28156350112681,65040
19.74762889252179,65040
22.21301252558385,65040
24.67771459727237,18029
27.141735304626195,3219
29.605074844762612,2310
32.06773341487792,1780
34.52971121224755,1433
36.99100843422559,1530
39.45162527824516,1478
41.91156194181792,1639
44.370818622535126,1586
46.82939551806646,1200
49.287292826160524,1195
51.74451074464503,1131
54.201049471426245,1023
56.65690920448981,1039
59.112090141899785,980
61.56659248179983,992
64.02041642241159,988
66.4735621620365,915
68.92602989905402,940
71.37781983192338,893
73.82893215918205,925
76.27936707944684,1008
78.72912479141326,1060
81.17820549385567,1025
83.62660938562783,991
86.07433666566146,910
88.5213875329681,814
90.96776218663751,838
93.41346082583925,901
95.85848364982041,932
98.30283085790859,879
100.7465026495089,893
103.18949922410604,957
105.63182078126385,915
108.07346752062438,966
110.51443964190923,997
112.95473734491827,961
115.39436082953114,870
117.83331029570547,817
120.27158594347827,856
122.7091879729652,939
125.1461165843615,1026
127.58237197794062,997
130.01795435405518,844
132.4528639131364,853
134.88710085569494,796
137.32066538231982,816
139.75355769367923,783
142.1857779905207,792
144.61732647366978,776
147.04820334403132,772
149.47840880258934,777
151.90794305040674,858
154.33680628862487,906
156.76499871846443,1064
159.19252054122433,1145
161.61937195828352,1330
164.04555317109896,1489
166.47106438120693,1647
168.89590579022217,1767
171.320077599839,1872
173.7435800118302,1948
176.16641322804742,2065
178.58857745042144,2017
181.01007288096173,2133
183.43089972175687,2217
185.85105817497413,2240
188.27054844285988,2210
190.6893707277394,2299
193.10752523201643,2320
195.5250121581745,2386
197.9418317087751,2480
200.3579840864594,2466
202.7734694939469,2468
205.18828813403627,2435
207.6024402096051,2465
210.01592592360964,2489
212.42874547908548,2513
214.84089907914665,2505
217.2523869269868,2550
219.66320922587727,2602
222.0733661791695,2544
224.48285799029293,2487
226.8916848627572,2539
229.29984700014882,2651
231.7073446061355,2635
234.11417788446204,2595
236.520347038953,2627
238.92585227351185,2803
241.33069379212054,2932
243.73487179884035,2881
246.1383864978112,2937
248.541238093252,2992
250.9434267894609,2912
253.34495279081432,3052
255.74581630176783,2996
258.1460175268563,3042
260.54555667069314,3200
262.9444339379703,3094
265.3426495334594,2945
267.7402036620107,2948
270.1370965285529,2730
272.53332833809407,2641
274.9288992957214,2597
277.32380960660055,2456
279.718059475976,2488
282.1116491091717,2480
284.5045787115897,2430
286.89684848871195,2448
289.2884586460981,2511
291.67940938938807,2449
294.0697009242996,2437
296.4593334566299,2491
298.84830719225477,2411
301.23662233712923,2416
303.6242790972866,2379
306.01127767884,2410
308.39761828798066,2310
310.78330113097934,2328
313.16832641418534,2282
315.5526943440269,2219
317.9364051270112,2220
320.3194589697242,2224
322.70185607883093,2129
325.0835966610754,2195
327.4646809232805,2183
329.8451090723478,2132
332.2248813152577,2067
334.6039978590701,2088
336.9824589109231,2099
339.36026467803447,2059
341.7374153677,2041
344.113911187295,2089
346.48975234427337,2068
348.8649390461686,2066
351.2394715005918,2091
353.61334991523415,2088
355.9865744978655,2049
358.35914545633375,2044
360.73106299856715,1979
363.10232733257146,1949
365.47293866643247,2015
367.84289720831396,1974
370.2122031664593,1925
372.5808567491905,2008
374.9488581649083,1930
377.31620762209275,1977
379.6829053293021,1863
382.0489514951745,1954
384.4143463284262,1878
386.7790900378528,1892
389.14318283232853,1944
391.50662492080653,1961
393.86941651231916,1949
396.23155781597745,1942
398.5930490409713,1958
400.9538903965696,1968
403.3140820921202,1841
405.6736243370498,1888
408.03251734086336,1909
410.3907613131465,1870
412.74835646356166,1825
415.10530300185144,1917
417.4616011378372,1908
419.81725108141893,1889
422.1722530425758,1937
424.5266072313656,1862
426.880313857925,1901
429.2333731324701,1846
431.58578526529516,1894
433.9375504667738,1837
436.2886689473588,1855
438.63914091758113,1855
440.9889665880513,1863
443.33814616945835,1813
445.68667987257015,1857
448.03456790823395,1912
450.3818104873759,1910
452.72840782100013,1840
455.07436012019105,1809
457.41966759611057,1817
459.7643304600007,1880
462.10834892318155,1858
464.4517231970525,1821
466.79445349309174,1834
469.1365400228566,1857
471.4779829979826,1817
473.81878263018564,1801
476.15893913125876,1841
478.4984527130747,1912
480.8373235875855,1892
483.17555196682144,1974
485.5131380628919,1977
487.8500820879857,2049
490.1863842543697,2144
492.52204477439034,2263
494.8570638604725,2374
497.1914417251204,2525
499.52517858091653,2763
501.85827464052306,3005
504.19073011668036,3081
506.5225452222086,3177
508.85372017000566,3084
511.18425517304956,2996
513.514150444396,3107
515.8434061971808,3688
518.1720226446176,4561
520.4999999999999,4777
522.8273384766991,4487
525.1540382881666,4130
527.480099647932,3587
529.8055227696037,2973
532.1303078668694,2452
534.454455153496,2173
536.777964843328,2032
539.1008371502907,1922
541.4230722883866,1952
543.744670471698,1921
546.0656319143858,1888
548.3859568306899,1835
550.7056454349294,1890
553.0246979415016,1880
555.3431145648834,1859
557.6608955196306,1807
559.978041020377,1878
562.2945512818363,1810
564.6104265188006,1862
566.9256669461412,1887
569.2402727788082,1883
571.5542442318302,1887
573.8675815203156,1914
576.1802848594508,1919
578.4923544645015,1866
580.8037905508126,1955
583.114593333807,1873
585.4247630289875,1871
587.7342998519354,1844
590.0432040183106,1854
592.3514757438526,1960
594.6591152443794,1948
596.9661227357875,1900
599.2724984340531,1946
601.578242555231,1948
603.8833553154542,1912
606.1878369309362,1864
608.4916876179676,1966
610.7949075929192,1931
613.0974970722403,1872
615.3994562724587,1945
617.7007854101818,1890
620.0014847020951,1899
622.3015543649641,1848
624.6009946156324,1879
626.8998056710224,1919
629.1979877481361,1926
631.4955410640538,1969
633.7924658359349,2015
636.0887622810175,1966
638.3844306166192,1910
640.6794710601358,1954
642.9738838290426,1900
645.2676691408932,2026
647.5608272133207,1916
649.853358264037,1944
652.1452625108324,1969
654.4365401715764,1931
656.7271914642178,1999
659.0172166067838,1966
661.3066158173809,1989
663.5953893141935,1980
665.8835373154867,1948
668.1710600396028,1959
670.4579577049639,1953
672.7442305300709,1970
675.0298787335033,1992
677.3149025339197,1938
679.599302150058,1926
681.8830778007342,1960
684.1662297048437,1975
686.4487580813608,2040
688.7306631493387,1983
691.0119451279091,1962
693.2926042362834,1953
695.5726406937516,1934
697.8520547196814,2023
700.1308465335215,1970
702.4090163547982,1975
704.6865644031171,1976
706.9634908981619,1999
709.2397960596965,1964
711.5154801075631,1959
713.7905432616823,1864
716.0649857420548,1965
718.3388077687592,1923
720.612009561953,1952
722.8845913418733,1897
725.1565533288352,1881
727.427895743234,1948
729.6986188055427,1895
731.9687227363137,1927
734.238207756178,1913
736.5070740858458,1940
738.7753219461066,1892
741.0429515578281,1960
743.3099631419569,1894
745.5763569195191,1971
747.8421331116193,1923
750.1072919394409,1842
752.3718336242467,1877
754.6357583873777,1812
756.8990664502545,1880
759.1617580343765,1854
761.423833361321,1910
763.6852926527457,1948
765.9461361303862,1899
768.206364016058,1941
770.4659765316536,1968
772.7249738991469,1950
774.9833563405886,1991
777.2411240781092,1972
779.4982773339183,1938
781.7548163303044,1973
784.010741289634,1945
786.2660524343538,1992
788.5207499869881,1990
790.7748341701416,1919
793.0283052064964,1863
795.2811633188143,1943
797.5334087299362,1890
799.7850416627813,1996
802.0360623403484,1904
804.2864709857143,1958
806.5362678220353,1990
808.7854530725468,1960
811.0340269605625,1971
813.2819897094754,1974
815.5293415427581,1966
817.77608268396,1944
820.0222133567116,1958
822.2677337847211,2007
824.5126441917765,1895
826.7569448017433,1998
829.0006358385675,1902
831.2437175262731,1934
833.4861900889629,1936
835.7280537508192,1953
837.9693087361026,1956
840.2099552691533,1945
842.4499935743896,1948
844.689423876309,1933
846.9282463994886,2005
849.1664613685833,1977
851.4040690083276,1989
853.6410695435349,1992
855.877463199097,1937
858.1132501999847,1905
860.3484307712487,2039
862.5830051380175,1935
864.8169735254988,1996
867.0503361589791,1973
869.2830932638243,1932
871.5152450654786,2017
873.7467917894654,1955
875.9777336613873,1958
878.2080709069252,2036
880.4378037518389,2020
882.666932421968,2003
884.8954571432301,2035
887.1233781416219,2053
889.3506956432192,2060
891.5774098741766,1968
893.803521060728,2028
896.0290294291852,2006
898.2539352059397,1950
900.4782386174619,1992
902.7019398903011,2012
904.925039251085,2001
907.147536926521,1980
909.3694331433943,1973
911.59072812857,2022
913.8114221089921,1929
916.0315153116827,1961
918.2510079637437,1903
920.4699002923547,1959
922.6881925247761,1949
924.905884888345,2018
927.1229776104793,2047
929.3394709186747,2022
931.555365040506,1940
933.7706602036275,1971
935.9853566357709,1968
938.1994545647489,1957
940.4129542184515,1985
942.6258558248488,2023
944.8381596119883,1999
947.0498658079974,1928
949.2609746410825,1973
951.4714863395287,1985
953.6814011316998,1977
955.8907192460387,1893
958.0994409110671,1945
960.3075663553858,1966
962.5150958076741,1886
964.7220294966913,1984
966.928367651274,1916
969.1341105003388,1991
971.3392582728806,1877
973.5438111979742,1898
975.747769504772,1926
977.9511334225061,1878
980.153903180487,1893
982.3560790081052,1850
984.5576611348289,1867
986.7586497902058,1855
988.9590452038618,1841
991.158847605503,1812
993.3580572249133,1837
995.5566742919558,1794
997.7546990365728,1790
999.952131688785,1709
1002.1489724786926,1667
1004.3452216364743,1689
1006.5408793923874,1675
1008.7359459767691,1704
1010.9304216200343,1690
1013.1243065526781,1698
1015.3176010052733,1688
1017.510305208472,1674
1019.7024193930064,1629
1021.8939437896848,1673
1024.0848786293977,1628
1026.2752241431122,1621
1028.4649805618747,1670
1030.6541481168115,1655
1032.842727039127,1592
1035.0307175601051,1584
1037.2181199111074,1516
1039.4049343235752,1624
1041.591161029029,1632
1043.7768002590683,1659
1045.9618522453698,1639
1048.1463172196918,1609
1050.3301954138697,1579
1052.513487059818,1556
1054.69619238953,1596
1056.8783116350783,1551
1059.0598450286152,1609
1061.2407928023704,1599
1063.4211551886528,1639
1065.6009324198508,1508
1067.780124728432,1588
1069.9587323469414,1595
1072.1367555080046,1615
1074.314194444325,1600
1076.4910493886855,1551
1078.667320573947,1606
1080.843008233051,1529
1083.0181125990161,1551
1085.1926339049414,1539
1087.3665723840027,1615
1089.5399282694575,1562
1091.7127017946405,1521
1093.8848931929647,1507
1096.0565026979243,1505
1098.2275305430899,1523
1100.3979769621128,1520
1102.567842188722,1529
1104.737126456726,1513
1106.9058300000124,1487
1109.0739530525475,1526
1111.2414958483764,1496
1113.4084586216231,1493
1115.5748416064907,1456
1117.7406450372605,1541
1119.9058691482942,1535
1122.0705141740304,1521
1124.2345803489884,1497
1126.3980679077658,1584
1128.5609770850388,1457
1130.7233081155623,1500
1132.8850612341707,1494
1135.0462366757774,1520
1137.2068346753745,1502
1139.3668554680326,1454
1141.526299288901,1462
1143.68516637321,1516
1145.8434569562655,1512
1148.001171273455,1477
1150.158309560244,1505
1152.3148720521767,1498
1154.470858984876,1500
1156.626270594044,1472
1158.7811071154629,1486
1160.9353687849912,1447
1163.089055838569,1414
1165.242168512213,1473
1167.3947070420209,1424
1169.5466716641677,1455
1171.6980626149075,1503
1173.8488801305748,1460
1175.9991244475814,1483
1178.1487958024186,1418
1180.2978944316555,1509
1182.4464205719428,1462
1184.5943744600072,1478
1186.7417563326567,1496
1188.8885664267755,1481
1191.0348049793297,1462
1193.1804722273619,1452
1195.325568407995,1456
1197.4700937584303,1478
1199.614048515948,1465
1201.7574329179074,1469
1203.900247201746,1505
1206.042491604982,1435
1208.1841663652099,1459
1210.3252717201053,1460
1212.465807907422,1510
1214.6057751649923,1455
1216.7451737307279,1421
1218.8840038426192,1471
1221.0222657387353,1469
1223.1599596572241,1444
1225.2970858363137,1497
1227.4336445143094,1483
1229.5696359295966,1530
1231.705060320639,1498
1233.8399179259786,1528
1235.9742089842384,1469
1238.107933734118,1508
1240.2410924143974,1516
1242.373685263935,1523
1244.5057125216676,1516
1246.6371744266116,1544
1248.7680712178621,1526
1250.898403134593,1553
1253.028170416058,1510
1255.1573733015875,1537
1257.2860120305932,1524
1259.4140868425648,1555
1261.54159797707,1540
1263.6685456737569,1496
1265.7949301723515,1508
1267.9207517126597,1538
1270.046010534565,1508
1272.1707068780306,1587
1274.2948409830983,1573
1276.4184130898889,1580
1278.541423438603,1594
1280.6638722695184,1561
1282.785759822993,1572
1284.9070863394636,1638
1287.0278520594447,1547
1289.1480572235314,1637
1291.2677020723963,1651
1293.3867868467923,1633
1295.5053117875495,1645
1297.623277135579,1645
1299.740683131868,1678
1301.8575300174857,1670
1303.973818033578,1706
1306.0895474213703,1697
1308.2047184221678,1622
1310.3193312773528,1680
1312.4333862283888,1668
1314.5468835168163,1698
1316.659823384255,1701
1318.7722060724045,1719
1320.8840318230418,1755
1322.9953008780249,1719
1325.1060134792888,1686
1327.2161698688478,1733
1329.3257702887959,1659
1331.4348149813054,1720
1333.5433041886276,1687
1335.6512381530933,1703
1337.7586171171101,1693
1339.8654413231675,1662
1341.9717110138317,1707
1344.0774264317488,1659
1346.1825878196432,1701
1348.2871954203192,1676
1350.3912494766587,1688
1352.4947502316231,1700
1354.5976979282532,1701
1356.7000928096686,1659
1358.8019351190665,1652
1360.9032250997243,1706
1363.0039629949988,1656
1365.1041490483235,1671
1367.2037835032133,1601
1369.3028666032606,1686
1371.401398592137,1666
1373.4993797135926,1650
1375.5968102114575,1625
1377.6936903296396,1681
1379.7900203121262,1674
1381.8858004029835,1706
1383.9810308463561,1708
1386.075711886469,1658
1388.1698437676241,1654
1390.2634267342032,1684
1392.356461030667,1616
1394.4489469015557,1769
1396.5408845914872,1701
1398.6322743451592,1703
1400.7231164073469,1779
1402.813411022907,1785
1404.903158436773,1720
1406.9923588939578,1756
1409.0810126395531,1762
1411.1691199187303,1727
1413.2566809767386,1778
1415.343696058907,1731
1417.4301654106425,1820
1419.5160892774315,1752
1421.6014679048399,1836
1423.6863015385125,1848
1425.7705904241707,1841
1427.8543348076178,1908
1429.9375349347342,1900
1432.0201910514802,1902
1434.102303403894,1917
1436.1838722380944,1854
1438.2648978002767,1964
1440.3453803367174,2005
1442.4253200937692,1963
1444.5047173178677,2024
1446.5835722555234,1997
1448.6618851533285,2127
1450.739656257952,2061
1452.8168858161434,2194
1454.8935740747306,2098
1456.96972128062,2134
1459.045327680797,2218
1461.120393522327,2281
1463.1949190523528,2237
1465.2689045180973,2356
1467.3423501668608,2422
1469.415256246024,2391
1471.4876230030463,2429
1473.559450685465,2487
1475.6307395408976,2487
1477.7014898170391,2587
1479.771701761665,2513
1481.8413756226287,2568
1483.9105116478618,2672
1485.9791100853772,2630
1488.0471711832643,2769
1490.1146951896926,2753
1492.1816823529098,2795
1494.2481329212433,2890
1496.3140471430984,2882
1498.3794252669609,2863
1500.4442675413939,2935
1502.5085742150404,2812
1504.572345536622,2843
1506.6355817549388,2926
1508.6982831188702,2940
1510.7604498773744,2879
1512.8220822794883,3022
1514.8831805743293,2986
1516.9437450110909,3084
1519.003775839048,3017
1521.0632733075522,3070
1523.1222376660367,3079
1525.1806691640113,3168
1527.2385680510652,3083
1529.2959345768668,3206
1531.3527689911643,3172
1533.4090715437833,3123
1535.4648424846291,3212
1537.5200820636855,3220
1539.5747905310159,3313
1541.6289681367616,3256
1543.6826151311434,3328
1545.7357317644614,3371
1547.7883182870937,3296
1549.8403749494987,3460
1551.8919020022113,3475
1553.9428996958477,3568
1555.9933682811015,3645
1558.0433080087469,3641
1560.0927191296346,3619
1562.1416018946961,3736
1564.1899565549415,3769
1566.2377833614592,3797
1568.2850825654164,3645
1570.3318544180606,3620
1572.3780991707158,3610
1574.423817074788,3517
1576.4690083817595,3345
1578.5136733431923,3150
1580.5578122107272,3012
1582.601425236085,3007
1584.6445126710646,2860
1586.6870747675434,2703
1588.7291117774776,2700
1590.7706239529034,2509
1592.8116115459347,2404
1594.8520748087658,2272
1596.8920139936686,2303
1598.9314293529933,2257
1600.9703211391711,2169
1603.008689604711,2065
1605.0465350022005,2112
1607.0838575843068,2056
1609.1206576037753,1992
1611.1569353134305,1959
1613.1926909661765,1869
1615.2279248149953,1791
1617.2626371129481,1784
1619.2968281131757,1836
1621.3304980688963,1759
1623.3636472334088,1806
1625.39627586009,1805
1627.428384202396,1765
1629.459972513861,1701
1631.4910410480993,1749
1633.5215900588028,1650
1635.551619799744,1702
1637.5811305247717,1670
1639.6101224878166,1652
1641.6385959428862,1630
1643.6665511440683,1644
1645.693988345528,1602
1647.7209078015112,1642
1649.7473097663405,1616
1651.7731944944203,1613
1653.7985622402307,1587
1655.823413258333,1594
1657.847747803366,1577
1659.8715661300494,1503
1661.8948684931793,1614
1663.9176551476316,1563
1665.9399263483624,1595
1667.9616823504057,1512
1669.982923408873,1569
1672.0036497789574,1558
1674.0238617159293,1626
1676.043559475138,1556
1678.0627433120121,1497
1680.081413482059,1540
1682.0995702408654,1549
1684.117213844096,1573
1686.134344547495,1573
1688.1509626068864,1529
1690.1670682781705,1509
1692.182661817329,1471
1694.1977434804217,1565
1696.2123135235875,1572
1698.226372203043,1570
1700.2399197750851,1581
1702.2529564960905,1565
1704.2654826225112,1525
1706.277498410882,1533
1708.2890041178139,1595
1710.2999999999988,1439
1712.3104863142066,1538
1714.3204633172854,1517
1716.329931266163,1484
1718.3388904178469,1518
1720.3473410294214,1496
1722.3552833580516,1488
1724.3627176609807,1494
1726.3696441955308,1472
1728.3760632191033,1518
1730.3819749891782,1512
1732.3873797633146,1485
1734.3922777991502,1542
1736.3966693544012,1468
1738.4005546868639,1430
1740.4039340544127,1482
1742.406807715001,1511
1744.4091759266616,1490
1746.4110389475054,1441
1748.4123970357223,1405
1750.413250449582,1442
1752.4135994474318,1484
1754.4134442876993,1475
1756.4127852288902,1389
1758.4116225295893,1428
1760.4099564484595,1435
1762.407787244244,1400
1764.405115175764,1374
1766.4019405019203,1450
1768.3982634816916,1473
1770.3940843741357,1442
1772.3894034383907,1395
1774.3842209336717,1392
1776.378537119274,1390
1778.372352254571,1386
1780.3656665990156,1394
1782.3584804121397,1374
1784.3507939535534,1362
1786.3426074829463,1340
1788.3339212600863,1427
1790.3247355448211,1384
1792.3150505970766,1406
1794.3048666768573,1372
1796.2941840442477,1360
1798.2830029594106,1421
1800.2713236825884,1341
1802.2591464741004,1347
1804.2464715943465,1388
1806.2332993038058,1403
1808.2196298630352,1391
1810.2054635326708,1380
1812.190800573428,1377
1814.175641246101,1422
1816.1599858115628,1369
1818.1438345307652,1321
1820.127187664738,1376
1822.1100454745924,1341
1824.092408221516,1396
1826.0742761667766,1357
1828.055649571721,1352
1830.0365286977735,1427
1832.0169138064398,1365
1833.9968051593014,1336
1835.9762030180214,1324
1837.9551076443408,1298
1839.9335193000788,1352
1841.9114382471344,1370
1843.888864747485,1357
1845.8657990631878,1329
1847.842241456378,1401
1849.8181921892697,1321
1851.7936515241558,1312
1853.7686197234098,1414
1855.7430970494815,1329
1857.7170837649014,1337
1859.6905801322787,1399
1861.6635864143004,1360
1863.6361028737338,1361
1865.608129773424,1356
1867.5796673762961,1389
1869.5507159453537,1411
1871.521275743678,1333
1873.4913470344313,1440
1875.4609300808534,1380
1877.4300251462632,1386
1879.3986324940588,1378
1881.366752387717,1399
1883.3343850907936,1374
1885.3015308669228,1409
1887.268189979819,1382
1889.2343626932739,1369
1891.2000492711595,1388
1893.1652499774254,1416
1895.1299650761011,1424
1897.0941948312952,1397
1899.0579395071945,1425
1901.0211993680641,1401
1902.98397467825,1391
1904.9462657021745,1415
1906.9080727043415,1376
1908.869395949332,1430
1910.8302357018065,1396
1912.790592226504,1381
1914.7504657882428,1434
1916.7098566519212,1359
1918.6687650825133,1429
1920.6271913450764,1368
1922.5851357047422,1451
1924.5425984267245,1436
1926.499579776314,1378
1928.4560800188833,1345
1930.4120994198802,1401
1932.367638244833,1427
1934.32269675935,1385
1936.2772752291175,1377
1938.231373919899,1393
1940.1849930975404,1407
1942.1381330279637,1398
1944.0907939771696,1427
1946.0429762112412,1380
1947.9946799963363,1409
1949.9459055986945,1403
1951.896653284633,1387
1953.8469233205478,1363
1955.7967159729142,1407
1957.7460315082863,1313
1959.6948701932974,1395
1961.6432322946594,1375
1963.5911180791632,1457
1965.5385278136787,1369
1967.4854617651545,1371
1969.4319202006182,1377
1971.377903387176,1345
1973.3234115920136,1304
1975.268445082395,1417
1977.2130041256642,1392
1979.1570889892423,1322
1981.1006999406304,1402
1983.04383724741,1353
1984.986501177238,1391
1986.928691997853,1388
1988.8704099770712,1343
1990.811655382789,1313
1992.7524284829801,1342
1994.692729545698,1377
1996.6325588390755,1354
1998.5719166313224,1370
2000.5108031907307,1352
2002.4492187856677,1361
2004.387163684583,1343
2006.3246381560011,1389
2008.2616424685298,1309
2010.1981768908527,1372
2012.1342416917332,1371
2014.069837140014,1306
2016.0049635046162,1298
2017.9396210545406,1330
2019.8738100588666,1326
2021.8075307867502,1352
2023.740783507431,1322
2025.6735684902228,1306
2027.6058860045214,1286
2029.5377363198004,1288
2031.4691197056118,1317
2033.4000364315875,1308
2035.3304867674374,1334
2037.260470982952,1308
2039.189989347998,1265
2041.1190421325232,1272
2043.047629606554,1279
2044.9757520401945,1346
2046.9034097036288,1339
2048.8306028671195,1345
2050.7573318010086,1314
2052.683596775716,1289
2054.609398061742,1266
2056.5347359296647,1316
2058.4596106501403,1381
2060.384022493906,1364
2062.3079717317764,1324
2064.231458634646,1277
2066.1544834734873,1319
2068.077046519352,1279
2069.99914804337,1325
2071.9207883167524,1291
2073.8419676107865,1329
2075.7626861968406,1335
2077.6829443463607,1287
2079.6027423308715,1330
2081.522080421977,1294
2083.440958891362,1333
2085.359378010786,1360
2087.2773380520907,1265
2089.194839287196,1297
2091.111881988101,1285
2093.0284664268825,1304
2094.9445928756973,1269
2096.86026160678,1276
2098.775472892446,1339
2100.690227005088,1348
2102.604524217178,1307
2104.5183648012676,1345
2106.431749029985,1329
2108.34467717604,1354
2110.2571495122206,1350
2112.169166311393,1303
2114.080727846503,1327
2115.9918343905747,1373
2117.902486216711,1342
2119.8126835980956,1331
2121.722426807987,1406
2123.6317161197285,1354
2125.5405518067364,1296
2127.448934142509,1356
2129.356863400624,1303
2131.264339854737,1339
2133.1713637785815,1293
2135.077935445972,1362
2136.9840551308002,1312
2138.889723107037,1317
2140.7949396487334,1306
2142.699705030018,1359
2144.6040195250994,1351
2146.507883408264,1385
2148.4112969538774,1321
2150.3142604363848,1380
2152.2167741303097,1322
2154.1188383102535,1329
2156.0204532508997,1257
2157.9216192270064,1342
2159.822336513414,1367
2161.7226053850413,1362
2163.622426116884,1370
2165.5217989840185,1337
2167.4207242616,1362
2169.319202224862,1389
2171.2172331491165,1367
2173.1148173097563,1378
2175.0119549822507,1365
2176.90864644215,1376
2178.8048919650823,1421
2180.7006918267534,1320
2182.596046302952,1341
2184.4909556695407,1351
2186.3854202024645,1389
2188.279440177746,1373
2190.173015871487,1334
2192.066147559868,1339
2193.958835519149,1422
2195.851080025667,1375
2197.7428813558417,1394
2199.6342397861667,1443
2201.5251555932186,1403
2203.415629053651,1400
2205.3056604441986,1393
2207.19525004167,1425
2209.084398122958,1478
2210.9731049650327,1431
2212.861370844941,1388
2214.749196039812,1392
2216.636580826851,1459
2218.523525483344,1400
2220.410030286655,1386
2222.296095514226,1381
2224.1817214435805,1405
2226.066908352319,1417
2227.951656518121,1491
2229.835966218746,1424
2231.71983773203,1449
2233.6032713358913,1408
2235.486267308324,1388
2237.3688259274036,1428
2239.2509474712824,1459
2241.132632218193,1438
2243.013880446447,1448
2244.8946924344323,1464
2246.7750684606203,1391
2248.6550088035574,1460
2250.534513741871,1384
2252.413583554265,1394
2254.292218519526,1429
2256.170418916517,1415
2258.0481850241786,1386
2259.925517121534,1408
2261.8024154876825,1413
2263.678880401803,1433
2265.5549121431536,1441
2267.430510991071,1386
2269.305677224971,1386
2271.180411124348,1459
2273.0547129687766,1413
2274.9285830379076,1365
2276.8020216114737,1406
2278.6750289692845,1346
2280.5476053912294,1360
2282.4197511572766,1448
2284.2914665474727,1466
2286.162751841943,1512
2288.0336073208937,1483
2289.904033264608,1471
2291.774029953448,1401
2293.6435976678554,1418
2295.5127366883517,1451
2297.381447295534,1427
2299.2497297700825,1328
2301.1175843927526,1315
2302.9850114443825,1300
2304.852011205885,1293
2306.7185839582553,1230
2308.5847299825664,1249
2310.4504495599676,1276
2312.3157429716925,1222
2314.1806104990483,1218
2316.0450524234247,1217
2317.9090690262888,1185
2319.772660589186,1217
2321.635827393742,1259
2323.498569721661,1225
2325.3608878547248,1178
2327.2227820747967,1243
2329.0842526638157,1261
2330.945299903803,1245
2332.805924076857,1241
2334.6661254651535,1257
2336.525904350951,1296
2338.3852610165827,1259
2340.244195744464,1201
2342.102708817088,1241
2343.9608005170253,1254
2345.8184711269287,1243
2347.675720929526,1297
2349.532550207628,1253
2351.38895924412,1231
2353.24494832197,1232
2355.100517724223,1285
2356.955667734004,1253
2358.810398634514,1257
2360.664710709037,1320
2362.5186042409337,1255
2364.3720795136437,1294
2366.225136810686,1280
2368.0777764156583,1300
2369.929998612237,1313
2371.7818036841777,1240
2373.633191915315,1293
2375.484163589562,1268
2377.3347189909114,1296
2379.184858403434,1274
2381.03458211128,1255
2382.8838903986775,1261
2384.732783549936,1311
2386.5812618494406,1306
2388.4293255816588,1349
2390.2769750311327,1277
2392.1242104824883,1300
2393.971032220427,1266
2395.8174405297295,1241
2397.6634356952563,1303
2399.509018001947,1338
2401.3541877348193,1215
2403.1989451789705,1295
2405.043290619576,1275
2406.8872243418905,1326
2408.730746631247,1276
2410.5738577730594,1308
2412.4165580528183,1304
2414.258847756095,1311
2416.100727168537,1331
2417.9421965758734,1297
2419.783256263912,1272
2421.623906518538,1260
2423.4641476257157,1305
2425.303979871491,1314
2427.143403541984,1310
2428.9824189233977,1295
2430.821026302012,1354
2432.6592259641866,1340
2434.497018196361,1273
2436.33440328505,1366
2438.171381516851,1339
2440.00795317844,1360
2441.844118556569,1349
2443.6798779380724,1360
2445.5152316098606,1286
2447.3501798589255,1297
2449.1847229723357,1355
2451.0188612372403,1349
2452.8525949408663,1358
2454.6859243705203,1317
2456.518849813587,1280
2458.3513715575314,1313
2460.183489889895,1335
2462.015205098301,1380
2463.8465174704493,1295
2465.67742729412,1277
2467.5079348571717,1276
2469.338040447542,1307
2471.1677443532476,1309
2472.9970468623833,1316
2474.825948263123,1299
2476.6544488437207,1324
2478.482548892508,1291
2480.310248697896,1359
2482.137548548374,1296
2483.9644487325118,1340
2485.790949538956,1320
2487.617051256433,1352
2489.44275417375,1372
2491.26805857979,1292
2493.0929647635157,1390
2494.917473013971,1332
2496.741583620276,1354
2498.5652968716304,1407
2500.3886130573137,1385
2502.2115324666834,1344
2504.0340553891765,1298
2505.856182114308,1370
2507.6779129316733,1371
2509.499248130945,1332
2511.3201880018764,1367
2513.140732834298,1405
2514.9608829181198,1353
2516.780638543331,1380
2518.6,1383
2520.418967578273,1369
2522.237541568376,1357
2524.0557222606144,1410
2525.8735099453706,1421
2527.6909049131086,1453
2529.507907454368,1429
2531.32451785977,1461
2533.140736420014,1450
2534.9565634258774,1396
2536.771999168218,1479
2538.5870439379714,1439
2540.4016980261526,1481
2542.2159617238544,1494
2544.02983532225,1462
2545.8433191125914,1447
2547.656413386209,1508
2549.4691184345115,1452
2551.2814345489874,1564
2553.093362021204,1532
2554.904901142808,1559
2556.716052205523,1576
2558.526815501153,1537
2560.3371913215824,1503
2562.147179958771,1636
2563.956781704761,1634
2565.7659968516705,1626
2567.5748256916986,1629
2569.3832685171224,1621
2571.1913256202984,1630
2572.9989972936614,1729
2574.806283829725,1620
2576.613185521084,1651
2578.4197026604074,1697
2580.2258355404483,1690
2582.031584454035,1672
2583.836949694077,1707
2585.6419315535613,1672
2587.4465303255533,1682
2589.2507463032002,1655
2591.0545797797245,1674
2592.8580310484303,1685
2594.6611004026995,1724
2596.463788135992,1716
2598.266094541849,1677
2600.0680199138874,1672
2601.869564545807,1660
2603.670728731383,1724
2605.4715127644704,1659
2607.2719169390048,1679
2609.071941548998,1670
2610.8715868885433,1681
2612.670853251811,1737
2614.469740933052,1662
2616.268250226594,1651
2618.0663814268455,1676
2619.864134828292,1674
2621.6615107255006,1626
2623.458509413115,1595
2625.2551311858597,1633
2627.0513763385347,1649
2628.8472451660223,1634
2630.6427379632833,1607
2632.4378550253564,1620
2634.232596647359,1588
2636.026963124488,1534
2637.8209547520187,1573
2639.6145718253065,1537
2641.407814639785,1500
2643.200683490966,1558
2644.9931786744414,1500
2646.7853004858807,1474
2648.577049221034,1524
2650.3684251757277,1537
2652.1594286458712,1501
2653.9500599274484,1482
2655.740319316525,1440
2657.5302071092437,1424
2659.3197236018286,1444
2661.10886909058,1428
2662.8976438718782,1453
2664.686048242183,1420
2666.4740824980327,1361
2668.2617469360443,1456
2670.0490418529134,1397
2671.8359675454153,1396
2673.622524310403,1346
2675.408712444811,1375
2677.1945322456495,1360
2678.979984010009,1359
2680.76506803506,1356
2682.5497846180497,1364
2684.334134056306,1411
2686.1181166472343,1364
2687.9017326883213,1311
2689.6849824771293,1338
2691.4678663113013,1334
2693.2503844885596,1353
2695.032537306705,1329
2696.8143250636167,1309
2698.5957480572542,1294
2700.3768065856534,1260
2702.1575009469316,1284
2703.937831439283,1258
2705.717798360982,1286
2707.4974020103837,1236
2709.276642685917,1251
2711.055520686095,1260
2712.834036309506,1326
2714.612189854819,1254
2716.389981620782,1262
2718.1674119062204,1264
2719.944481010041,1295
2721.721189231226,1279
2723.4975368688415,1262
2725.273524222027,1212
2727.0491515900053,1324
2728.824419272075,1262
2730.5993275676146,1240
2732.3738767760838,1249
2734.148067197016,1190
2735.921899130031,1228
2737.6953728748194,1226
2739.468488731156,1175
2741.2412469988926,1250
2743.0136479779617,1272
2744.785691968372,1254
2746.5573792702116,1235
2748.3287101836504,1258
2750.099685008934,1270
2751.870304046388,1221
2753.640567596418,1219
2755.4104759595057,1224
2757.1800294362156,1202
2758.949228327187,1207
2760.7180729331412,1211
2762.486563554877,1241
2764.254700493272,1207
2766.022484049284,1212
2767.789914523947,1232
2769.5569922183786,1228
2771.3237174337705,1254
2773.090090471394,1228
2774.8561116326036,1219
2776.6217812188274,1221
2778.3870995315756,1232
2780.1520668724356,1266
2781.9166835430747,1248
2783.6809498452394,1241
2785.444866080754,1233
2787.2084325515225,1233
2788.971649559527,1240
2790.73451740683,1232
2792.4970363955713,1210
2794.2592068279705,1242
2796.0210290063264,1202
2797.7825032330147,1246
2799.543629810493,1185
2801.304409041296,1204
2803.0648412280366,1182
2804.8249266734088,1267
2806.5846656801846,1263
2808.344058551212,1210
2810.1031055894246,1239
2811.8618070978273,1189
2813.6201633795085,1186
2815.378174737636,1194
2817.1358414754536,1196
2818.893163896285,1203
2820.6501423035334,1269
2822.4067770006814,1207
2824.1630682912883,1230
2825.9190164789957,1188
2827.6746218675207,1213
2829.429884760661,1225
2831.184805462294,1255
2832.9393842763743,1238
2834.693621506936,1232
2836.4475174580916,1202
2838.201072434034,1196
2839.954286739034,1188
2841.707160677441,1210
2843.459694553685,1220
2845.2118886722724,1219
2846.96374333779,1234
2848.7152588549034,1220
2850.4664355283567,1172
2852.217273662973,1196
2853.9677735636546,1229
2855.7179355353833,1255
2857.4677598832186,1291
2859.217246912299,1201
2860.9663969278427,1220
2862.715210235146,1193
2864.4636871395846,1229
2866.211827946614,1266
2867.9596329617652,1216
2869.7071024906536,1154
2871.4542368389684,1203
2873.20103631248,1195
2874.947501217038,1206
2876.6936318585695,1191
2878.4394285430812,1214
2880.1848915766604,1238
2881.9300212654707,1209
2883.6748179157553,1239
2885.4192818338374,1227
2887.1634133261173,1222
2888.907212699077,1189
2890.6506802592744,1228
2892.393816313348,1198
2894.1366211680142,1232
2895.8790951300693,1185
2897.621238506388,1252
2899.363051603925,1192
2901.1045347297118,1291
2902.8456881908596,1217
2904.58651229456,1200
2906.327007348081,1174
2908.067173658772,1220
2909.8070115340597,1198
2911.5465212814497,1218
2913.285703208527,1172
2915.0245576229563,1188
2916.7630848324807,1225
2918.5012851449196,1185
2920.2391588681758,1191
2921.976706310227,1241
2923.7139277791334,1245
2925.4508235830313,1197
2927.187394030137,1198
2928.923639428745,1217
2930.6595600872306,1195
2932.395156314046,1200
2934.1304284177218,1203
2935.8653767068713,1191
2937.6000014901815,1233
2939.3343030764227,1237
2941.068281774442,1158
2942.8019378931644,1208
2944.5352717415976,1274
2946.2682836288236,1211
2948.0009738640065,1262
2949.7333427563885,1296
2951.465390615289,1213
2953.1971177501086,1214
2954.9285244703265,1249
2956.6596110855,1220
2958.3903779052657,1246
2960.1208252393385,1186
2961.8509533975125,1262
2963.5807626896617,1222
2965.3102534257378,1179
2967.0394259157715,1155
2968.768280469873,1183
2970.496817398232,1240
2972.2250370111146,1218
2973.952939618869,1194
2975.6805255319196,1247
2977.4077950607707,1239
2979.134748516006,1212
2980.861386208289,1231
2982.587708448359,1217
2984.313715547037,1218
2986.039407815222,1231
2987.764785563891,1201
2989.489849104102,1271
2991.2145987469908,1220
2992.9390348037705,1227
2994.6631575857346,1252
2996.3869674042576,1206
2998.1104645707887,1184
2999.83364939686,1206
3001.5565221940783,1177
3003.2790832741334,1224
3005.0013329487924,1168
3006.7232715298996,1221
3008.4448993293804,1197
3010.166216659239,1195
3011.887223831558,1185
3013.607921158498,1188
3015.3283089522993,1223
3017.0483875252826,1199
3018.7681571898443,1176
3020.4876182584626,1197
3022.2067710436927,1154
3023.9256158581707,1192
3025.644153014609,1200
3027.362382825801,1167
3029.0803056046193,1206
3030.797921664012,1136
3032.5152313170106,1219
3034.2322348767225,1153
3035.9489326563353,1219
3037.665324969115,1142
3039.3814121284063,1186
3041.097194447633,1248
3042.812672240299,1240
3044.5278458199855,1202
3046.2427155003525,1178
3047.9572815951406,1132
3049.671544418167,1212
3051.38550428333,1229
3053.0991615046073,1156
3054.812516396051,1199
3056.5255692717974,1205
3058.2383204460575,1181
3059.9507702331257,1168
3061.662918947372,1197
3063.3747669032446,1221
3065.0863144152736,1195
3066.7975617980674,1163
3068.508509366309,1217
3070.219157434767,1156
3071.9295063182844,1209
3073.639556331785,1174
3075.3493077902704,1189
3077.058761008821,1197
3078.7679163025964,1217
3080.476773986837,1212
3082.1853343768594,1192
3083.89359778806,1201
3085.6015645359153,1207
3087.3092349359786,1178
3089.016609303884,1196
3090.7236879553434,1265
3092.4304712061476,1176
3094.136959372166,1186
3095.843152769349,1198
3097.5490517137237,1219
3099.2546565213966,1199
3100.959967508554,1200
3102.66498499146,1213
3104.3697092864577,1241
3106.0741407099695,1185
3107.778279578498,1198
3109.482126208622,1173
3111.1856809170004,1207
3112.8889440203716,1171
3114.5919158355528,1222
3116.294596679439,1191
3117.996986869006,1247
3119.6990867213062,1199
3121.4008965534726,1226
3123.102416682717,1215
3124.803647426329,1246
3126.5045891016784,1227
3128.205242026213,1168
3129.90560651746,1239
3131.605682893025,1255
3133.3054714705922,1255
3135.0049725679282,1199
3136.7041865028714,1211
3138.4031135933465,1195
3140.101754157353,1203
3141.800108512971,1193
3143.498176978357,1155
3145.1959598717494,1163
3146.8934575114636,1194
3148.5906702158954,1180
3150.2875983035183,1233
3151.9842420928853,1224
3153.680601902627,1213
3155.376678051456,1216
3157.07247085816,1144
3158.767980641609,1193
3160.463207720748,1166
3162.158152414606,1208
3163.8528150422862,1224
3165.5471959229726,1173
3167.2412953759303,1185
3168.9351137204976,1228
3170.628651276098,1228
3172.3219083622307,1179
3174.014885298474,1208
3175.707582404485,1184
3177.4000000000005,1218
3179.092138404835,1191
3180.7839979388846,1190
3182.47557892212,1209
3184.166881674594,1209
3185.8579065164386,1251
3187.5486537678626,1221
3189.2391237491547,1192
3190.9293167806827,1243
3192.6192331828934,1174
3194.3088732763117,1191
3195.998237381542,1187
3197.687325819268,1184
3199.376138910251,1201
3201.064676975334,1193
3202.7529403354347,1177
3204.4409293115523,1153
3206.1286442247647,1192
3207.816085396229,1146
3209.5032531471825,1135
3211.190147798936,1213
3212.8767696728846,1149
3214.5631190905015,1203
3216.2491963733373,1175
3217.9350018430214,1192
3219.6205358212637,1129
3221.305798629851,1186
3222.990790590651,1169
3224.6755120256103,1101
3226.359963256751,1170
3228.0441446061795,1180
3229.7280563960758,1135
3231.411698948703,1176
3233.0950725863995,1164
3234.778177631587,1158
3236.461014406761,1181
3238.1435832345005,1220
3239.8258844374595,1178
3241.507918338374,1164
3243.1896852600576,1152
3244.8711855254023,1151
3246.552419457381,1160
3248.233387379042,1184
3249.914089613516,1166
3251.59452648401,1146
3253.274698313813,1178
3254.95460542629,1178
3256.6342481448855,1193
3258.313626793125,1200
3259.9927416946084,1140
3261.6715931730196,1128
3263.3501815521176,1159
3265.0285071557437,1172
3266.706570307815,1108
3268.3843713323286,1126
3270.0619105533615,1106
3271.739188295068,1164
3273.4162048816834,1162
3275.0929606375184,1144
3276.769455886966,1152
3278.445690954498,1144
3280.1216661646613,1183
3281.797381842087,1219
3283.4728383114807,1183
3285.1480358976296,1198
3286.8229749253996,1183
3288.4976557197333,1191
3290.172078605655,1184
3291.846243908266,1151
3293.5201519527463,1194
3295.193803064357,1166
3296.8671975684374,1173
3298.5403357904024,1114
3300.21321805575,1164
3301.8858446900567,1198
3303.558216018975,1171
3305.23033236824,1230
3306.9021940636603,1217
3308.57380143113,1128
3310.2451547966184,1135
3311.916254486174,1177
3313.5871008259246,1184
3315.2576941420766,1188
3316.9280347609147,1226
3318.5981230088046,1176
3320.2679592121895,1145
3321.9375436975924,1115
3323.606876791612,1172
3325.27595882093,1128
3326.944790112305,1142
3328.6133709925753,1149
3330.2817017886573,1178
3331.949782827547,1168
3333.617614436319,1182
3335.2851969421245,1120
3336.952530672199,1206
3338.619615953853,1153
3340.286453114475,1150
3341.9530424815357,1151
3343.619384382583,1134
3345.2854791452437,1199
3346.951327097224,1197
3348.6169285663073,1241
3350.2822838803577,1183
3351.947393367319,1178
3353.61225735521,1155
3355.2768761721345,1136
3356.9412501462693,1169
3358.605379605873,1120
3360.2692648792827,1174
3361.9329062949146,1188
3363.596304181263,1163
