CollectionTime,7/9/2024 12:31:16 PM
ExposureUsed,3
CalibratedSpectrum
-962.7078968117929,528
-959.9714848408522,517
-957.2358232597828,567
-954.5009119013725,536
-951.7667505983302,558
-949.0333391832855,586
-946.3006774887896,577
-943.5687653473143,535
-940.837602591253,570
-938.1071890529199,555
-935.3775245645503,549
-932.6486089583007,573
-929.9204420662485,531
-927.1930237203925,540
-924.4663537526524,542
-921.7404319948689,523
-919.0152582788041,548
-916.2908324361409,590
-913.5671542984834,552
-910.8442236973568,585
-908.1220404642074,555
-905.4006044304027,577
-902.679915427231,582
-899.959973285902,557
-897.2407778375464,601
-894.5223289132158,556
-891.8046263438832,545
-889.0876699604426,546
-886.3714595937089,542
-883.6559950744183,547
-880.9412762332282,539
-878.2273029007168,553
-875.5140749073835,542
-872.8015920836489,539
-870.0898542598545,523
-867.3788612662631,526
-864.6686129330585,534
-861.9591090903457,539
-859.2503495681506,580
-856.5423341964203,542
-853.8350628050229,526
-851.1285352237478,545
-848.4227512823054,542
-845.7177108103272,559
-843.0134136373656,578
-840.3098595928943,561
-837.6070485063082,548
-834.9049802069229,563
-832.2036545239757,536
-829.5030712866244,559
-826.8032303239481,570
-824.1041314649472,559
-821.4057745385428,536
-818.7081593735775,546
-816.0112857988148,570
-813.3151536429393,550
-810.6197627345566,546
-807.9251129021936,573
-805.2312039742981,568
-802.5380357792392,581
-799.8456081453069,591
-797.1539209007124,546
-794.462973873588,567
-791.772766891987,598
-789.083299783884,577
-786.3945723771743,582
-783.7065844996748,552
-781.0193359791231,571
-778.3328266431781,548
-775.6470563194197,560
-772.9620248353489,571
-770.2777320183878,570
-767.5941776958798,558
-764.9113616950891,565
-762.2292838432011,569
-759.5479439673222,548
-756.8673418944801,573
-754.1874774516235,591
-751.5083504656222,588
-748.8299607632671,593
-746.15230817127,597
-743.475392516264,588
-740.7992136248035,552
-738.1237713233636,608
-735.4490654383407,623
-732.7750957960521,592
-730.1018622227365,602
-727.4293645445534,618
-724.7576025875837,619
-722.0865761778291,612
-719.4162851412126,622
-716.7467293035781,630
-714.0779084906909,598
-711.409822528237,599
-708.7424712418238,591
-706.0758544569796,599
-703.4099719991541,643
-700.7448236937178,589
-698.0804093659622,619
-695.4167288411002,612
-692.7537819442656,604
-690.0915685005134,616
-687.4300883348199,630
-684.7693412720819,620
-682.1093271371178,610
-679.4500457546669,655
-676.7914969493897,620
-674.1336805458676,632
-671.4765963686034,630
-668.8202442420206,654
-666.1646239904642,637
-663.5097354382001,664
-660.8555784094151,629
-658.2021527282176,653
-655.5494582186366,637
-652.8974947046223,641
-650.2462620100463,642
-647.5957599587009,628
-644.9459883742998,645
-642.2969470804776,665
-639.6486359007902,671
-637.0010546587141,681
-634.3542031776476,693
-631.7080812809096,680
-629.0626887917401,618
-626.4180255333008,682
-623.7740913286734,649
-621.1308860008619,701
-618.4884093727904,665
-615.8466612673046,695
-613.2056415071715,662
-610.5653499150785,649
-607.9257863136347,689
-605.28695052537,690
-602.6488423727357,656
-600.0114616781036,673
-597.3748082637674,710
-594.7388819519412,681
-592.1036825647604,656
-589.4692099242818,679
-586.8354638524829,695
-584.2024441712624,724
-581.5701507024403,646
-578.9385832677575,689
-576.3077416888759,652
-573.6776257873787,683
-571.0482353847704,654
-568.4195703024757,675
-565.7916303618415,686
-563.164415384135,654
-560.5379251905453,687
-557.9121596021815,682
-555.2871184400748,702
-552.6628015251767,660
-550.0392086783606,744
-547.4163397204204,698
-544.794194472071,720
-542.1727727539491,695
-539.5520743866118,702
-536.9320991905377,732
-534.3128469861261,748
-531.6943175936979,806
-529.0765108334947,794
-526.4594265256793,799
-523.8430644903358,903
-521.2274245474689,1032
-518.612506517005,1109
-515.9983102187913,1019
-513.3848354725959,1025
-510.77208209810846,1072
-508.16004991493924,1093
-505.5487387426199,1293
-502.9381484006032,1359
-500.3282787082628,1434
-497.71912948489364,1309
-495.1107005497117,1249
-492.5029917218539,1132
-489.8960028203786,1030
-487.28973366426493,934
-484.68418407241325,894
-482.07935386364494,870
-479.47524285670266,854
-476.87185087025,855
-474.2691777228715,820
-471.66722323307334,829
-469.0659872192821,817
-466.4654694998459,887
-463.86566989303384,863
-461.26658821703614,830
-458.66822428996414,853
-456.07057792985,874
-453.4736489546475,826
-450.877437182231,866
-448.28194243039627,835
-445.68716451686,884
-443.09310325926003,798
-440.49975847515555,826
-437.9071299820263,839
-435.31521759727354,827
-432.72402113821954,854
-430.13354042210767,888
-427.5437752661022,876
-424.95472548728867,835
-422.36639090267386,851
-419.7787713291855,912
-417.1918665836721,950
-414.60567648290385,924
-412.0202008435715,895
-409.4354394822874,916
-406.8513922155845,896
-404.26805885991723,971
-401.685439231661,958
-399.103533147112,952
-396.522340422488,919
-393.9418608739278,895
-391.3620943174908,874
-388.7830405691583,853
-386.2046994448317,825
-383.6270707603344,797
-381.05015433141045,783
-378.473949973725,757
-375.8984575028645,720
-373.32367673433623,646
-370.74960748356875,587
-368.1762495659117,591
-365.60360279663576,555
-363.03166699093265,565
-360.4604419639154,512
-357.8899275306178,490
-355.32012350599507,463
-352.7510297049233,453
-350.1826459421999,449
-347.61497203254316,446
-345.04800779059235,421
-342.4817530309082,425
-339.91620756797226,423
-337.35137121618743,435
-334.7872437898774,434
-332.22382510328725,448
-329.66111497058273,461
-327.09911320585127,444
-324.53781962310075,502
-321.9772340362607,488
-319.4173562591816,441
-316.8581861056348,446
-314.2997233893127,460
-311.7419679238294,456
-309.1849195227194,450
-306.62857799943856,473
-304.0729431673641,501
-301.51801483979375,521
-298.963792829947,491
-296.41027695096386,463
-293.85746701590574,513
-291.3053628377552,511
-288.7539642294155,539
-286.2032710037115,496
-283.65328297338897,494
-281.1039999511146,487
-278.5554217494762,486
-276.007548180983,514
-273.4603790580651,519
-270.9139141930734,491
-268.3681533982807,508
-265.8230964858798,529
-263.27874326798565,582
-260.7350935566336,514
-258.1921471637804,531
-255.6499039013039,566
-253.10836358100266,559
-250.56752601459698,545
-248.02739101372765,553
-245.48795838995704,572
-242.94922795476816,560
-240.41119951956557,578
-237.8738728956746,560
-235.33724789434166,609
-232.80132432673452,547
-230.2661020039418,528
-227.73158073697357,562
-225.19776033676033,614
-222.66464061415422,619
-220.1322213799284,602
-217.60050244477725,561
-215.06948361931552,609
-212.53916471408013,605
-210.00954553952818,612
-207.48062590603843,609
-204.9524056239104,634
-202.4248845033651,669
-199.8980623545441,652
-197.37193898751036,663
-194.84651421224817,680
-192.32178783866232,675
-189.79775967657952,734
-187.27442953574644,685
-184.7517972258321,702
-182.2298625564256,665
-179.7086253370378,627
-177.18808537710026,654
-174.66824248596583,610
-172.14909647290835,675
-169.6306471471229,739
-167.11289431772548,711
-164.59583779375328,735
-162.07947738416453,709
-159.5638128978386,785
-157.04884414357605,799
-154.53457093009854,846
-152.02099306604828,835
-149.50811035998936,750
-146.99592262040665,741
-144.48442965570587,790
-141.97363127421409,769
-139.46352728417958,835
-136.95411749377126,1015
-134.44540171107985,998
-131.93737974411636,853
-129.43005140081357,751
-126.92341648902493,823
-124.41747481652521,1037
-121.91222619101006,1264
-119.40767042009657,1514
-116.90380731132257,1630
-114.40063667214702,1527
-111.8981583099503,1429
-109.3963720320337,1302
-106.89527764561933,1320
-104.39487495785067,1369
-101.89516377579241,1600
-99.39614390642998,2285
-96.89781515667039,2879
-94.40017733334128,3066
-91.90323024319173,2978
-89.40697369289148,2599
-86.91140748903172,2306
-84.41653143812482,2451
-81.92234534660395,2612
-79.42884902082358,2513
-76.93604226705907,2629
-74.4439248915071,2871
-71.95249670028534,3730
-69.46175749943245,4741
-66.97170709490854,5783
-64.48234529259423,6357
-61.99367189829195,7230
-59.50568671772464,7213
-57.01838955653636,6989
-54.53178022029283,7790
-52.045858514480074,8854
-49.560624244506016,10127
-47.07607721569923,9860
-44.59221723330904,9328
-42.10904410250669,8745
-39.62655762838392,7421
-37.14475761595372,6332
-34.66364387015028,6810
-32.18321619582866,6939
-29.70347439776515,7210
-27.224418280657005,8194
-24.74604764912317,8161
-22.26836230770266,9475
-19.7913620608565,15351
-17.315046712966478,25317
-14.83941606833514,34667
-12.36446993118659,45103
-9.89020810566592,65040
-7.416630395839093,65040
-4.94373660569363,65040
-2.471526539137585,65040
-6.821210263296962E-13,65040
2.47084320796705,65040
4.941003281093458,65040
7.410480415786196,65040
9.879274808531363,65040
12.347386655893956,65040
14.814816154518212,65040
17.28156350112681,65040
19.74762889252179,65040
22.21301252558385,65040
24.67771459727237,19050
27.141735304626195,3307
29.605074844762612,2385
32.06773341487792,1776
34.52971121224755,1482
36.99100843422559,1578
39.45162527824516,1475
41.91156194181792,1554
44.370818622535126,1490
46.82939551806646,1139
49.287292826160524,1156
51.74451074464503,1146
54.201049471426245,1001
56.65690920448981,1000
59.112090141899785,980
61.56659248179983,1033
64.02041642241159,990
66.4735621620365,937
68.92602989905402,841
71.37781983192338,886
73.82893215918205,899
76.27936707944684,975
78.72912479141326,1057
81.17820549385567,1018
83.62660938562783,970
86.07433666566146,919
88.5213875329681,776
90.96776218663751,782
93.41346082583925,791
95.85848364982041,854
98.30283085790859,815
100.7465026495089,852
103.18949922410604,913
105.63182078126385,913
108.07346752062438,914
110.51443964190923,911
112.95473734491827,953
115.39436082953114,846
117.83331029570547,830
120.27158594347827,846
122.7091879729652,888
125.1461165843615,1015
127.58237197794062,930
130.01795435405518,842
132.4528639131364,782
134.88710085569494,769
137.32066538231982,815
139.75355769367923,743
142.1857779905207,732
144.61732647366978,773
147.04820334403132,723
149.47840880258934,780
151.90794305040674,819
154.33680628862487,863
156.76499871846443,1042
159.19252054122433,1153
161.61937195828352,1319
164.04555317109896,1421
166.47106438120693,1615
168.89590579022217,1805
171.320077599839,1825
173.7435800118302,1886
176.16641322804742,1982
178.58857745042144,2148
181.01007288096173,2164
183.43089972175687,2286
185.85105817497413,2214
188.27054844285988,2169
190.6893707277394,2180
193.10752523201643,2275
195.5250121581745,2310
197.9418317087751,2434
200.3579840864594,2403
202.7734694939469,2489
205.18828813403627,2528
207.6024402096051,2495
210.01592592360964,2596
212.42874547908548,2566
214.84089907914665,2492
217.2523869269868,2539
219.66320922587727,2517
222.0733661791695,2445
224.48285799029293,2547
226.8916848627572,2564
229.29984700014882,2557
231.7073446061355,2564
234.11417788446204,2596
236.520347038953,2712
238.92585227351185,2777
241.33069379212054,2807
243.73487179884035,2913
246.1383864978112,2857
248.541238093252,3026
250.9434267894609,3001
253.34495279081432,2913
255.74581630176783,3107
258.1460175268563,3124
260.54555667069314,3000
262.9444339379703,3071
265.3426495334594,3003
267.7402036620107,2842
270.1370965285529,2678
272.53332833809407,2644
274.9288992957214,2592
277.32380960660055,2571
279.718059475976,2465
282.1116491091717,2467
284.5045787115897,2448
286.89684848871195,2414
289.2884586460981,2491
291.67940938938807,2443
294.0697009242996,2426
296.4593334566299,2477
298.84830719225477,2459
301.23662233712923,2367
303.6242790972866,2449
306.01127767884,2461
308.39761828798066,2313
310.78330113097934,2299
313.16832641418534,2305
315.5526943440269,2232
317.9364051270112,2148
320.3194589697242,2177
322.70185607883093,2209
325.0835966610754,2188
327.4646809232805,2122
329.8451090723478,2144
332.2248813152577,2131
334.6039978590701,2127
336.9824589109231,2104
339.36026467803447,2104
341.7374153677,2066
344.113911187295,1991
346.48975234427337,2039
348.8649390461686,2024
351.2394715005918,2038
353.61334991523415,2063
355.9865744978655,2026
358.35914545633375,2011
360.73106299856715,2030
363.10232733257146,2077
365.47293866643247,2007
367.84289720831396,1998
370.2122031664593,1958
372.5808567491905,1956
374.9488581649083,1988
377.31620762209275,1950
379.6829053293021,1942
382.0489514951745,1952
384.4143463284262,1948
386.7790900378528,1923
389.14318283232853,1881
391.50662492080653,1868
393.86941651231916,1973
396.23155781597745,2015
398.5930490409713,1978
400.9538903965696,1936
403.3140820921202,1918
405.6736243370498,1934
408.03251734086336,1872
410.3907613131465,1897
412.74835646356166,1846
415.10530300185144,1818
417.4616011378372,1942
419.81725108141893,1930
422.1722530425758,1820
424.5266072313656,1842
426.880313857925,1892
429.2333731324701,1820
431.58578526529516,1886
433.9375504667738,1938
436.2886689473588,1881
438.63914091758113,1885
440.9889665880513,1875
443.33814616945835,1859
445.68667987257015,1868
448.03456790823395,1796
450.3818104873759,1778
452.72840782100013,1812
455.07436012019105,1887
457.41966759611057,1826
459.7643304600007,1781
462.10834892318155,1916
464.4517231970525,1878
466.79445349309174,1889
469.1365400228566,1838
471.4779829979826,1824
473.81878263018564,1840
476.15893913125876,1860
478.4984527130747,1847
480.8373235875855,1898
483.17555196682144,1909
485.5131380628919,1951
487.8500820879857,2049
490.1863842543697,2103
492.52204477439034,2215
494.8570638604725,2312
497.1914417251204,2579
499.52517858091653,2802
501.85827464052306,3019
504.19073011668036,3202
506.5225452222086,3150
508.85372017000566,3036
511.18425517304956,3127
513.514150444396,3102
515.8434061971808,3667
518.1720226446176,4545
520.4999999999999,4934
522.8273384766991,4493
525.1540382881666,4120
527.480099647932,3511
529.8055227696037,2974
532.1303078668694,2460
534.454455153496,2125
536.777964843328,2053
539.1008371502907,1970
541.4230722883866,1902
543.744670471698,1919
546.0656319143858,1892
548.3859568306899,1913
550.7056454349294,1900
553.0246979415016,1891
555.3431145648834,1858
557.6608955196306,1845
559.978041020377,1851
562.2945512818363,1871
564.6104265188006,1838
566.9256669461412,1926
569.2402727788082,1828
571.5542442318302,1887
573.8675815203156,1820
576.1802848594508,1905
578.4923544645015,1907
580.8037905508126,1900
583.114593333807,1933
585.4247630289875,1891
587.7342998519354,1920
590.0432040183106,1876
592.3514757438526,1890
594.6591152443794,1967
596.9661227357875,1994
599.2724984340531,1974
601.578242555231,1915
603.8833553154542,1953
606.1878369309362,1897
608.4916876179676,1884
610.7949075929192,1911
613.0974970722403,1916
615.3994562724587,1933
617.7007854101818,1838
620.0014847020951,1907
622.3015543649641,1972
624.6009946156324,1870
626.8998056710224,1948
629.1979877481361,1913
631.4955410640538,1937
633.7924658359349,1902
636.0887622810175,1953
638.3844306166192,1846
640.6794710601358,1846
642.9738838290426,1909
645.2676691408932,1873
647.5608272133207,1977
649.853358264037,1958
652.1452625108324,2035
654.4365401715764,1920
656.7271914642178,1922
659.0172166067838,2020
661.3066158173809,1933
663.5953893141935,1944
665.8835373154867,1935
668.1710600396028,2028
670.4579577049639,1989
672.7442305300709,1973
675.0298787335033,1975
677.3149025339197,1968
679.599302150058,1971
681.8830778007342,1988
684.1662297048437,1964
686.4487580813608,1942
688.7306631493387,1963
691.0119451279091,1951
693.2926042362834,1995
695.5726406937516,1946
697.8520547196814,1930
700.1308465335215,1936
702.4090163547982,1963
704.6865644031171,2016
706.9634908981619,1962
709.2397960596965,1924
711.5154801075631,1954
713.7905432616823,1899
716.0649857420548,1912
718.3388077687592,1910
720.612009561953,1948
722.8845913418733,1941
725.1565533288352,1906
727.427895743234,1929
729.6986188055427,1840
731.9687227363137,1903
734.238207756178,1992
736.5070740858458,1928
738.7753219461066,1870
741.0429515578281,1983
743.3099631419569,1853
745.5763569195191,1852
747.8421331116193,1887
750.1072919394409,1914
752.3718336242467,1982
754.6357583873777,1903
756.8990664502545,1988
759.1617580343765,1944
761.423833361321,1974
763.6852926527457,1954
765.9461361303862,1894
768.206364016058,1956
770.4659765316536,1967
772.7249738991469,1934
774.9833563405886,1952
777.2411240781092,1926
779.4982773339183,1908
781.7548163303044,1955
784.010741289634,1997
786.2660524343538,1981
788.5207499869881,2007
790.7748341701416,1868
793.0283052064964,1932
795.2811633188143,1904
797.5334087299362,2004
799.7850416627813,2010
802.0360623403484,1897
804.2864709857143,1974
806.5362678220353,1954
808.7854530725468,1937
811.0340269605625,1955
813.2819897094754,2009
815.5293415427581,1958
817.77608268396,1914
820.0222133567116,1956
822.2677337847211,1988
824.5126441917765,2005
826.7569448017433,2017
829.0006358385675,1941
831.2437175262731,2073
833.4861900889629,1937
835.7280537508192,1966
837.9693087361026,1979
840.2099552691533,1971
842.4499935743896,1908
844.689423876309,1919
846.9282463994886,1889
849.1664613685833,1954
851.4040690083276,1923
853.6410695435349,1940
855.877463199097,1995
858.1132501999847,2024
860.3484307712487,1985
862.5830051380175,2010
864.8169735254988,1997
867.0503361589791,1979
869.2830932638243,1957
871.5152450654786,1944
873.7467917894654,2033
875.9777336613873,1999
878.2080709069252,2024
880.4378037518389,2056
882.666932421968,2033
884.8954571432301,2017
887.1233781416219,2001
889.3506956432192,2080
891.5774098741766,2101
893.803521060728,2003
896.0290294291852,1968
898.2539352059397,1960
900.4782386174619,1995
902.7019398903011,1932
904.925039251085,1980
907.147536926521,1949
909.3694331433943,2051
911.59072812857,2042
913.8114221089921,1925
916.0315153116827,1945
918.2510079637437,1927
920.4699002923547,2061
922.6881925247761,1886
924.905884888345,1974
927.1229776104793,1948
929.3394709186747,1939
931.555365040506,1956
933.7706602036275,1998
935.9853566357709,2063
938.1994545647489,1985
940.4129542184515,2043
942.6258558248488,2011
944.8381596119883,1936
947.0498658079974,2002
949.2609746410825,2021
951.4714863395287,1895
953.6814011316998,2004
955.8907192460387,2013
958.0994409110671,1969
960.3075663553858,1969
962.5150958076741,1864
964.7220294966913,1964
966.928367651274,1969
969.1341105003388,1928
971.3392582728806,1906
973.5438111979742,1832
975.747769504772,1909
977.9511334225061,1903
980.153903180487,1857
982.3560790081052,1889
984.5576611348289,1836
986.7586497902058,1828
988.9590452038618,1867
991.158847605503,1830
993.3580572249133,1800
995.5566742919558,1795
997.7546990365728,1761
999.952131688785,1723
1002.1489724786926,1803
1004.3452216364743,1709
1006.5408793923874,1736
1008.7359459767691,1683
1010.9304216200343,1603
1013.1243065526781,1752
1015.3176010052733,1671
1017.510305208472,1637
1019.7024193930064,1593
1021.8939437896848,1622
1024.0848786293977,1695
1026.2752241431122,1675
1028.4649805618747,1624
1030.6541481168115,1630
1032.842727039127,1651
1035.0307175601051,1664
1037.2181199111074,1508
1039.4049343235752,1604
1041.591161029029,1664
1043.7768002590683,1681
1045.9618522453698,1659
1048.1463172196918,1590
1050.3301954138697,1631
1052.513487059818,1610
1054.69619238953,1646
1056.8783116350783,1614
1059.0598450286152,1638
1061.2407928023704,1619
1063.4211551886528,1577
1065.6009324198508,1583
1067.780124728432,1609
1069.9587323469414,1519
1072.1367555080046,1570
1074.314194444325,1553
1076.4910493886855,1575
1078.667320573947,1581
1080.843008233051,1508
1083.0181125990161,1543
1085.1926339049414,1559
1087.3665723840027,1563
1089.5399282694575,1537
1091.7127017946405,1539
1093.8848931929647,1541
1096.0565026979243,1531
1098.2275305430899,1514
1100.3979769621128,1540
1102.567842188722,1554
1104.737126456726,1494
1106.9058300000124,1496
1109.0739530525475,1428
1111.2414958483764,1516
1113.4084586216231,1515
1115.5748416064907,1483
1117.7406450372605,1468
1119.9058691482942,1547
1122.0705141740304,1468
1124.2345803489884,1474
1126.3980679077658,1508
1128.5609770850388,1472
1130.7233081155623,1494
1132.8850612341707,1461
1135.0462366757774,1476
1137.2068346753745,1467
1139.3668554680326,1509
1141.526299288901,1498
1143.68516637321,1507
1145.8434569562655,1473
1148.001171273455,1477
1150.158309560244,1499
1152.3148720521767,1441
1154.470858984876,1453
1156.626270594044,1476
1158.7811071154629,1506
1160.9353687849912,1461
1163.089055838569,1503
1165.242168512213,1481
1167.3947070420209,1456
1169.5466716641677,1449
1171.6980626149075,1423
1173.8488801305748,1504
1175.9991244475814,1424
1178.1487958024186,1473
1180.2978944316555,1444
1182.4464205719428,1478
1184.5943744600072,1449
1186.7417563326567,1453
1188.8885664267755,1459
1191.0348049793297,1479
1193.1804722273619,1484
1195.325568407995,1459
1197.4700937584303,1427
1199.614048515948,1430
1201.7574329179074,1482
1203.900247201746,1510
1206.042491604982,1488
1208.1841663652099,1539
1210.3252717201053,1490
1212.465807907422,1481
1214.6057751649923,1461
1216.7451737307279,1472
1218.8840038426192,1457
1221.0222657387353,1479
1223.1599596572241,1491
1225.2970858363137,1527
1227.4336445143094,1483
1229.5696359295966,1500
1231.705060320639,1491
1233.8399179259786,1562
1235.9742089842384,1489
1238.107933734118,1505
1240.2410924143974,1527
1242.373685263935,1490
1244.5057125216676,1493
1246.6371744266116,1436
1248.7680712178621,1505
1250.898403134593,1503
1253.028170416058,1556
1255.1573733015875,1536
1257.2860120305932,1539
1259.4140868425648,1491
1261.54159797707,1556
1263.6685456737569,1621
1265.7949301723515,1574
1267.9207517126597,1523
1270.046010534565,1534
1272.1707068780306,1609
1274.2948409830983,1526
1276.4184130898889,1579
1278.541423438603,1571
1280.6638722695184,1603
1282.785759822993,1552
1284.9070863394636,1667
1287.0278520594447,1620
1289.1480572235314,1556
1291.2677020723963,1600
1293.3867868467923,1567
1295.5053117875495,1662
1297.623277135579,1648
1299.740683131868,1713
1301.8575300174857,1644
1303.973818033578,1661
1306.0895474213703,1614
1308.2047184221678,1673
1310.3193312773528,1667
1312.4333862283888,1696
1314.5468835168163,1663
1316.659823384255,1715
1318.7722060724045,1653
1320.8840318230418,1659
1322.9953008780249,1700
1325.1060134792888,1635
1327.2161698688478,1716
1329.3257702887959,1691
1331.4348149813054,1730
1333.5433041886276,1728
1335.6512381530933,1716
1337.7586171171101,1641
1339.8654413231675,1709
1341.9717110138317,1715
1344.0774264317488,1744
1346.1825878196432,1645
1348.2871954203192,1686
1350.3912494766587,1588
1352.4947502316231,1670
1354.5976979282532,1673
1356.7000928096686,1652
1358.8019351190665,1614
1360.9032250997243,1645
1363.0039629949988,1685
1365.1041490483235,1671
1367.2037835032133,1716
1369.3028666032606,1679
1371.401398592137,1617
1373.4993797135926,1688
1375.5968102114575,1679
1377.6936903296396,1622
1379.7900203121262,1717
1381.8858004029835,1711
1383.9810308463561,1664
1386.075711886469,1693
1388.1698437676241,1635
1390.2634267342032,1694
1392.356461030667,1701
1394.4489469015557,1775
1396.5408845914872,1770
1398.6322743451592,1679
1400.7231164073469,1750
1402.813411022907,1712
1404.903158436773,1697
1406.9923588939578,1729
1409.0810126395531,1686
1411.1691199187303,1792
1413.2566809767386,1740
1415.343696058907,1730
1417.4301654106425,1773
1419.5160892774315,1805
1421.6014679048399,1812
1423.6863015385125,1857
1425.7705904241707,1820
1427.8543348076178,1852
1429.9375349347342,1870
1432.0201910514802,1902
1434.102303403894,1881
1436.1838722380944,1927
1438.2648978002767,1937
1440.3453803367174,1922
1442.4253200937692,1970
1444.5047173178677,2011
1446.5835722555234,2025
1448.6618851533285,2064
1450.739656257952,2145
1452.8168858161434,2098
1454.8935740747306,2167
1456.96972128062,2191
1459.045327680797,2226
1461.120393522327,2265
1463.1949190523528,2302
1465.2689045180973,2390
1467.3423501668608,2373
1469.415256246024,2396
1471.4876230030463,2428
1473.559450685465,2464
1475.6307395408976,2522
1477.7014898170391,2534
1479.771701761665,2487
1481.8413756226287,2632
1483.9105116478618,2597
1485.9791100853772,2666
1488.0471711832643,2732
1490.1146951896926,2756
1492.1816823529098,2842
1494.2481329212433,2836
1496.3140471430984,2767
1498.3794252669609,2834
1500.4442675413939,2856
1502.5085742150404,2790
1504.572345536622,2906
1506.6355817549388,2867
1508.6982831188702,2901
1510.7604498773744,2971
1512.8220822794883,2955
1514.8831805743293,3021
1516.9437450110909,3023
1519.003775839048,3067
1521.0632733075522,3047
1523.1222376660367,3038
1525.1806691640113,3063
1527.2385680510652,3126
1529.2959345768668,3100
1531.3527689911643,3142
1533.4090715437833,3152
1535.4648424846291,3215
1537.5200820636855,3148
1539.5747905310159,3356
1541.6289681367616,3329
1543.6826151311434,3293
1545.7357317644614,3361
1547.7883182870937,3472
1549.8403749494987,3415
1551.8919020022113,3440
1553.9428996958477,3497
1555.9933682811015,3578
1558.0433080087469,3655
1560.0927191296346,3716
1562.1416018946961,3759
1564.1899565549415,3681
1566.2377833614592,3763
1568.2850825654164,3690
1570.3318544180606,3565
1572.3780991707158,3510
1574.423817074788,3473
1576.4690083817595,3247
1578.5136733431923,3059
1580.5578122107272,3081
1582.601425236085,2979
1584.6445126710646,2840
1586.6870747675434,2720
1588.7291117774776,2707
1590.7706239529034,2449
1592.8116115459347,2434
1594.8520748087658,2426
1596.8920139936686,2318
1598.9314293529933,2256
1600.9703211391711,2084
1603.008689604711,2067
1605.0465350022005,2049
1607.0838575843068,2010
1609.1206576037753,1956
1611.1569353134305,1943
1613.1926909661765,1916
1615.2279248149953,1839
1617.2626371129481,1786
1619.2968281131757,1852
1621.3304980688963,1779
1623.3636472334088,1660
1625.39627586009,1731
1627.428384202396,1694
1629.459972513861,1669
1631.4910410480993,1725
1633.5215900588028,1678
1635.551619799744,1681
1637.5811305247717,1672
1639.6101224878166,1615
1641.6385959428862,1626
1643.6665511440683,1645
1645.693988345528,1609
1647.7209078015112,1552
1649.7473097663405,1619
1651.7731944944203,1547
1653.7985622402307,1587
1655.823413258333,1593
1657.847747803366,1560
1659.8715661300494,1570
1661.8948684931793,1571
1663.9176551476316,1475
1665.9399263483624,1558
1667.9616823504057,1568
1669.982923408873,1510
1672.0036497789574,1492
1674.0238617159293,1548
1676.043559475138,1591
1678.0627433120121,1566
1680.081413482059,1492
1682.0995702408654,1509
1684.117213844096,1521
1686.134344547495,1576
1688.1509626068864,1518
1690.1670682781705,1515
1692.182661817329,1529
1694.1977434804217,1532
1696.2123135235875,1558
1698.226372203043,1532
1700.2399197750851,1508
1702.2529564960905,1523
1704.2654826225112,1559
1706.277498410882,1473
1708.2890041178139,1487
1710.2999999999988,1474
1712.3104863142066,1501
1714.3204633172854,1497
1716.329931266163,1486
1718.3388904178469,1501
1720.3473410294214,1490
1722.3552833580516,1492
1724.3627176609807,1472
1726.3696441955308,1453
1728.3760632191033,1489
1730.3819749891782,1454
1732.3873797633146,1449
1734.3922777991502,1516
1736.3966693544012,1441
1738.4005546868639,1513
1740.4039340544127,1420
1742.406807715001,1482
1744.4091759266616,1430
1746.4110389475054,1475
1748.4123970357223,1436
1750.413250449582,1417
1752.4135994474318,1476
1754.4134442876993,1510
1756.4127852288902,1488
1758.4116225295893,1415
1760.4099564484595,1431
1762.407787244244,1415
1764.405115175764,1377
1766.4019405019203,1425
1768.3982634816916,1399
1770.3940843741357,1366
1772.3894034383907,1442
1774.3842209336717,1362
1776.378537119274,1408
1778.372352254571,1348
1780.3656665990156,1366
1782.3584804121397,1432
1784.3507939535534,1369
1786.3426074829463,1431
1788.3339212600863,1354
1790.3247355448211,1346
1792.3150505970766,1378
1794.3048666768573,1376
1796.2941840442477,1391
1798.2830029594106,1363
1800.2713236825884,1447
1802.2591464741004,1318
1804.2464715943465,1365
1806.2332993038058,1325
1808.2196298630352,1350
1810.2054635326708,1411
1812.190800573428,1399
1814.175641246101,1396
1816.1599858115628,1353
1818.1438345307652,1367
1820.127187664738,1373
1822.1100454745924,1350
1824.092408221516,1377
1826.0742761667766,1322
1828.055649571721,1289
1830.0365286977735,1370
1832.0169138064398,1316
1833.9968051593014,1339
1835.9762030180214,1403
1837.9551076443408,1350
1839.9335193000788,1440
1841.9114382471344,1379
1843.888864747485,1346
1845.8657990631878,1368
1847.842241456378,1325
1849.8181921892697,1388
1851.7936515241558,1362
1853.7686197234098,1355
1855.7430970494815,1335
1857.7170837649014,1411
1859.6905801322787,1328
1861.6635864143004,1391
1863.6361028737338,1319
1865.608129773424,1337
1867.5796673762961,1346
1869.5507159453537,1397
1871.521275743678,1382
1873.4913470344313,1430
1875.4609300808534,1353
1877.4300251462632,1364
1879.3986324940588,1376
1881.366752387717,1382
1883.3343850907936,1397
1885.3015308669228,1359
1887.268189979819,1369
1889.2343626932739,1407
1891.2000492711595,1428
1893.1652499774254,1434
1895.1299650761011,1413
1897.0941948312952,1387
1899.0579395071945,1402
1901.0211993680641,1370
1902.98397467825,1430
1904.9462657021745,1382
1906.9080727043415,1433
1908.869395949332,1397
1910.8302357018065,1427
1912.790592226504,1420
1914.7504657882428,1397
1916.7098566519212,1378
1918.6687650825133,1391
1920.6271913450764,1396
1922.5851357047422,1392
1924.5425984267245,1426
1926.499579776314,1423
1928.4560800188833,1383
1930.4120994198802,1383
1932.367638244833,1437
1934.32269675935,1421
1936.2772752291175,1442
1938.231373919899,1352
1940.1849930975404,1388
1942.1381330279637,1377
1944.0907939771696,1355
1946.0429762112412,1377
1947.9946799963363,1425
1949.9459055986945,1452
1951.896653284633,1359
1953.8469233205478,1423
1955.7967159729142,1399
1957.7460315082863,1352
1959.6948701932974,1326
1961.6432322946594,1405
1963.5911180791632,1364
1965.5385278136787,1372
1967.4854617651545,1347
1969.4319202006182,1363
1971.377903387176,1360
1973.3234115920136,1357
1975.268445082395,1344
1977.2130041256642,1379
1979.1570889892423,1350
1981.1006999406304,1380
1983.04383724741,1365
1984.986501177238,1325
1986.928691997853,1287
1988.8704099770712,1386
1990.811655382789,1307
1992.7524284829801,1361
1994.692729545698,1349
1996.6325588390755,1401
1998.5719166313224,1400
2000.5108031907307,1315
2002.4492187856677,1287
2004.387163684583,1332
2006.3246381560011,1332
2008.2616424685298,1330
2010.1981768908527,1356
2012.1342416917332,1318
2014.069837140014,1338
2016.0049635046162,1352
2017.9396210545406,1314
2019.8738100588666,1315
2021.8075307867502,1345
2023.740783507431,1339
2025.6735684902228,1265
2027.6058860045214,1286
2029.5377363198004,1309
2031.4691197056118,1281
2033.4000364315875,1313
2035.3304867674374,1261
2037.260470982952,1307
2039.189989347998,1320
2041.1190421325232,1293
2043.047629606554,1266
2044.9757520401945,1302
2046.9034097036288,1293
2048.8306028671195,1275
2050.7573318010086,1338
2052.683596775716,1287
2054.609398061742,1261
2056.5347359296647,1314
2058.4596106501403,1369
2060.384022493906,1306
2062.3079717317764,1268
2064.231458634646,1269
2066.1544834734873,1346
2068.077046519352,1325
2069.99914804337,1303
2071.9207883167524,1286
2073.8419676107865,1330
2075.7626861968406,1377
2077.6829443463607,1287
2079.6027423308715,1296
2081.522080421977,1329
2083.440958891362,1354
2085.359378010786,1381
2087.2773380520907,1331
2089.194839287196,1376
2091.111881988101,1375
2093.0284664268825,1311
2094.9445928756973,1338
2096.86026160678,1330
2098.775472892446,1351
2100.690227005088,1320
2102.604524217178,1275
2104.5183648012676,1325
2106.431749029985,1395
2108.34467717604,1308
2110.2571495122206,1374
2112.169166311393,1311
2114.080727846503,1313
2115.9918343905747,1379
2117.902486216711,1321
2119.8126835980956,1323
2121.722426807987,1298
2123.6317161197285,1317
2125.5405518067364,1354
2127.448934142509,1338
2129.356863400624,1293
2131.264339854737,1318
2133.1713637785815,1328
2135.077935445972,1333
2136.9840551308002,1343
2138.889723107037,1356
2140.7949396487334,1328
2142.699705030018,1346
2144.6040195250994,1336
2146.507883408264,1295
2148.4112969538774,1331
2150.3142604363848,1327
2152.2167741303097,1352
2154.1188383102535,1378
2156.0204532508997,1350
2157.9216192270064,1332
2159.822336513414,1350
2161.7226053850413,1377
2163.622426116884,1352
2165.5217989840185,1366
2167.4207242616,1380
2169.319202224862,1389
2171.2172331491165,1369
2173.1148173097563,1363
2175.0119549822507,1342
2176.90864644215,1369
2178.8048919650823,1400
2180.7006918267534,1349
2182.596046302952,1385
2184.4909556695407,1365
2186.3854202024645,1398
2188.279440177746,1455
2190.173015871487,1438
2192.066147559868,1445
2193.958835519149,1440
2195.851080025667,1361
2197.7428813558417,1399
2199.6342397861667,1351
2201.5251555932186,1393
2203.415629053651,1458
2205.3056604441986,1427
2207.19525004167,1396
2209.084398122958,1393
2210.9731049650327,1400
2212.861370844941,1358
2214.749196039812,1438
2216.636580826851,1400
2218.523525483344,1407
2220.410030286655,1387
2222.296095514226,1389
2224.1817214435805,1404
2226.066908352319,1384
2227.951656518121,1416
2229.835966218746,1412
2231.71983773203,1423
2233.6032713358913,1380
2235.486267308324,1469
2237.3688259274036,1371
2239.2509474712824,1450
2241.132632218193,1397
2243.013880446447,1464
2244.8946924344323,1432
2246.7750684606203,1451
2248.6550088035574,1441
2250.534513741871,1362
2252.413583554265,1411
2254.292218519526,1422
2256.170418916517,1361
2258.0481850241786,1319
2259.925517121534,1386
2261.8024154876825,1441
2263.678880401803,1418
2265.5549121431536,1407
2267.430510991071,1454
2269.305677224971,1418
2271.180411124348,1419
2273.0547129687766,1446
2274.9285830379076,1390
2276.8020216114737,1460
2278.6750289692845,1414
2280.5476053912294,1421
2282.4197511572766,1419
2284.2914665474727,1440
2286.162751841943,1486
2288.0336073208937,1485
2289.904033264608,1449
2291.774029953448,1402
2293.6435976678554,1433
2295.5127366883517,1383
2297.381447295534,1379
2299.2497297700825,1343
2301.1175843927526,1332
2302.9850114443825,1294
2304.852011205885,1334
2306.7185839582553,1335
2308.5847299825664,1283
2310.4504495599676,1225
2312.3157429716925,1268
2314.1806104990483,1193
2316.0450524234247,1231
2317.9090690262888,1271
2319.772660589186,1252
2321.635827393742,1240
2323.498569721661,1227
2325.3608878547248,1254
2327.2227820747967,1227
2329.0842526638157,1270
2330.945299903803,1218
2332.805924076857,1256
2334.6661254651535,1209
2336.525904350951,1198
2338.3852610165827,1254
2340.244195744464,1215
2342.102708817088,1212
2343.9608005170253,1246
2345.8184711269287,1275
2347.675720929526,1225
2349.532550207628,1235
2351.38895924412,1246
2353.24494832197,1264
2355.100517724223,1282
2356.955667734004,1305
2358.810398634514,1298
2360.664710709037,1257
2362.5186042409337,1266
2364.3720795136437,1266
2366.225136810686,1258
2368.0777764156583,1254
2369.929998612237,1337
2371.7818036841777,1265
2373.633191915315,1324
2375.484163589562,1293
2377.3347189909114,1285
2379.184858403434,1287
2381.03458211128,1274
2382.8838903986775,1272
2384.732783549936,1257
2386.5812618494406,1262
2388.4293255816588,1260
2390.2769750311327,1271
2392.1242104824883,1337
2393.971032220427,1276
2395.8174405297295,1297
2397.6634356952563,1287
2399.509018001947,1268
2401.3541877348193,1270
2403.1989451789705,1256
2405.043290619576,1275
2406.8872243418905,1226
2408.730746631247,1290
2410.5738577730594,1256
2412.4165580528183,1300
2414.258847756095,1336
2416.100727168537,1315
2417.9421965758734,1304
2419.783256263912,1326
2421.623906518538,1323
2423.4641476257157,1307
2425.303979871491,1293
2427.143403541984,1300
2428.9824189233977,1292
2430.821026302012,1285
2432.6592259641866,1317
2434.497018196361,1379
2436.33440328505,1328
2438.171381516851,1310
2440.00795317844,1310
2441.844118556569,1316
2443.6798779380724,1308
2445.5152316098606,1313
2447.3501798589255,1257
2449.1847229723357,1336
2451.0188612372403,1365
2452.8525949408663,1297
2454.6859243705203,1356
2456.518849813587,1303
2458.3513715575314,1291
2460.183489889895,1335
2462.015205098301,1277
2463.8465174704493,1320
2465.67742729412,1305
2467.5079348571717,1368
2469.338040447542,1334
2471.1677443532476,1343
2472.9970468623833,1379
2474.825948263123,1341
2476.6544488437207,1310
2478.482548892508,1318
2480.310248697896,1368
2482.137548548374,1396
2483.9644487325118,1304
2485.790949538956,1377
2487.617051256433,1319
2489.44275417375,1343
2491.26805857979,1324
2493.0929647635157,1333
2494.917473013971,1329
2496.741583620276,1348
2498.5652968716304,1294
2500.3886130573137,1355
2502.2115324666834,1370
2504.0340553891765,1389
2505.856182114308,1373
2507.6779129316733,1334
2509.499248130945,1360
2511.3201880018764,1387
2513.140732834298,1408
2514.9608829181198,1347
2516.780638543331,1309
2518.6,1376
2520.418967578273,1420
2522.237541568376,1408
2524.0557222606144,1391
2525.8735099453706,1449
2527.6909049131086,1443
2529.507907454368,1396
2531.32451785977,1412
2533.140736420014,1407
2534.9565634258774,1449
2536.771999168218,1471
2538.5870439379714,1441
2540.4016980261526,1455
2542.2159617238544,1452
2544.02983532225,1471
2545.8433191125914,1503
2547.656413386209,1469
2549.4691184345115,1501
2551.2814345489874,1441
2553.093362021204,1531
2554.904901142808,1555
2556.716052205523,1538
2558.526815501153,1559
2560.3371913215824,1574
2562.147179958771,1600
2563.956781704761,1602
2565.7659968516705,1585
2567.5748256916986,1594
2569.3832685171224,1588
2571.1913256202984,1576
2572.9989972936614,1597
2574.806283829725,1656
2576.613185521084,1636
2578.4197026604074,1639
2580.2258355404483,1664
2582.031584454035,1643
2583.836949694077,1702
2585.6419315535613,1651
2587.4465303255533,1688
2589.2507463032002,1680
2591.0545797797245,1666
2592.8580310484303,1627
2594.6611004026995,1735
2596.463788135992,1686
2598.266094541849,1628
2600.0680199138874,1703
2601.869564545807,1724
2603.670728731383,1704
2605.4715127644704,1726
2607.2719169390048,1745
2609.071941548998,1704
2610.8715868885433,1699
2612.670853251811,1699
2614.469740933052,1681
2616.268250226594,1694
2618.0663814268455,1693
2619.864134828292,1672
2621.6615107255006,1647
2623.458509413115,1596
2625.2551311858597,1636
2627.0513763385347,1642
2628.8472451660223,1622
2630.6427379632833,1581
2632.4378550253564,1614
2634.232596647359,1530
2636.026963124488,1516
2637.8209547520187,1579
2639.6145718253065,1561
2641.407814639785,1549
2643.200683490966,1451
2644.9931786744414,1528
2646.7853004858807,1492
2648.577049221034,1499
2650.3684251757277,1442
2652.1594286458712,1450
2653.9500599274484,1472
2655.740319316525,1428
2657.5302071092437,1447
2659.3197236018286,1431
2661.10886909058,1478
2662.8976438718782,1399
2664.686048242183,1488
2666.4740824980327,1416
2668.2617469360443,1396
2670.0490418529134,1480
2671.8359675454153,1355
2673.622524310403,1360
2675.408712444811,1351
2677.1945322456495,1366
2678.979984010009,1358
2680.76506803506,1366
2682.5497846180497,1347
2684.334134056306,1354
2686.1181166472343,1330
2687.9017326883213,1297
2689.6849824771293,1321
2691.4678663113013,1313
2693.2503844885596,1292
2695.032537306705,1353
2696.8143250636167,1317
2698.5957480572542,1257
2700.3768065856534,1308
2702.1575009469316,1316
2703.937831439283,1308
2705.717798360982,1334
2707.4974020103837,1339
2709.276642685917,1331
2711.055520686095,1263
2712.834036309506,1243
2714.612189854819,1260
2716.389981620782,1234
2718.1674119062204,1292
2719.944481010041,1233
2721.721189231226,1269
2723.4975368688415,1269
2725.273524222027,1229
2727.0491515900053,1232
2728.824419272075,1292
2730.5993275676146,1246
2732.3738767760838,1256
2734.148067197016,1288
2735.921899130031,1223
2737.6953728748194,1227
2739.468488731156,1200
2741.2412469988926,1228
2743.0136479779617,1231
2744.785691968372,1209
2746.5573792702116,1184
2748.3287101836504,1243
2750.099685008934,1265
2751.870304046388,1246
2753.640567596418,1267
2755.4104759595057,1264
2757.1800294362156,1226
2758.949228327187,1257
2760.7180729331412,1233
2762.486563554877,1232
2764.254700493272,1210
2766.022484049284,1239
2767.789914523947,1249
2769.5569922183786,1207
2771.3237174337705,1224
2773.090090471394,1189
2774.8561116326036,1206
2776.6217812188274,1244
2778.3870995315756,1256
2780.1520668724356,1238
2781.9166835430747,1294
2783.6809498452394,1230
2785.444866080754,1256
2787.2084325515225,1265
2788.971649559527,1250
2790.73451740683,1227
2792.4970363955713,1259
2794.2592068279705,1231
2796.0210290063264,1187
2797.7825032330147,1168
2799.543629810493,1226
2801.304409041296,1240
2803.0648412280366,1219
2804.8249266734088,1240
2806.5846656801846,1245
2808.344058551212,1267
2810.1031055894246,1237
2811.8618070978273,1160
2813.6201633795085,1209
2815.378174737636,1209
2817.1358414754536,1248
2818.893163896285,1216
2820.6501423035334,1245
2822.4067770006814,1233
2824.1630682912883,1213
2825.9190164789957,1243
2827.6746218675207,1192
2829.429884760661,1255
2831.184805462294,1212
2832.9393842763743,1227
2834.693621506936,1147
2836.4475174580916,1201
2838.201072434034,1188
2839.954286739034,1244
2841.707160677441,1242
2843.459694553685,1241
2845.2118886722724,1205
2846.96374333779,1175
2848.7152588549034,1200
2850.4664355283567,1227
2852.217273662973,1228
2853.9677735636546,1185
2855.7179355353833,1222
2857.4677598832186,1202
2859.217246912299,1190
2860.9663969278427,1167
2862.715210235146,1164
2864.4636871395846,1170
2866.211827946614,1245
2867.9596329617652,1203
2869.7071024906536,1212
2871.4542368389684,1219
2873.20103631248,1216
2874.947501217038,1234
2876.6936318585695,1199
2878.4394285430812,1216
2880.1848915766604,1196
2881.9300212654707,1212
2883.6748179157553,1236
2885.4192818338374,1230
2887.1634133261173,1241
2888.907212699077,1225
2890.6506802592744,1241
2892.393816313348,1244
2894.1366211680142,1217
2895.8790951300693,1224
2897.621238506388,1181
2899.363051603925,1253
2901.1045347297118,1194
2902.8456881908596,1221
2904.58651229456,1161
2906.327007348081,1174
2908.067173658772,1270
2909.8070115340597,1227
2911.5465212814497,1243
2913.285703208527,1265
2915.0245576229563,1198
2916.7630848324807,1241
2918.5012851449196,1190
2920.2391588681758,1228
2921.976706310227,1248
2923.7139277791334,1193
2925.4508235830313,1221
2927.187394030137,1228
2928.923639428745,1176
2930.6595600872306,1200
2932.395156314046,1215
2934.1304284177218,1243
2935.8653767068713,1223
2937.6000014901815,1210
2939.3343030764227,1248
2941.068281774442,1217
2942.8019378931644,1197
2944.5352717415976,1246
2946.2682836288236,1260
2948.0009738640065,1219
2949.7333427563885,1209
2951.465390615289,1223
2953.1971177501086,1182
2954.9285244703265,1222
2956.6596110855,1212
2958.3903779052657,1251
2960.1208252393385,1163
2961.8509533975125,1181
2963.5807626896617,1221
2965.3102534257378,1196
2967.0394259157715,1268
2968.768280469873,1234
2970.496817398232,1229
2972.2250370111146,1188
2973.952939618869,1241
2975.6805255319196,1250
2977.4077950607707,1181
2979.134748516006,1225
2980.861386208289,1202
2982.587708448359,1158
2984.313715547037,1230
2986.039407815222,1240
2987.764785563891,1188
2989.489849104102,1207
2991.2145987469908,1190
2992.9390348037705,1176
2994.6631575857346,1176
2996.3869674042576,1182
2998.1104645707887,1237
2999.83364939686,1222
3001.5565221940783,1216
3003.2790832741334,1177
3005.0013329487924,1235
3006.7232715298996,1161
3008.4448993293804,1196
3010.166216659239,1151
3011.887223831558,1207
3013.607921158498,1183
3015.3283089522993,1191
3017.0483875252826,1226
3018.7681571898443,1212
3020.4876182584626,1195
3022.2067710436927,1182
3023.9256158581707,1163
3025.644153014609,1176
3027.362382825801,1238
3029.0803056046193,1188
3030.797921664012,1137
3032.5152313170106,1198
3034.2322348767225,1207
3035.9489326563353,1178
3037.665324969115,1187
3039.3814121284063,1217
3041.097194447633,1152
3042.812672240299,1156
3044.5278458199855,1167
3046.2427155003525,1200
3047.9572815951406,1166
3049.671544418167,1197
3051.38550428333,1210
3053.0991615046073,1225
3054.812516396051,1223
3056.5255692717974,1212
3058.2383204460575,1178
3059.9507702331257,1223
3061.662918947372,1209
3063.3747669032446,1206
3065.0863144152736,1229
3066.7975617980674,1195
3068.508509366309,1154
3070.219157434767,1203
3071.9295063182844,1180
3073.639556331785,1176
3075.3493077902704,1180
3077.058761008821,1227
3078.7679163025964,1196
3080.476773986837,1246
3082.1853343768594,1240
3083.89359778806,1179
3085.6015645359153,1219
3087.3092349359786,1195
3089.016609303884,1193
3090.7236879553434,1224
3092.4304712061476,1203
3094.136959372166,1207
3095.843152769349,1205
3097.5490517137237,1156
3099.2546565213966,1233
3100.959967508554,1235
3102.66498499146,1173
3104.3697092864577,1226
3106.0741407099695,1210
3107.778279578498,1218
3109.482126208622,1185
3111.1856809170004,1202
3112.8889440203716,1211
3114.5919158355528,1254
3116.294596679439,1231
3117.996986869006,1236
3119.6990867213062,1232
3121.4008965534726,1278
3123.102416682717,1219
3124.803647426329,1195
3126.5045891016784,1153
3128.205242026213,1244
3129.90560651746,1182
3131.605682893025,1236
3133.3054714705922,1183
3135.0049725679282,1241
3136.7041865028714,1233
3138.4031135933465,1209
3140.101754157353,1201
3141.800108512971,1188
3143.498176978357,1211
3145.1959598717494,1160
3146.8934575114636,1295
3148.5906702158954,1192
3150.2875983035183,1200
3151.9842420928853,1144
3153.680601902627,1203
3155.376678051456,1143
3157.07247085816,1197
3158.767980641609,1173
3160.463207720748,1169
3162.158152414606,1176
3163.8528150422862,1210
3165.5471959229726,1200
3167.2412953759303,1149
3168.9351137204976,1168
3170.628651276098,1192
3172.3219083622307,1237
3174.014885298474,1181
3175.707582404485,1192
3177.4000000000005,1173
3179.092138404835,1164
3180.7839979388846,1177
3182.47557892212,1204
3184.166881674594,1176
3185.8579065164386,1168
3187.5486537678626,1223
3189.2391237491547,1170
3190.9293167806827,1217
3192.6192331828934,1139
3194.3088732763117,1185
3195.998237381542,1215
3197.687325819268,1194
3199.376138910251,1196
3201.064676975334,1135
3202.7529403354347,1160
3204.4409293115523,1183
3206.1286442247647,1222
3207.816085396229,1199
3209.5032531471825,1260
3211.190147798936,1164
3212.8767696728846,1171
3214.5631190905015,1214
3216.2491963733373,1134
3217.9350018430214,1180
3219.6205358212637,1224
3221.305798629851,1180
3222.990790590651,1155
3224.6755120256103,1139
3226.359963256751,1149
3228.0441446061795,1177
3229.7280563960758,1190
3231.411698948703,1170
3233.0950725863995,1166
3234.778177631587,1166
3236.461014406761,1141
3238.1435832345005,1169
3239.8258844374595,1186
3241.507918338374,1143
3243.1896852600576,1194
3244.8711855254023,1190
3246.552419457381,1168
3248.233387379042,1178
3249.914089613516,1192
3251.59452648401,1198
3253.274698313813,1221
3254.95460542629,1206
3256.6342481448855,1176
3258.313626793125,1211
3259.9927416946084,1168
3261.6715931730196,1133
3263.3501815521176,1184
3265.0285071557437,1132
3266.706570307815,1171
3268.3843713323286,1172
3270.0619105533615,1154
3271.739188295068,1179
3273.4162048816834,1181
3275.0929606375184,1161
3276.769455886966,1189
3278.445690954498,1201
3280.1216661646613,1240
3281.797381842087,1225
3283.4728383114807,1140
3285.1480358976296,1175
3286.8229749253996,1196
3288.4976557197333,1161
3290.172078605655,1169
3291.846243908266,1134
3293.5201519527463,1160
3295.193803064357,1150
3296.8671975684374,1143
3298.5403357904024,1089
3300.21321805575,1190
3301.8858446900567,1135
3303.558216018975,1188
3305.23033236824,1162
3306.9021940636603,1151
3308.57380143113,1193
3310.2451547966184,1157
3311.916254486174,1148
3313.5871008259246,1199
3315.2576941420766,1213
3316.9280347609147,1134
3318.5981230088046,1166
3320.2679592121895,1186
3321.9375436975924,1157
3323.606876791612,1200
3325.27595882093,1119
3326.944790112305,1154
3328.6133709925753,1148
3330.2817017886573,1217
3331.949782827547,1163
3333.617614436319,1185
3335.2851969421245,1156
3336.952530672199,1185
3338.619615953853,1211
3340.286453114475,1174
3341.9530424815357,1196
3343.619384382583,1177
3345.2854791452437,1187
3346.951327097224,1238
3348.6169285663073,1153
3350.2822838803577,1171
3351.947393367319,1163
3353.61225735521,1168
3355.2768761721345,1169
3356.9412501462693,1158
3358.605379605873,1196
3360.2692648792827,1149
3361.9329062949146,1197
3363.596304181263,1167
