CollectionTime,7/9/2024 12:29:17 PM
ExposureUsed,3
CalibratedSpectrum
-962.7078968117929,487
-959.9714848408522,543
-957.2358232597828,573
-954.5009119013725,539
-951.7667505983302,558
-949.0333391832855,561
-946.3006774887896,579
-943.5687653473143,549
-940.837602591253,543
-938.1071890529199,575
-935.3775245645503,571
-932.6486089583007,538
-929.9204420662485,570
-927.1930237203925,562
-924.4663537526524,553
-921.7404319948689,556
-919.0152582788041,551
-916.2908324361409,591
-913.5671542984834,554
-910.8442236973568,558
-908.1220404642074,563
-905.4006044304027,540
-902.679915427231,562
-899.959973285902,538
-897.2407778375464,548
-894.5223289132158,555
-891.8046263438832,572
-889.0876699604426,551
-886.3714595937089,569
-883.6559950744183,563
-880.9412762332282,570
-878.2273029007168,568
-875.5140749073835,544
-872.8015920836489,521
-870.0898542598545,545
-867.3788612662631,529
-864.6686129330585,557
-861.9591090903457,567
-859.2503495681506,533
-856.5423341964203,560
-853.8350628050229,549
-851.1285352237478,551
-848.4227512823054,533
-845.7177108103272,518
-843.0134136373656,550
-840.3098595928943,552
-837.6070485063082,557
-834.9049802069229,557
-832.2036545239757,535
-829.5030712866244,526
-826.8032303239481,578
-824.1041314649472,566
-821.4057745385428,556
-818.7081593735775,575
-816.0112857988148,550
-813.3151536429393,572
-810.6197627345566,573
-807.9251129021936,552
-805.2312039742981,562
-802.5380357792392,543
-799.8456081453069,571
-797.1539209007124,583
-794.462973873588,553
-791.772766891987,584
-789.083299783884,559
-786.3945723771743,547
-783.7065844996748,567
-781.0193359791231,558
-778.3328266431781,553
-775.6470563194197,567
-772.9620248353489,577
-770.2777320183878,564
-767.5941776958798,573
-764.9113616950891,598
-762.2292838432011,584
-759.5479439673222,575
-756.8673418944801,569
-754.1874774516235,593
-751.5083504656222,573
-748.8299607632671,592
-746.15230817127,586
-743.475392516264,582
-740.7992136248035,612
-738.1237713233636,600
-735.4490654383407,575
-732.7750957960521,566
-730.1018622227365,612
-727.4293645445534,606
-724.7576025875837,619
-722.0865761778291,592
-719.4162851412126,613
-716.7467293035781,661
-714.0779084906909,631
-711.409822528237,600
-708.7424712418238,615
-706.0758544569796,624
-703.4099719991541,612
-700.7448236937178,622
-698.0804093659622,654
-695.4167288411002,644
-692.7537819442656,613
-690.0915685005134,601
-687.4300883348199,614
-684.7693412720819,593
-682.1093271371178,648
-679.4500457546669,636
-676.7914969493897,619
-674.1336805458676,620
-671.4765963686034,615
-668.8202442420206,631
-666.1646239904642,652
-663.5097354382001,648
-660.8555784094151,617
-658.2021527282176,652
-655.5494582186366,651
-652.8974947046223,646
-650.2462620100463,662
-647.5957599587009,678
-644.9459883742998,670
-642.2969470804776,644
-639.6486359007902,663
-637.0010546587141,675
-634.3542031776476,670
-631.7080812809096,662
-629.0626887917401,658
-626.4180255333008,675
-623.7740913286734,671
-621.1308860008619,681
-618.4884093727904,659
-615.8466612673046,693
-613.2056415071715,699
-610.5653499150785,650
-607.9257863136347,659
-605.28695052537,697
-602.6488423727357,692
-600.0114616781036,660
-597.3748082637674,693
-594.7388819519412,687
-592.1036825647604,688
-589.4692099242818,695
-586.8354638524829,676
-584.2024441712624,693
-581.5701507024403,682
-578.9385832677575,686
-576.3077416888759,686
-573.6776257873787,690
-571.0482353847704,690
-568.4195703024757,671
-565.7916303618415,672
-563.164415384135,682
-560.5379251905453,682
-557.9121596021815,699
-555.2871184400748,710
-552.6628015251767,702
-550.0392086783606,668
-547.4163397204204,725
-544.794194472071,732
-542.1727727539491,726
-539.5520743866118,729
-536.9320991905377,738
-534.3128469861261,757
-531.6943175936979,795
-529.0765108334947,815
-526.4594265256793,829
-523.8430644903358,966
-521.2274245474689,1026
-518.612506517005,1121
-515.9983102187913,1083
-513.3848354725959,1138
-510.77208209810846,1184
-508.16004991493924,1355
-505.5487387426199,1510
-502.9381484006032,1611
-500.3282787082628,1637
-497.71912948489364,1589
-495.1107005497117,1457
-492.5029917218539,1315
-489.8960028203786,1164
-487.28973366426493,1022
-484.68418407241325,973
-482.07935386364494,909
-479.47524285670266,912
-476.87185087025,900
-474.2691777228715,894
-471.66722323307334,888
-469.0659872192821,889
-466.4654694998459,890
-463.86566989303384,942
-461.26658821703614,932
-458.66822428996414,847
-456.07057792985,887
-453.4736489546475,864
-450.877437182231,851
-448.28194243039627,862
-445.68716451686,863
-443.09310325926003,838
-440.49975847515555,906
-437.9071299820263,895
-435.31521759727354,901
-432.72402113821954,895
-430.13354042210767,904
-427.5437752661022,917
-424.95472548728867,917
-422.36639090267386,863
-419.7787713291855,931
-417.1918665836721,1028
-414.60567648290385,955
-412.0202008435715,990
-409.4354394822874,955
-406.8513922155845,996
-404.26805885991723,997
-401.685439231661,951
-399.103533147112,967
-396.522340422488,967
-393.9418608739278,965
-391.3620943174908,977
-388.7830405691583,970
-386.2046994448317,882
-383.6270707603344,855
-381.05015433141045,814
-378.473949973725,807
-375.8984575028645,759
-373.32367673433623,695
-370.74960748356875,663
-368.1762495659117,638
-365.60360279663576,623
-363.03166699093265,587
-360.4604419639154,544
-357.8899275306178,529
-355.32012350599507,507
-352.7510297049233,508
-350.1826459421999,482
-347.61497203254316,484
-345.04800779059235,468
-342.4817530309082,479
-339.91620756797226,518
-337.35137121618743,525
-334.7872437898774,487
-332.22382510328725,483
-329.66111497058273,497
-327.09911320585127,468
-324.53781962310075,544
-321.9772340362607,520
-319.4173562591816,495
-316.8581861056348,473
-314.2997233893127,514
-311.7419679238294,486
-309.1849195227194,480
-306.62857799943856,528
-304.0729431673641,497
-301.51801483979375,515
-298.963792829947,527
-296.41027695096386,531
-293.85746701590574,576
-291.3053628377552,597
-288.7539642294155,582
-286.2032710037115,557
-283.65328297338897,532
-281.1039999511146,584
-278.5554217494762,601
-276.007548180983,592
-273.4603790580651,623
-270.9139141930734,565
-268.3681533982807,576
-265.8230964858798,610
-263.27874326798565,602
-260.7350935566336,589
-258.1921471637804,641
-255.6499039013039,625
-253.10836358100266,623
-250.56752601459698,656
-248.02739101372765,633
-245.48795838995704,634
-242.94922795476816,636
-240.41119951956557,643
-237.8738728956746,698
-235.33724789434166,801
-232.80132432673452,657
-230.2661020039418,659
-227.73158073697357,672
-225.19776033676033,793
-222.66464061415422,831
-220.1322213799284,723
-217.60050244477725,680
-215.06948361931552,675
-212.53916471408013,684
-210.00954553952818,749
-207.48062590603843,659
-204.9524056239104,704
-202.4248845033651,760
-199.8980623545441,800
-197.37193898751036,757
-194.84651421224817,744
-192.32178783866232,730
-189.79775967657952,736
-187.27442953574644,824
-184.7517972258321,881
-182.2298625564256,852
-179.7086253370378,748
-177.18808537710026,720
-174.66824248596583,728
-172.14909647290835,834
-169.6306471471229,888
-167.11289431772548,851
-164.59583779375328,833
-162.07947738416453,886
-159.5638128978386,1001
-157.04884414357605,1120
-154.53457093009854,1238
-152.02099306604828,1214
-149.50811035998936,1005
-146.99592262040665,980
-144.48442965570587,1068
-141.97363127421409,1040
-139.46352728417958,1181
-136.95411749377126,1337
-134.44540171107985,1264
-131.93737974411636,1046
-129.43005140081357,949
-126.92341648902493,1288
-124.41747481652521,1765
-121.91222619101006,2327
-119.40767042009657,2820
-116.90380731132257,3041
-114.40063667214702,2997
-111.8981583099503,2591
-109.3963720320337,2005
-106.89527764561933,1789
-104.39487495785067,1958
-101.89516377579241,2886
-99.39614390642998,4356
-96.89781515667039,5028
-94.40017733334128,4869
-91.90323024319173,4860
-89.40697369289148,4956
-86.91140748903172,5230
-84.41653143812482,5524
-81.92234534660395,5324
-79.42884902082358,4139
-76.93604226705907,3857
-74.4439248915071,5035
-71.95249670028534,8339
-69.46175749943245,10757
-66.97170709490854,12156
-64.48234529259423,12146
-61.99367189829195,11250
-59.50568671772464,9086
-57.01838955653636,7978
-54.53178022029283,9626
-52.045858514480074,11587
-49.560624244506016,13023
-47.07607721569923,15056
-44.59221723330904,15798
-42.10904410250669,15777
-39.62655762838392,13211
-37.14475761595372,11130
-34.66364387015028,11444
-32.18321619582866,11071
-29.70347439776515,10999
-27.224418280657005,11423
-24.74604764912317,12153
-22.26836230770266,16683
-19.7913620608565,28634
-17.315046712966478,50099
-14.83941606833514,65038
-12.36446993118659,65038
-9.89020810566592,65038
-7.416630395839093,65038
-4.94373660569363,65038
-2.471526539137585,65038
-6.821210263296962E-13,65038
2.47084320796705,65038
4.941003281093458,65038
7.410480415786196,65038
9.879274808531363,65038
12.347386655893956,65038
14.814816154518212,65038
17.28156350112681,65038
19.74762889252179,65038
22.21301252558385,65038
24.67771459727237,21327
27.141735304626195,3948
29.605074844762612,2549
32.06773341487792,2190
34.52971121224755,2044
36.99100843422559,2026
39.45162527824516,1987
41.91156194181792,1821
44.370818622535126,1853
46.82939551806646,1466
49.287292826160524,1515
51.74451074464503,1533
54.201049471426245,1566
56.65690920448981,1430
59.112090141899785,1238
61.56659248179983,1297
64.02041642241159,1120
66.4735621620365,1074
68.92602989905402,1101
71.37781983192338,1064
73.82893215918205,1273
76.27936707944684,1128
78.72912479141326,1112
81.17820549385567,1072
83.62660938562783,1216
86.07433666566146,1206
88.5213875329681,1122
90.96776218663751,1045
93.41346082583925,1021
95.85848364982041,1060
98.30283085790859,1120
100.7465026495089,1244
103.18949922410604,1175
105.63182078126385,1046
108.07346752062438,1092
110.51443964190923,1034
112.95473734491827,1057
115.39436082953114,1033
117.83331029570547,937
120.27158594347827,817
122.7091879729652,924
125.1461165843615,1133
127.58237197794062,1115
130.01795435405518,965
132.4528639131364,981
134.88710085569494,976
137.32066538231982,910
139.75355769367923,915
142.1857779905207,949
144.61732647366978,914
147.04820334403132,905
149.47840880258934,1015
151.90794305040674,997
154.33680628862487,1034
156.76499871846443,1194
159.19252054122433,1358
161.61937195828352,1516
164.04555317109896,1616
166.47106438120693,1703
168.89590579022217,1845
171.320077599839,2116
173.7435800118302,2157
176.16641322804742,2130
178.58857745042144,2268
181.01007288096173,2304
183.43089972175687,2480
185.85105817497413,2359
188.27054844285988,2404
190.6893707277394,2286
193.10752523201643,2352
195.5250121581745,2556
197.9418317087751,2577
200.3579840864594,2488
202.7734694939469,2523
205.18828813403627,2524
207.6024402096051,2677
210.01592592360964,2754
212.42874547908548,2667
214.84089907914665,2676
217.2523869269868,2764
219.66320922587727,2775
222.0733661791695,2623
224.48285799029293,2603
226.8916848627572,2599
229.29984700014882,2710
231.7073446061355,2740
234.11417788446204,2638
236.520347038953,2651
238.92585227351185,2728
241.33069379212054,2938
243.73487179884035,2898
246.1383864978112,2969
248.541238093252,2947
250.9434267894609,2989
253.34495279081432,2947
255.74581630176783,3083
258.1460175268563,2921
260.54555667069314,3023
262.9444339379703,3083
265.3426495334594,2991
267.7402036620107,3008
270.1370965285529,2821
272.53332833809407,2743
274.9288992957214,2650
277.32380960660055,2579
279.718059475976,2577
282.1116491091717,2577
284.5045787115897,2609
286.89684848871195,2622
289.2884586460981,2626
291.67940938938807,2645
294.0697009242996,2625
296.4593334566299,2600
298.84830719225477,2681
301.23662233712923,2569
303.6242790972866,2556
306.01127767884,2490
308.39761828798066,2400
310.78330113097934,2418
313.16832641418534,2424
315.5526943440269,2408
317.9364051270112,2421
320.3194589697242,2339
322.70185607883093,2428
325.0835966610754,2357
327.4646809232805,2273
329.8451090723478,2203
332.2248813152577,2252
334.6039978590701,2149
336.9824589109231,2270
339.36026467803447,2244
341.7374153677,2170
344.113911187295,2162
346.48975234427337,2146
348.8649390461686,2182
351.2394715005918,2186
353.61334991523415,2232
355.9865744978655,2156
358.35914545633375,2123
360.73106299856715,2119
363.10232733257146,2159
365.47293866643247,2085
367.84289720831396,2104
370.2122031664593,2083
372.5808567491905,2062
374.9488581649083,2077
377.31620762209275,2119
379.6829053293021,2069
382.0489514951745,2128
384.4143463284262,2035
386.7790900378528,2086
389.14318283232853,2059
391.50662492080653,2021
393.86941651231916,1986
396.23155781597745,2073
398.5930490409713,2033
400.9538903965696,2029
403.3140820921202,2014
405.6736243370498,2020
408.03251734086336,1957
410.3907613131465,1964
412.74835646356166,2002
415.10530300185144,2060
417.4616011378372,1976
419.81725108141893,1996
422.1722530425758,2015
424.5266072313656,2059
426.880313857925,1959
429.2333731324701,1973
431.58578526529516,1957
433.9375504667738,1893
436.2886689473588,1976
438.63914091758113,2004
440.9889665880513,1939
443.33814616945835,1887
445.68667987257015,1952
448.03456790823395,1879
450.3818104873759,1890
452.72840782100013,1924
455.07436012019105,1911
457.41966759611057,1904
459.7643304600007,1885
462.10834892318155,1910
464.4517231970525,1938
466.79445349309174,1907
469.1365400228566,1956
471.4779829979826,1925
473.81878263018564,1974
476.15893913125876,1966
478.4984527130747,1938
480.8373235875855,2025
483.17555196682144,2084
485.5131380628919,2067
487.8500820879857,2183
490.1863842543697,2318
492.52204477439034,2458
494.8570638604725,2614
497.1914417251204,2919
499.52517858091653,3296
501.85827464052306,3516
504.19073011668036,3728
506.5225452222086,3747
508.85372017000566,3582
511.18425517304956,3513
513.514150444396,3646
515.8434061971808,4285
518.1720226446176,5197
520.4999999999999,5520
522.8273384766991,5116
525.1540382881666,4621
527.480099647932,4017
529.8055227696037,3335
532.1303078668694,2715
534.454455153496,2366
536.777964843328,2218
539.1008371502907,2118
541.4230722883866,2124
543.744670471698,2060
546.0656319143858,2111
548.3859568306899,2042
550.7056454349294,2064
553.0246979415016,2031
555.3431145648834,1988
557.6608955196306,1912
559.978041020377,1965
562.2945512818363,1893
564.6104265188006,1956
566.9256669461412,2038
569.2402727788082,2004
571.5542442318302,1995
573.8675815203156,2077
576.1802848594508,2076
578.4923544645015,2037
580.8037905508126,2045
583.114593333807,1988
585.4247630289875,2082
587.7342998519354,1985
590.0432040183106,2030
592.3514757438526,2048
594.6591152443794,2015
596.9661227357875,2044
599.2724984340531,2071
601.578242555231,2030
603.8833553154542,2023
606.1878369309362,2011
608.4916876179676,2016
610.7949075929192,1959
613.0974970722403,1969
615.3994562724587,1942
617.7007854101818,2002
620.0014847020951,1962
622.3015543649641,2065
624.6009946156324,2021
626.8998056710224,1988
629.1979877481361,2009
631.4955410640538,2067
633.7924658359349,2088
636.0887622810175,2010
638.3844306166192,2053
640.6794710601358,1987
642.9738838290426,1965
645.2676691408932,2029
647.5608272133207,2066
649.853358264037,2015
652.1452625108324,1999
654.4365401715764,2039
656.7271914642178,2037
659.0172166067838,2098
661.3066158173809,2043
663.5953893141935,2035
665.8835373154867,2038
668.1710600396028,2092
670.4579577049639,2042
672.7442305300709,2005
675.0298787335033,2055
677.3149025339197,2059
679.599302150058,1978
681.8830778007342,2021
684.1662297048437,2060
686.4487580813608,1996
688.7306631493387,2018
691.0119451279091,2151
693.2926042362834,2061
695.5726406937516,2056
697.8520547196814,2043
700.1308465335215,1998
702.4090163547982,2074
704.6865644031171,2036
706.9634908981619,1999
709.2397960596965,2007
711.5154801075631,2021
713.7905432616823,2016
716.0649857420548,2082
718.3388077687592,2100
720.612009561953,2078
722.8845913418733,2012
725.1565533288352,1958
727.427895743234,2036
729.6986188055427,2032
731.9687227363137,1946
734.238207756178,1953
736.5070740858458,2032
738.7753219461066,2019
741.0429515578281,2020
743.3099631419569,2024
745.5763569195191,2017
747.8421331116193,2099
750.1072919394409,2110
752.3718336242467,1941
754.6357583873777,2014
756.8990664502545,2015
759.1617580343765,2026
761.423833361321,1986
763.6852926527457,1926
765.9461361303862,1998
768.206364016058,2057
770.4659765316536,2019
772.7249738991469,2076
774.9833563405886,2049
777.2411240781092,1999
779.4982773339183,2042
781.7548163303044,1954
784.010741289634,2030
786.2660524343538,2075
788.5207499869881,2040
790.7748341701416,2048
793.0283052064964,2098
795.2811633188143,1943
797.5334087299362,2047
799.7850416627813,2089
802.0360623403484,2062
804.2864709857143,2069
806.5362678220353,2103
808.7854530725468,2091
811.0340269605625,2068
813.2819897094754,2019
815.5293415427581,2047
817.77608268396,2111
820.0222133567116,2102
822.2677337847211,2056
824.5126441917765,2110
826.7569448017433,2066
829.0006358385675,2093
831.2437175262731,2057
833.4861900889629,2068
835.7280537508192,2013
837.9693087361026,2014
840.2099552691533,2070
842.4499935743896,2072
844.689423876309,2015
846.9282463994886,2009
849.1664613685833,2071
851.4040690083276,2063
853.6410695435349,2069
855.877463199097,2088
858.1132501999847,2120
860.3484307712487,2016
862.5830051380175,2049
864.8169735254988,1992
867.0503361589791,2113
869.2830932638243,2118
871.5152450654786,2107
873.7467917894654,2071
875.9777336613873,2074
878.2080709069252,2137
880.4378037518389,2053
882.666932421968,2088
884.8954571432301,2143
887.1233781416219,2070
889.3506956432192,2152
891.5774098741766,2121
893.803521060728,2157
896.0290294291852,2067
898.2539352059397,2142
900.4782386174619,2137
902.7019398903011,2103
904.925039251085,2111
907.147536926521,2186
909.3694331433943,2089
911.59072812857,2107
913.8114221089921,2138
916.0315153116827,2081
918.2510079637437,2086
920.4699002923547,2144
922.6881925247761,2003
924.905884888345,2023
927.1229776104793,2108
929.3394709186747,2141
931.555365040506,2090
933.7706602036275,1980
935.9853566357709,2013
938.1994545647489,2081
940.4129542184515,2066
942.6258558248488,2096
944.8381596119883,2107
947.0498658079974,2130
949.2609746410825,2124
951.4714863395287,2129
953.6814011316998,2045
955.8907192460387,1989
958.0994409110671,2024
960.3075663553858,2001
962.5150958076741,2064
964.7220294966913,2074
966.928367651274,2011
969.1341105003388,1992
971.3392582728806,1950
973.5438111979742,1946
975.747769504772,2015
977.9511334225061,1960
980.153903180487,1953
982.3560790081052,1953
984.5576611348289,1939
986.7586497902058,1978
988.9590452038618,2002
991.158847605503,1897
993.3580572249133,1893
995.5566742919558,1856
997.7546990365728,1846
999.952131688785,1816
1002.1489724786926,1761
1004.3452216364743,1776
1006.5408793923874,1763
1008.7359459767691,1800
1010.9304216200343,1756
1013.1243065526781,1735
1015.3176010052733,1712
1017.510305208472,1798
1019.7024193930064,1650
1021.8939437896848,1635
1024.0848786293977,1696
1026.2752241431122,1683
1028.4649805618747,1757
1030.6541481168115,1717
1032.842727039127,1659
1035.0307175601051,1676
1037.2181199111074,1619
1039.4049343235752,1705
1041.591161029029,1644
1043.7768002590683,1633
1045.9618522453698,1645
1048.1463172196918,1651
1050.3301954138697,1669
1052.513487059818,1672
1054.69619238953,1685
1056.8783116350783,1662
1059.0598450286152,1673
1061.2407928023704,1668
1063.4211551886528,1656
1065.6009324198508,1610
1067.780124728432,1647
1069.9587323469414,1645
1072.1367555080046,1630
1074.314194444325,1622
1076.4910493886855,1618
1078.667320573947,1626
1080.843008233051,1654
1083.0181125990161,1588
1085.1926339049414,1522
1087.3665723840027,1567
1089.5399282694575,1610
1091.7127017946405,1645
1093.8848931929647,1623
1096.0565026979243,1619
1098.2275305430899,1670
1100.3979769621128,1591
1102.567842188722,1654
1104.737126456726,1574
1106.9058300000124,1593
1109.0739530525475,1546
1111.2414958483764,1547
1113.4084586216231,1611
1115.5748416064907,1480
1117.7406450372605,1519
1119.9058691482942,1618
1122.0705141740304,1554
1124.2345803489884,1507
1126.3980679077658,1643
1128.5609770850388,1586
1130.7233081155623,1498
1132.8850612341707,1588
1135.0462366757774,1596
1137.2068346753745,1557
1139.3668554680326,1581
1141.526299288901,1535
1143.68516637321,1549
1145.8434569562655,1496
1148.001171273455,1537
1150.158309560244,1549
1152.3148720521767,1520
1154.470858984876,1472
1156.626270594044,1563
1158.7811071154629,1488
1160.9353687849912,1501
1163.089055838569,1503
1165.242168512213,1477
1167.3947070420209,1495
1169.5466716641677,1457
1171.6980626149075,1474
1173.8488801305748,1530
1175.9991244475814,1481
1178.1487958024186,1455
1180.2978944316555,1523
1182.4464205719428,1464
1184.5943744600072,1530
1186.7417563326567,1520
1188.8885664267755,1453
1191.0348049793297,1476
1193.1804722273619,1547
1195.325568407995,1516
1197.4700937584303,1476
1199.614048515948,1519
1201.7574329179074,1513
1203.900247201746,1572
1206.042491604982,1499
1208.1841663652099,1580
1210.3252717201053,1521
1212.465807907422,1494
1214.6057751649923,1571
1216.7451737307279,1504
1218.8840038426192,1442
1221.0222657387353,1503
1223.1599596572241,1558
1225.2970858363137,1537
1227.4336445143094,1544
1229.5696359295966,1528
1231.705060320639,1473
1233.8399179259786,1549
1235.9742089842384,1590
1238.107933734118,1598
1240.2410924143974,1499
1242.373685263935,1509
1244.5057125216676,1532
1246.6371744266116,1504
1248.7680712178621,1536
1250.898403134593,1575
1253.028170416058,1592
1255.1573733015875,1597
1257.2860120305932,1572
1259.4140868425648,1559
1261.54159797707,1611
1263.6685456737569,1585
1265.7949301723515,1584
1267.9207517126597,1537
1270.046010534565,1549
1272.1707068780306,1532
1274.2948409830983,1587
1276.4184130898889,1578
1278.541423438603,1591
1280.6638722695184,1643
1282.785759822993,1594
1284.9070863394636,1647
1287.0278520594447,1627
1289.1480572235314,1615
1291.2677020723963,1700
1293.3867868467923,1613
1295.5053117875495,1624
1297.623277135579,1629
1299.740683131868,1657
1301.8575300174857,1650
1303.973818033578,1648
1306.0895474213703,1742
1308.2047184221678,1673
1310.3193312773528,1690
1312.4333862283888,1660
1314.5468835168163,1731
1316.659823384255,1649
1318.7722060724045,1643
1320.8840318230418,1672
1322.9953008780249,1697
1325.1060134792888,1639
1327.2161698688478,1653
1329.3257702887959,1664
1331.4348149813054,1695
1333.5433041886276,1680
1335.6512381530933,1659
1337.7586171171101,1669
1339.8654413231675,1713
1341.9717110138317,1597
1344.0774264317488,1672
1346.1825878196432,1696
1348.2871954203192,1624
1350.3912494766587,1644
1352.4947502316231,1662
1354.5976979282532,1657
1356.7000928096686,1658
1358.8019351190665,1648
1360.9032250997243,1610
1363.0039629949988,1614
1365.1041490483235,1644
1367.2037835032133,1619
1369.3028666032606,1620
1371.401398592137,1692
1373.4993797135926,1630
1375.5968102114575,1587
1377.6936903296396,1664
1379.7900203121262,1713
1381.8858004029835,1609
1383.9810308463561,1672
1386.075711886469,1675
1388.1698437676241,1656
1390.2634267342032,1670
1392.356461030667,1655
1394.4489469015557,1632
1396.5408845914872,1679
1398.6322743451592,1738
1400.7231164073469,1751
1402.813411022907,1679
1404.903158436773,1730
1406.9923588939578,1652
1409.0810126395531,1768
1411.1691199187303,1733
1413.2566809767386,1748
1415.343696058907,1726
1417.4301654106425,1781
1419.5160892774315,1796
1421.6014679048399,1744
1423.6863015385125,1780
1425.7705904241707,1801
1427.8543348076178,1841
1429.9375349347342,1840
1432.0201910514802,1768
1434.102303403894,1872
1436.1838722380944,1776
1438.2648978002767,1814
1440.3453803367174,1898
1442.4253200937692,1782
1444.5047173178677,1882
1446.5835722555234,1890
1448.6618851533285,1948
1450.739656257952,1954
1452.8168858161434,1980
1454.8935740747306,1903
1456.96972128062,1956
1459.045327680797,2039
1461.120393522327,1991
1463.1949190523528,2079
1465.2689045180973,2106
1467.3423501668608,2072
1469.415256246024,2080
1471.4876230030463,2199
1473.559450685465,2221
1475.6307395408976,2257
1477.7014898170391,2242
1479.771701761665,2227
1481.8413756226287,2264
1483.9105116478618,2239
1485.9791100853772,2352
1488.0471711832643,2380
1490.1146951896926,2351
1492.1816823529098,2362
1494.2481329212433,2402
1496.3140471430984,2414
1498.3794252669609,2344
1500.4442675413939,2396
1502.5085742150404,2427
1504.572345536622,2396
1506.6355817549388,2437
1508.6982831188702,2374
1510.7604498773744,2454
1512.8220822794883,2395
1514.8831805743293,2468
1516.9437450110909,2464
1519.003775839048,2469
1521.0632733075522,2540
1523.1222376660367,2499
1525.1806691640113,2547
1527.2385680510652,2542
1529.2959345768668,2545
1531.3527689911643,2595
1533.4090715437833,2557
1535.4648424846291,2546
1537.5200820636855,2588
1539.5747905310159,2671
1541.6289681367616,2597
1543.6826151311434,2590
1545.7357317644614,2704
1547.7883182870937,2657
1549.8403749494987,2769
1551.8919020022113,2768
1553.9428996958477,2797
1555.9933682811015,2828
1558.0433080087469,2918
1560.0927191296346,3030
1562.1416018946961,2919
1564.1899565549415,2951
1566.2377833614592,2998
1568.2850825654164,2938
1570.3318544180606,2988
1572.3780991707158,2892
1574.423817074788,2757
1576.4690083817595,2792
1578.5136733431923,2656
1580.5578122107272,2620
1582.601425236085,2486
1584.6445126710646,2477
1586.6870747675434,2362
1588.7291117774776,2267
1590.7706239529034,2205
1592.8116115459347,2171
1594.8520748087658,2127
1596.8920139936686,2073
1598.9314293529933,2009
1600.9703211391711,1906
1603.008689604711,1902
1605.0465350022005,1905
1607.0838575843068,1913
1609.1206576037753,1861
1611.1569353134305,1764
1613.1926909661765,1852
1615.2279248149953,1757
1617.2626371129481,1768
1619.2968281131757,1720
1621.3304980688963,1701
1623.3636472334088,1669
1625.39627586009,1716
1627.428384202396,1711
1629.459972513861,1686
1631.4910410480993,1705
1633.5215900588028,1705
1635.551619799744,1669
1637.5811305247717,1661
1639.6101224878166,1640
1641.6385959428862,1674
1643.6665511440683,1643
1645.693988345528,1621
1647.7209078015112,1640
1649.7473097663405,1634
1651.7731944944203,1588
1653.7985622402307,1647
1655.823413258333,1591
1657.847747803366,1578
1659.8715661300494,1615
1661.8948684931793,1637
1663.9176551476316,1579
1665.9399263483624,1573
1667.9616823504057,1542
1669.982923408873,1614
1672.0036497789574,1625
1674.0238617159293,1624
1676.043559475138,1608
1678.0627433120121,1590
1680.081413482059,1588
1682.0995702408654,1612
1684.117213844096,1600
1686.134344547495,1525
1688.1509626068864,1510
1690.1670682781705,1612
1692.182661817329,1649
1694.1977434804217,1521
1696.2123135235875,1544
1698.226372203043,1598
1700.2399197750851,1587
1702.2529564960905,1599
1704.2654826225112,1576
1706.277498410882,1531
1708.2890041178139,1531
1710.2999999999988,1575
1712.3104863142066,1603
1714.3204633172854,1586
1716.329931266163,1560
1718.3388904178469,1577
1720.3473410294214,1549
1722.3552833580516,1540
1724.3627176609807,1545
1726.3696441955308,1607
1728.3760632191033,1505
1730.3819749891782,1532
1732.3873797633146,1440
1734.3922777991502,1584
1736.3966693544012,1559
1738.4005546868639,1545
1740.4039340544127,1518
1742.406807715001,1480
1744.4091759266616,1528
1746.4110389475054,1495
1748.4123970357223,1464
1750.413250449582,1527
1752.4135994474318,1548
1754.4134442876993,1538
1756.4127852288902,1472
1758.4116225295893,1542
1760.4099564484595,1528
1762.407787244244,1437
1764.405115175764,1507
1766.4019405019203,1485
1768.3982634816916,1489
1770.3940843741357,1488
1772.3894034383907,1435
1774.3842209336717,1501
1776.378537119274,1460
1778.372352254571,1547
1780.3656665990156,1427
1782.3584804121397,1511
1784.3507939535534,1499
1786.3426074829463,1446
1788.3339212600863,1492
1790.3247355448211,1458
1792.3150505970766,1424
1794.3048666768573,1438
1796.2941840442477,1495
1798.2830029594106,1442
1800.2713236825884,1459
1802.2591464741004,1433
1804.2464715943465,1453
1806.2332993038058,1488
1808.2196298630352,1446
1810.2054635326708,1463
1812.190800573428,1442
1814.175641246101,1489
1816.1599858115628,1559
1818.1438345307652,1528
1820.127187664738,1511
1822.1100454745924,1475
1824.092408221516,1494
1826.0742761667766,1464
1828.055649571721,1469
1830.0365286977735,1413
1832.0169138064398,1440
1833.9968051593014,1488
1835.9762030180214,1446
1837.9551076443408,1532
1839.9335193000788,1508
1841.9114382471344,1448
1843.888864747485,1423
1845.8657990631878,1485
1847.842241456378,1464
1849.8181921892697,1414
1851.7936515241558,1495
1853.7686197234098,1427
1855.7430970494815,1428
1857.7170837649014,1455
1859.6905801322787,1392
1861.6635864143004,1474
1863.6361028737338,1443
1865.608129773424,1435
1867.5796673762961,1462
1869.5507159453537,1519
1871.521275743678,1475
1873.4913470344313,1455
1875.4609300808534,1500
1877.4300251462632,1423
1879.3986324940588,1424
1881.366752387717,1419
1883.3343850907936,1476
1885.3015308669228,1471
1887.268189979819,1470
1889.2343626932739,1419
1891.2000492711595,1546
1893.1652499774254,1437
1895.1299650761011,1434
1897.0941948312952,1434
1899.0579395071945,1512
1901.0211993680641,1506
1902.98397467825,1525
1904.9462657021745,1495
1906.9080727043415,1482
1908.869395949332,1545
1910.8302357018065,1534
1912.790592226504,1454
1914.7504657882428,1416
1916.7098566519212,1398
1918.6687650825133,1462
1920.6271913450764,1429
1922.5851357047422,1532
1924.5425984267245,1465
1926.499579776314,1462
1928.4560800188833,1506
1930.4120994198802,1458
1932.367638244833,1461
1934.32269675935,1448
1936.2772752291175,1452
1938.231373919899,1550
1940.1849930975404,1550
1942.1381330279637,1421
1944.0907939771696,1391
1946.0429762112412,1398
1947.9946799963363,1430
1949.9459055986945,1477
1951.896653284633,1442
1953.8469233205478,1533
1955.7967159729142,1451
1957.7460315082863,1468
1959.6948701932974,1454
1961.6432322946594,1477
1963.5911180791632,1460
1965.5385278136787,1489
1967.4854617651545,1407
1969.4319202006182,1411
1971.377903387176,1508
1973.3234115920136,1498
1975.268445082395,1452
1977.2130041256642,1409
1979.1570889892423,1490
1981.1006999406304,1444
1983.04383724741,1434
1984.986501177238,1411
1986.928691997853,1430
1988.8704099770712,1392
1990.811655382789,1372
1992.7524284829801,1432
1994.692729545698,1412
1996.6325588390755,1423
1998.5719166313224,1464
2000.5108031907307,1451
2002.4492187856677,1437
2004.387163684583,1401
2006.3246381560011,1451
2008.2616424685298,1444
2010.1981768908527,1402
2012.1342416917332,1433
2014.069837140014,1414
2016.0049635046162,1456
2017.9396210545406,1450
2019.8738100588666,1420
2021.8075307867502,1370
2023.740783507431,1431
2025.6735684902228,1424
2027.6058860045214,1419
2029.5377363198004,1450
2031.4691197056118,1398
2033.4000364315875,1422
2035.3304867674374,1440
2037.260470982952,1426
2039.189989347998,1386
2041.1190421325232,1417
2043.047629606554,1356
2044.9757520401945,1400
2046.9034097036288,1378
2048.8306028671195,1405
2050.7573318010086,1391
2052.683596775716,1411
2054.609398061742,1385
2056.5347359296647,1455
2058.4596106501403,1370
2060.384022493906,1460
2062.3079717317764,1389
2064.231458634646,1390
2066.1544834734873,1356
2068.077046519352,1373
2069.99914804337,1393
2071.9207883167524,1388
2073.8419676107865,1425
2075.7626861968406,1365
2077.6829443463607,1400
2079.6027423308715,1388
2081.522080421977,1383
2083.440958891362,1460
2085.359378010786,1411
2087.2773380520907,1376
2089.194839287196,1400
2091.111881988101,1414
2093.0284664268825,1337
2094.9445928756973,1397
2096.86026160678,1358
2098.775472892446,1395
2100.690227005088,1390
2102.604524217178,1453
2104.5183648012676,1446
2106.431749029985,1443
2108.34467717604,1395
2110.2571495122206,1405
2112.169166311393,1413
2114.080727846503,1443
2115.9918343905747,1432
2117.902486216711,1415
2119.8126835980956,1467
2121.722426807987,1352
2123.6317161197285,1432
2125.5405518067364,1362
2127.448934142509,1396
2129.356863400624,1430
2131.264339854737,1440
2133.1713637785815,1471
2135.077935445972,1436
2136.9840551308002,1430
2138.889723107037,1460
2140.7949396487334,1477
2142.699705030018,1427
2144.6040195250994,1394
2146.507883408264,1453
2148.4112969538774,1465
2150.3142604363848,1470
2152.2167741303097,1496
2154.1188383102535,1428
2156.0204532508997,1441
2157.9216192270064,1517
2159.822336513414,1451
2161.7226053850413,1500
2163.622426116884,1467
2165.5217989840185,1553
2167.4207242616,1444
2169.319202224862,1455
2171.2172331491165,1424
2173.1148173097563,1438
2175.0119549822507,1498
2176.90864644215,1466
2178.8048919650823,1487
2180.7006918267534,1433
2182.596046302952,1442
2184.4909556695407,1474
2186.3854202024645,1529
2188.279440177746,1482
2190.173015871487,1510
2192.066147559868,1518
2193.958835519149,1500
2195.851080025667,1462
2197.7428813558417,1461
2199.6342397861667,1446
2201.5251555932186,1534
2203.415629053651,1570
2205.3056604441986,1576
2207.19525004167,1581
2209.084398122958,1570
2210.9731049650327,1532
2212.861370844941,1522
2214.749196039812,1567
2216.636580826851,1566
2218.523525483344,1553
2220.410030286655,1525
2222.296095514226,1634
2224.1817214435805,1604
2226.066908352319,1504
2227.951656518121,1546
2229.835966218746,1567
2231.71983773203,1528
2233.6032713358913,1551
2235.486267308324,1526
2237.3688259274036,1565
2239.2509474712824,1558
2241.132632218193,1548
2243.013880446447,1649
2244.8946924344323,1538
2246.7750684606203,1558
2248.6550088035574,1548
2250.534513741871,1597
2252.413583554265,1516
2254.292218519526,1535
2256.170418916517,1652
2258.0481850241786,1555
2259.925517121534,1568
2261.8024154876825,1522
2263.678880401803,1477
2265.5549121431536,1572
2267.430510991071,1606
2269.305677224971,1548
2271.180411124348,1549
2273.0547129687766,1547
2274.9285830379076,1556
2276.8020216114737,1523
2278.6750289692845,1539
2280.5476053912294,1515
2282.4197511572766,1573
2284.2914665474727,1559
2286.162751841943,1657
2288.0336073208937,1593
2289.904033264608,1642
2291.774029953448,1666
2293.6435976678554,1571
2295.5127366883517,1560
2297.381447295534,1516
2299.2497297700825,1524
2301.1175843927526,1430
2302.9850114443825,1425
2304.852011205885,1330
2306.7185839582553,1349
2308.5847299825664,1334
2310.4504495599676,1407
2312.3157429716925,1278
2314.1806104990483,1351
2316.0450524234247,1325
2317.9090690262888,1233
2319.772660589186,1301
2321.635827393742,1303
2323.498569721661,1390
2325.3608878547248,1322
2327.2227820747967,1350
2329.0842526638157,1319
2330.945299903803,1299
2332.805924076857,1294
2334.6661254651535,1319
2336.525904350951,1331
2338.3852610165827,1293
2340.244195744464,1311
2342.102708817088,1321
2343.9608005170253,1303
2345.8184711269287,1347
2347.675720929526,1345
2349.532550207628,1300
2351.38895924412,1302
2353.24494832197,1351
2355.100517724223,1311
2356.955667734004,1266
2358.810398634514,1313
2360.664710709037,1310
2362.5186042409337,1331
2364.3720795136437,1378
2366.225136810686,1315
2368.0777764156583,1315
2369.929998612237,1277
2371.7818036841777,1329
2373.633191915315,1273
2375.484163589562,1325
2377.3347189909114,1345
2379.184858403434,1311
2381.03458211128,1317
2382.8838903986775,1323
2384.732783549936,1340
2386.5812618494406,1326
2388.4293255816588,1280
2390.2769750311327,1301
2392.1242104824883,1384
2393.971032220427,1333
2395.8174405297295,1314
2397.6634356952563,1313
2399.509018001947,1307
2401.3541877348193,1315
2403.1989451789705,1316
2405.043290619576,1330
2406.8872243418905,1322
2408.730746631247,1292
2410.5738577730594,1256
2412.4165580528183,1344
2414.258847756095,1302
2416.100727168537,1306
2417.9421965758734,1327
2419.783256263912,1343
2421.623906518538,1305
2423.4641476257157,1350
2425.303979871491,1325
2427.143403541984,1332
2428.9824189233977,1341
2430.821026302012,1335
2432.6592259641866,1354
2434.497018196361,1374
2436.33440328505,1287
2438.171381516851,1311
2440.00795317844,1351
2441.844118556569,1419
2443.6798779380724,1369
2445.5152316098606,1403
2447.3501798589255,1422
2449.1847229723357,1372
2451.0188612372403,1341
2452.8525949408663,1370
2454.6859243705203,1347
2456.518849813587,1329
2458.3513715575314,1357
2460.183489889895,1396
2462.015205098301,1354
2463.8465174704493,1322
2465.67742729412,1368
2467.5079348571717,1402
2469.338040447542,1392
2471.1677443532476,1371
2472.9970468623833,1366
2474.825948263123,1359
2476.6544488437207,1381
2478.482548892508,1353
2480.310248697896,1301
2482.137548548374,1384
2483.9644487325118,1353
2485.790949538956,1430
2487.617051256433,1393
2489.44275417375,1392
2491.26805857979,1330
2493.0929647635157,1360
2494.917473013971,1389
2496.741583620276,1339
2498.5652968716304,1360
2500.3886130573137,1402
2502.2115324666834,1378
2504.0340553891765,1400
2505.856182114308,1365
2507.6779129316733,1373
2509.499248130945,1412
2511.3201880018764,1403
2513.140732834298,1382
2514.9608829181198,1371
2516.780638543331,1481
2518.6,1378
2520.418967578273,1407
2522.237541568376,1394
2524.0557222606144,1388
2525.8735099453706,1450
2527.6909049131086,1417
2529.507907454368,1425
2531.32451785977,1357
2533.140736420014,1394
2534.9565634258774,1443
2536.771999168218,1412
2538.5870439379714,1399
2540.4016980261526,1444
2542.2159617238544,1410
2544.02983532225,1462
2545.8433191125914,1501
2547.656413386209,1444
2549.4691184345115,1443
2551.2814345489874,1484
2553.093362021204,1488
2554.904901142808,1507
2556.716052205523,1503
2558.526815501153,1518
2560.3371913215824,1553
2562.147179958771,1506
2563.956781704761,1556
2565.7659968516705,1557
2567.5748256916986,1557
2569.3832685171224,1622
2571.1913256202984,1567
2572.9989972936614,1534
2574.806283829725,1556
2576.613185521084,1603
2578.4197026604074,1571
2580.2258355404483,1551
2582.031584454035,1597
2583.836949694077,1544
2585.6419315535613,1607
2587.4465303255533,1602
2589.2507463032002,1510
2591.0545797797245,1630
2592.8580310484303,1563
2594.6611004026995,1686
2596.463788135992,1619
2598.266094541849,1610
2600.0680199138874,1596
2601.869564545807,1579
2603.670728731383,1601
2605.4715127644704,1570
2607.2719169390048,1613
2609.071941548998,1615
2610.8715868885433,1615
2612.670853251811,1644
2614.469740933052,1599
2616.268250226594,1632
2618.0663814268455,1557
2619.864134828292,1530
2621.6615107255006,1598
2623.458509413115,1595
2625.2551311858597,1535
2627.0513763385347,1509
2628.8472451660223,1515
2630.6427379632833,1624
2632.4378550253564,1532
2634.232596647359,1532
2636.026963124488,1490
2637.8209547520187,1501
2639.6145718253065,1541
2641.407814639785,1444
2643.200683490966,1471
2644.9931786744414,1469
2646.7853004858807,1471
2648.577049221034,1542
2650.3684251757277,1452
2652.1594286458712,1418
2653.9500599274484,1438
2655.740319316525,1395
2657.5302071092437,1433
2659.3197236018286,1376
2661.10886909058,1418
2662.8976438718782,1441
2664.686048242183,1425
2666.4740824980327,1398
2668.2617469360443,1358
2670.0490418529134,1426
2671.8359675454153,1374
2673.622524310403,1404
2675.408712444811,1411
2677.1945322456495,1445
2678.979984010009,1345
2680.76506803506,1329
2682.5497846180497,1364
2684.334134056306,1399
2686.1181166472343,1346
2687.9017326883213,1332
2689.6849824771293,1377
2691.4678663113013,1335
2693.2503844885596,1352
2695.032537306705,1345
2696.8143250636167,1320
2698.5957480572542,1355
2700.3768065856534,1307
2702.1575009469316,1339
2703.937831439283,1319
2705.717798360982,1308
2707.4974020103837,1370
2709.276642685917,1338
2711.055520686095,1383
2712.834036309506,1313
2714.612189854819,1308
2716.389981620782,1316
2718.1674119062204,1300
2719.944481010041,1318
2721.721189231226,1303
2723.4975368688415,1289
2725.273524222027,1290
2727.0491515900053,1303
2728.824419272075,1354
2730.5993275676146,1288
2732.3738767760838,1342
2734.148067197016,1237
2735.921899130031,1280
2737.6953728748194,1302
2739.468488731156,1284
2741.2412469988926,1334
2743.0136479779617,1309
2744.785691968372,1285
2746.5573792702116,1339
2748.3287101836504,1329
2750.099685008934,1370
2751.870304046388,1269
2753.640567596418,1290
2755.4104759595057,1334
2757.1800294362156,1307
2758.949228327187,1306
2760.7180729331412,1324
2762.486563554877,1297
2764.254700493272,1326
2766.022484049284,1276
2767.789914523947,1242
2769.5569922183786,1302
2771.3237174337705,1246
2773.090090471394,1285
2774.8561116326036,1297
2776.6217812188274,1287
2778.3870995315756,1255
2780.1520668724356,1272
2781.9166835430747,1326
2783.6809498452394,1328
2785.444866080754,1328
2787.2084325515225,1303
2788.971649559527,1303
2790.73451740683,1297
2792.4970363955713,1298
2794.2592068279705,1293
2796.0210290063264,1330
2797.7825032330147,1288
2799.543629810493,1283
2801.304409041296,1304
2803.0648412280366,1308
2804.8249266734088,1286
2806.5846656801846,1271
2808.344058551212,1356
2810.1031055894246,1307
2811.8618070978273,1304
2813.6201633795085,1211
2815.378174737636,1271
2817.1358414754536,1239
2818.893163896285,1281
2820.6501423035334,1298
2822.4067770006814,1294
2824.1630682912883,1310
2825.9190164789957,1291
2827.6746218675207,1324
2829.429884760661,1343
2831.184805462294,1301
2832.9393842763743,1341
2834.693621506936,1269
2836.4475174580916,1330
2838.201072434034,1301
2839.954286739034,1286
2841.707160677441,1298
2843.459694553685,1267
2845.2118886722724,1289
2846.96374333779,1290
2848.7152588549034,1320
2850.4664355283567,1285
2852.217273662973,1303
2853.9677735636546,1309
2855.7179355353833,1293
2857.4677598832186,1270
2859.217246912299,1269
2860.9663969278427,1306
2862.715210235146,1299
2864.4636871395846,1255
2866.211827946614,1265
2867.9596329617652,1288
2869.7071024906536,1316
2871.4542368389684,1306
2873.20103631248,1328
2874.947501217038,1284
2876.6936318585695,1266
2878.4394285430812,1307
2880.1848915766604,1269
2881.9300212654707,1328
2883.6748179157553,1322
2885.4192818338374,1317
2887.1634133261173,1349
2888.907212699077,1330
2890.6506802592744,1302
2892.393816313348,1319
2894.1366211680142,1274
2895.8790951300693,1347
2897.621238506388,1250
2899.363051603925,1276
2901.1045347297118,1262
2902.8456881908596,1263
2904.58651229456,1305
2906.327007348081,1241
2908.067173658772,1270
2909.8070115340597,1281
2911.5465212814497,1326
2913.285703208527,1303
2915.0245576229563,1318
2916.7630848324807,1303
2918.5012851449196,1341
2920.2391588681758,1261
2921.976706310227,1252
2923.7139277791334,1346
2925.4508235830313,1302
2927.187394030137,1306
2928.923639428745,1243
2930.6595600872306,1325
2932.395156314046,1271
2934.1304284177218,1343
2935.8653767068713,1336
2937.6000014901815,1290
2939.3343030764227,1343
2941.068281774442,1303
2942.8019378931644,1301
2944.5352717415976,1276
2946.2682836288236,1320
2948.0009738640065,1304
2949.7333427563885,1317
2951.465390615289,1317
2953.1971177501086,1301
2954.9285244703265,1264
2956.6596110855,1240
2958.3903779052657,1309
2960.1208252393385,1269
2961.8509533975125,1285
2963.5807626896617,1321
2965.3102534257378,1262
2967.0394259157715,1268
2968.768280469873,1293
2970.496817398232,1263
2972.2250370111146,1261
2973.952939618869,1303
2975.6805255319196,1376
2977.4077950607707,1304
2979.134748516006,1291
2980.861386208289,1367
2982.587708448359,1312
2984.313715547037,1356
2986.039407815222,1309
2987.764785563891,1302
2989.489849104102,1221
2991.2145987469908,1306
2992.9390348037705,1320
2994.6631575857346,1311
2996.3869674042576,1322
2998.1104645707887,1275
2999.83364939686,1295
3001.5565221940783,1229
3003.2790832741334,1318
3005.0013329487924,1306
3006.7232715298996,1229
3008.4448993293804,1287
3010.166216659239,1289
3011.887223831558,1280
3013.607921158498,1311
3015.3283089522993,1298
3017.0483875252826,1236
3018.7681571898443,1277
3020.4876182584626,1303
3022.2067710436927,1292
3023.9256158581707,1295
3025.644153014609,1323
3027.362382825801,1257
3029.0803056046193,1282
3030.797921664012,1283
3032.5152313170106,1259
3034.2322348767225,1242
3035.9489326563353,1206
3037.665324969115,1318
3039.3814121284063,1320
3041.097194447633,1302
3042.812672240299,1271
3044.5278458199855,1262
3046.2427155003525,1296
3047.9572815951406,1271
3049.671544418167,1290
3051.38550428333,1273
3053.0991615046073,1270
3054.812516396051,1236
3056.5255692717974,1252
3058.2383204460575,1249
3059.9507702331257,1301
3061.662918947372,1327
3063.3747669032446,1289
3065.0863144152736,1258
3066.7975617980674,1256
3068.508509366309,1297
3070.219157434767,1323
3071.9295063182844,1284
3073.639556331785,1301
3075.3493077902704,1268
3077.058761008821,1311
3078.7679163025964,1294
3080.476773986837,1299
3082.1853343768594,1253
3083.89359778806,1327
3085.6015645359153,1267
3087.3092349359786,1251
3089.016609303884,1258
3090.7236879553434,1333
3092.4304712061476,1243
3094.136959372166,1310
3095.843152769349,1270
3097.5490517137237,1276
3099.2546565213966,1249
3100.959967508554,1223
3102.66498499146,1276
3104.3697092864577,1256
3106.0741407099695,1322
3107.778279578498,1274
3109.482126208622,1252
3111.1856809170004,1250
3112.8889440203716,1239
3114.5919158355528,1295
3116.294596679439,1283
3117.996986869006,1260
3119.6990867213062,1296
3121.4008965534726,1301
3123.102416682717,1325
3124.803647426329,1336
3126.5045891016784,1224
3128.205242026213,1284
3129.90560651746,1298
3131.605682893025,1277
3133.3054714705922,1286
3135.0049725679282,1265
3136.7041865028714,1211
3138.4031135933465,1247
3140.101754157353,1320
3141.800108512971,1228
3143.498176978357,1284
3145.1959598717494,1298
3146.8934575114636,1271
3148.5906702158954,1286
3150.2875983035183,1245
3151.9842420928853,1291
3153.680601902627,1297
3155.376678051456,1230
3157.07247085816,1227
3158.767980641609,1265
3160.463207720748,1254
3162.158152414606,1311
3163.8528150422862,1258
3165.5471959229726,1331
3167.2412953759303,1276
3168.9351137204976,1299
3170.628651276098,1299
3172.3219083622307,1232
3174.014885298474,1217
3175.707582404485,1275
3177.4000000000005,1282
3179.092138404835,1284
3180.7839979388846,1253
3182.47557892212,1250
3184.166881674594,1269
3185.8579065164386,1289
3187.5486537678626,1258
3189.2391237491547,1258
3190.9293167806827,1243
3192.6192331828934,1285
3194.3088732763117,1228
3195.998237381542,1260
3197.687325819268,1188
3199.376138910251,1242
3201.064676975334,1257
3202.7529403354347,1235
3204.4409293115523,1296
3206.1286442247647,1247
3207.816085396229,1229
3209.5032531471825,1248
3211.190147798936,1238
3212.8767696728846,1250
3214.5631190905015,1248
3216.2491963733373,1270
3217.9350018430214,1229
3219.6205358212637,1281
3221.305798629851,1206
3222.990790590651,1256
3224.6755120256103,1264
3226.359963256751,1227
3228.0441446061795,1228
3229.7280563960758,1222
3231.411698948703,1242
3233.0950725863995,1237
3234.778177631587,1264
3236.461014406761,1251
3238.1435832345005,1282
3239.8258844374595,1228
3241.507918338374,1290
3243.1896852600576,1346
3244.8711855254023,1264
3246.552419457381,1260
3248.233387379042,1303
3249.914089613516,1258
3251.59452648401,1220
3253.274698313813,1299
3254.95460542629,1265
3256.6342481448855,1206
3258.313626793125,1249
3259.9927416946084,1291
3261.6715931730196,1241
3263.3501815521176,1221
3265.0285071557437,1230
3266.706570307815,1272
3268.3843713323286,1264
3270.0619105533615,1181
3271.739188295068,1250
3273.4162048816834,1257
3275.0929606375184,1251
3276.769455886966,1220
3278.445690954498,1261
3280.1216661646613,1256
3281.797381842087,1288
3283.4728383114807,1250
3285.1480358976296,1309
3286.8229749253996,1247
3288.4976557197333,1286
3290.172078605655,1182
3291.846243908266,1248
3293.5201519527463,1233
3295.193803064357,1209
3296.8671975684374,1253
3298.5403357904024,1245
3300.21321805575,1265
3301.8858446900567,1281
3303.558216018975,1278
3305.23033236824,1270
3306.9021940636603,1295
3308.57380143113,1239
3310.2451547966184,1224
3311.916254486174,1248
3313.5871008259246,1267
3315.2576941420766,1233
3316.9280347609147,1235
3318.5981230088046,1250
3320.2679592121895,1272
3321.9375436975924,1259
3323.606876791612,1219
3325.27595882093,1262
3326.944790112305,1225
3328.6133709925753,1287
3330.2817017886573,1277
3331.949782827547,1233
3333.617614436319,1196
3335.2851969421245,1209
3336.952530672199,1222
3338.619615953853,1228
3340.286453114475,1265
3341.9530424815357,1268
3343.619384382583,1311
3345.2854791452437,1235
3346.951327097224,1261
3348.6169285663073,1298
3350.2822838803577,1185
3351.947393367319,1265
3353.61225735521,1333
3355.2768761721345,1282
3356.9412501462693,1260
3358.605379605873,1274
3360.2692648792827,1251
3361.9329062949146,1294
3363.596304181263,1229
