CollectionTime,9/26/2024 8:35:59 AM
ExposureUsed,3
CalibratedSpectrum
-962.7078968117929,587
-959.9714848408522,620
-957.2358232597828,613
-954.5009119013725,592
-951.7667505983302,648
-949.0333391832855,571
-946.3006774887896,600
-943.5687653473143,628
-940.837602591253,685
-938.1071890529199,587
-935.3775245645503,592
-932.6486089583007,583
-929.9204420662485,617
-927.1930237203925,704
-924.4663537526524,647
-921.7404319948689,627
-919.0152582788041,637
-916.2908324361409,724
-913.5671542984834,686
-910.8442236973568,630
-908.1220404642074,640
-905.4006044304027,654
-902.679915427231,601
-899.959973285902,621
-897.2407778375464,590
-894.5223289132158,604
-891.8046263438832,608
-889.0876699604426,593
-886.3714595937089,611
-883.6559950744183,623
-880.9412762332282,651
-878.2273029007168,631
-875.5140749073835,609
-872.8015920836489,597
-870.0898542598545,648
-867.3788612662631,675
-864.6686129330585,594
-861.9591090903457,574
-859.2503495681506,552
-856.5423341964203,568
-853.8350628050229,600
-851.1285352237478,579
-848.4227512823054,613
-845.7177108103272,599
-843.0134136373656,630
-840.3098595928943,629
-837.6070485063082,631
-834.9049802069229,627
-832.2036545239757,627
-829.5030712866244,660
-826.8032303239481,638
-824.1041314649472,613
-821.4057745385428,598
-818.7081593735775,579
-816.0112857988148,611
-813.3151536429393,630
-810.6197627345566,649
-807.9251129021936,644
-805.2312039742981,704
-802.5380357792392,629
-799.8456081453069,636
-797.1539209007124,634
-794.462973873588,665
-791.772766891987,686
-789.083299783884,656
-786.3945723771743,662
-783.7065844996748,637
-781.0193359791231,683
-778.3328266431781,655
-775.6470563194197,644
-772.9620248353489,645
-770.2777320183878,625
-767.5941776958798,613
-764.9113616950891,593
-762.2292838432011,594
-759.5479439673222,606
-756.8673418944801,635
-754.1874774516235,668
-751.5083504656222,643
-748.8299607632671,667
-746.15230817127,694
-743.475392516264,630
-740.7992136248035,640
-738.1237713233636,630
-735.4490654383407,618
-732.7750957960521,615
-730.1018622227365,652
-727.4293645445534,658
-724.7576025875837,624
-722.0865761778291,645
-719.4162851412126,653
-716.7467293035781,669
-714.0779084906909,754
-711.409822528237,688
-708.7424712418238,652
-706.0758544569796,647
-703.4099719991541,622
-700.7448236937178,636
-698.0804093659622,670
-695.4167288411002,658
-692.7537819442656,658
-690.0915685005134,708
-687.4300883348199,709
-684.7693412720819,683
-682.1093271371178,633
-679.4500457546669,666
-676.7914969493897,713
-674.1336805458676,725
-671.4765963686034,618
-668.8202442420206,617
-666.1646239904642,633
-663.5097354382001,643
-660.8555784094151,663
-658.2021527282176,712
-655.5494582186366,634
-652.8974947046223,707
-650.2462620100463,740
-647.5957599587009,699
-644.9459883742998,776
-642.2969470804776,708
-639.6486359007902,683
-637.0010546587141,673
-634.3542031776476,666
-631.7080812809096,685
-629.0626887917401,766
-626.4180255333008,792
-623.7740913286734,785
-621.1308860008619,694
-618.4884093727904,712
-615.8466612673046,708
-613.2056415071715,756
-610.5653499150785,712
-607.9257863136347,699
-605.28695052537,740
-602.6488423727357,741
-600.0114616781036,851
-597.3748082637674,949
-594.7388819519412,936
-592.1036825647604,785
-589.4692099242818,886
-586.8354638524829,919
-584.2024441712624,878
-581.5701507024403,857
-578.9385832677575,823
-576.3077416888759,794
-573.6776257873787,884
-571.0482353847704,844
-568.4195703024757,762
-565.7916303618415,734
-563.164415384135,768
-560.5379251905453,815
-557.9121596021815,760
-555.2871184400748,773
-552.6628015251767,753
-550.0392086783606,780
-547.4163397204204,813
-544.794194472071,833
-542.1727727539491,833
-539.5520743866118,864
-536.9320991905377,882
-534.3128469861261,978
-531.6943175936979,999
-529.0765108334947,977
-526.4594265256793,1176
-523.8430644903358,1329
-521.2274245474689,1560
-518.612506517005,1525
-515.9983102187913,1682
-513.3848354725959,1805
-510.77208209810846,1990
-508.16004991493924,2022
-505.5487387426199,2112
-502.9381484006032,1947
-500.3282787082628,1645
-497.71912948489364,1473
-495.1107005497117,1327
-492.5029917218539,1232
-489.8960028203786,1080
-487.28973366426493,1002
-484.68418407241325,928
-482.07935386364494,978
-479.47524285670266,960
-476.87185087025,1026
-474.2691777228715,1000
-471.66722323307334,937
-469.0659872192821,904
-466.4654694998459,941
-463.86566989303384,891
-461.26658821703614,964
-458.66822428996414,936
-456.07057792985,929
-453.4736489546475,972
-450.877437182231,952
-448.28194243039627,872
-445.68716451686,901
-443.09310325926003,883
-440.49975847515555,912
-437.9071299820263,1016
-435.31521759727354,1048
-432.72402113821954,1194
-430.13354042210767,1021
-427.5437752661022,952
-424.95472548728867,1055
-422.36639090267386,1076
-419.7787713291855,1057
-417.1918665836721,1102
-414.60567648290385,1148
-412.0202008435715,1138
-409.4354394822874,1078
-406.8513922155845,1064
-404.26805885991723,1084
-401.685439231661,1043
-399.103533147112,1007
-396.522340422488,1057
-393.9418608739278,974
-391.3620943174908,961
-388.7830405691583,1057
-386.2046994448317,950
-383.6270707603344,1016
-381.05015433141045,974
-378.473949973725,851
-375.8984575028645,783
-373.32367673433623,827
-370.74960748356875,807
-368.1762495659117,684
-365.60360279663576,726
-363.03166699093265,782
-360.4604419639154,743
-357.8899275306178,733
-355.32012350599507,646
-352.7510297049233,632
-350.1826459421999,587
-347.61497203254316,623
-345.04800779059235,644
-342.4817530309082,718
-339.91620756797226,752
-337.35137121618743,716
-334.7872437898774,719
-332.22382510328725,862
-329.66111497058273,881
-327.09911320585127,736
-324.53781962310075,710
-321.9772340362607,644
-319.4173562591816,629
-316.8581861056348,636
-314.2997233893127,660
-311.7419679238294,758
-309.1849195227194,730
-306.62857799943856,678
-304.0729431673641,735
-301.51801483979375,847
-298.963792829947,822
-296.41027695096386,894
-293.85746701590574,840
-291.3053628377552,851
-288.7539642294155,910
-286.2032710037115,1062
-283.65328297338897,1099
-281.1039999511146,1224
-278.5554217494762,1465
-276.007548180983,1122
-273.4603790580651,939
-270.9139141930734,1098
-268.3681533982807,1127
-265.8230964858798,1098
-263.27874326798565,948
-260.7350935566336,980
-258.1921471637804,1204
-255.6499039013039,1406
-253.10836358100266,1087
-250.56752601459698,965
-248.02739101372765,1265
-245.48795838995704,1434
-242.94922795476816,1289
-240.41119951956557,1030
-237.8738728956746,1063
-235.33724789434166,1351
-232.80132432673452,1330
-230.2661020039418,1179
-227.73158073697357,1205
-225.19776033676033,1451
-222.66464061415422,1509
-220.1322213799284,1260
-217.60050244477725,1156
-215.06948361931552,1392
-212.53916471408013,1997
-210.00954553952818,2051
-207.48062590603843,1506
-204.9524056239104,1169
-202.4248845033651,1272
-199.8980623545441,1651
-197.37193898751036,1765
-194.84651421224817,1589
-192.32178783866232,1358
-189.79775967657952,1535
-187.27442953574644,1869
-184.7517972258321,1841
-182.2298625564256,1462
-179.7086253370378,1305
-177.18808537710026,1602
-174.66824248596583,2161
-172.14909647290835,2351
-169.6306471471229,1774
-167.11289431772548,1449
-164.59583779375328,1612
-162.07947738416453,2184
-159.5638128978386,2529
-157.04884414357605,2516
-154.53457093009854,2144
-152.02099306604828,1807
-149.50811035998936,1670
-146.99592262040665,1894
-144.48442965570587,2598
-141.97363127421409,3565
-139.46352728417958,3727
-136.95411749377126,3122
-134.44540171107985,2198
-131.93737974411636,1798
-129.43005140081357,2456
-126.92341648902493,3973
-124.41747481652521,6017
-121.91222619101006,7119
-119.40767042009657,6688
-116.90380731132257,5010
-114.40063667214702,3564
-111.8981583099503,2702
-109.3963720320337,3220
-106.89527764561933,6194
-104.39487495785067,11659
-101.89516377579241,17911
-99.39614390642998,19029
-96.89781515667039,18886
-94.40017733334128,15655
-91.90323024319173,14260
-89.40697369289148,14549
-86.91140748903172,14130
-84.41653143812482,15880
-81.92234534660395,21994
-79.42884902082358,27554
-76.93604226705907,25380
-74.4439248915071,20225
-71.95249670028534,21097
-69.46175749943245,28459
-66.97170709490854,40668
-64.48234529259423,46735
-61.99367189829195,46439
-59.50568671772464,40099
-57.01838955653636,33788
-54.53178022029283,24983
-52.045858514480074,24250
-49.560624244506016,23109
-47.07607721569923,21050
-44.59221723330904,19406
-42.10904410250669,19477
-39.62655762838392,19778
-37.14475761595372,24301
-34.66364387015028,31606
-32.18321619582866,41127
-29.70347439776515,49962
-27.224418280657005,60360
-24.74604764912317,65024
-22.26836230770266,65024
-19.7913620608565,65024
-17.315046712966478,65024
-14.83941606833514,65024
-12.36446993118659,65024
-9.89020810566592,65024
-7.416630395839093,65024
-4.94373660569363,65024
-2.471526539137585,65024
-6.821210263296962E-13,65024
2.47084320796705,65024
4.941003281093458,65024
7.410480415786196,65024
9.879274808531363,65024
12.347386655893956,65024
14.814816154518212,65024
17.28156350112681,65024
19.74762889252179,65024
22.21301252558385,25490
24.67771459727237,8135
27.141735304626195,8807
29.605074844762612,8580
32.06773341487792,7116
34.52971121224755,6668
36.99100843422559,7463
39.45162527824516,6360
41.91156194181792,5239
44.370818622535126,4604
46.82939551806646,5395
49.287292826160524,5278
51.74451074464503,5160
54.201049471426245,4084
56.65690920448981,3812
59.112090141899785,4457
61.56659248179983,3848
64.02041642241159,3669
66.4735621620365,4490
68.92602989905402,5834
71.37781983192338,5911
73.82893215918205,5456
76.27936707944684,3866
78.72912479141326,3542
81.17820549385567,3401
83.62660938562783,2916
86.07433666566146,3362
88.5213875329681,3146
90.96776218663751,2829
93.41346082583925,2435
95.85848364982041,2531
98.30283085790859,2893
100.7465026495089,3078
103.18949922410604,2778
105.63182078126385,2147
108.07346752062438,2181
110.51443964190923,1779
112.95473734491827,2029
115.39436082953114,2505
117.83331029570547,3044
120.27158594347827,2342
122.7091879729652,2050
125.1461165843615,2288
127.58237197794062,2887
130.01795435405518,2598
132.4528639131364,2446
134.88710085569494,2806
137.32066538231982,2353
139.75355769367923,1934
142.1857779905207,2154
144.61732647366978,2150
147.04820334403132,1942
149.47840880258934,1626
151.90794305040674,1928
154.33680628862487,2088
156.76499871846443,1906
159.19252054122433,2107
161.61937195828352,2208
164.04555317109896,2389
166.47106438120693,2402
168.89590579022217,2394
171.320077599839,2727
173.7435800118302,3147
176.16641322804742,3110
178.58857745042144,2889
181.01007288096173,2571
183.43089972175687,2855
185.85105817497413,2647
188.27054844285988,2411
190.6893707277394,2658
193.10752523201643,2801
195.5250121581745,2788
197.9418317087751,2635
200.3579840864594,2655
202.7734694939469,2881
205.18828813403627,2993
207.6024402096051,2743
210.01592592360964,2724
212.42874547908548,2584
214.84089907914665,2559
217.2523869269868,2704
219.66320922587727,2704
222.0733661791695,2603
224.48285799029293,2681
226.8916848627572,2755
229.29984700014882,2729
231.7073446061355,2720
234.11417788446204,2683
236.520347038953,2764
238.92585227351185,2985
241.33069379212054,2852
243.73487179884035,2770
246.1383864978112,2594
248.541238093252,2837
250.9434267894609,2779
253.34495279081432,2810
255.74581630176783,2845
258.1460175268563,2872
260.54555667069314,2993
262.9444339379703,3213
265.3426495334594,3143
267.7402036620107,2995
270.1370965285529,2936
272.53332833809407,2811
274.9288992957214,2759
277.32380960660055,2691
279.718059475976,2530
282.1116491091717,2521
284.5045787115897,2425
286.89684848871195,2475
289.2884586460981,2508
291.67940938938807,2661
294.0697009242996,2662
296.4593334566299,2762
298.84830719225477,2707
301.23662233712923,2686
303.6242790972866,2605
306.01127767884,2612
308.39761828798066,2465
310.78330113097934,2297
313.16832641418534,2181
315.5526943440269,2314
317.9364051270112,2451
320.3194589697242,2353
322.70185607883093,2183
325.0835966610754,2188
327.4646809232805,2227
329.8451090723478,2222
332.2248813152577,2243
334.6039978590701,2223
336.9824589109231,2212
339.36026467803447,2120
341.7374153677,2181
344.113911187295,2211
346.48975234427337,2178
348.8649390461686,2291
351.2394715005918,2098
353.61334991523415,2112
355.9865744978655,2114
358.35914545633375,2188
360.73106299856715,2173
363.10232733257146,2111
365.47293866643247,2229
367.84289720831396,2111
370.2122031664593,2122
372.5808567491905,2059
374.9488581649083,2033
377.31620762209275,1944
379.6829053293021,1951
382.0489514951745,1912
384.4143463284262,2106
386.7790900378528,1965
389.14318283232853,1968
391.50662492080653,2113
393.86941651231916,2197
396.23155781597745,2147
398.5930490409713,2045
400.9538903965696,1907
403.3140820921202,1975
405.6736243370498,1946
408.03251734086336,1872
410.3907613131465,1973
412.74835646356166,1941
415.10530300185144,1942
417.4616011378372,1986
419.81725108141893,1905
422.1722530425758,1910
424.5266072313656,1969
426.880313857925,1812
429.2333731324701,1902
431.58578526529516,1833
433.9375504667738,1817
436.2886689473588,1889
438.63914091758113,1850
440.9889665880513,1753
443.33814616945835,1766
445.68667987257015,1914
448.03456790823395,1845
450.3818104873759,1811
452.72840782100013,1846
455.07436012019105,1818
457.41966759611057,1806
459.7643304600007,1874
462.10834892318155,1789
464.4517231970525,1920
466.79445349309174,1878
469.1365400228566,1914
471.4779829979826,1949
473.81878263018564,1935
476.15893913125876,2007
478.4984527130747,2166
480.8373235875855,2054
483.17555196682144,2044
485.5131380628919,2216
487.8500820879857,2131
490.1863842543697,2305
492.52204477439034,2308
494.8570638604725,2637
497.1914417251204,2968
499.52517858091653,3437
501.85827464052306,3919
504.19073011668036,4222
506.5225452222086,4302
508.85372017000566,4361
511.18425517304956,4896
513.514150444396,6161
515.8434061971808,7932
518.1720226446176,8335
520.4999999999999,7930
522.8273384766991,7325
525.1540382881666,6404
527.480099647932,5283
529.8055227696037,3640
532.1303078668694,2728
534.454455153496,2353
536.777964843328,2168
539.1008371502907,2053
541.4230722883866,2149
543.744670471698,2044
546.0656319143858,1972
548.3859568306899,1899
550.7056454349294,1945
553.0246979415016,2011
555.3431145648834,1947
557.6608955196306,1926
559.978041020377,1920
562.2945512818363,1994
564.6104265188006,1936
566.9256669461412,1908
569.2402727788082,1944
571.5542442318302,2020
573.8675815203156,1886
576.1802848594508,1874
578.4923544645015,1872
580.8037905508126,1948
583.114593333807,1830
585.4247630289875,1854
587.7342998519354,1841
590.0432040183106,1901
592.3514757438526,1836
594.6591152443794,1895
596.9661227357875,1901
599.2724984340531,1874
601.578242555231,1861
603.8833553154542,1867
606.1878369309362,1847
608.4916876179676,1860
610.7949075929192,1864
613.0974970722403,1900
615.3994562724587,1850
617.7007854101818,1841
620.0014847020951,1879
622.3015543649641,1827
624.6009946156324,1856
626.8998056710224,1781
629.1979877481361,1864
631.4955410640538,1836
633.7924658359349,1824
636.0887622810175,1845
638.3844306166192,1831
640.6794710601358,1899
642.9738838290426,1874
645.2676691408932,1894
647.5608272133207,1850
649.853358264037,1892
652.1452625108324,1905
654.4365401715764,1880
656.7271914642178,1935
659.0172166067838,1977
661.3066158173809,1893
663.5953893141935,1825
665.8835373154867,1832
668.1710600396028,1957
670.4579577049639,1892
672.7442305300709,1870
675.0298787335033,1897
677.3149025339197,1933
679.599302150058,1954
681.8830778007342,1987
684.1662297048437,1954
686.4487580813608,1913
688.7306631493387,1895
691.0119451279091,1926
693.2926042362834,1965
695.5726406937516,1940
697.8520547196814,1949
700.1308465335215,1830
702.4090163547982,1813
704.6865644031171,1832
706.9634908981619,1869
709.2397960596965,1876
711.5154801075631,1867
713.7905432616823,1875
716.0649857420548,1819
718.3388077687592,1796
720.612009561953,1872
722.8845913418733,1837
725.1565533288352,1903
727.427895743234,1893
729.6986188055427,1852
731.9687227363137,1855
734.238207756178,1933
736.5070740858458,1888
738.7753219461066,1867
741.0429515578281,1901
743.3099631419569,1941
745.5763569195191,1863
747.8421331116193,1877
750.1072919394409,1851
752.3718336242467,1882
754.6357583873777,1835
756.8990664502545,1957
759.1617580343765,1895
761.423833361321,1887
763.6852926527457,1859
765.9461361303862,1805
768.206364016058,1862
770.4659765316536,2016
772.7249738991469,1870
774.9833563405886,1928
777.2411240781092,1946
779.4982773339183,1927
781.7548163303044,1946
784.010741289634,1845
786.2660524343538,1995
788.5207499869881,2077
790.7748341701416,1920
793.0283052064964,1950
795.2811633188143,1912
797.5334087299362,1901
799.7850416627813,1999
802.0360623403484,1981
804.2864709857143,1994
806.5362678220353,2042
808.7854530725468,1917
811.0340269605625,1885
813.2819897094754,1919
815.5293415427581,1977
817.77608268396,1966
820.0222133567116,1895
822.2677337847211,1956
824.5126441917765,1935
826.7569448017433,1839
829.0006358385675,1831
831.2437175262731,1835
833.4861900889629,1924
835.7280537508192,1889
837.9693087361026,1856
840.2099552691533,1866
842.4499935743896,1823
844.689423876309,1827
846.9282463994886,1883
849.1664613685833,1876
851.4040690083276,1898
853.6410695435349,1923
855.877463199097,1798
858.1132501999847,1901
860.3484307712487,1873
862.5830051380175,1934
864.8169735254988,1942
867.0503361589791,1885
869.2830932638243,1904
871.5152450654786,1895
873.7467917894654,1881
875.9777336613873,1939
878.2080709069252,1905
880.4378037518389,1929
882.666932421968,2007
884.8954571432301,2020
887.1233781416219,1913
889.3506956432192,1911
891.5774098741766,1859
893.803521060728,1866
896.0290294291852,1934
898.2539352059397,1899
900.4782386174619,1892
902.7019398903011,1933
904.925039251085,1912
907.147536926521,1886
909.3694331433943,1935
911.59072812857,1920
913.8114221089921,2007
916.0315153116827,1854
918.2510079637437,1932
920.4699002923547,1950
922.6881925247761,1916
924.905884888345,1988
927.1229776104793,1904
929.3394709186747,1905
931.555365040506,1905
933.7706602036275,1981
935.9853566357709,2011
938.1994545647489,2095
940.4129542184515,2006
942.6258558248488,2011
944.8381596119883,2001
947.0498658079974,2045
949.2609746410825,2002
951.4714863395287,2063
953.6814011316998,2050
955.8907192460387,1954
958.0994409110671,2058
960.3075663553858,2051
962.5150958076741,2035
964.7220294966913,2022
966.928367651274,1941
969.1341105003388,1948
971.3392582728806,1953
973.5438111979742,1887
975.747769504772,1935
977.9511334225061,1867
980.153903180487,1970
982.3560790081052,1882
984.5576611348289,1897
986.7586497902058,1865
988.9590452038618,1865
991.158847605503,1877
993.3580572249133,1782
995.5566742919558,1722
997.7546990365728,1709
999.952131688785,1700
1002.1489724786926,1696
1004.3452216364743,1658
1006.5408793923874,1619
1008.7359459767691,1636
1010.9304216200343,1593
1013.1243065526781,1544
1015.3176010052733,1608
1017.510305208472,1623
1019.7024193930064,1585
1021.8939437896848,1664
1024.0848786293977,1574
1026.2752241431122,1547
1028.4649805618747,1461
1030.6541481168115,1620
1032.842727039127,1550
1035.0307175601051,1554
1037.2181199111074,1544
1039.4049343235752,1480
1041.591161029029,1451
1043.7768002590683,1568
1045.9618522453698,1542
1048.1463172196918,1488
1050.3301954138697,1476
1052.513487059818,1448
1054.69619238953,1433
1056.8783116350783,1469
1059.0598450286152,1552
1061.2407928023704,1450
1063.4211551886528,1497
1065.6009324198508,1463
1067.780124728432,1470
1069.9587323469414,1462
1072.1367555080046,1455
1074.314194444325,1432
1076.4910493886855,1405
1078.667320573947,1425
1080.843008233051,1448
1083.0181125990161,1438
1085.1926339049414,1412
1087.3665723840027,1425
1089.5399282694575,1435
1091.7127017946405,1435
1093.8848931929647,1410
1096.0565026979243,1427
1098.2275305430899,1408
1100.3979769621128,1441
1102.567842188722,1432
1104.737126456726,1356
1106.9058300000124,1427
1109.0739530525475,1431
1111.2414958483764,1405
1113.4084586216231,1378
1115.5748416064907,1405
1117.7406450372605,1440
1119.9058691482942,1377
1122.0705141740304,1391
1124.2345803489884,1387
1126.3980679077658,1396
1128.5609770850388,1414
1130.7233081155623,1415
1132.8850612341707,1422
1135.0462366757774,1424
1137.2068346753745,1418
1139.3668554680326,1384
1141.526299288901,1435
1143.68516637321,1454
1145.8434569562655,1411
1148.001171273455,1397
1150.158309560244,1411
1152.3148720521767,1465
1154.470858984876,1422
1156.626270594044,1427
1158.7811071154629,1429
1160.9353687849912,1401
1163.089055838569,1448
1165.242168512213,1396
1167.3947070420209,1428
1169.5466716641677,1427
1171.6980626149075,1440
1173.8488801305748,1472
1175.9991244475814,1397
1178.1487958024186,1398
1180.2978944316555,1376
1182.4464205719428,1400
1184.5943744600072,1374
1186.7417563326567,1379
1188.8885664267755,1372
1191.0348049793297,1307
1193.1804722273619,1337
1195.325568407995,1395
1197.4700937584303,1417
1199.614048515948,1367
1201.7574329179074,1397
1203.900247201746,1450
1206.042491604982,1378
1208.1841663652099,1399
1210.3252717201053,1350
1212.465807907422,1449
1214.6057751649923,1404
1216.7451737307279,1397
1218.8840038426192,1439
1221.0222657387353,1454
1223.1599596572241,1417
1225.2970858363137,1444
1227.4336445143094,1440
1229.5696359295966,1434
1231.705060320639,1419
1233.8399179259786,1434
1235.9742089842384,1468
1238.107933734118,1461
1240.2410924143974,1418
1242.373685263935,1476
1244.5057125216676,1448
1246.6371744266116,1467
1248.7680712178621,1509
1250.898403134593,1431
1253.028170416058,1425
1255.1573733015875,1451
1257.2860120305932,1450
1259.4140868425648,1517
1261.54159797707,1519
1263.6685456737569,1455
1265.7949301723515,1412
1267.9207517126597,1493
1270.046010534565,1516
1272.1707068780306,1486
1274.2948409830983,1515
1276.4184130898889,1486
1278.541423438603,1468
1280.6638722695184,1495
1282.785759822993,1497
1284.9070863394636,1501
1287.0278520594447,1499
1289.1480572235314,1547
1291.2677020723963,1540
1293.3867868467923,1577
1295.5053117875495,1574
1297.623277135579,1548
1299.740683131868,1553
1301.8575300174857,1622
1303.973818033578,1607
1306.0895474213703,1612
1308.2047184221678,1620
1310.3193312773528,1630
1312.4333862283888,1678
1314.5468835168163,1668
1316.659823384255,1632
1318.7722060724045,1564
1320.8840318230418,1562
1322.9953008780249,1631
1325.1060134792888,1690
1327.2161698688478,1629
1329.3257702887959,1649
1331.4348149813054,1619
1333.5433041886276,1544
1335.6512381530933,1610
1337.7586171171101,1645
1339.8654413231675,1611
1341.9717110138317,1658
1344.0774264317488,1606
1346.1825878196432,1553
1348.2871954203192,1575
1350.3912494766587,1610
1352.4947502316231,1621
1354.5976979282532,1559
1356.7000928096686,1573
1358.8019351190665,1499
1360.9032250997243,1536
1363.0039629949988,1506
1365.1041490483235,1468
1367.2037835032133,1570
1369.3028666032606,1549
1371.401398592137,1552
1373.4993797135926,1526
1375.5968102114575,1561
1377.6936903296396,1539
1379.7900203121262,1522
1381.8858004029835,1592
1383.9810308463561,1553
1386.075711886469,1548
1388.1698437676241,1489
1390.2634267342032,1482
1392.356461030667,1510
1394.4489469015557,1504
1396.5408845914872,1517
1398.6322743451592,1456
1400.7231164073469,1528
1402.813411022907,1477
1404.903158436773,1516
1406.9923588939578,1514
1409.0810126395531,1509
1411.1691199187303,1503
1413.2566809767386,1516
1415.343696058907,1526
1417.4301654106425,1536
1419.5160892774315,1518
1421.6014679048399,1576
1423.6863015385125,1567
1425.7705904241707,1500
1427.8543348076178,1500
1429.9375349347342,1531
1432.0201910514802,1549
1434.102303403894,1585
1436.1838722380944,1534
1438.2648978002767,1608
1440.3453803367174,1582
1442.4253200937692,1583
1444.5047173178677,1561
1446.5835722555234,1573
1448.6618851533285,1547
1450.739656257952,1633
1452.8168858161434,1665
1454.8935740747306,1645
1456.96972128062,1652
1459.045327680797,1653
1461.120393522327,1650
1463.1949190523528,1633
1465.2689045180973,1671
1467.3423501668608,1635
1469.415256246024,1651
1471.4876230030463,1726
1473.559450685465,1690
1475.6307395408976,1748
1477.7014898170391,1757
1479.771701761665,1736
1481.8413756226287,1740
1483.9105116478618,1721
1485.9791100853772,1727
1488.0471711832643,1785
1490.1146951896926,1735
1492.1816823529098,1682
1494.2481329212433,1809
1496.3140471430984,1764
1498.3794252669609,1778
1500.4442675413939,1804
1502.5085742150404,1854
1504.572345536622,1795
1506.6355817549388,1764
1508.6982831188702,1789
1510.7604498773744,1876
1512.8220822794883,1824
1514.8831805743293,1846
1516.9437450110909,1832
1519.003775839048,1890
1521.0632733075522,1819
1523.1222376660367,1863
1525.1806691640113,1934
1527.2385680510652,1950
1529.2959345768668,1940
1531.3527689911643,1938
1533.4090715437833,1934
1535.4648424846291,1951
1537.5200820636855,2033
1539.5747905310159,1891
1541.6289681367616,1940
1543.6826151311434,2103
1545.7357317644614,2049
1547.7883182870937,2091
1549.8403749494987,2055
1551.8919020022113,2099
1553.9428996958477,2140
1555.9933682811015,2239
1558.0433080087469,2300
1560.0927191296346,2228
1562.1416018946961,2251
1564.1899565549415,2221
1566.2377833614592,2254
1568.2850825654164,2136
1570.3318544180606,2197
1572.3780991707158,2199
1574.423817074788,2114
1576.4690083817595,2155
1578.5136733431923,2045
1580.5578122107272,2087
1582.601425236085,2023
1584.6445126710646,2057
1586.6870747675434,1935
1588.7291117774776,1866
1590.7706239529034,1874
1592.8116115459347,1879
1594.8520748087658,1806
1596.8920139936686,1724
1598.9314293529933,1705
1600.9703211391711,1743
1603.008689604711,1709
1605.0465350022005,1715
1607.0838575843068,1697
1609.1206576037753,1687
1611.1569353134305,1601
1613.1926909661765,1608
1615.2279248149953,1551
1617.2626371129481,1546
1619.2968281131757,1521
1621.3304980688963,1508
1623.3636472334088,1447
1625.39627586009,1493
1627.428384202396,1483
1629.459972513861,1506
1631.4910410480993,1558
1633.5215900588028,1489
1635.551619799744,1465
1637.5811305247717,1452
1639.6101224878166,1396
1641.6385959428862,1437
1643.6665511440683,1416
1645.693988345528,1413
1647.7209078015112,1397
1649.7473097663405,1468
1651.7731944944203,1454
1653.7985622402307,1414
1655.823413258333,1455
1657.847747803366,1405
1659.8715661300494,1377
1661.8948684931793,1421
1663.9176551476316,1449
1665.9399263483624,1364
1667.9616823504057,1414
1669.982923408873,1393
1672.0036497789574,1338
1674.0238617159293,1400
1676.043559475138,1350
1678.0627433120121,1388
1680.081413482059,1370
1682.0995702408654,1396
1684.117213844096,1399
1686.134344547495,1368
1688.1509626068864,1354
1690.1670682781705,1426
1692.182661817329,1396
1694.1977434804217,1401
1696.2123135235875,1405
1698.226372203043,1438
1700.2399197750851,1444
1702.2529564960905,1443
1704.2654826225112,1360
1706.277498410882,1367
1708.2890041178139,1331
1710.2999999999988,1395
1712.3104863142066,1394
1714.3204633172854,1385
1716.329931266163,1336
1718.3388904178469,1368
1720.3473410294214,1393
1722.3552833580516,1364
1724.3627176609807,1346
1726.3696441955308,1409
1728.3760632191033,1381
1730.3819749891782,1393
1732.3873797633146,1370
1734.3922777991502,1349
1736.3966693544012,1386
1738.4005546868639,1435
1740.4039340544127,1333
1742.406807715001,1351
1744.4091759266616,1344
1746.4110389475054,1307
1748.4123970357223,1320
1750.413250449582,1364
1752.4135994474318,1413
1754.4134442876993,1325
1756.4127852288902,1332
1758.4116225295893,1344
1760.4099564484595,1368
1762.407787244244,1351
1764.405115175764,1380
1766.4019405019203,1354
1768.3982634816916,1348
1770.3940843741357,1364
1772.3894034383907,1335
1774.3842209336717,1364
1776.378537119274,1324
1778.372352254571,1339
1780.3656665990156,1278
1782.3584804121397,1323
1784.3507939535534,1355
1786.3426074829463,1321
1788.3339212600863,1388
1790.3247355448211,1344
1792.3150505970766,1350
1794.3048666768573,1335
1796.2941840442477,1355
1798.2830029594106,1314
1800.2713236825884,1322
1802.2591464741004,1386
1804.2464715943465,1343
1806.2332993038058,1320
1808.2196298630352,1348
1810.2054635326708,1338
1812.190800573428,1275
1814.175641246101,1299
1816.1599858115628,1335
1818.1438345307652,1322
1820.127187664738,1341
1822.1100454745924,1346
1824.092408221516,1351
1826.0742761667766,1320
1828.055649571721,1321
1830.0365286977735,1297
1832.0169138064398,1283
1833.9968051593014,1348
1835.9762030180214,1349
1837.9551076443408,1346
1839.9335193000788,1367
1841.9114382471344,1300
1843.888864747485,1296
1845.8657990631878,1364
1847.842241456378,1297
1849.8181921892697,1264
1851.7936515241558,1379
1853.7686197234098,1297
1855.7430970494815,1325
1857.7170837649014,1291
1859.6905801322787,1335
1861.6635864143004,1306
1863.6361028737338,1349
1865.608129773424,1347
1867.5796673762961,1334
1869.5507159453537,1321
1871.521275743678,1331
1873.4913470344313,1357
1875.4609300808534,1365
1877.4300251462632,1325
1879.3986324940588,1317
1881.366752387717,1313
1883.3343850907936,1371
1885.3015308669228,1336
1887.268189979819,1280
1889.2343626932739,1334
1891.2000492711595,1353
1893.1652499774254,1355
1895.1299650761011,1351
1897.0941948312952,1372
1899.0579395071945,1365
1901.0211993680641,1357
1902.98397467825,1334
1904.9462657021745,1363
1906.9080727043415,1372
1908.869395949332,1346
1910.8302357018065,1341
1912.790592226504,1407
1914.7504657882428,1343
1916.7098566519212,1353
1918.6687650825133,1360
1920.6271913450764,1337
1922.5851357047422,1344
1924.5425984267245,1349
1926.499579776314,1333
1928.4560800188833,1354
1930.4120994198802,1343
1932.367638244833,1358
1934.32269675935,1353
1936.2772752291175,1376
1938.231373919899,1392
1940.1849930975404,1384
1942.1381330279637,1386
1944.0907939771696,1352
1946.0429762112412,1315
1947.9946799963363,1345
1949.9459055986945,1337
1951.896653284633,1363
1953.8469233205478,1361
1955.7967159729142,1348
1957.7460315082863,1285
1959.6948701932974,1301
1961.6432322946594,1347
1963.5911180791632,1333
1965.5385278136787,1342
1967.4854617651545,1345
1969.4319202006182,1312
1971.377903387176,1316
1973.3234115920136,1311
1975.268445082395,1315
1977.2130041256642,1328
1979.1570889892423,1297
1981.1006999406304,1320
1983.04383724741,1314
1984.986501177238,1300
1986.928691997853,1293
1988.8704099770712,1340
1990.811655382789,1349
1992.7524284829801,1347
1994.692729545698,1303
1996.6325588390755,1314
1998.5719166313224,1302
2000.5108031907307,1343
2002.4492187856677,1340
2004.387163684583,1322
2006.3246381560011,1283
2008.2616424685298,1337
2010.1981768908527,1285
2012.1342416917332,1271
2014.069837140014,1272
2016.0049635046162,1314
2017.9396210545406,1311
2019.8738100588666,1301
2021.8075307867502,1312
2023.740783507431,1356
2025.6735684902228,1328
2027.6058860045214,1292
2029.5377363198004,1287
2031.4691197056118,1317
2033.4000364315875,1294
2035.3304867674374,1350
2037.260470982952,1310
2039.189989347998,1294
2041.1190421325232,1323
2043.047629606554,1256
2044.9757520401945,1345
2046.9034097036288,1348
2048.8306028671195,1285
2050.7573318010086,1340
2052.683596775716,1305
2054.609398061742,1305
2056.5347359296647,1300
2058.4596106501403,1349
2060.384022493906,1317
2062.3079717317764,1299
2064.231458634646,1272
2066.1544834734873,1316
2068.077046519352,1259
2069.99914804337,1350
2071.9207883167524,1278
2073.8419676107865,1255
2075.7626861968406,1274
2077.6829443463607,1265
2079.6027423308715,1259
2081.522080421977,1292
2083.440958891362,1322
2085.359378010786,1316
2087.2773380520907,1307
2089.194839287196,1317
2091.111881988101,1288
2093.0284664268825,1301
2094.9445928756973,1351
2096.86026160678,1347
2098.775472892446,1335
2100.690227005088,1250
2102.604524217178,1309
2104.5183648012676,1313
2106.431749029985,1335
2108.34467717604,1253
2110.2571495122206,1293
2112.169166311393,1354
2114.080727846503,1373
2115.9918343905747,1292
2117.902486216711,1344
2119.8126835980956,1231
2121.722426807987,1326
2123.6317161197285,1302
2125.5405518067364,1307
2127.448934142509,1273
2129.356863400624,1372
2131.264339854737,1386
2133.1713637785815,1354
2135.077935445972,1309
2136.9840551308002,1305
2138.889723107037,1349
2140.7949396487334,1309
2142.699705030018,1341
2144.6040195250994,1332
2146.507883408264,1319
2148.4112969538774,1347
2150.3142604363848,1307
2152.2167741303097,1330
2154.1188383102535,1349
2156.0204532508997,1320
2157.9216192270064,1282
2159.822336513414,1286
2161.7226053850413,1260
2163.622426116884,1332
2165.5217989840185,1290
2167.4207242616,1278
2169.319202224862,1276
2171.2172331491165,1344
2173.1148173097563,1366
2175.0119549822507,1316
2176.90864644215,1337
2178.8048919650823,1347
2180.7006918267534,1352
2182.596046302952,1373
2184.4909556695407,1359
2186.3854202024645,1314
2188.279440177746,1330
2190.173015871487,1343
2192.066147559868,1293
2193.958835519149,1341
2195.851080025667,1319
2197.7428813558417,1365
2199.6342397861667,1348
2201.5251555932186,1323
2203.415629053651,1300
2205.3056604441986,1327
2207.19525004167,1368
2209.084398122958,1372
2210.9731049650327,1351
2212.861370844941,1349
2214.749196039812,1340
2216.636580826851,1349
2218.523525483344,1358
2220.410030286655,1332
2222.296095514226,1394
2224.1817214435805,1355
2226.066908352319,1346
2227.951656518121,1320
2229.835966218746,1356
2231.71983773203,1394
2233.6032713358913,1399
2235.486267308324,1391
2237.3688259274036,1362
2239.2509474712824,1364
2241.132632218193,1414
2243.013880446447,1392
2244.8946924344323,1394
2246.7750684606203,1357
2248.6550088035574,1400
2250.534513741871,1370
2252.413583554265,1384
2254.292218519526,1366
2256.170418916517,1372
2258.0481850241786,1413
2259.925517121534,1324
2261.8024154876825,1397
2263.678880401803,1384
2265.5549121431536,1391
2267.430510991071,1339
2269.305677224971,1331
2271.180411124348,1325
2273.0547129687766,1301
2274.9285830379076,1364
2276.8020216114737,1319
2278.6750289692845,1318
2280.5476053912294,1377
2282.4197511572766,1409
2284.2914665474727,1410
2286.162751841943,1446
2288.0336073208937,1446
2289.904033264608,1350
2291.774029953448,1370
2293.6435976678554,1370
2295.5127366883517,1333
2297.381447295534,1375
2299.2497297700825,1348
2301.1175843927526,1273
2302.9850114443825,1264
2304.852011205885,1257
2306.7185839582553,1242
2308.5847299825664,1233
2310.4504495599676,1201
2312.3157429716925,1242
2314.1806104990483,1197
2316.0450524234247,1205
2317.9090690262888,1148
2319.772660589186,1219
2321.635827393742,1225
2323.498569721661,1214
2325.3608878547248,1205
2327.2227820747967,1245
2329.0842526638157,1146
2330.945299903803,1187
2332.805924076857,1222
2334.6661254651535,1218
2336.525904350951,1216
2338.3852610165827,1169
2340.244195744464,1168
2342.102708817088,1171
2343.9608005170253,1171
2345.8184711269287,1261
2347.675720929526,1198
2349.532550207628,1159
2351.38895924412,1159
2353.24494832197,1239
2355.100517724223,1233
2356.955667734004,1271
2358.810398634514,1184
2360.664710709037,1226
2362.5186042409337,1152
2364.3720795136437,1245
2366.225136810686,1270
2368.0777764156583,1237
2369.929998612237,1205
2371.7818036841777,1193
2373.633191915315,1263
2375.484163589562,1183
2377.3347189909114,1203
2379.184858403434,1181
2381.03458211128,1237
2382.8838903986775,1223
2384.732783549936,1211
2386.5812618494406,1233
2388.4293255816588,1192
2390.2769750311327,1252
2392.1242104824883,1224
2393.971032220427,1186
2395.8174405297295,1173
2397.6634356952563,1235
2399.509018001947,1251
2401.3541877348193,1254
2403.1989451789705,1203
2405.043290619576,1240
2406.8872243418905,1199
2408.730746631247,1206
2410.5738577730594,1224
2412.4165580528183,1183
2414.258847756095,1252
2416.100727168537,1209
2417.9421965758734,1215
2419.783256263912,1222
2421.623906518538,1239
2423.4641476257157,1236
2425.303979871491,1230
2427.143403541984,1209
2428.9824189233977,1272
2430.821026302012,1191
2432.6592259641866,1220
2434.497018196361,1238
2436.33440328505,1261
2438.171381516851,1200
2440.00795317844,1205
2441.844118556569,1262
2443.6798779380724,1264
2445.5152316098606,1249
2447.3501798589255,1212
2449.1847229723357,1209
2451.0188612372403,1203
2452.8525949408663,1221
2454.6859243705203,1241
2456.518849813587,1199
2458.3513715575314,1283
2460.183489889895,1245
2462.015205098301,1271
2463.8465174704493,1255
2465.67742729412,1222
2467.5079348571717,1242
2469.338040447542,1243
2471.1677443532476,1280
2472.9970468623833,1195
2474.825948263123,1255
2476.6544488437207,1222
2478.482548892508,1238
2480.310248697896,1230
2482.137548548374,1218
2483.9644487325118,1179
2485.790949538956,1251
2487.617051256433,1275
2489.44275417375,1194
2491.26805857979,1233
2493.0929647635157,1230
2494.917473013971,1249
2496.741583620276,1268
2498.5652968716304,1272
2500.3886130573137,1213
2502.2115324666834,1251
2504.0340553891765,1206
2505.856182114308,1238
2507.6779129316733,1250
2509.499248130945,1202
2511.3201880018764,1255
2513.140732834298,1291
2514.9608829181198,1261
2516.780638543331,1244
2518.6,1228
2520.418967578273,1233
2522.237541568376,1289
2524.0557222606144,1172
2525.8735099453706,1268
2527.6909049131086,1284
2529.507907454368,1255
2531.32451785977,1310
2533.140736420014,1273
2534.9565634258774,1248
2536.771999168218,1276
2538.5870439379714,1305
2540.4016980261526,1316
2542.2159617238544,1272
2544.02983532225,1291
2545.8433191125914,1274
2547.656413386209,1303
2549.4691184345115,1320
2551.2814345489874,1336
2553.093362021204,1236
2554.904901142808,1380
2556.716052205523,1258
2558.526815501153,1290
2560.3371913215824,1371
2562.147179958771,1372
2563.956781704761,1283
2565.7659968516705,1367
2567.5748256916986,1329
2569.3832685171224,1335
2571.1913256202984,1329
2572.9989972936614,1326
2574.806283829725,1372
2576.613185521084,1359
2578.4197026604074,1341
2580.2258355404483,1340
2582.031584454035,1344
2583.836949694077,1357
2585.6419315535613,1352
2587.4465303255533,1313
2589.2507463032002,1392
2591.0545797797245,1297
2592.8580310484303,1370
2594.6611004026995,1403
2596.463788135992,1339
2598.266094541849,1328
2600.0680199138874,1342
2601.869564545807,1376
2603.670728731383,1330
2605.4715127644704,1350
2607.2719169390048,1361
2609.071941548998,1329
2610.8715868885433,1372
2612.670853251811,1342
2614.469740933052,1358
2616.268250226594,1332
2618.0663814268455,1368
2619.864134828292,1389
2621.6615107255006,1284
2623.458509413115,1290
2625.2551311858597,1385
2627.0513763385347,1300
2628.8472451660223,1310
2630.6427379632833,1302
2632.4378550253564,1333
2634.232596647359,1281
2636.026963124488,1306
2637.8209547520187,1320
2639.6145718253065,1301
2641.407814639785,1333
2643.200683490966,1320
2644.9931786744414,1261
2646.7853004858807,1281
2648.577049221034,1348
2650.3684251757277,1296
2652.1594286458712,1303
2653.9500599274484,1325
2655.740319316525,1342
2657.5302071092437,1305
2659.3197236018286,1289
2661.10886909058,1261
2662.8976438718782,1268
2664.686048242183,1286
2666.4740824980327,1302
2668.2617469360443,1253
2670.0490418529134,1237
2671.8359675454153,1225
2673.622524310403,1270
2675.408712444811,1273
2677.1945322456495,1239
2678.979984010009,1232
2680.76506803506,1252
2682.5497846180497,1180
2684.334134056306,1270
2686.1181166472343,1234
2687.9017326883213,1274
2689.6849824771293,1209
2691.4678663113013,1240
2693.2503844885596,1196
2695.032537306705,1286
2696.8143250636167,1235
2698.5957480572542,1185
2700.3768065856534,1214
2702.1575009469316,1276
2703.937831439283,1205
2705.717798360982,1208
2707.4974020103837,1223
2709.276642685917,1221
2711.055520686095,1202
2712.834036309506,1178
2714.612189854819,1208
2716.389981620782,1180
2718.1674119062204,1167
2719.944481010041,1153
2721.721189231226,1151
2723.4975368688415,1171
2725.273524222027,1185
2727.0491515900053,1223
2728.824419272075,1175
2730.5993275676146,1202
2732.3738767760838,1202
2734.148067197016,1182
2735.921899130031,1199
2737.6953728748194,1174
2739.468488731156,1142
2741.2412469988926,1184
2743.0136479779617,1159
2744.785691968372,1193
2746.5573792702116,1221
2748.3287101836504,1217
2750.099685008934,1164
2751.870304046388,1194
2753.640567596418,1200
2755.4104759595057,1215
2757.1800294362156,1155
2758.949228327187,1141
2760.7180729331412,1151
2762.486563554877,1195
2764.254700493272,1156
2766.022484049284,1185
2767.789914523947,1155
2769.5569922183786,1152
2771.3237174337705,1152
2773.090090471394,1152
2774.8561116326036,1141
2776.6217812188274,1127
2778.3870995315756,1162
2780.1520668724356,1199
2781.9166835430747,1227
2783.6809498452394,1182
2785.444866080754,1232
2787.2084325515225,1166
2788.971649559527,1125
2790.73451740683,1171
2792.4970363955713,1157
2794.2592068279705,1200
2796.0210290063264,1149
2797.7825032330147,1222
2799.543629810493,1159
2801.304409041296,1211
2803.0648412280366,1191
2804.8249266734088,1189
2806.5846656801846,1192
2808.344058551212,1208
2810.1031055894246,1188
2811.8618070978273,1145
2813.6201633795085,1148
2815.378174737636,1145
2817.1358414754536,1199
2818.893163896285,1221
2820.6501423035334,1172
2822.4067770006814,1199
2824.1630682912883,1235
2825.9190164789957,1186
2827.6746218675207,1176
2829.429884760661,1234
2831.184805462294,1204
2832.9393842763743,1205
2834.693621506936,1163
2836.4475174580916,1168
2838.201072434034,1154
2839.954286739034,1205
2841.707160677441,1196
2843.459694553685,1194
2845.2118886722724,1205
2846.96374333779,1175
2848.7152588549034,1178
2850.4664355283567,1221
2852.217273662973,1190
2853.9677735636546,1151
2855.7179355353833,1184
2857.4677598832186,1177
2859.217246912299,1148
2860.9663969278427,1191
2862.715210235146,1169
2864.4636871395846,1214
2866.211827946614,1208
2867.9596329617652,1225
2869.7071024906536,1162
2871.4542368389684,1155
2873.20103631248,1174
2874.947501217038,1159
2876.6936318585695,1152
2878.4394285430812,1197
2880.1848915766604,1151
2881.9300212654707,1219
2883.6748179157553,1224
2885.4192818338374,1228
2887.1634133261173,1185
2888.907212699077,1188
2890.6506802592744,1181
2892.393816313348,1181
2894.1366211680142,1191
2895.8790951300693,1149
2897.621238506388,1168
2899.363051603925,1190
2901.1045347297118,1169
2902.8456881908596,1209
2904.58651229456,1207
2906.327007348081,1145
2908.067173658772,1171
2909.8070115340597,1219
2911.5465212814497,1163
2913.285703208527,1215
2915.0245576229563,1152
2916.7630848324807,1192
2918.5012851449196,1214
2920.2391588681758,1182
2921.976706310227,1217
2923.7139277791334,1167
2925.4508235830313,1193
2927.187394030137,1204
2928.923639428745,1241
2930.6595600872306,1197
2932.395156314046,1159
2934.1304284177218,1244
2935.8653767068713,1163
2937.6000014901815,1238
2939.3343030764227,1214
2941.068281774442,1176
2942.8019378931644,1165
2944.5352717415976,1154
2946.2682836288236,1152
2948.0009738640065,1165
2949.7333427563885,1182
2951.465390615289,1172
2953.1971177501086,1203
2954.9285244703265,1209
2956.6596110855,1180
2958.3903779052657,1160
2960.1208252393385,1197
2961.8509533975125,1118
2963.5807626896617,1151
2965.3102534257378,1166
2967.0394259157715,1205
2968.768280469873,1230
2970.496817398232,1176
2972.2250370111146,1152
2973.952939618869,1159
2975.6805255319196,1164
2977.4077950607707,1157
2979.134748516006,1136
2980.861386208289,1144
2982.587708448359,1166
2984.313715547037,1186
2986.039407815222,1172
2987.764785563891,1148
2989.489849104102,1172
2991.2145987469908,1158
2992.9390348037705,1153
2994.6631575857346,1162
2996.3869674042576,1196
2998.1104645707887,1173
2999.83364939686,1160
3001.5565221940783,1109
3003.2790832741334,1124
3005.0013329487924,1199
3006.7232715298996,1161
3008.4448993293804,1191
3010.166216659239,1184
3011.887223831558,1221
3013.607921158498,1167
3015.3283089522993,1186
3017.0483875252826,1187
3018.7681571898443,1148
3020.4876182584626,1106
3022.2067710436927,1104
3023.9256158581707,1151
3025.644153014609,1190
3027.362382825801,1167
3029.0803056046193,1159
3030.797921664012,1197
3032.5152313170106,1183
3034.2322348767225,1132
3035.9489326563353,1149
3037.665324969115,1179
3039.3814121284063,1115
3041.097194447633,1168
3042.812672240299,1155
3044.5278458199855,1112
3046.2427155003525,1204
3047.9572815951406,1141
3049.671544418167,1214
3051.38550428333,1134
3053.0991615046073,1171
3054.812516396051,1144
3056.5255692717974,1172
3058.2383204460575,1190
3059.9507702331257,1179
3061.662918947372,1191
3063.3747669032446,1150
3065.0863144152736,1142
3066.7975617980674,1153
3068.508509366309,1130
3070.219157434767,1124
3071.9295063182844,1145
3073.639556331785,1177
3075.3493077902704,1163
3077.058761008821,1104
3078.7679163025964,1160
3080.476773986837,1156
3082.1853343768594,1156
3083.89359778806,1110
3085.6015645359153,1124
3087.3092349359786,1143
3089.016609303884,1162
3090.7236879553434,1184
3092.4304712061476,1171
3094.136959372166,1122
3095.843152769349,1207
3097.5490517137237,1128
3099.2546565213966,1164
3100.959967508554,1148
3102.66498499146,1161
3104.3697092864577,1143
3106.0741407099695,1156
3107.778279578498,1114
3109.482126208622,1128
3111.1856809170004,1143
3112.8889440203716,1130
3114.5919158355528,1133
3116.294596679439,1152
3117.996986869006,1172
3119.6990867213062,1159
3121.4008965534726,1160
3123.102416682717,1215
3124.803647426329,1209
3126.5045891016784,1215
3128.205242026213,1101
3129.90560651746,1137
3131.605682893025,1124
3133.3054714705922,1121
3135.0049725679282,1171
3136.7041865028714,1148
3138.4031135933465,1122
3140.101754157353,1145
3141.800108512971,1177
3143.498176978357,1117
3145.1959598717494,1148
3146.8934575114636,1159
3148.5906702158954,1153
3150.2875983035183,1127
3151.9842420928853,1150
3153.680601902627,1138
3155.376678051456,1150
3157.07247085816,1128
3158.767980641609,1104
3160.463207720748,1162
3162.158152414606,1152
3163.8528150422862,1162
3165.5471959229726,1141
3167.2412953759303,1159
3168.9351137204976,1149
3170.628651276098,1122
3172.3219083622307,1197
3174.014885298474,1124
3175.707582404485,1172
3177.4000000000005,1104
3179.092138404835,1137
3180.7839979388846,1193
3182.47557892212,1199
3184.166881674594,1134
3185.8579065164386,1176
3187.5486537678626,1144
3189.2391237491547,1139
3190.9293167806827,1125
3192.6192331828934,1204
3194.3088732763117,1130
3195.998237381542,1093
3197.687325819268,1117
3199.376138910251,1087
3201.064676975334,1139
3202.7529403354347,1154
3204.4409293115523,1131
3206.1286442247647,1146
3207.816085396229,1121
3209.5032531471825,1082
3211.190147798936,1124
3212.8767696728846,1106
3214.5631190905015,1116
3216.2491963733373,1159
3217.9350018430214,1104
3219.6205358212637,1092
3221.305798629851,1119
3222.990790590651,1160
3224.6755120256103,1136
3226.359963256751,1063
3228.0441446061795,1118
3229.7280563960758,1102
3231.411698948703,1102
3233.0950725863995,1171
3234.778177631587,1105
3236.461014406761,1118
3238.1435832345005,1127
3239.8258844374595,1140
3241.507918338374,1141
3243.1896852600576,1173
3244.8711855254023,1136
3246.552419457381,1138
3248.233387379042,1099
3249.914089613516,1128
3251.59452648401,1165
3253.274698313813,1091
3254.95460542629,1125
3256.6342481448855,1128
3258.313626793125,1111
3259.9927416946084,1132
3261.6715931730196,1107
3263.3501815521176,1154
3265.0285071557437,1135
3266.706570307815,1086
3268.3843713323286,1088
3270.0619105533615,1121
3271.739188295068,1076
3273.4162048816834,1188
3275.0929606375184,1143
3276.769455886966,1132
3278.445690954498,1173
3280.1216661646613,1120
3281.797381842087,1153
3283.4728383114807,1090
3285.1480358976296,1085
3286.8229749253996,1127
3288.4976557197333,1093
3290.172078605655,1119
3291.846243908266,1150
3293.5201519527463,1149
3295.193803064357,1118
3296.8671975684374,1121
3298.5403357904024,1141
3300.21321805575,1152
3301.8858446900567,1159
3303.558216018975,1130
3305.23033236824,1123
3306.9021940636603,1134
3308.57380143113,1152
3310.2451547966184,1111
3311.916254486174,1133
3313.5871008259246,1127
3315.2576941420766,1189
3316.9280347609147,1154
3318.5981230088046,1169
3320.2679592121895,1148
3321.9375436975924,1089
3323.606876791612,1110
3325.27595882093,1170
3326.944790112305,1120
3328.6133709925753,1088
3330.2817017886573,1067
3331.949782827547,1116
3333.617614436319,1150
3335.2851969421245,1160
3336.952530672199,1146
3338.619615953853,1171
3340.286453114475,1138
3341.9530424815357,1162
3343.619384382583,1155
3345.2854791452437,1122
3346.951327097224,1161
3348.6169285663073,1087
3350.2822838803577,1105
3351.947393367319,1130
3353.61225735521,1087
3355.2768761721345,1136
3356.9412501462693,1155
3358.605379605873,1151
3360.2692648792827,1109
3361.9329062949146,1158
3363.596304181263,1094
