CollectionTime,9/26/2024 8:36:22 AM
ExposureUsed,3
CalibratedSpectrum
-962.7078968117929,523
-959.9714848408522,544
-957.2358232597828,583
-954.5009119013725,575
-951.7667505983302,575
-949.0333391832855,589
-946.3006774887896,566
-943.5687653473143,605
-940.837602591253,620
-938.1071890529199,605
-935.3775245645503,555
-932.6486089583007,564
-929.9204420662485,623
-927.1930237203925,620
-924.4663537526524,605
-921.7404319948689,587
-919.0152582788041,629
-916.2908324361409,719
-913.5671542984834,652
-910.8442236973568,574
-908.1220404642074,585
-905.4006044304027,607
-902.679915427231,573
-899.959973285902,534
-897.2407778375464,579
-894.5223289132158,573
-891.8046263438832,587
-889.0876699604426,593
-886.3714595937089,587
-883.6559950744183,584
-880.9412762332282,601
-878.2273029007168,588
-875.5140749073835,608
-872.8015920836489,557
-870.0898542598545,563
-867.3788612662631,606
-864.6686129330585,566
-861.9591090903457,545
-859.2503495681506,512
-856.5423341964203,521
-853.8350628050229,538
-851.1285352237478,566
-848.4227512823054,606
-845.7177108103272,621
-843.0134136373656,603
-840.3098595928943,561
-837.6070485063082,609
-834.9049802069229,591
-832.2036545239757,577
-829.5030712866244,638
-826.8032303239481,623
-824.1041314649472,553
-821.4057745385428,554
-818.7081593735775,563
-816.0112857988148,598
-813.3151536429393,569
-810.6197627345566,597
-807.9251129021936,580
-805.2312039742981,646
-802.5380357792392,609
-799.8456081453069,587
-797.1539209007124,557
-794.462973873588,589
-791.772766891987,609
-789.083299783884,626
-786.3945723771743,657
-783.7065844996748,616
-781.0193359791231,614
-778.3328266431781,658
-775.6470563194197,633
-772.9620248353489,593
-770.2777320183878,602
-767.5941776958798,556
-764.9113616950891,540
-762.2292838432011,578
-759.5479439673222,556
-756.8673418944801,640
-754.1874774516235,640
-751.5083504656222,588
-748.8299607632671,592
-746.15230817127,646
-743.475392516264,634
-740.7992136248035,599
-738.1237713233636,599
-735.4490654383407,613
-732.7750957960521,598
-730.1018622227365,637
-727.4293645445534,616
-724.7576025875837,614
-722.0865761778291,618
-719.4162851412126,628
-716.7467293035781,661
-714.0779084906909,716
-711.409822528237,601
-708.7424712418238,642
-706.0758544569796,635
-703.4099719991541,616
-700.7448236937178,657
-698.0804093659622,649
-695.4167288411002,652
-692.7537819442656,627
-690.0915685005134,635
-687.4300883348199,642
-684.7693412720819,654
-682.1093271371178,635
-679.4500457546669,637
-676.7914969493897,670
-674.1336805458676,659
-671.4765963686034,625
-668.8202442420206,606
-666.1646239904642,630
-663.5097354382001,628
-660.8555784094151,670
-658.2021527282176,633
-655.5494582186366,647
-652.8974947046223,656
-650.2462620100463,642
-647.5957599587009,705
-644.9459883742998,707
-642.2969470804776,676
-639.6486359007902,694
-637.0010546587141,651
-634.3542031776476,631
-631.7080812809096,614
-629.0626887917401,661
-626.4180255333008,727
-623.7740913286734,707
-621.1308860008619,662
-618.4884093727904,699
-615.8466612673046,676
-613.2056415071715,697
-610.5653499150785,718
-607.9257863136347,705
-605.28695052537,722
-602.6488423727357,709
-600.0114616781036,710
-597.3748082637674,824
-594.7388819519412,812
-592.1036825647604,756
-589.4692099242818,792
-586.8354638524829,805
-584.2024441712624,813
-581.5701507024403,792
-578.9385832677575,761
-576.3077416888759,784
-573.6776257873787,774
-571.0482353847704,775
-568.4195703024757,807
-565.7916303618415,742
-563.164415384135,693
-560.5379251905453,707
-557.9121596021815,755
-555.2871184400748,744
-552.6628015251767,781
-550.0392086783606,755
-547.4163397204204,774
-544.794194472071,807
-542.1727727539491,743
-539.5520743866118,788
-536.9320991905377,814
-534.3128469861261,950
-531.6943175936979,874
-529.0765108334947,958
-526.4594265256793,1174
-523.8430644903358,1400
-521.2274245474689,1476
-518.612506517005,1553
-515.9983102187913,1567
-513.3848354725959,1731
-510.77208209810846,1741
-508.16004991493924,1956
-505.5487387426199,1961
-502.9381484006032,1730
-500.3282787082628,1615
-497.71912948489364,1433
-495.1107005497117,1295
-492.5029917218539,1296
-489.8960028203786,1086
-487.28973366426493,965
-484.68418407241325,907
-482.07935386364494,880
-479.47524285670266,858
-476.87185087025,944
-474.2691777228715,921
-471.66722323307334,884
-469.0659872192821,859
-466.4654694998459,852
-463.86566989303384,882
-461.26658821703614,875
-458.66822428996414,860
-456.07057792985,966
-453.4736489546475,1000
-450.877437182231,888
-448.28194243039627,863
-445.68716451686,834
-443.09310325926003,811
-440.49975847515555,853
-437.9071299820263,978
-435.31521759727354,974
-432.72402113821954,1076
-430.13354042210767,927
-427.5437752661022,912
-424.95472548728867,952
-422.36639090267386,1052
-419.7787713291855,980
-417.1918665836721,1023
-414.60567648290385,1033
-412.0202008435715,1046
-409.4354394822874,1018
-406.8513922155845,961
-404.26805885991723,996
-401.685439231661,967
-399.103533147112,921
-396.522340422488,1016
-393.9418608739278,962
-391.3620943174908,916
-388.7830405691583,1015
-386.2046994448317,929
-383.6270707603344,873
-381.05015433141045,883
-378.473949973725,786
-375.8984575028645,756
-373.32367673433623,773
-370.74960748356875,714
-368.1762495659117,681
-365.60360279663576,732
-363.03166699093265,742
-360.4604419639154,680
-357.8899275306178,650
-355.32012350599507,600
-352.7510297049233,597
-350.1826459421999,553
-347.61497203254316,566
-345.04800779059235,582
-342.4817530309082,648
-339.91620756797226,659
-337.35137121618743,657
-334.7872437898774,682
-332.22382510328725,792
-329.66111497058273,763
-327.09911320585127,680
-324.53781962310075,604
-321.9772340362607,589
-319.4173562591816,619
-316.8581861056348,600
-314.2997233893127,629
-311.7419679238294,667
-309.1849195227194,630
-306.62857799943856,600
-304.0729431673641,676
-301.51801483979375,898
-298.963792829947,824
-296.41027695096386,833
-293.85746701590574,796
-291.3053628377552,780
-288.7539642294155,912
-286.2032710037115,944
-283.65328297338897,930
-281.1039999511146,1120
-278.5554217494762,1285
-276.007548180983,1069
-273.4603790580651,862
-270.9139141930734,952
-268.3681533982807,1004
-265.8230964858798,1004
-263.27874326798565,866
-260.7350935566336,880
-258.1921471637804,1131
-255.6499039013039,1220
-253.10836358100266,1033
-250.56752601459698,898
-248.02739101372765,1089
-245.48795838995704,1282
-242.94922795476816,1139
-240.41119951956557,968
-237.8738728956746,940
-235.33724789434166,1136
-232.80132432673452,1129
-230.2661020039418,980
-227.73158073697357,962
-225.19776033676033,1178
-222.66464061415422,1226
-220.1322213799284,1113
-217.60050244477725,1045
-215.06948361931552,1276
-212.53916471408013,1776
-210.00954553952818,1929
-207.48062590603843,1438
-204.9524056239104,1025
-202.4248845033651,1193
-199.8980623545441,1519
-197.37193898751036,1635
-194.84651421224817,1318
-192.32178783866232,1263
-189.79775967657952,1366
-187.27442953574644,1571
-184.7517972258321,1581
-182.2298625564256,1383
-179.7086253370378,1281
-177.18808537710026,1450
-174.66824248596583,1784
-172.14909647290835,1980
-169.6306471471229,1521
-167.11289431772548,1393
-164.59583779375328,1470
-162.07947738416453,1813
-159.5638128978386,2085
-157.04884414357605,2045
-154.53457093009854,1851
-152.02099306604828,1628
-149.50811035998936,1414
-146.99592262040665,1512
-144.48442965570587,2095
-141.97363127421409,2887
-139.46352728417958,2918
-136.95411749377126,2532
-134.44540171107985,1967
-131.93737974411636,1532
-129.43005140081357,2072
-126.92341648902493,3140
-124.41747481652521,5061
-121.91222619101006,5943
-119.40767042009657,5294
-116.90380731132257,3831
-114.40063667214702,2964
-111.8981583099503,2358
-109.3963720320337,2879
-106.89527764561933,5334
-104.39487495785067,9900
-101.89516377579241,14051
-99.39614390642998,14677
-96.89781515667039,14442
-94.40017733334128,12614
-91.90323024319173,12767
-89.40697369289148,13584
-86.91140748903172,15193
-84.41653143812482,18179
-81.92234534660395,21462
-79.42884902082358,22334
-76.93604226705907,17023
-74.4439248915071,13199
-71.95249670028534,16841
-69.46175749943245,25960
-66.97170709490854,35802
-64.48234529259423,37904
-61.99367189829195,34492
-59.50568671772464,28824
-57.01838955653636,23905
-54.53178022029283,17341
-52.045858514480074,16715
-49.560624244506016,15680
-47.07607721569923,15414
-44.59221723330904,14323
-42.10904410250669,15077
-39.62655762838392,15722
-37.14475761595372,18913
-34.66364387015028,24066
-32.18321619582866,29733
-29.70347439776515,35356
-27.224418280657005,45065
-24.74604764912317,65025
-22.26836230770266,65025
-19.7913620608565,65025
-17.315046712966478,65025
-14.83941606833514,65025
-12.36446993118659,65025
-9.89020810566592,65025
-7.416630395839093,65025
-4.94373660569363,65025
-2.471526539137585,65025
-6.821210263296962E-13,65025
2.47084320796705,65025
4.941003281093458,65025
7.410480415786196,65025
9.879274808531363,65025
12.347386655893956,65025
14.814816154518212,65025
17.28156350112681,65025
19.74762889252179,65025
22.21301252558385,26614
24.67771459727237,7547
27.141735304626195,7447
29.605074844762612,8549
32.06773341487792,7548
34.52971121224755,6736
36.99100843422559,7042
39.45162527824516,5323
41.91156194181792,4549
44.370818622535126,3859
46.82939551806646,4156
49.287292826160524,4010
51.74451074464503,4343
54.201049471426245,3622
56.65690920448981,3404
59.112090141899785,3473
61.56659248179983,3355
64.02041642241159,3139
66.4735621620365,3926
68.92602989905402,4930
71.37781983192338,5252
73.82893215918205,4564
76.27936707944684,3162
78.72912479141326,3111
81.17820549385567,2904
83.62660938562783,2744
86.07433666566146,3137
88.5213875329681,2702
90.96776218663751,2502
93.41346082583925,2273
95.85848364982041,2127
98.30283085790859,2366
100.7465026495089,2518
103.18949922410604,2441
105.63182078126385,1965
108.07346752062438,2029
110.51443964190923,1603
112.95473734491827,1764
115.39436082953114,2222
117.83331029570547,2609
120.27158594347827,2179
122.7091879729652,1917
125.1461165843615,1958
127.58237197794062,2367
130.01795435405518,2255
132.4528639131364,2082
134.88710085569494,2645
137.32066538231982,2435
139.75355769367923,1966
142.1857779905207,1970
144.61732647366978,1840
147.04820334403132,1668
149.47840880258934,1607
151.90794305040674,1734
154.33680628862487,1774
156.76499871846443,1755
159.19252054122433,1813
161.61937195828352,2072
164.04555317109896,2080
166.47106438120693,2103
168.89590579022217,2202
171.320077599839,2349
173.7435800118302,2712
176.16641322804742,2966
178.58857745042144,2666
181.01007288096173,2461
183.43089972175687,2544
185.85105817497413,2448
188.27054844285988,2382
190.6893707277394,2568
193.10752523201643,2799
195.5250121581745,2642
197.9418317087751,2455
200.3579840864594,2588
202.7734694939469,2786
205.18828813403627,2710
207.6024402096051,2612
210.01592592360964,2657
212.42874547908548,2531
214.84089907914665,2541
217.2523869269868,2667
219.66320922587727,2580
222.0733661791695,2493
224.48285799029293,2682
226.8916848627572,2674
229.29984700014882,2549
231.7073446061355,2606
234.11417788446204,2686
236.520347038953,2695
238.92585227351185,2804
241.33069379212054,2781
243.73487179884035,2773
246.1383864978112,2712
248.541238093252,2721
250.9434267894609,2770
253.34495279081432,2876
255.74581630176783,2800
258.1460175268563,2882
260.54555667069314,2915
262.9444339379703,2976
265.3426495334594,2876
267.7402036620107,2699
270.1370965285529,2641
272.53332833809407,2627
274.9288992957214,2686
277.32380960660055,2591
279.718059475976,2446
282.1116491091717,2431
284.5045787115897,2417
286.89684848871195,2409
289.2884586460981,2550
291.67940938938807,2614
294.0697009242996,2584
296.4593334566299,2619
298.84830719225477,2674
301.23662233712923,2453
303.6242790972866,2510
306.01127767884,2524
308.39761828798066,2419
310.78330113097934,2267
313.16832641418534,2200
315.5526943440269,2194
317.9364051270112,2327
320.3194589697242,2185
322.70185607883093,2133
325.0835966610754,2158
327.4646809232805,2161
329.8451090723478,2210
332.2248813152577,2194
334.6039978590701,2264
336.9824589109231,2160
339.36026467803447,2120
341.7374153677,2043
344.113911187295,2131
346.48975234427337,2167
348.8649390461686,2161
351.2394715005918,1972
353.61334991523415,1990
355.9865744978655,1989
358.35914545633375,2047
360.73106299856715,1997
363.10232733257146,2055
365.47293866643247,2111
367.84289720831396,2039
370.2122031664593,1949
372.5808567491905,1976
374.9488581649083,1987
377.31620762209275,1889
379.6829053293021,1880
382.0489514951745,1955
384.4143463284262,1897
386.7790900378528,1993
389.14318283232853,1982
391.50662492080653,2057
393.86941651231916,2087
396.23155781597745,1988
398.5930490409713,1902
400.9538903965696,1875
403.3140820921202,1917
405.6736243370498,1901
408.03251734086336,1906
410.3907613131465,1895
412.74835646356166,1836
415.10530300185144,1915
417.4616011378372,1818
419.81725108141893,1868
422.1722530425758,1876
424.5266072313656,1893
426.880313857925,1824
429.2333731324701,1778
431.58578526529516,1764
433.9375504667738,1755
436.2886689473588,1824
438.63914091758113,1796
440.9889665880513,1747
443.33814616945835,1750
445.68667987257015,1765
448.03456790823395,1722
450.3818104873759,1744
452.72840782100013,1801
455.07436012019105,1795
457.41966759611057,1737
459.7643304600007,1734
462.10834892318155,1727
464.4517231970525,1850
466.79445349309174,1772
469.1365400228566,1817
471.4779829979826,1882
473.81878263018564,1854
476.15893913125876,1899
478.4984527130747,2033
480.8373235875855,1970
483.17555196682144,1993
485.5131380628919,2097
487.8500820879857,2087
490.1863842543697,2112
492.52204477439034,2344
494.8570638604725,2617
497.1914417251204,2964
499.52517858091653,3401
501.85827464052306,3808
504.19073011668036,3997
506.5225452222086,4080
508.85372017000566,4265
511.18425517304956,4603
513.514150444396,5992
515.8434061971808,7738
518.1720226446176,8124
520.4999999999999,7755
522.8273384766991,7135
525.1540382881666,6324
527.480099647932,5042
529.8055227696037,3602
532.1303078668694,2689
534.454455153496,2309
536.777964843328,2157
539.1008371502907,1951
541.4230722883866,1987
543.744670471698,1921
546.0656319143858,1919
548.3859568306899,1881
550.7056454349294,1867
553.0246979415016,1903
555.3431145648834,1920
557.6608955196306,1848
559.978041020377,1981
562.2945512818363,1915
564.6104265188006,1865
566.9256669461412,1859
569.2402727788082,1918
571.5542442318302,1947
573.8675815203156,1834
576.1802848594508,1767
578.4923544645015,1856
580.8037905508126,1849
583.114593333807,1800
585.4247630289875,1759
587.7342998519354,1765
590.0432040183106,1774
592.3514757438526,1784
594.6591152443794,1806
596.9661227357875,1902
599.2724984340531,1835
601.578242555231,1852
603.8833553154542,1758
606.1878369309362,1862
608.4916876179676,1797
610.7949075929192,1813
613.0974970722403,1765
615.3994562724587,1770
617.7007854101818,1799
620.0014847020951,1827
622.3015543649641,1774
624.6009946156324,1792
626.8998056710224,1805
629.1979877481361,1827
631.4955410640538,1802
633.7924658359349,1770
636.0887622810175,1867
638.3844306166192,1830
640.6794710601358,1837
642.9738838290426,1877
645.2676691408932,1796
647.5608272133207,1764
649.853358264037,1865
652.1452625108324,1888
654.4365401715764,1854
656.7271914642178,1949
659.0172166067838,1965
661.3066158173809,1827
663.5953893141935,1812
665.8835373154867,1886
668.1710600396028,1921
670.4579577049639,1889
672.7442305300709,1829
675.0298787335033,1826
677.3149025339197,1806
679.599302150058,1901
681.8830778007342,1952
684.1662297048437,1853
686.4487580813608,1873
688.7306631493387,1790
691.0119451279091,1838
693.2926042362834,1889
695.5726406937516,1905
697.8520547196814,1892
700.1308465335215,1811
702.4090163547982,1770
704.6865644031171,1804
706.9634908981619,1788
709.2397960596965,1785
711.5154801075631,1831
713.7905432616823,1889
716.0649857420548,1797
718.3388077687592,1838
720.612009561953,1884
722.8845913418733,1770
725.1565533288352,1733
727.427895743234,1776
729.6986188055427,1839
731.9687227363137,1801
734.238207756178,1799
736.5070740858458,1845
738.7753219461066,1796
741.0429515578281,1764
743.3099631419569,1790
745.5763569195191,1785
747.8421331116193,1821
750.1072919394409,1720
752.3718336242467,1902
754.6357583873777,1851
756.8990664502545,1899
759.1617580343765,1829
761.423833361321,1884
763.6852926527457,1842
765.9461361303862,1844
768.206364016058,1829
770.4659765316536,1867
772.7249738991469,1910
774.9833563405886,1837
777.2411240781092,1903
779.4982773339183,1847
781.7548163303044,1840
784.010741289634,1832
786.2660524343538,2007
788.5207499869881,1971
790.7748341701416,1978
793.0283052064964,1850
795.2811633188143,1828
797.5334087299362,1911
799.7850416627813,1888
802.0360623403484,1923
804.2864709857143,1959
806.5362678220353,1886
808.7854530725468,1875
811.0340269605625,1908
813.2819897094754,1929
815.5293415427581,1843
817.77608268396,1849
820.0222133567116,1803
822.2677337847211,1896
824.5126441917765,1925
826.7569448017433,1876
829.0006358385675,1798
831.2437175262731,1874
833.4861900889629,1773
835.7280537508192,1789
837.9693087361026,1789
840.2099552691533,1850
842.4499935743896,1778
844.689423876309,1893
846.9282463994886,1846
849.1664613685833,1744
851.4040690083276,1839
853.6410695435349,1844
855.877463199097,1798
858.1132501999847,1873
860.3484307712487,1985
862.5830051380175,1846
864.8169735254988,1879
867.0503361589791,1796
869.2830932638243,1833
871.5152450654786,1902
873.7467917894654,1892
875.9777336613873,1919
878.2080709069252,1829
880.4378037518389,1867
882.666932421968,1927
884.8954571432301,1885
887.1233781416219,1881
889.3506956432192,1917
891.5774098741766,1821
893.803521060728,1846
896.0290294291852,1799
898.2539352059397,1874
900.4782386174619,1920
902.7019398903011,1850
904.925039251085,1893
907.147536926521,1842
909.3694331433943,1952
911.59072812857,1943
913.8114221089921,1905
916.0315153116827,1843
918.2510079637437,1845
920.4699002923547,1881
922.6881925247761,1814
924.905884888345,1851
927.1229776104793,1830
929.3394709186747,1812
931.555365040506,1864
933.7706602036275,1937
935.9853566357709,1897
938.1994545647489,1936
940.4129542184515,1923
942.6258558248488,1983
944.8381596119883,1946
947.0498658079974,1968
949.2609746410825,2037
951.4714863395287,1900
953.6814011316998,1919
955.8907192460387,1851
958.0994409110671,1957
960.3075663553858,2007
962.5150958076741,2009
964.7220294966913,2030
966.928367651274,1832
969.1341105003388,1894
971.3392582728806,1852
973.5438111979742,1879
975.747769504772,1814
977.9511334225061,1821
980.153903180487,1852
982.3560790081052,1859
984.5576611348289,1889
986.7586497902058,1827
988.9590452038618,1751
991.158847605503,1779
993.3580572249133,1677
995.5566742919558,1719
997.7546990365728,1615
999.952131688785,1648
1002.1489724786926,1619
1004.3452216364743,1597
1006.5408793923874,1600
1008.7359459767691,1516
1010.9304216200343,1687
1013.1243065526781,1531
1015.3176010052733,1556
1017.510305208472,1592
1019.7024193930064,1582
1021.8939437896848,1640
1024.0848786293977,1582
1026.2752241431122,1464
1028.4649805618747,1509
1030.6541481168115,1526
1032.842727039127,1518
1035.0307175601051,1482
1037.2181199111074,1456
1039.4049343235752,1472
1041.591161029029,1480
1043.7768002590683,1529
1045.9618522453698,1482
1048.1463172196918,1469
1050.3301954138697,1447
1052.513487059818,1419
1054.69619238953,1424
1056.8783116350783,1417
1059.0598450286152,1520
1061.2407928023704,1437
1063.4211551886528,1394
1065.6009324198508,1455
1067.780124728432,1403
1069.9587323469414,1355
1072.1367555080046,1471
1074.314194444325,1454
1076.4910493886855,1523
1078.667320573947,1421
1080.843008233051,1373
1083.0181125990161,1416
1085.1926339049414,1435
1087.3665723840027,1459
1089.5399282694575,1458
1091.7127017946405,1396
1093.8848931929647,1432
1096.0565026979243,1426
1098.2275305430899,1380
1100.3979769621128,1389
1102.567842188722,1422
1104.737126456726,1432
1106.9058300000124,1406
1109.0739530525475,1360
1111.2414958483764,1396
1113.4084586216231,1378
1115.5748416064907,1408
1117.7406450372605,1424
1119.9058691482942,1389
1122.0705141740304,1331
1124.2345803489884,1382
1126.3980679077658,1412
1128.5609770850388,1370
1130.7233081155623,1410
1132.8850612341707,1321
1135.0462366757774,1360
1137.2068346753745,1393
1139.3668554680326,1390
1141.526299288901,1397
1143.68516637321,1383
1145.8434569562655,1389
1148.001171273455,1328
1150.158309560244,1329
1152.3148720521767,1372
1154.470858984876,1398
1156.626270594044,1404
1158.7811071154629,1395
1160.9353687849912,1389
1163.089055838569,1375
1165.242168512213,1452
1167.3947070420209,1460
1169.5466716641677,1398
1171.6980626149075,1447
1173.8488801305748,1422
1175.9991244475814,1369
1178.1487958024186,1320
1180.2978944316555,1364
1182.4464205719428,1370
1184.5943744600072,1370
1186.7417563326567,1312
1188.8885664267755,1364
1191.0348049793297,1347
1193.1804722273619,1362
1195.325568407995,1414
1197.4700937584303,1370
1199.614048515948,1350
1201.7574329179074,1368
1203.900247201746,1325
1206.042491604982,1388
1208.1841663652099,1322
1210.3252717201053,1413
1212.465807907422,1404
1214.6057751649923,1379
1216.7451737307279,1361
1218.8840038426192,1442
1221.0222657387353,1452
1223.1599596572241,1464
1225.2970858363137,1395
1227.4336445143094,1427
1229.5696359295966,1449
1231.705060320639,1413
1233.8399179259786,1440
1235.9742089842384,1404
1238.107933734118,1377
1240.2410924143974,1468
1242.373685263935,1430
1244.5057125216676,1460
1246.6371744266116,1413
1248.7680712178621,1432
1250.898403134593,1450
1253.028170416058,1412
1255.1573733015875,1472
1257.2860120305932,1461
1259.4140868425648,1420
1261.54159797707,1373
1263.6685456737569,1449
1265.7949301723515,1468
1267.9207517126597,1429
1270.046010534565,1383
1272.1707068780306,1418
1274.2948409830983,1481
1276.4184130898889,1543
1278.541423438603,1530
1280.6638722695184,1497
1282.785759822993,1506
1284.9070863394636,1517
1287.0278520594447,1517
1289.1480572235314,1575
1291.2677020723963,1483
1293.3867868467923,1602
1295.5053117875495,1549
1297.623277135579,1537
1299.740683131868,1546
1301.8575300174857,1598
1303.973818033578,1648
1306.0895474213703,1569
1308.2047184221678,1617
1310.3193312773528,1590
1312.4333862283888,1562
1314.5468835168163,1510
1316.659823384255,1581
1318.7722060724045,1563
1320.8840318230418,1583
1322.9953008780249,1627
1325.1060134792888,1612
1327.2161698688478,1628
1329.3257702887959,1717
1331.4348149813054,1683
1333.5433041886276,1577
1335.6512381530933,1573
1337.7586171171101,1634
1339.8654413231675,1585
1341.9717110138317,1566
1344.0774264317488,1503
1346.1825878196432,1531
1348.2871954203192,1573
1350.3912494766587,1569
1352.4947502316231,1578
1354.5976979282532,1509
1356.7000928096686,1522
1358.8019351190665,1586
1360.9032250997243,1532
1363.0039629949988,1539
1365.1041490483235,1445
1367.2037835032133,1488
1369.3028666032606,1510
1371.401398592137,1492
1373.4993797135926,1509
1375.5968102114575,1473
1377.6936903296396,1468
1379.7900203121262,1519
1381.8858004029835,1540
1383.9810308463561,1507
1386.075711886469,1519
1388.1698437676241,1481
1390.2634267342032,1497
1392.356461030667,1527
1394.4489469015557,1497
1396.5408845914872,1512
1398.6322743451592,1506
1400.7231164073469,1452
1402.813411022907,1482
1404.903158436773,1495
1406.9923588939578,1521
1409.0810126395531,1487
1411.1691199187303,1476
1413.2566809767386,1499
1415.343696058907,1520
1417.4301654106425,1506
1419.5160892774315,1568
1421.6014679048399,1523
1423.6863015385125,1609
1425.7705904241707,1470
1427.8543348076178,1506
1429.9375349347342,1491
1432.0201910514802,1495
1434.102303403894,1522
1436.1838722380944,1558
1438.2648978002767,1587
1440.3453803367174,1525
1442.4253200937692,1620
1444.5047173178677,1598
1446.5835722555234,1552
1448.6618851533285,1568
1450.739656257952,1562
1452.8168858161434,1608
1454.8935740747306,1595
1456.96972128062,1666
1459.045327680797,1648
1461.120393522327,1627
1463.1949190523528,1613
1465.2689045180973,1666
1467.3423501668608,1728
1469.415256246024,1640
1471.4876230030463,1674
1473.559450685465,1700
1475.6307395408976,1715
1477.7014898170391,1764
1479.771701761665,1747
1481.8413756226287,1705
1483.9105116478618,1722
1485.9791100853772,1789
1488.0471711832643,1745
1490.1146951896926,1769
1492.1816823529098,1735
1494.2481329212433,1810
1496.3140471430984,1765
1498.3794252669609,1755
1500.4442675413939,1795
1502.5085742150404,1858
1504.572345536622,1855
1506.6355817549388,1852
1508.6982831188702,1807
1510.7604498773744,1885
1512.8220822794883,1878
1514.8831805743293,1820
1516.9437450110909,1851
1519.003775839048,1861
1521.0632733075522,1872
1523.1222376660367,1895
1525.1806691640113,1866
1527.2385680510652,1898
1529.2959345768668,1857
1531.3527689911643,1974
1533.4090715437833,1968
1535.4648424846291,1931
1537.5200820636855,1968
1539.5747905310159,2105
1541.6289681367616,2010
1543.6826151311434,2083
1545.7357317644614,2157
1547.7883182870937,2153
1549.8403749494987,2153
1551.8919020022113,2178
1553.9428996958477,2148
1555.9933682811015,2200
1558.0433080087469,2209
1560.0927191296346,2333
1562.1416018946961,2331
1564.1899565549415,2307
1566.2377833614592,2361
1568.2850825654164,2299
1570.3318544180606,2246
1572.3780991707158,2177
1574.423817074788,2176
1576.4690083817595,2184
1578.5136733431923,2045
1580.5578122107272,1969
1582.601425236085,1980
1584.6445126710646,1886
1586.6870747675434,1850
1588.7291117774776,1851
1590.7706239529034,1790
1592.8116115459347,1815
1594.8520748087658,1790
1596.8920139936686,1685
1598.9314293529933,1708
1600.9703211391711,1629
1603.008689604711,1645
1605.0465350022005,1640
1607.0838575843068,1610
1609.1206576037753,1568
1611.1569353134305,1541
1613.1926909661765,1577
1615.2279248149953,1557
1617.2626371129481,1601
1619.2968281131757,1505
1621.3304980688963,1497
1623.3636472334088,1444
1625.39627586009,1479
1627.428384202396,1460
1629.459972513861,1421
1631.4910410480993,1440
1633.5215900588028,1478
1635.551619799744,1475
1637.5811305247717,1426
1639.6101224878166,1399
1641.6385959428862,1367
1643.6665511440683,1398
1645.693988345528,1317
1647.7209078015112,1381
1649.7473097663405,1411
1651.7731944944203,1395
1653.7985622402307,1458
1655.823413258333,1381
1657.847747803366,1422
1659.8715661300494,1397
1661.8948684931793,1376
1663.9176551476316,1395
1665.9399263483624,1386
1667.9616823504057,1331
1669.982923408873,1354
1672.0036497789574,1360
1674.0238617159293,1379
1676.043559475138,1409
1678.0627433120121,1335
1680.081413482059,1381
1682.0995702408654,1357
1684.117213844096,1376
1686.134344547495,1414
1688.1509626068864,1374
1690.1670682781705,1323
1692.182661817329,1336
1694.1977434804217,1356
1696.2123135235875,1380
1698.226372203043,1346
1700.2399197750851,1406
1702.2529564960905,1388
1704.2654826225112,1382
1706.277498410882,1316
1708.2890041178139,1310
1710.2999999999988,1347
1712.3104863142066,1351
1714.3204633172854,1372
1716.329931266163,1346
1718.3388904178469,1337
1720.3473410294214,1327
1722.3552833580516,1292
1724.3627176609807,1337
1726.3696441955308,1319
1728.3760632191033,1326
1730.3819749891782,1288
1732.3873797633146,1356
1734.3922777991502,1313
1736.3966693544012,1350
1738.4005546868639,1336
1740.4039340544127,1342
1742.406807715001,1335
1744.4091759266616,1348
1746.4110389475054,1377
1748.4123970357223,1349
1750.413250449582,1326
1752.4135994474318,1358
1754.4134442876993,1317
1756.4127852288902,1364
1758.4116225295893,1257
1760.4099564484595,1322
1762.407787244244,1337
1764.405115175764,1345
1766.4019405019203,1311
1768.3982634816916,1328
1770.3940843741357,1309
1772.3894034383907,1303
1774.3842209336717,1335
1776.378537119274,1290
1778.372352254571,1328
1780.3656665990156,1242
1782.3584804121397,1272
1784.3507939535534,1281
1786.3426074829463,1259
1788.3339212600863,1299
1790.3247355448211,1312
1792.3150505970766,1323
1794.3048666768573,1328
1796.2941840442477,1361
1798.2830029594106,1314
1800.2713236825884,1339
1802.2591464741004,1351
1804.2464715943465,1289
1806.2332993038058,1376
1808.2196298630352,1339
1810.2054635326708,1287
1812.190800573428,1331
1814.175641246101,1305
1816.1599858115628,1387
1818.1438345307652,1356
1820.127187664738,1358
1822.1100454745924,1369
1824.092408221516,1277
1826.0742761667766,1231
1828.055649571721,1321
1830.0365286977735,1255
1832.0169138064398,1355
1833.9968051593014,1279
1835.9762030180214,1313
1837.9551076443408,1339
1839.9335193000788,1298
1841.9114382471344,1335
1843.888864747485,1313
1845.8657990631878,1304
1847.842241456378,1283
1849.8181921892697,1285
1851.7936515241558,1291
1853.7686197234098,1276
1855.7430970494815,1293
1857.7170837649014,1286
1859.6905801322787,1317
1861.6635864143004,1319
1863.6361028737338,1310
1865.608129773424,1308
1867.5796673762961,1356
1869.5507159453537,1351
1871.521275743678,1287
1873.4913470344313,1260
1875.4609300808534,1368
1877.4300251462632,1301
1879.3986324940588,1313
1881.366752387717,1331
1883.3343850907936,1299
1885.3015308669228,1317
1887.268189979819,1286
1889.2343626932739,1372
1891.2000492711595,1318
1893.1652499774254,1323
1895.1299650761011,1354
1897.0941948312952,1326
1899.0579395071945,1312
1901.0211993680641,1265
1902.98397467825,1373
1904.9462657021745,1386
1906.9080727043415,1329
1908.869395949332,1356
1910.8302357018065,1325
1912.790592226504,1323
1914.7504657882428,1291
1916.7098566519212,1280
1918.6687650825133,1291
1920.6271913450764,1357
1922.5851357047422,1289
1924.5425984267245,1323
1926.499579776314,1319
1928.4560800188833,1378
1930.4120994198802,1347
1932.367638244833,1390
1934.32269675935,1288
1936.2772752291175,1281
1938.231373919899,1307
1940.1849930975404,1369
1942.1381330279637,1335
1944.0907939771696,1270
1946.0429762112412,1317
1947.9946799963363,1237
1949.9459055986945,1254
1951.896653284633,1315
1953.8469233205478,1302
1955.7967159729142,1278
1957.7460315082863,1296
1959.6948701932974,1305
1961.6432322946594,1307
1963.5911180791632,1285
1965.5385278136787,1328
1967.4854617651545,1287
1969.4319202006182,1246
1971.377903387176,1292
1973.3234115920136,1253
1975.268445082395,1349
1977.2130041256642,1293
1979.1570889892423,1329
1981.1006999406304,1242
1983.04383724741,1330
1984.986501177238,1257
1986.928691997853,1321
1988.8704099770712,1341
1990.811655382789,1304
1992.7524284829801,1274
1994.692729545698,1296
1996.6325588390755,1339
1998.5719166313224,1252
2000.5108031907307,1313
2002.4492187856677,1310
2004.387163684583,1257
2006.3246381560011,1341
2008.2616424685298,1292
2010.1981768908527,1328
2012.1342416917332,1327
2014.069837140014,1297
2016.0049635046162,1281
2017.9396210545406,1279
2019.8738100588666,1293
2021.8075307867502,1344
2023.740783507431,1290
2025.6735684902228,1348
2027.6058860045214,1222
2029.5377363198004,1316
2031.4691197056118,1320
2033.4000364315875,1366
2035.3304867674374,1270
2037.260470982952,1254
2039.189989347998,1251
2041.1190421325232,1296
2043.047629606554,1335
2044.9757520401945,1273
2046.9034097036288,1287
2048.8306028671195,1258
2050.7573318010086,1283
2052.683596775716,1290
2054.609398061742,1257
2056.5347359296647,1218
2058.4596106501403,1297
2060.384022493906,1307
2062.3079717317764,1249
2064.231458634646,1217
2066.1544834734873,1281
2068.077046519352,1247
2069.99914804337,1232
2071.9207883167524,1270
2073.8419676107865,1343
2075.7626861968406,1257
2077.6829443463607,1220
2079.6027423308715,1345
2081.522080421977,1280
2083.440958891362,1301
2085.359378010786,1285
2087.2773380520907,1215
2089.194839287196,1261
2091.111881988101,1219
2093.0284664268825,1228
2094.9445928756973,1254
2096.86026160678,1229
2098.775472892446,1222
2100.690227005088,1271
2102.604524217178,1226
2104.5183648012676,1259
2106.431749029985,1229
2108.34467717604,1251
2110.2571495122206,1321
2112.169166311393,1231
2114.080727846503,1278
2115.9918343905747,1276
2117.902486216711,1345
2119.8126835980956,1273
2121.722426807987,1267
2123.6317161197285,1272
2125.5405518067364,1295
2127.448934142509,1323
2129.356863400624,1335
2131.264339854737,1371
2133.1713637785815,1320
2135.077935445972,1320
2136.9840551308002,1282
2138.889723107037,1242
2140.7949396487334,1256
2142.699705030018,1233
2144.6040195250994,1265
2146.507883408264,1298
2148.4112969538774,1318
2150.3142604363848,1300
2152.2167741303097,1270
2154.1188383102535,1267
2156.0204532508997,1316
2157.9216192270064,1312
2159.822336513414,1307
2161.7226053850413,1257
2163.622426116884,1276
2165.5217989840185,1298
2167.4207242616,1292
2169.319202224862,1259
2171.2172331491165,1291
2173.1148173097563,1272
2175.0119549822507,1265
2176.90864644215,1258
2178.8048919650823,1346
2180.7006918267534,1288
2182.596046302952,1324
2184.4909556695407,1346
2186.3854202024645,1329
2188.279440177746,1366
2190.173015871487,1339
2192.066147559868,1330
2193.958835519149,1368
2195.851080025667,1292
2197.7428813558417,1315
2199.6342397861667,1317
2201.5251555932186,1330
2203.415629053651,1325
2205.3056604441986,1295
2207.19525004167,1349
2209.084398122958,1356
2210.9731049650327,1320
2212.861370844941,1358
2214.749196039812,1307
2216.636580826851,1348
2218.523525483344,1400
2220.410030286655,1342
2222.296095514226,1332
2224.1817214435805,1354
2226.066908352319,1272
2227.951656518121,1322
2229.835966218746,1280
2231.71983773203,1323
2233.6032713358913,1310
2235.486267308324,1359
2237.3688259274036,1293
2239.2509474712824,1340
2241.132632218193,1347
2243.013880446447,1338
2244.8946924344323,1330
2246.7750684606203,1371
2248.6550088035574,1357
2250.534513741871,1311
2252.413583554265,1351
2254.292218519526,1327
2256.170418916517,1382
2258.0481850241786,1353
2259.925517121534,1368
2261.8024154876825,1339
2263.678880401803,1353
2265.5549121431536,1341
2267.430510991071,1353
2269.305677224971,1354
2271.180411124348,1351
2273.0547129687766,1347
2274.9285830379076,1308
2276.8020216114737,1362
2278.6750289692845,1293
2280.5476053912294,1326
2282.4197511572766,1394
2284.2914665474727,1353
2286.162751841943,1384
2288.0336073208937,1414
2289.904033264608,1416
2291.774029953448,1345
2293.6435976678554,1314
2295.5127366883517,1352
2297.381447295534,1305
2299.2497297700825,1293
2301.1175843927526,1288
2302.9850114443825,1231
2304.852011205885,1277
2306.7185839582553,1282
2308.5847299825664,1234
2310.4504495599676,1204
2312.3157429716925,1245
2314.1806104990483,1223
2316.0450524234247,1172
2317.9090690262888,1190
2319.772660589186,1170
2321.635827393742,1179
2323.498569721661,1143
2325.3608878547248,1178
2327.2227820747967,1163
2329.0842526638157,1128
2330.945299903803,1193
2332.805924076857,1154
2334.6661254651535,1182
2336.525904350951,1177
2338.3852610165827,1175
2340.244195744464,1154
2342.102708817088,1172
2343.9608005170253,1199
2345.8184711269287,1174
2347.675720929526,1164
2349.532550207628,1176
2351.38895924412,1196
2353.24494832197,1198
2355.100517724223,1249
2356.955667734004,1197
2358.810398634514,1172
2360.664710709037,1177
2362.5186042409337,1192
2364.3720795136437,1202
2366.225136810686,1213
2368.0777764156583,1226
2369.929998612237,1221
2371.7818036841777,1196
2373.633191915315,1210
2375.484163589562,1102
2377.3347189909114,1218
2379.184858403434,1193
2381.03458211128,1193
2382.8838903986775,1188
2384.732783549936,1169
2386.5812618494406,1211
2388.4293255816588,1154
2390.2769750311327,1191
2392.1242104824883,1265
2393.971032220427,1219
2395.8174405297295,1178
2397.6634356952563,1177
2399.509018001947,1218
2401.3541877348193,1157
2403.1989451789705,1190
2405.043290619576,1165
2406.8872243418905,1197
2408.730746631247,1169
2410.5738577730594,1223
2412.4165580528183,1212
2414.258847756095,1215
2416.100727168537,1213
2417.9421965758734,1205
2419.783256263912,1223
2421.623906518538,1203
2423.4641476257157,1188
2425.303979871491,1189
2427.143403541984,1194
2428.9824189233977,1191
2430.821026302012,1208
2432.6592259641866,1194
2434.497018196361,1221
2436.33440328505,1218
2438.171381516851,1203
2440.00795317844,1236
2441.844118556569,1183
2443.6798779380724,1192
2445.5152316098606,1209
2447.3501798589255,1220
2449.1847229723357,1201
2451.0188612372403,1181
2452.8525949408663,1193
2454.6859243705203,1143
2456.518849813587,1217
2458.3513715575314,1240
2460.183489889895,1176
2462.015205098301,1248
2463.8465174704493,1206
2465.67742729412,1214
2467.5079348571717,1222
2469.338040447542,1153
2471.1677443532476,1206
2472.9970468623833,1232
2474.825948263123,1182
2476.6544488437207,1220
2478.482548892508,1205
2480.310248697896,1213
2482.137548548374,1198
2483.9644487325118,1176
2485.790949538956,1211
2487.617051256433,1200
2489.44275417375,1230
2491.26805857979,1212
2493.0929647635157,1279
2494.917473013971,1118
2496.741583620276,1238
2498.5652968716304,1247
2500.3886130573137,1217
2502.2115324666834,1261
2504.0340553891765,1274
2505.856182114308,1247
2507.6779129316733,1296
2509.499248130945,1228
2511.3201880018764,1232
2513.140732834298,1220
2514.9608829181198,1231
2516.780638543331,1220
2518.6,1201
2520.418967578273,1245
2522.237541568376,1268
2524.0557222606144,1176
2525.8735099453706,1249
2527.6909049131086,1235
2529.507907454368,1231
2531.32451785977,1254
2533.140736420014,1277
2534.9565634258774,1253
2536.771999168218,1254
2538.5870439379714,1307
2540.4016980261526,1225
2542.2159617238544,1275
2544.02983532225,1253
2545.8433191125914,1269
2547.656413386209,1301
2549.4691184345115,1279
2551.2814345489874,1215
2553.093362021204,1329
2554.904901142808,1261
2556.716052205523,1317
2558.526815501153,1249
2560.3371913215824,1304
2562.147179958771,1330
2563.956781704761,1302
2565.7659968516705,1305
2567.5748256916986,1289
2569.3832685171224,1389
2571.1913256202984,1361
2572.9989972936614,1339
2574.806283829725,1361
2576.613185521084,1258
2578.4197026604074,1334
2580.2258355404483,1388
2582.031584454035,1360
2583.836949694077,1361
2585.6419315535613,1357
2587.4465303255533,1331
2589.2507463032002,1389
2591.0545797797245,1308
2592.8580310484303,1339
2594.6611004026995,1374
2596.463788135992,1290
2598.266094541849,1301
2600.0680199138874,1313
2601.869564545807,1383
2603.670728731383,1367
2605.4715127644704,1380
2607.2719169390048,1320
2609.071941548998,1358
2610.8715868885433,1349
2612.670853251811,1331
2614.469740933052,1333
2616.268250226594,1337
2618.0663814268455,1278
2619.864134828292,1357
2621.6615107255006,1329
2623.458509413115,1352
2625.2551311858597,1371
2627.0513763385347,1348
2628.8472451660223,1332
2630.6427379632833,1310
2632.4378550253564,1367
2634.232596647359,1295
2636.026963124488,1335
2637.8209547520187,1267
2639.6145718253065,1286
2641.407814639785,1301
2643.200683490966,1323
2644.9931786744414,1287
2646.7853004858807,1247
2648.577049221034,1352
2650.3684251757277,1293
2652.1594286458712,1267
2653.9500599274484,1274
2655.740319316525,1286
2657.5302071092437,1273
2659.3197236018286,1249
2661.10886909058,1252
2662.8976438718782,1269
2664.686048242183,1280
2666.4740824980327,1228
2668.2617469360443,1185
2670.0490418529134,1291
2671.8359675454153,1233
2673.622524310403,1250
2675.408712444811,1222
2677.1945322456495,1214
2678.979984010009,1256
2680.76506803506,1247
2682.5497846180497,1262
2684.334134056306,1220
2686.1181166472343,1193
2687.9017326883213,1241
2689.6849824771293,1222
2691.4678663113013,1241
2693.2503844885596,1228
2695.032537306705,1264
2696.8143250636167,1243
2698.5957480572542,1207
2700.3768065856534,1285
2702.1575009469316,1227
2703.937831439283,1210
2705.717798360982,1210
2707.4974020103837,1171
2709.276642685917,1217
2711.055520686095,1227
2712.834036309506,1237
2714.612189854819,1178
2716.389981620782,1198
2718.1674119062204,1175
2719.944481010041,1168
2721.721189231226,1181
2723.4975368688415,1172
2725.273524222027,1206
2727.0491515900053,1187
2728.824419272075,1157
2730.5993275676146,1141
2732.3738767760838,1176
2734.148067197016,1159
2735.921899130031,1100
2737.6953728748194,1173
2739.468488731156,1149
2741.2412469988926,1163
2743.0136479779617,1196
2744.785691968372,1152
2746.5573792702116,1205
2748.3287101836504,1170
2750.099685008934,1150
2751.870304046388,1169
2753.640567596418,1144
2755.4104759595057,1152
2757.1800294362156,1135
2758.949228327187,1148
2760.7180729331412,1164
2762.486563554877,1139
2764.254700493272,1116
2766.022484049284,1141
2767.789914523947,1126
2769.5569922183786,1172
2771.3237174337705,1168
2773.090090471394,1177
2774.8561116326036,1149
2776.6217812188274,1227
2778.3870995315756,1232
2780.1520668724356,1145
2781.9166835430747,1147
2783.6809498452394,1124
2785.444866080754,1191
2787.2084325515225,1143
2788.971649559527,1177
2790.73451740683,1177
2792.4970363955713,1126
2794.2592068279705,1126
2796.0210290063264,1130
2797.7825032330147,1199
2799.543629810493,1169
2801.304409041296,1209
2803.0648412280366,1234
2804.8249266734088,1187
2806.5846656801846,1165
2808.344058551212,1164
2810.1031055894246,1158
2811.8618070978273,1176
2813.6201633795085,1139
2815.378174737636,1189
2817.1358414754536,1143
2818.893163896285,1161
2820.6501423035334,1149
2822.4067770006814,1172
2824.1630682912883,1174
2825.9190164789957,1217
2827.6746218675207,1186
2829.429884760661,1121
2831.184805462294,1125
2832.9393842763743,1165
2834.693621506936,1158
2836.4475174580916,1187
2838.201072434034,1176
2839.954286739034,1130
2841.707160677441,1169
2843.459694553685,1142
2845.2118886722724,1125
2846.96374333779,1150
2848.7152588549034,1167
2850.4664355283567,1188
2852.217273662973,1206
2853.9677735636546,1166
2855.7179355353833,1113
2857.4677598832186,1156
2859.217246912299,1166
2860.9663969278427,1126
2862.715210235146,1137
2864.4636871395846,1179
2866.211827946614,1181
2867.9596329617652,1139
2869.7071024906536,1154
2871.4542368389684,1115
2873.20103631248,1195
2874.947501217038,1209
2876.6936318585695,1151
2878.4394285430812,1202
2880.1848915766604,1161
2881.9300212654707,1150
2883.6748179157553,1215
2885.4192818338374,1168
2887.1634133261173,1153
2888.907212699077,1185
2890.6506802592744,1151
2892.393816313348,1198
2894.1366211680142,1159
2895.8790951300693,1163
2897.621238506388,1122
2899.363051603925,1180
2901.1045347297118,1135
2902.8456881908596,1172
2904.58651229456,1144
2906.327007348081,1145
2908.067173658772,1130
2909.8070115340597,1146
2911.5465212814497,1149
2913.285703208527,1156
2915.0245576229563,1113
2916.7630848324807,1130
2918.5012851449196,1173
2920.2391588681758,1144
2921.976706310227,1172
2923.7139277791334,1172
2925.4508235830313,1177
2927.187394030137,1186
2928.923639428745,1161
2930.6595600872306,1164
2932.395156314046,1149
2934.1304284177218,1159
2935.8653767068713,1158
2937.6000014901815,1152
2939.3343030764227,1171
2941.068281774442,1198
2942.8019378931644,1141
2944.5352717415976,1152
2946.2682836288236,1185
2948.0009738640065,1211
2949.7333427563885,1164
2951.465390615289,1173
2953.1971177501086,1143
2954.9285244703265,1164
2956.6596110855,1184
2958.3903779052657,1146
2960.1208252393385,1141
2961.8509533975125,1186
2963.5807626896617,1134
2965.3102534257378,1132
2967.0394259157715,1189
2968.768280469873,1100
2970.496817398232,1186
2972.2250370111146,1094
2973.952939618869,1145
2975.6805255319196,1151
2977.4077950607707,1156
2979.134748516006,1149
2980.861386208289,1167
2982.587708448359,1153
2984.313715547037,1128
2986.039407815222,1147
2987.764785563891,1126
2989.489849104102,1138
2991.2145987469908,1197
2992.9390348037705,1122
2994.6631575857346,1214
2996.3869674042576,1175
2998.1104645707887,1107
2999.83364939686,1117
3001.5565221940783,1136
3003.2790832741334,1118
3005.0013329487924,1138
3006.7232715298996,1134
3008.4448993293804,1124
3010.166216659239,1097
3011.887223831558,1129
3013.607921158498,1121
3015.3283089522993,1134
3017.0483875252826,1139
3018.7681571898443,1170
3020.4876182584626,1130
3022.2067710436927,1145
3023.9256158581707,1164
3025.644153014609,1134
3027.362382825801,1125
3029.0803056046193,1173
3030.797921664012,1126
3032.5152313170106,1133
3034.2322348767225,1170
3035.9489326563353,1161
3037.665324969115,1104
3039.3814121284063,1169
3041.097194447633,1150
3042.812672240299,1143
3044.5278458199855,1126
3046.2427155003525,1098
3047.9572815951406,1145
3049.671544418167,1143
3051.38550428333,1157
3053.0991615046073,1140
3054.812516396051,1131
3056.5255692717974,1202
3058.2383204460575,1138
3059.9507702331257,1140
3061.662918947372,1158
3063.3747669032446,1173
3065.0863144152736,1164
3066.7975617980674,1187
3068.508509366309,1136
3070.219157434767,1145
3071.9295063182844,1107
3073.639556331785,1146
3075.3493077902704,1132
3077.058761008821,1162
3078.7679163025964,1109
3080.476773986837,1171
3082.1853343768594,1145
3083.89359778806,1145
3085.6015645359153,1133
3087.3092349359786,1153
3089.016609303884,1144
3090.7236879553434,1140
3092.4304712061476,1149
3094.136959372166,1193
3095.843152769349,1154
3097.5490517137237,1188
3099.2546565213966,1132
3100.959967508554,1181
3102.66498499146,1127
3104.3697092864577,1098
3106.0741407099695,1140
3107.778279578498,1109
3109.482126208622,1066
3111.1856809170004,1149
3112.8889440203716,1105
3114.5919158355528,1149
3116.294596679439,1159
3117.996986869006,1118
3119.6990867213062,1148
3121.4008965534726,1162
3123.102416682717,1159
3124.803647426329,1120
3126.5045891016784,1131
3128.205242026213,1132
3129.90560651746,1186
3131.605682893025,1106
3133.3054714705922,1115
3135.0049725679282,1169
3136.7041865028714,1155
3138.4031135933465,1165
3140.101754157353,1139
3141.800108512971,1118
3143.498176978357,1098
3145.1959598717494,1086
3146.8934575114636,1113
3148.5906702158954,1162
3150.2875983035183,1149
3151.9842420928853,1150
3153.680601902627,1112
3155.376678051456,1142
3157.07247085816,1149
3158.767980641609,1119
3160.463207720748,1103
3162.158152414606,1172
3163.8528150422862,1189
3165.5471959229726,1150
3167.2412953759303,1133
3168.9351137204976,1174
3170.628651276098,1181
3172.3219083622307,1142
3174.014885298474,1150
3175.707582404485,1121
3177.4000000000005,1124
3179.092138404835,1140
3180.7839979388846,1164
3182.47557892212,1119
3184.166881674594,1150
3185.8579065164386,1123
3187.5486537678626,1119
3189.2391237491547,1121
3190.9293167806827,1150
3192.6192331828934,1120
3194.3088732763117,1111
3195.998237381542,1131
3197.687325819268,1133
3199.376138910251,1133
3201.064676975334,1097
3202.7529403354347,1119
3204.4409293115523,1094
3206.1286442247647,1044
3207.816085396229,1087
3209.5032531471825,1112
3211.190147798936,1152
3212.8767696728846,1166
3214.5631190905015,1120
3216.2491963733373,1113
3217.9350018430214,1125
3219.6205358212637,1109
3221.305798629851,1120
3222.990790590651,1088
3224.6755120256103,1097
3226.359963256751,1062
3228.0441446061795,1131
3229.7280563960758,1060
3231.411698948703,1144
3233.0950725863995,1126
3234.778177631587,1133
3236.461014406761,1096
3238.1435832345005,1097
3239.8258844374595,1107
3241.507918338374,1129
3243.1896852600576,1104
3244.8711855254023,1122
3246.552419457381,1153
3248.233387379042,1129
3249.914089613516,1168
3251.59452648401,1176
3253.274698313813,1190
3254.95460542629,1107
3256.6342481448855,1059
3258.313626793125,1101
3259.9927416946084,1040
3261.6715931730196,1120
3263.3501815521176,1079
3265.0285071557437,1061
3266.706570307815,1138
3268.3843713323286,1128
3270.0619105533615,1094
3271.739188295068,1100
3273.4162048816834,1146
3275.0929606375184,1133
3276.769455886966,1145
3278.445690954498,1128
3280.1216661646613,1110
3281.797381842087,1102
3283.4728383114807,1147
3285.1480358976296,1181
3286.8229749253996,1144
3288.4976557197333,1084
3290.172078605655,1087
3291.846243908266,1111
3293.5201519527463,1100
3295.193803064357,1084
3296.8671975684374,1113
3298.5403357904024,1067
3300.21321805575,1109
3301.8858446900567,1116
3303.558216018975,1122
3305.23033236824,1058
3306.9021940636603,1110
3308.57380143113,1073
3310.2451547966184,1113
3311.916254486174,1123
3313.5871008259246,1152
3315.2576941420766,1121
3316.9280347609147,1117
3318.5981230088046,1091
3320.2679592121895,1055
3321.9375436975924,1144
3323.606876791612,1149
3325.27595882093,1204
3326.944790112305,1114
3328.6133709925753,1138
3330.2817017886573,1120
3331.949782827547,1154
3333.617614436319,1130
3335.2851969421245,1139
3336.952530672199,1083
3338.619615953853,1047
3340.286453114475,1054
3341.9530424815357,1088
3343.619384382583,1130
3345.2854791452437,1109
3346.951327097224,1084
3348.6169285663073,1148
3350.2822838803577,1094
3351.947393367319,1109
3353.61225735521,1115
3355.2768761721345,1133
3356.9412501462693,1097
3358.605379605873,1086
3360.2692648792827,1069
3361.9329062949146,1098
3363.596304181263,1114
