CollectionTime,4/2/2024 11:00:17 AM
ExposureUsed,3
CalibratedSpectrum
-994.8464149364308,604
-991.9439705588344,695
-989.042830375826,694
-986.1429931109675,766
-983.2444574887519,828
-980.3472222346043,749
-977.4512860748813,690
-974.5566477368716,732
-971.6633059487953,698
-968.7712594398042,705
-965.8805069399822,708
-962.9910471803447,680
-960.1028788928387,663
-957.2160008103432,698
-954.3304116666687,690
-951.4461101965578,735
-948.5630951356844,693
-945.6813652206545,828
-942.8009191890055,835
-939.9217557792067,824
-937.0438737306594,781
-934.167271783696,740
-931.2919486795813,744
-928.4179031605115,692
-925.5451339696144,770
-922.67363985095,757
-919.8034195495097,759
-916.9344718112166,775
-914.0667953829256,754
-911.2003890124234,760
-908.3352514484286,734
-905.471381440591,727
-902.6087777394928,708
-899.7474390966474,799
-896.8873642645002,832
-894.0285519964284,779
-891.1710010467407,717
-888.3147101706776,757
-885.4596781244115,791
-882.6059036650465,705
-879.7533855506183,675
-876.9021225400943,728
-874.0521133933738,714
-871.2033568712878,705
-868.3558517355991,720
-865.509596749002,791
-862.6645906751228,865
-859.8208322785192,951
-856.9783203246812,865
-854.1370535800299,767
-851.2970308119186,706
-848.4582507886321,717
-845.620712279387,753
-842.7844140543316,720
-839.9493548845461,723
-837.1155335420422,776
-834.2829487997635,728
-831.4515994315852,765
-828.6214842123144,777
-825.7926019176898,832
-822.9649513243819,786
-820.138531209993,780
-817.3133403530569,794
-814.4893775330396,796
-811.6666415303382,735
-808.845131126282,787
-806.0248451031321,778
-803.2057822440808,752
-800.3879413332527,767
-797.5713211557038,808
-794.755920497422,817
-791.941738145327,753
-789.1287728872701,775
-786.3170235120342,850
-783.5064888093341,750
-780.6971675698165,698
-777.8890585850597,701
-775.0821606475735,841
-772.2764725507997,775
-769.4719930891118,726
-766.6687210578151,871
-763.8666552531465,971
-761.0657944722747,1018
-758.2661375133,873
-755.4676831752547,754
-752.6704302581027,728
-749.8743775627395,743
-747.0795238909925,755
-744.285868045621,756
-741.4934088303156,753
-738.702145049699,773
-735.9120755093254,884
-733.123199015681,1010
-730.3355143761836,1080
-727.5490203991826,877
-724.7637158939592,806
-721.9795996707265,814
-719.1966705406293,746
-716.4149273157439,782
-713.6343688090786,741
-710.8549938345734,729
-708.0768012070998,744
-705.2997897424614,814
-702.5239582573931,887
-699.7493055695622,921
-696.9758304975669,842
-694.2035318609377,828
-691.4324084801367,761
-688.6624591765578,776
-685.8936827725265,833
-683.1260780913001,776
-680.3596439570675,820
-677.5943791949499,801
-674.8302826309991,739
-672.0673530922,719
-669.3055894064685,838
-666.5449904026519,837
-663.78555491053,800
-661.0272817608139,812
-658.2701697851465,873
-655.5142178161026,964
-652.7594246871884,894
-650.0057892328422,837
-647.2533102884337,833
-644.5019866902646,840
-641.7518172755683,820
-639.0028008825099,848
-636.254936350186,904
-633.5082225186254,894
-630.7626582287882,851
-628.0182423225665,866
-625.2749736427841,840
-622.5328510331965,925
-619.7918733384909,942
-617.0520394042862,938
-614.3133480771331,968
-611.5757982045143,968
-608.8393886348437,1094
-606.1041182174672,1058
-603.3699858026625,1022
-600.6369902416393,982
-597.9051303865383,1038
-595.1744050904326,1057
-592.4448132073267,1069
-589.7163535921568,1080
-586.9890251007912,913
-584.2628265900296,933
-581.5377569176036,987
-578.8138149421764,1077
-576.090999523343,982
-573.3693095216302,902
-570.6487437984965,1025
-567.9293012163321,1028
-565.210980638459,1096
-562.4937809291307,1042
-559.7777009535329,959
-557.0627395777825,980
-554.3488956689287,979
-551.6361680949519,1064
-548.9245557247644,1156
-546.2140574282107,1235
-543.5046720760662,1134
-540.7963985400388,1075
-538.0892356927677,1165
-535.3831824078238,1261
-532.6782375597103,1354
-529.9744000238613,1368
-527.2716686766433,1461
-524.5700423953542,1551
-521.8695200582238,1435
-519.1701005444136,1359
-516.4717827340166,1566
-513.7745655080581,1734
-511.0784477484944,1845
-508.38342833821423,1926
-505.68950616103757,2025
-502.9966801017163,2153
-500.3049490459341,2295
-497.61431188030633,1966
-494.9247674923801,1729
-492.2363147706342,1514
-489.54895260447927,1397
-486.86267988425755,1500
-484.1774955012431,1553
-481.4933983476417,1495
-478.8103873165908,1348
-476.1284613021596,1317
-473.44761919934945,1314
-470.7678599040928,1251
-468.089182313254,1351
-465.4115853246294,1303
-462.735067836947,1453
-460.0596287498663,1412
-457.3852669639789,1153
-454.71198138080774,1071
-452.03977090280773,1043
-449.3686344333656,1053
-446.69857087679964,1218
-444.02957913835996,1204
-441.36165812422837,1287
-438.6948067415183,1380
-436.0290238982752,1279
-433.36430850347597,1227
-430.7006594670296,1339
-428.0380756997763,1344
-425.3765561134885,1332
-422.7160996208702,1254
-420.0567051355571,1331
-417.3983715721164,1304
-414.7410978460475,1357
-412.08488287378145,1409
-409.4297255726806,1366
-406.77562486103955,1211
-404.1225796580843,1095
-401.4705888839728,957
-398.8196514597947,1071
-396.1697663075713,1135
-393.5209323502555,1065
-390.8731485117323,860
-388.22641371681823,992
-385.5807268912615,1167
-382.93608696174226,1017
-380.29249285587207,849
-377.64994350219456,793
-375.0084378301849,860
-372.36797477025016,864
-369.7285532537287,901
-367.0901722128914,834
-364.45283058094014,800
-361.8165272920089,923
-359.1812612811634,855
-356.54703148440103,696
-353.9138368386507,762
-351.28167628177346,908
-348.6505487525617,897
-346.02045319074,860
-343.3913885369643,877
-340.76335373282245,972
-338.1363477208339,948
-335.5103694444499,1012
-332.8854178480535,1059
-330.26149187695944,1098
-327.63859047741425,970
-325.016712596596,707
-322.3958571826148,728
-319.77602318451227,872
-317.15720955226186,991
-314.5394152367686,936
-311.9226391898695,826
-309.3068803643333,829
-306.69213771386023,1064
-304.0784101930824,1248
-301.4656967575635,1097
-298.8539963637994,1112
-296.2433079692172,1135
-293.6336305321761,1085
-291.02496301196675,1048
-288.41730436881176,1153
-285.81065356386534,1103
-283.2050095592135,1186
-280.60037131787396,1714
-277.9967378037961,1962
-275.39410798186134,1543
-272.7924808178824,1581
-270.19185527860407,1373
-267.5922303317028,1325
-264.9936049457866,1448
-262.3959780903955,1388
-259.79934873600087,1590
-257.2037158540064,1355
-254.6090784167469,1361
-252.01543539748934,1634
-249.42278577043237,1378
-246.8311285107061,1307
-244.24046259437262,1221
-241.6507869984256,1191
-239.0621007007909,1327
-236.4744026803254,1473
-233.88769191681808,1503
-231.30196739098994,1297
-228.7172280844934,1159
-226.13347297991243,1370
-223.550701060763,1352
-220.9689113114929,1253
-218.3881027174814,1127
-215.8082742650397,1260
-213.22942494141068,1560
-210.65155373476898,1864
-208.07465963422078,1858
-205.49874162980439,2118
-202.92379871248932,2110
-200.34982987417743,1736
-197.7768341077018,1470
-195.20481040682762,1377
-192.63375776625162,1468
-190.0636751816021,1466
-187.49456164943945,1476
-184.92641616725564,1661
-182.3592377334743,1672
-179.79302534745102,2150
-177.2277780094729,2269
-174.66349472075865,2122
-172.10017448345923,2198
-169.5378163006569,2224
-166.97641917636565,2198
-164.41598211553162,2395
-161.8565041240322,2628
-159.29798420867678,2430
-156.74042137720642,2457
-154.18381463829382,2588
-151.6281630015436,2112
-149.07346547749228,1813
-146.51972107760753,1838
-143.96692881428908,2172
-141.41508770086864,2313
-138.86419675160937,2346
-136.31425498170609,2132
-133.7652614072856,2308
-131.21721504540642,2278
-128.67011491405844,2541
-126.12396003216395,3333
-123.57874941957618,3745
-121.03448209708074,3298
-118.49115708639465,3383
-115.94877341016684,3371
-113.40733009197788,3508
-110.86682615633993,3246
-108.32726062869733,3493
-105.78863253542556,4992
-103.25094090383243,6693
-100.71418476215695,5971
-98.17836313957025,5296
-95.64347506617503,4065
-93.10951957300585,3860
-90.57649569202886,3662
-88.04440245614194,3607
-85.51323889917478,4672
-82.98300405588896,6818
-80.45369696197747,8608
-77.925316654065,11506
-75.39786216970867,15418
-72.87133254739649,18055
-70.34572682654857,21423
-67.82104404751692,25257
-65.29728325158499,29310
-62.774443480968216,35176
-60.252523778813384,36019
-57.73152318919938,40251
-55.21144075713676,36514
-52.69227552856796,30833
-50.17402655036665,33228
-47.65669287033859,28590
-45.14027353722133,23611
-42.624767600684095,30145
-40.11017411132775,37841
-37.59649212068507,45489
-35.08372068122037,52734
-32.57185884632963,52278
-30.06090567034107,46809
-27.550860208513996,46819
-25.04172151704006,47965
-22.533488653042014,64898
-20.02616067457484,65040
-17.51973664062507,65040
-15.014215611111126,65040
-12.509596646882983,65040
-10.005878809722162,65040
-7.503061162342419,65040
-5.001142768389059,65040
-2.5001226924387083,65040
-3.410605131648481E-13,65040
2.49922624248552,65040
4.997556967646801,65040
7.494993107179766,65040
9.99153559184856,65040
12.487185351485778,65040
14.98194331499235,65040
17.475810410337544,65040
19.96878756455851,65040
22.46087570376085,65040
24.952075753118834,31564
27.442388636874625,11262
29.93181527833849,8259
32.42035659988892,8089
34.90801352297353,12226
37.39478696810693,9713
39.880677854873056,8786
42.36568710192364,9636
44.8498156269784,12861
47.33306434682618,9953
49.815434177322686,8900
52.296926033393675,9248
54.77754082903198,9820
57.25727947729865,11970
59.736142890323435,10386
62.214131979304284,6911
64.6912476545076,5161
67.16749082526735,4556
69.64286239998614,4253
72.11736328613551,5024
74.59099439025431,4936
77.06375661794982,4869
79.53565087389825,4806
82.0066780618431,5944
84.4768390845968,5087
86.94613484403999,5319
89.41456624112152,7767
91.88213417585825,6447
94.34883954733527,4901
96.81468325370679,3780
99.2796661921941,2828
101.74378925908763,3987
104.20705334974559,4571
106.66945935859462,5103
109.1310081791296,4458
111.59170070391383,4969
114.05153782457865,4107
116.5105204318238,3071
118.96864941541708,4251
121.42592566419489,5503
123.88235006606146,4616
126.3379235079899,3492
128.79264687602085,3472
131.2465210552641,3578
133.69954692989631,2892
136.15172538316415,2868
138.60305729738116,2486
141.05354355393,2273
143.50318503326116,2706
145.95198261489327,2829
148.39993717741368,2859
150.84704959847772,3302
153.29332075480897,4084
155.73875152219944,3668
158.18334277550935,3288
160.62709538866693,2901
163.0700102346691,2920
165.51208818558075,3187
167.953330112535,3214
170.39373688573346,3101
172.8333093744459,3347
175.2720484470101,3467
177.70995497083277,3374
180.14702981238815,3450
182.58327383721917,3357
185.01868790993672,3358
187.45327289422062,3237
189.88702965281777,3281
192.31995904754444,3289
194.75206193928489,3492
197.18333918799135,3247
199.61379165268454,3214
202.04342019145315,3139
204.4722256614548,3201
206.90020891891436,3489
209.32737081912592,3641
211.7537122164515,3405
214.17923396432116,3395
216.6039369152336,3589
219.0278219207553,3465
221.45088983152186,3456
223.8731414972358,3512
226.29457776666914,3257
228.71519948766172,3201
231.1350075071216,3427
233.55400267102482,3638
235.97218582441633,3744
238.38955781140908,3262
240.806119475184,3392
243.2218716579905,3421
245.6368152011462,3381
248.05095094503736,3343
250.46427972911806,3340
252.87680239191036,3518
255.28851977100544,3658
257.69943270306203,3529
260.10954202380753,3214
262.5188485680378,3225
264.92735316961557,3323
267.33505666147425,3257
269.7419598756128,3488
272.14806364310084,3571
274.5533687940747,3369
276.95787615773975,3215
279.361586562369,3145
281.7645008353045,3129
284.1666198029559,3149
286.5679442908013,3275
288.96847512338695,3326
291.3682131243279,3246
293.7671591163071,3336
296.1653139210757,3242
298.562678359453,3185
300.9592532513268,3482
303.3550394156532,3429
305.75003767045655,3165
308.14424883282936,3221
310.53767371893196,3113
312.93031314399377,3064
315.3221679223125,2941
317.71323886725304,3063
320.1035267912496,3089
322.49303250580397,2871
324.881756821487,2837
327.2697005479374,2855
329.65686449386135,2979
332.0432494670347,2987
334.4288562743004,2892
336.81368572157066,2842
339.19773861382487,2751
341.58101575511205,2770
343.96351794854786,2660
346.3452459963173,2651
348.72620069967365,2720
351.1063828589379,2765
353.48579327349967,2886
355.8644327418169,2803
358.24230206141533,2675
360.6194020288899,2648
362.99573343990255,2514
365.3712970891845,2576
367.7460937705348,2643
370.12012427682066,2658
372.493389399978,2625
374.86588993101077,2610
377.23762665999084,2466
379.6086003760588,2489
381.9788118674235,2526
384.34826192136165,2599
386.7169513242188,2452
389.08488086140824,2469
391.4520513174118,2540
393.8184634757795,2721
396.1841181191296,2756
398.54901602914856,2679
400.9131579865916,2673
403.2765447712811,2745
405.63917716210926,2711
408.00105593703483,2674
410.36218187308646,2624
412.7225557463596,2637
415.0821783320191,2587
417.4410504042976,2495
419.79917273649585,2467
422.1565461009834,2517
424.5131712691973,2461
426.869049011643,2475
429.22418009789544,2645
431.578565296596,2405
433.9322053754556,2365
436.28510110125285,2302
438.6372532398352,2274
440.98866255611733,2314
443.33932981408293,2434
445.6892557767842,2412
448.0384412063411,2372
450.38688686394175,2502
452.7345935098431,2579
455.0815619033697,2446
457.42779280291506,2386
459.7732869659403,2528
462.1180451489754,2610
464.4620681076178,2602
466.80535659653424,2509
469.1479113694588,2450
471.48973317919445,2632
473.8308227776122,2631
476.17118091565135,2828
478.51080834331924,2769
480.8497058096914,2764
483.1878740629122,2929
485.5253138501944,2927
487.8620259178176,3062
490.1980110111317,3426
492.53326987455307,3720
494.86780325156724,3910
497.201611884728,4065
499.53469651565683,4367
501.8670578850447,4163
504.1986967326493,4309
506.52961379729754,3993
508.85980981688454,3615
511.18928552837315,3431
513.5180416677952,3319
515.8460789702503,3517
518.1733981699067,4117
520.5,5030
522.8258851928354,5499
525.1510544797857,5023
527.4755085912916,4602
529.7992482568625,4012
532.1222742050759,3401
534.4445871635783,2860
536.766187859083,2516
539.0870770173726,2438
541.4072553632982,2350
543.7267236207783,2262
546.0454825128002,2379
548.363532761419,2290
550.6808750877592,2281
552.9975102120118,2364
555.3134388534377,2410
557.6286617303654,2380
559.9431795601911,2406
562.2569930593802,2252
564.570102943466,2380
566.88250992705,2351
569.1942147238021,2187
571.5052180464602,2266
573.8155206068309,2260
576.1251231157885,2451
578.4340262832759,2443
580.7422308183045,2256
583.0497374289534,2200
585.3565468223703,2254
587.6626597047714,2247
589.9680767814409,2188
592.2727987567309,2284
594.5768263340624,2294
596.8801602159238,2293
599.1828011038731,2185
601.4847496985356,2256
603.7860066996047,2167
606.0865728058427,2221
608.3864487150802,2157
610.6856351242152,2104
612.9841327292149,2168
615.2819422251141,2086
617.5790643060163,2201
619.8754996650935,2163
622.1712489945849,2163
624.466312985799,2215
626.7606923291121,2213
629.0543877139692,2219
631.347399828883,2177
633.6397293614343,2186
635.9313769982732,2152
638.2223434251173,2204
640.5126293267522,2168
642.8022353870326,2206
645.0911622888809,2145
647.3794107142876,2227
649.666981344312,2258
651.9538748590815,2235
654.2400919377915,2215
656.525633258706,2283
658.8104994991568,2274
661.0946913355442,2333
663.3782094433375,2319
665.6610544970729,2291
667.9432271703561,2219
670.22472813586,2347
672.5055580653268,2434
674.7857176295659,2340
677.065207498456,2123
679.3440283409432,2162
681.6221808250425,2184
683.899665617837,2192
686.1764833854772,2249
688.4526347931837,2264
690.7281205052436,2250
693.0029411850135,2366
695.2770974949171,2339
697.5505900964474,2309
699.8234196501651,2238
702.0955868156989,2252
704.3670922517472,2248
706.6379366160747,2193
708.9081205655159,2147
711.1776447559728,2214
713.4465098424155,2209
715.714716478883,2235
717.9822653184822,2339
720.2491570133882,2256
722.5153922148452,2264
724.7809715731639,2178
727.0458957377248,2197
729.3101653569763,2179
731.5737810784346,2222
733.8367435486853,2252
736.0990534133803,2257
738.3607113172418,2291
740.6217179040591,2302
742.8820738166899,2296
745.1417796970607,2369
747.4008361861659,2274
749.6592439240678,2354
751.9170035498973,2334
754.1741157018539,2472
756.4305810172048,2264
758.686400132286,2315
760.9415736825013,2339
763.196102302323,2356
765.4499866252911,2404
767.7032272840152,2378
769.9558249101717,2320
772.207780134506,2293
774.4590935868323,2460
776.7097658960313,2574
778.9597976900541,2495
781.2091895959184,2422
783.457942239711,2304
785.7060562465867,2295
787.9535322407687,2353
790.2003708455488,2372
792.4465726832861,2356
794.6921383754088,2420
796.9370685424128,2390
799.1813638038632,2390
801.4250247783918,2398
803.6680520837006,2397
805.9104463365579,2427
808.1522081528019,2398
810.393338147338,2286
812.6338369341406,2254
814.8737051262517,2256
817.1129433357819,2358
819.35155217391,2308
821.5895322508834,2260
823.8268841760168,2241
826.0636085576946,2329
828.2997060033681,2327
830.535177119558,2333
832.7700225118522,2308
835.0042427849078,2344
837.2378385424493,2340
839.4708103872701,2256
841.7031589212318,2296
843.9348847452643,2318
846.1659884593648,2377
848.3964706626004,2350
850.6263319531054,2377
852.8555729280824,2296
855.0841941838025,2377
857.3121963156052,2332
859.5395799178978,2380
861.7663455841566,2418
863.9924939069251,2391
866.2180254778159,2396
868.4429408875103,2433
870.6672407257561,2374
872.890925581371,2440
875.1139960422404,2394
877.336452695318,2363
879.5582961266261,2408
881.7795269212543,2331
884.0001456633613,2344
886.2201529361741,2471
888.4395493219874,2579
890.6583354021648,2545
892.8765117571375,2461
895.094078966405,2461
897.3110376085365,2455
899.5273882611671,2475
901.7431315010019,2405
903.958267903814,2374
906.1727980444443,2393
908.3867224968019,2389
910.6000418338647,2317
912.8127566276792,2359
915.0248674493587,2464
917.2363748690857,2445
919.4472794561113,2295
921.6575817787543,2345
923.867282404402,2222
926.0763818995099,2174
928.2848808296014,2186
930.4927797592693,2260
932.700079252173,2320
934.9067798710416,2213
937.112882177672,2235
939.3183867329287,2270
941.5232940967453,2293
943.727604828124,2196
945.9313194851336,2208
948.1344386249132,2195
950.3369628036685,2341
952.5388925766747,2133
954.7402284982745,2127
956.9409711218789,2182
959.1411209999676,2241
961.3406786840883,2166
963.5396447248565,2177
965.7380196719573,2331
967.9358040741427,2250
970.1329984792335,2186
972.3296034341188,2187
974.5256194847555,2086
976.72104717617,2073
978.9158870524552,2225
981.1101396567742,2174
983.3038055313566,2076
985.4968852175009,2131
987.6893792555747,2189
989.8812881850124,2140
992.072612544318,2149
994.263352871063,2076
996.453509701887,2055
998.6430835724984,2108
1000.832075017674,2062
1003.0204845712583,1974
1005.208312766164,2046
1007.3955601343728,2004
1009.5822272069338,2012
1011.7683145139652,2032
1013.9538225846525,2004
1016.1387519472505,1990
1018.3231031290818,1910
1020.5068766565371,1952
1022.6900730550753,2039
1024.872692849224,2065
1027.054736562579,1897
1029.2362047178037,1879
1031.4170978366305,1851
1033.5974164398597,1944
1035.7771610473603,1843
1037.9563321780693,1910
1040.1349303499917,1893
1042.3129560802006,1902
1044.490409884838,1783
1046.667292279115,1727
1048.8436037773079,1754
1051.0193448927644,1806
1053.1945161378994,1876
1055.3691180241954,1900
1057.5431510622038,1873
1059.7166157615447,1868
1061.8895126309053,1833
1064.0618421780423,1916
1066.2336049097798,1812
1068.4048013320107,1787
1070.5754319496955,1771
1072.745497266863,1819
1074.9149977866118,1806
1077.0839340111065,1815
1079.2523064415818,1808
1081.4201155783398,1726
1083.587361920751,1794
1085.7540459672537,1859
1087.9201682153553,1828
1090.0857291616308,1818
1092.2507293017238,1771
1094.4151691303464,1692
1096.579049141279,1753
1098.7423698273687,1743
1100.9051316805335,1766
1103.0673351917571,1722
1105.2289808510936,1780
1107.3900691476633,1753
1109.550600569657,1764
1111.710575604332,1747
1113.8699947380146,1752
1116.028858456099,1795
1118.1871672430489,1747
1120.344921582394,1775
1122.5021219567334,1840
1124.6587688477362,1823
1126.8148627361365,1780
1128.9704041017399,1815
1131.1253934234173,1808
1133.2798311791098,1768
1135.4337178458263,1688
1137.5870538996437,1733
1139.7398398157075,1661
1141.8920760682313,1780
1144.0437631304972,1762
1146.1949014748543,1764
1148.3454915727225,1789
1150.4955338945874,1707
1152.6450289100044,1712
1154.7939770875969,1780
1156.9423788950558,1713
1159.0902347991405,1663
1161.2375452656802,1805
1163.3843107595703,1703
1165.530531744775,1774
1167.6762086843282,1735
1169.8213420403304,1678
1171.9659322739503,1682
1174.1099798454266,1712
1176.2534852140639,1765
1178.3964488382376,1714
1180.538871175389,1772
1182.680752682029,1764
1184.8220938137365,1681
1186.9628950251595,1715
1189.103156770012,1745
1191.2428795010783,1682
1193.3820636702108,1637
1195.5207097283287,1730
1197.6588181254215,1674
1199.7963893105457,1720
1201.9334237318253,1672
1204.0699218364548,1702
1206.2058840706954,1721
1208.3413108798773,1725
1210.476202708397,1709
1212.6105599997222,1783
1214.7443831963874,1740
1216.877672739995,1633
1219.0104290712165,1759
1221.1426526297905,1844
1223.2743438545253,1773
1225.4055031832972,1758
1227.5361310530493,1693
1229.6662278997946,1727
1231.7957941586142,1709
1233.9248302636565,1658
1236.053336648139,1679
1238.1813137443464,1754
1240.3087619836338,1781
1242.4356817964222,1778
1244.5620736122019,1849
1246.6879378595318,1719
1248.813274966039,1677
1250.938085358418,1732
1253.062369462432,1761
1255.186127702913,1753
1257.3093605037611,1667
1259.4320682879434,1638
1261.554251477498,1717
1263.6759104935277,1688
1265.797045756206,1708
1267.9176576847744,1757
1270.0377466975428,1730
1272.1573132118879,1750
1274.2763576442567,1746
1276.394880410162,1753
1278.5128819241877,1799
1280.6303625999835,1763
1282.7473228502695,1750
1284.8637630868325,1764
1286.9796837205272,1744
1289.0950851612783,1728
1291.209967818078,1775
1293.3243320989864,1840
1295.4381784111324,1816
1297.551507160712,1879
1299.6643187529912,1855
1301.776613592303,1794
1303.888392082049,1799
1305.9996546246998,1823
1308.1104016217923,1826
1310.220633473934,1758
1312.3303505807999,1766
1314.4395533411316,1910
1316.5482421527418,1821
1318.6564174125092,1834
1320.7640795163816,1747
1322.8712288593752,1844
1324.9778658355744,1793
1327.0839908381313,1788
1329.1896042592675,1762
1331.2947064902714,1759
1333.3992979215009,1773
1335.503378942381,1844
1337.6069499414057,1742
1339.7100113061383,1799
1341.8125634232074,1764
1343.9146066783128,1745
1346.0161414562212,1796
1348.1171681407677,1773
1350.2176871148563,1778
1352.3176987604575,1783
1354.4172034586127,1826
1356.5162015894289,1828
1358.6146935320835,1784
1360.7126796648213,1780
1362.8101603649548,1826
1364.9071360088656,1732
1367.0036069720036,1687
1369.099573628886,1750
1371.195036353099,1748
1373.2899955172975,1855
1375.3844514932039,1755
1377.4784046516088,1786
1379.5718553623715,1762
1381.6648039944193,1824
1383.7572509157485,1839
1385.8491964934224,1787
1387.9406410935735,1808
1390.0315850814022,1861
1392.122028821177,1794
1394.2119726762357,1805
1396.3014170089828,1753
1398.3903621808918,1890
1400.4788085525051,1803
1402.566756483432,1777
1404.6542063323514,1718
1406.7411584570095,1749
1408.8276132142219,1783
1410.9135709598704,1759
1412.9990320489078,1800
1415.083996835353,1735
1417.1684656722937,1733
1419.2524389118867,1772
1421.3359169053565,1795
1423.4189000029946,1765
1425.5013885541634,1728
1427.5833829072913,1804
1429.664883409876,1740
1431.7458904084833,1749
1433.8264042487467,1808
1435.9064252753697,1783
1437.9859538321216,1828
1440.0649902618416,1788
1442.1435349064373,1789
1444.2215881068837,1818
1446.2991502032237,1846
1448.37622153457,1828
1450.452802439103,1844
1452.5288932540698,1851
1454.604494315788,1805
1456.6796059596427,1820
1458.7542285200866,1782
1460.8283623306415,1734
1462.902007723897,1843
1464.9751650315106,1880
1467.0478345842089,1862
1469.1200167117868,1824
1471.1917117431062,1826
1473.2629200060992,1837
1475.333641827764,1769
1477.4038775341692,1867
1479.4736274504498,1841
1481.5428919008104,1874
1483.6116712085222,1891
1485.6799656959279,1825
1487.7477756844346,1858
1489.8151014945201,1778
1491.88194344573,1793
1493.9483018566775,1827
1496.0141770450455,1857
1498.0795693275822,1848
1500.1444790201076,1818
1502.2089064375086,1825
1504.2728518937402,1828
1506.3363157018239,1821
1508.3992981738534,1872
1510.4617996209872,1835
1512.5238203534536,1829
1514.5853606805495,1961
1516.6464209106384,1898
1518.7070013511543,1844
1520.7671023085973,1980
1522.8267240885375,1901
1524.885866995612,1897
1526.9445313335268,1984
1529.002717405056,1981
1531.0604255120425,1983
1533.1176559553965,1947
1535.1744090350971,2005
1537.2306850501914,2056
1539.2864842987956,2059
1541.3418070780922,2053
1543.396653684334,2009
1545.4510244128405,2070
1547.5049195580013,2088
1549.5583394132727,2167
1551.61128427118,2086
1553.6637544233158,2156
1555.7157501603415,2144
1557.7672717719888,2109
1559.8183195470538,2170
1561.8688937734037,2140
1563.9189947379737,2100
1565.9686227267657,2137
1568.0177780248514,2116
1570.0664609163696,2147
1572.1146716845292,2128
1574.162410611605,2153
1576.2096779789413,2103
1578.2564740669518,2023
1580.3027991551157,2001
1582.3486535219831,1931
1584.3940374451709,1985
1586.4389512013645,1934
1588.4833950663178,1916
1590.5273693148533,1893
1592.5708742208603,1940
1594.6139100572982,1934
1596.6564770961936,1894
1598.698575608642,1925
1600.7402058648063,1880
1602.7813681339185,1870
1604.8220626842776,1884
1606.8622897832533,1835
1608.9020496972812,1880
1610.9413426918663,1903
1612.9801690315808,1859
1615.018528980066,1819
1617.056422800033,1882
1619.0938507532578,1769
1621.1308131005876,1842
1623.1673101019355,1873
1625.2033420162848,1924
1627.2389091016862,1828
1629.274011615259,1841
1631.3086498131897,1837
1633.3428239507352,1832
1635.376534282219,1875
1637.4097810610324,1870
1639.4425645396364,1934
1641.4748849695593,1805
1643.5067426013989,1827
1645.53813768482,1843
1647.5690704685549,1776
1649.5995412004067,1807
1651.6295501272452,1855
1653.6590974950086,1880
1655.6881835487025,1867
1657.7168085324029,1821
1659.7449726892523,1743
1661.772676261462,1770
1663.7999194903114,1767
1665.8267026161484,1840
1667.8530258783894,1837
1669.8788895155185,1793
1671.9042937650888,1819
1673.9292388637205,1796
1675.953725047103,1826
1677.977752549994,1771
1680.0013216062184,1784
1682.0244324486712,1833
1684.0470853093134,1706
1686.0692804191767,1779
1688.0910180083588,1753
1690.1122983060268,1778
1692.1331215404175,1812
1694.1534879388319,1756
1696.173397727644,1835
1698.1928511322926,1822
1700.211848377286,1859
1702.2303896862018,1885
1704.248475281684,1936
1706.2661053854458,1906
1708.2832802182684,1880
1710.300000000002,1823
1712.3162649495644,1870
1714.3320752849409,1770
1716.3474312231865,1767
1718.362332980424,1818
1720.376780771845,1769
1722.3907748117072,1826
1724.4043153133393,1819
1726.4174024891367,1763
1728.4300365505628,1797
1730.442217708151,1778
1732.4539461715008,1837
1734.465222149282,1814
1736.4760458492306,1809
1738.4864174781524,1846
1740.496337241921,1782
1742.5058053454786,1782
1744.5148219928346,1797
1746.523387387068,1782
1748.531501730325,1838
1750.5391652238209,1801
1752.5463780678388,1842
1754.55314046173,1848
1756.5594526039135,1757
1758.565314691879,1782
1760.5707269221812,1832
1762.5756894904443,1805
1764.580202591363,1869
1766.5842664186966,1865
1768.5878811652751,1818
1770.591047022996,1828
1772.593764182825,1825
1774.5960328347965,1793
1776.5978531680116,1786
1778.5992253706427,1811
1780.6001496299273,1750
1782.6006261321731,1782
1784.6006550627553,1850
1786.6002366061175,1843
1788.5993709457725,1854
1790.5980582642992,1856
1792.5962987433468,1807
1794.5940925636314,1785
1796.5914399049389,1780
1798.5883409461221,1864
1800.584795865102,1744
1802.580804838869,1804
1804.5763680434807,1864
1806.571485654064,1797
1808.566157844813,1824
1810.5603847889902,1879
1812.5541666589274,1868
1814.5475036260236,1792
1816.5403958607467,1902
1818.5328435326323,1800
1820.5248468102845,1857
1822.5164058613755,1813
1824.5075208526468,1804
1826.4981919499064,1865
1828.488419318032,1836
1830.4782031209684,1831
1832.4675435217305,1770
1834.4564406823993,1817
1836.4448947641258,1756
1838.432905927128,1835
1840.4204743306927,1892
1842.4076001331746,1816
1844.3942834919985,1842
1846.380524563654,1904
1848.366323503702,1826
1850.351680466771,1806
1852.3365956065563,1814
1854.3210690758228,1849
1856.3051010264044,1790
1858.2886916092007,1758
1860.271840974182,1829
1862.2545492703862,1803
1864.2368166459191,1891
1866.2186432479543,1876
1868.2000292227349,1855
1870.1809747155717,1821
1872.1614798708429,1870
1874.1415448319963,1853
1876.1211697415474,1841
1878.1003547410805,1829
1880.0790999712472,1816
1882.0574055717675,1786
1884.0352716814305,1871
1886.0126984380927,1780
1887.989685978679,1797
1889.9662344391836,1837
1891.9423439546672,1845
1893.9180146592607,1826
1895.893246686161,1815
1897.868040167636,1874
1899.8423952350195,1871
1901.8163120187137,1884
1903.7897906481917,1892
1905.7628312519923,1809
1907.7354339577219,1875
1909.7075988920578,1975
1911.6793261807447,1881
1913.6506159485943,1782
1915.6214683194871,1840
1917.5918834163726,1839
1919.5618613612687,1801
1921.5314022752605,1856
1923.5005062785012,1846
1925.4691734902144,1820
1927.4374040286893,1900
1929.4051980112845,1828
1931.3725555544274,1872
1933.3394767736136,1984
1935.305961783406,1887
1937.2720106974361,1929
1939.237623628404,1880
1941.2028006880778,1911
1943.167541987295,1945
1945.1318476359588,1929
1947.0957177430432,1891
1949.0591524165898,1928
1951.0221517637078,1924
1952.984715890574,1923
1954.9468449024357,1891
1956.9085389036072,1827
1958.8697979974704,1864
1960.8306222864767,1841
1962.7910118721456,1887
1964.7509668550638,1816
1966.7104873348871,1821
1968.6695734103387,1908
1970.6282251792127,1868
1972.586442738368,1865
1974.5442261837343,1898
1976.501575610307,1841
1978.4584911121533,1879
1980.4149727824056,1856
1982.3710207132658,1864
1984.326634996004,1809
1986.2818157209585,1884
1988.2365629775359,1874
1990.1908768542116,1921
1992.144757438527,1904
1994.0982048170954,1928
1996.0512190755953,1896
1998.0038002987749,1907
1999.95594857045,1900
2001.9076639735054,1900
2003.8589465898945,1927
2005.8097965006368,1871
2007.760213785822,1910
2009.7101985246077,1931
2011.6597507952201,1838
2013.6088706749524,1864
2015.5575582401675,1864
2017.5058135662953,1818
2019.4536367278351,1817
2021.4010277983534,1789
2023.347986850486,1844
2025.2945139559365,1842
2027.2406091854768,1879
2029.1862726089462,1942
2031.1315042952538,1910
2033.0763043123766,1815
2035.0206727273585,1889
2036.964609606313,1875
2038.908115014422,1847
2040.8511890159348,1943
2042.7938316741693,1963
2044.7360430515123,1897
2046.677823209417,1927
2048.6191722084077,1876
2050.5600901080743,1879
2052.5005769670765,1856
2054.440632843142,1927
2056.380257793066,1926
2058.3194518727128,1764
2060.258215137015,1846
2062.1965476399732,1940
2064.1344494346554,1910
2066.0719205732,1837
2068.008961106812,1832
2069.945571085764,1933
2071.8817505593997,1884
2073.817499576128,1937
2075.7528181834273,1847
2077.6877064278447,1894
2079.622164354995,1896
2081.556192009562,1988
2083.4897894352966,1888
2085.4229566750187,1880
2087.355693770616,1923
2089.2880007630456,1867
2091.219877692331,1918
2093.151324597566,1887
2095.0823415169107,1891
2097.012928487595,1891
2098.9430855459173,1920
2100.872812727242,1907
2102.8021100660035,1916
2104.730977595705,1874
2106.659415348917,1897
2108.5874233572777,1871
2110.5150016514945,1864
2112.442150261343,1853
2114.3688692156675,1903
2116.2951585423793,1894
2118.2210182684585,1996
2120.146448419954,1917
2122.0714490219825,1802
2123.9960200987293,1917
2125.920161673447,1947
2127.843873768458,1873
2129.767156405151,1951
2131.690009603985,1822
2133.612433384486,1883
2135.534427765249,1875
2137.4559927639366,1825
2139.37712839728,1920
2141.2978346810783,1915
2143.2181116301995,1902
2145.1379592585795,1953
2147.057377579222,1865
2148.9763666042,1834
2150.894926344655,1853
2152.813056810794,1903
2154.730758011896,1864
2156.648029956306,1939
2158.564872651437,1916
2160.481286103772,1935
2162.397270318861,1888
2164.312825301323,1933
2166.227951054844,1876
2168.14264758218,1888
2170.056914885153,1884
2171.9707529646566,1970
2173.8841618206484,1824
2175.7971414521585,1853
2177.7096918572825,1887
2179.621813033186,1844
2181.5335049761,1872
2183.444767681327,1873
2185.355601143236,1899
2187.2660053552654,1945
2189.1759803099208,1870
2191.085525998777,1927
2192.994642412475,1947
2194.903329540727,1925
2196.811587372312,1831
2198.7194158950765,1876
2200.626815095937,1939
2202.5337849608763,1854
2204.440325474948,1906
2206.346436622271,1907
2208.2521183860345,1876
2210.157370748496,1943
2212.0621936909793,1921
2213.966587193879,1889
2215.8705512366573,1867
2217.774085797842,1894
2219.677190855033,1919
2221.579866384897,1902
2223.4821123631677,1880
2225.3839287646483,1818
2227.2853155632106,1940
2229.186272731794,1845
2231.0868002424063,1875
2232.986898066123,1851
2234.8865661730892,1988
2236.785804532517,1853
2238.6846131126877,1879
2240.5829918809495,1897
2242.4809408037213,1848
2244.3784598464877,1865
2246.275548973803,1914
2248.172208149288,1887
2250.0684373356357,1927
2251.964236494603,1868
2253.859605587017,1920
2255.7545445727733,1922
2257.6490534108357,1929
2259.5431320592356,1909
2261.436780475073,1872
2263.329998614516,1888
2265.222786432802,1914
2267.1151438842344,1856
2269.0070709221877,1894
2270.8985674991022,1917
2272.789633566488,1907
2274.6802690749237,1907
2276.570473974053,1829
2278.4602482125933,1837
2280.3495917383257,1909
2282.238504498101,1865
2284.1269864378387,1864
2286.0150375025264,1827
2287.9026576362203,1913
2289.789846782043,1908
2291.6766048821873,1959
2293.5629318779147,1935
2295.4488277095534,1926
2297.3342923164996,1913
2299.2193256372193,1910
2301.1039276092465,1911
2302.9880981691817,1939
2304.871837252696,1930
2306.755144794528,1955
2308.6380207284838,1955
2310.5204649874386,1983
2312.4024775033354,1891
2314.2840582071854,1863
2316.165207029068,1912
2318.0459238981325,1903
2319.926208742594,1865
2321.8060614897363,1904
2323.6854820659137,1873
2325.5644703965463,1981
2327.443026406124,1912
2329.321150018203,1910
2331.1988411554107,1917
2333.0760997394395,1944
2334.952925691053,1953
2336.829318930082,1882
2338.705279375424,1948
2340.5808069450477,1871
2342.4559015559867,1917
2344.3305631243456,1927
2346.204791565297,1912
2348.07858679308,1906
2349.9519487210027,1945
2351.824877261443,1959
2353.6973723258448,1939
2355.5694338247226,1933
2357.4410616676564,1938
2359.312255763297,1962
2361.1830160193617,1863
2363.053342342637,1921
2364.9232346389776,1901
2366.792692813306,1944
2368.6617167696145,1907
2370.5303064109603,1954
2372.3984616394723,2001
2374.2661823563467,1937
2376.1334684618464,1950
2378.0003198553054,1996
2379.8667364351227,1970
2381.7327180987672,1917
2383.5982647427777,1949
2385.4633762627586,1932
2387.3280525533837,1935
2389.192293508395,1913
2391.0560990206027,1937
2392.919468981885,1874
2394.782403283189,1935
2396.644901814531,1943
2398.5069644649916,1925
2400.3685911227235,1916
2402.2297816749474,1894
2404.0905360079505,1961
2405.950854007089,1894
2407.8107355567886,1957
2409.670180540541,1930
2411.529188840908,1934
2413.387760339518,1948
2415.2458949170705,1932
2417.1035924533294,1982
2418.96085282713,1903
2420.8176759163744,1961
2422.6740615980334,1894
2424.5300097481468,1916
2426.38552024182,1912
2428.24059295323,1953
2430.0952277556207,1884
2431.949424521303,1886
2433.803183121658,2025
2435.6565034271343,2031
2437.5093853072485,1948
2439.361828630585,1941
2441.213833264798,1975
2443.0653990766095,1932
2444.916525931808,1968
2446.7672136952524,1961
2448.6174622308695,2001
2450.4672714016538,2053
2452.3166410696676,1983
2454.165571096043,1945
2456.0140613409794,1973
2457.8621116637432,1949
2459.709721922672,2002
2461.556891975169,2009
2463.403621677707,1927
2465.249910885827,1968
2467.0957594541383,1922
2468.9411672363167,1951
2470.78613408511,1973
2472.630659852331,1878
2474.4747443888614,1960
2476.3183875446516,1924
2478.161589168721,1973
2480.0043491091556,1977
2481.8466672131112,1951
2483.6885433268108,1918
2485.529977295547,1952
2487.370968963678,1938
2489.2115181746335,1906
2491.0516247709097,1950
2492.891288594071,1963
2494.7305094847497,1903
2496.569287282649,1952
2498.407621826537,1982
2500.2455129542523,1976
2502.0829605027,1972
2503.919964307855,2030
2505.7565242047594,1947
2507.5926400275252,2020
2509.42831160933,1982
2511.263538782423,1939
2513.0983213781174,1982
2514.9326592267994,1947
2516.76655215792,2012
2518.5999999999995,1967
2520.4330025806275,1974
2522.2655597264607,1917
2524.0976712632237,1923
2525.9293370157097,1984
2527.760556807782,1954
2529.591330462369,1909
2531.4216578014702,2012
2533.2515386461523,1960
2535.080972816548,1975
2536.9099601318626,1944
2538.738500410366,1927
2540.5665934693993,1978
2542.3942391253695,1931
2544.221437193752,1944
2546.0481874890925,1847
2547.874489825003,2006
2549.700344014164,2019
2551.5257498683245,1940
2553.350707198304,1999
2555.175215813986,1974
2556.9992755243256,2042
2558.8228861373454,1900
2560.646047460134,1959
2562.468759298852,1996
2564.2910214587255,1917
2566.1128337440496,1969
2567.93419595819,1925
2569.7551079035757,1991
2571.5755693817077,1890
2573.395580193155,1896
2575.2151401375536,1968
2577.034249013609,1899
2578.8529066190936,1981
2580.6711127508493,2016
2582.488867204785,1994
2584.3061697758794,1930
2586.1230202581787,1970
2587.939418444797,2044
2589.7553641279183,1983
2591.570857098791,1982
2593.385897147736,1899
2595.200484064141,1992
2597.014617636461,2040
2598.8282976522214,1991
2600.6415238980126,1960
2602.454296159496,1953
2604.266614221401,2019
2606.0784778675243,1992
2607.8898868807305,1972
2609.700841042955,1995
2611.5113401351973,2016
2613.32138393753,1914
2615.13097222909,2019
2616.940104788084,1991
2618.748781391788,2068
2620.557001816543,2004
2622.364765837763,1997
2624.1720732299264,1958
2625.9789237665814,2017
2627.7853172203445,1983
2629.5912533629,1958
2631.396731965001,2031
2633.2017527964676,1940
2635.0063156261904,1989
2636.810420222126,2035
2638.614066351301,2016
2640.417253779809,1963
2642.219982272813,2027
2644.022251594542,2023
2645.8240615082973,2038
2647.625411776444,2026
2649.4263021604183,1922
2651.226732420724,1956
2653.026702316933,2057
2654.8262116076858,1925
2656.625260050691,1941
2658.423847402724,1947
2660.221973419631,1961
2662.0196378563246,2037
2663.8168404667867,1961
2665.613581004068,2016
2667.4098592202854,1968
2669.2056748666246,2022
2671.0010276933417,1975
2672.7959174497596,1980
2674.5903438842674,1941
2676.384306744327,2015
2678.177805776465,1989
2679.9708407262765,1994
2681.7634113384274,2025
2683.555517356648,1958
2685.3471585237403,2065
2687.138334581574,1925
2688.9290452710843,1991
2690.7192903322784,2012
2692.50906950423,2052
2694.2983825250794,1966
2696.087229132039,2038
2697.875609061386,1930
2699.6635220484677,2018
2701.450967827699,1934
2703.237946132564,1940
2705.0244566956126,1916
2706.8104992484664,1953
2708.596073521813,2003
2710.381179245408,2031
2712.1658161480777,1973
2713.949983957714,1992
2715.7336824012773,1977
2717.516911204798,1956
2719.299670093374,1992
2721.0819587911706,1943
2722.8637770214223,1976
2724.6451245064322,1899
2726.426000967571,2012
2728.2064061252763,1985
2729.986339699057,1937
2731.765801407488,1941
2733.5447909682134,1983
2735.323308097945,1910
2737.101352512463,1910
2738.8789239266166,1974
2740.6560220543215,1963
2742.4326466085645,1910
2744.2087973013977,1929
2745.984473843944,1969
2747.7596759463922,1953
2749.534403318001,1940
2751.308655667096,1924
2753.0824327010737,1952
2754.8557341263954,1923
2756.628559648593,1933
2758.4009089722667,1982
2760.172781801083,1957
2761.944177837779,1859
2763.715096784159,1946
2765.4855383410945,1920
2767.2555022085267,1902
2769.024988085465,1937
2770.793995669988,1882
2772.5625246592385,1971
2774.3305747494323,1961
2776.098145635852,1997
2777.865237012847,1985
2779.6318485738357,1931
2781.397980011306,1943
2783.163631016813,1954
2784.928801280979,1983
2786.6934904934974,1974
2788.457698343127,1912
2790.221424517697,1916
2791.9846687041027,2006
2793.74743058831,1921
2795.5097098553515,1962
2797.2715061893286,1986
2799.0328192734105,1974
2800.793648789836,1951
2802.553994419911,1995
2804.3138558440087,1951
2806.073232741573,1989
2807.8321247911135,1990
2809.590531670211,1954
2811.3484530555115,1978
2813.105888622732,1993
2814.8628380466557,2037
2816.6193010011348,1979
2818.3752771590903,2058
2820.13076619251,2035
2821.885767772452,1968
2823.640281569041,1932
2825.3943072514703,2063
2827.147844488002,2066
2828.9008929459665,1997
2830.6534522917614,1931
2832.405522190854,1924
2834.1571023077786,1956
2835.9081923061394,1917
2837.658791848606,2047
2839.40890059692,2034
2841.1585182118874,2072
2842.907644353386,1969
2844.6562786803593,2031
2846.4044208508203,2046
2848.15207052185,1958
2849.899227349598,1945
2851.6458909892804,1957
2853.392061095185,1965
2855.137737320664,2026
2856.882919318142,2022
2858.6276067391063,1921
2860.371799234118,1913
2862.1154964528037,1980
2863.8586980438586,1976
2865.6014036550464,1924
2867.343612933199,1998
2869.0853255242173,2007
2870.826541073068,1977
2872.567259223789,2012
2874.307479619485,1972
2876.0472019023287,1915
2877.7864257135625,2036
2879.525150693495,2037
2881.263376481505,2012
2883.0011027160385,1960
2884.73832903461,1928
2886.4750550738027,1996
2888.2112804692665,1994
2889.9470048557223,2094
2891.682227866956,1971
2893.416949135825,2056
2895.151168294252,1977
2896.88488497323,1963
2898.6180988028204,2035
2900.3508094121503,1954
2902.083016429419,1993
2903.81471948189,2032
2905.5459181958972,2033
2907.276612196844,1986
2909.0068011091994,1940
2910.736484556502,1959
2912.465662161359,1980
2914.194333545445,2002
2915.922498329504,1972
2917.650156133346,1961
2919.377306575852,2056
2921.103949274969,2021
2922.830083847715,1975
2924.555709910173,1982
2926.2808270774967,1977
2928.005434963907,1950
2929.7295331826936,2021
2931.4531213462133,1941
2933.1761990658924,1974
2934.8987659522254,1975
2936.6208216147747,2014
2938.3423656621694,2040
2940.0633977021116,2014
2941.783917341366,2028
2943.503924185768,2055
2945.223417840223,1977
2946.9423979087023,1999
2948.6608639942456,2017
2950.378815698962,2050
2952.096252624029,2054
2953.81317436969,2100
2955.529580535259,1997
2957.2454707191177,1950
2958.9608445187164,1956
2960.6757015305734,2163
2962.3900413502733,2035
2964.103863572472,1994
2965.817167790894,1961
2967.529953598327,2003
2969.2422205866337,1978
2970.953968346739,1982
2972.6651964686407,1941
2974.3759045414035,1962
2976.0860921531585,1966
2977.7957588911067,2007
2979.504904341517,2011
2981.2135280897273,2045
2982.9216297201433,2077
2984.629208816238,2021
2986.336264960554,1956
2988.0427977347017,2009
2989.7488067193594,2011
2991.454291494274,1933
2993.1592516382607,2004
2994.8636867292034,1942
2996.567596344053,2004
2998.2709800588295,2034
2999.973837448621,2042
3001.6761680875857,2028
3003.377971548946,2013
3005.0792474049954,1993
3006.7799952270957,2079
3008.480214585676,1908
3010.1799050502345,1939
3011.8790661893368,1985
3013.5776975706176,2053
3015.2757987607793,1980
3016.973369325592,1982
3018.6704088298966,2007
3020.366916837598,1927
3022.0628929116747,1970
3023.7583366141675,1938
3025.4532475061915,1970
3027.147625147925,2023
3028.841469098617,2000
3030.534778916585,1966
3032.2275541592144,1988
3033.9197943829577,1966
3035.611499143338,2031
3037.302667994943,1941
3038.9933004914333,2024
3040.683396185535,1999
3042.372954629042,1980
3044.061975372817,1963
3045.7504579667934,2074
3047.4384019599684,1930
3049.1258069004116,1956
3050.812672335258,2045
3052.4989978107124,2045
3054.184782872047,1996
3055.870027063603,2005
3057.554729928791,2019
3059.238891010086,2003
3060.9225098490347,2073
3062.6055859862518,1957
3064.2881189614177,1967
3065.970108313285,1967
3067.651553579671,2023
3069.3324542974633,1948
3071.012810002616,2004
3072.6926202301543,1956
3074.3718845141702,1977
3076.050602387822,2021
3077.728773383339,1992
3079.406397032018,1979
3081.083472864223,2056
3082.7600004093874,2004
3084.4359791960137,2034
3086.11140875167,1983
3087.7862886029952,1945
3089.4606182756943,1919
3091.134397294544,1976
3092.807625183385,1924
3094.4803014651284,1979
3096.152425661755,1984
3097.8239972943097,2063
3099.49501588291,2011
3101.165480946741,1892
3102.8353920040518,1980
3104.504748572165,1972
3106.1735501674693,2061
3107.8417963054226,2077
3109.5094865005485,1992
3111.176620266441,2040
3112.8431971157625,1999
3114.5092165602427,2027
3116.1746781106813,2005
3117.839581276943,2059
3119.503925567965,1958
3121.167710491747,1992
3122.830935555364,2015
3124.493600264954,2043
3126.1557041257247,2071
3127.817246641952,2046
3129.478227316982,1958
3131.1386456532273,2027
3132.798501152168,2024
3134.4577933143537,2012
3136.116521639402,2009
3137.7746856259982,2069
3139.4322847718977,2053
3141.0893185739224,2020
3142.745786527962,2032
3144.4016881289754,2051
3146.0570228709903,2071
3147.711790247102,1963
3149.3659897494754,1995
3151.0196208693396,2015
3152.6726830969974,1980
3154.3251759218165,2064
3155.9770988322334,1997
3157.6284513157534,1999
3159.2792328589485,1972
3160.929442947461,1999
3162.579081066002,2004
3164.2281466983477,1995
3165.8766393273454,2002
3167.5245584349086,1982
3169.1719035020224,1984
3170.818674008735,2048
3172.4648694341677,2014
3174.110489256508,2033
3175.7555329530105,2086
3177.4000000000005,2022
3179.0438898728707,2008
3180.6872020460805,2016
3182.32993599316,2072
3183.972091186706,1987
3185.613667098384,2020
3187.254663198927,2039
3188.8950789581386,2036
3190.5349138448873,1964
3192.1741673271126,2021
3193.8128388718224,2053
3195.4509279450886,2026
3197.0884340120574,1965
3198.725356536939,1967
3200.361694983014,1909
3201.997448812629,1990
3203.632617487203,1960
3205.2672004672195,2025
3206.901197212229,2048
3208.5346071808563,2011
3210.167429830789,1952
3211.799664618785,2015
3213.4313110006706,1951
3215.0623684313387,2027
3216.692836364753,1960
3218.3227142539445,2033
3219.9520015510125,2072
3221.5806977071215,1992
3223.2088021725103,1995
3224.8363143964816,2000
3226.4632338274077,2022
3228.089559912728,1995
3229.715292098951,2059
3231.3404298316545,2058
3232.9649725554846,2079
3234.5889197141523,2074
3236.2122707504395,2035
3237.8350251061984,2036
3239.457182222345,1948
3241.0787415388677,2009
3242.6997024948187,1979
3244.3200645283223,2009
3245.9398270765696,2017
3247.558989575821,2071
3249.177551461403,2016
3250.7955121677123,2052
3252.412871128213,2002
3254.029627775437,2046
3255.6457815409867,2022
3257.2613318555286,2031
3258.876278148802,1968
3260.490619849613,1955
3262.1043563858348,1933
3263.717487184408,1941
3265.3300116713453,2018
3266.941929271725,1960
3268.5532394096917,2070
3270.1639415084646,1962
3271.7740349903233,1983
3273.383519276621,1962
3274.9923937877775,1977
3276.6006579432833,2017
3278.2083111616903,1953
3279.815352860627,2007
3281.421782456786,2010
3283.027599365927,2021
3284.632803002881,2093
3286.237392781545,1995
3287.841368114885,1979
3289.4447284149373,2025
3291.047473092801,1992
3292.649601558651,2013
3294.2511132217223,2025
3295.8520074903254,1991
3297.452283771835,1891
3299.051941472695,2063
3300.650979998417,1998
3302.2493987535827,2061
3303.8471971418403,2026
3305.4443745659064,2042
3307.0409304275654,1999
3308.636864127674,2005
3310.2321750661513,2041
3311.8268626419876,1953
3313.420926253242,2006
3315.01436529704,2037
3316.6071791695776,1967
3318.1993672661183,2052
3319.7909289809913,1980
3321.3818637075983,1961
3322.972170838406,1962
3324.561849764951,1991
3326.150899877838,1926
3327.7393205667386,1956
3329.3271112203956,2046
3330.9142712266166,2014
3332.5007999722793,2010
3334.08669684333,2069
3335.6719612247834,2094
3337.2565925007193,2073
3338.840590054291,2066
3340.4239532677157,2075
3342.006681522281,2143
3343.5887741983406,2033
3345.1702306753214,2140
3346.7510503317126,2065
3348.3312325450743,2052
3349.910776692037,2086
3351.4896821482953,2039
3353.0679482886153,2009
3354.645574486829,1960
3356.2225601158398,1967
3357.798904547615,1982
