CollectionTime,4/2/2024 11:03:08 AM
ExposureUsed,3
CalibratedSpectrum
-994.8464149364308,662
-991.9439705588344,692
-989.042830375826,682
-986.1429931109675,781
-983.2444574887519,868
-980.3472222346043,752
-977.4512860748813,724
-974.5566477368716,740
-971.6633059487953,683
-968.7712594398042,705
-965.8805069399822,704
-962.9910471803447,701
-960.1028788928387,694
-957.2160008103432,688
-954.3304116666687,742
-951.4461101965578,723
-948.5630951356844,745
-945.6813652206545,844
-942.8009191890055,903
-939.9217557792067,889
-937.0438737306594,792
-934.167271783696,771
-931.2919486795813,756
-928.4179031605115,689
-925.5451339696144,734
-922.67363985095,859
-919.8034195495097,849
-916.9344718112166,743
-914.0667953829256,738
-911.2003890124234,805
-908.3352514484286,781
-905.471381440591,729
-902.6087777394928,726
-899.7474390966474,794
-896.8873642645002,825
-894.0285519964284,793
-891.1710010467407,756
-888.3147101706776,730
-885.4596781244115,767
-882.6059036650465,689
-879.7533855506183,640
-876.9021225400943,665
-874.0521133933738,713
-871.2033568712878,678
-868.3558517355991,686
-865.509596749002,803
-862.6645906751228,805
-859.8208322785192,935
-856.9783203246812,857
-854.1370535800299,719
-851.2970308119186,767
-848.4582507886321,804
-845.620712279387,778
-842.7844140543316,695
-839.9493548845461,742
-837.1155335420422,759
-834.2829487997635,759
-831.4515994315852,822
-828.6214842123144,824
-825.7926019176898,793
-822.9649513243819,802
-820.138531209993,812
-817.3133403530569,772
-814.4893775330396,803
-811.6666415303382,753
-808.845131126282,754
-806.0248451031321,840
-803.2057822440808,755
-800.3879413332527,762
-797.5713211557038,917
-794.755920497422,879
-791.941738145327,805
-789.1287728872701,867
-786.3170235120342,988
-783.5064888093341,837
-780.6971675698165,719
-777.8890585850597,744
-775.0821606475735,881
-772.2764725507997,819
-769.4719930891118,729
-766.6687210578151,862
-763.8666552531465,1084
-761.0657944722747,1117
-758.2661375133,908
-755.4676831752547,760
-752.6704302581027,746
-749.8743775627395,750
-747.0795238909925,794
-744.285868045621,778
-741.4934088303156,800
-738.702145049699,728
-735.9120755093254,837
-733.123199015681,1083
-730.3355143761836,1083
-727.5490203991826,828
-724.7637158939592,811
-721.9795996707265,804
-719.1966705406293,738
-716.4149273157439,735
-713.6343688090786,707
-710.8549938345734,772
-708.0768012070998,813
-705.2997897424614,851
-702.5239582573931,830
-699.7493055695622,885
-696.9758304975669,884
-694.2035318609377,813
-691.4324084801367,853
-688.6624591765578,785
-685.8936827725265,842
-683.1260780913001,822
-680.3596439570675,842
-677.5943791949499,822
-674.8302826309991,704
-672.0673530922,728
-669.3055894064685,908
-666.5449904026519,912
-663.78555491053,799
-661.0272817608139,836
-658.2701697851465,915
-655.5142178161026,886
-652.7594246871884,802
-650.0057892328422,813
-647.2533102884337,827
-644.5019866902646,867
-641.7518172755683,916
-639.0028008825099,879
-636.254936350186,859
-633.5082225186254,825
-630.7626582287882,905
-628.0182423225665,902
-625.2749736427841,878
-622.5328510331965,868
-619.7918733384909,988
-617.0520394042862,959
-614.3133480771331,980
-611.5757982045143,965
-608.8393886348437,1053
-606.1041182174672,1103
-603.3699858026625,1034
-600.6369902416393,989
-597.9051303865383,1012
-595.1744050904326,1030
-592.4448132073267,1092
-589.7163535921568,1105
-586.9890251007912,999
-584.2628265900296,947
-581.5377569176036,981
-578.8138149421764,1061
-576.090999523343,953
-573.3693095216302,933
-570.6487437984965,1047
-567.9293012163321,1015
-565.210980638459,1034
-562.4937809291307,1018
-559.7777009535329,1013
-557.0627395777825,1018
-554.3488956689287,1036
-551.6361680949519,1116
-548.9245557247644,1228
-546.2140574282107,1222
-543.5046720760662,1084
-540.7963985400388,1153
-538.0892356927677,1169
-535.3831824078238,1235
-532.6782375597103,1353
-529.9744000238613,1396
-527.2716686766433,1649
-524.5700423953542,1758
-521.8695200582238,1500
-519.1701005444136,1383
-516.4717827340166,1551
-513.7745655080581,1719
-511.0784477484944,1847
-508.38342833821423,1943
-505.68950616103757,1971
-502.9966801017163,2161
-500.3049490459341,2390
-497.61431188030633,2053
-494.9247674923801,1688
-492.2363147706342,1570
-489.54895260447927,1476
-486.86267988425755,1534
-484.1774955012431,1643
-481.4933983476417,1773
-478.8103873165908,1510
-476.1284613021596,1339
-473.44761919934945,1321
-470.7678599040928,1405
-468.089182313254,1393
-465.4115853246294,1384
-462.735067836947,1602
-460.0596287498663,1496
-457.3852669639789,1193
-454.71198138080774,1078
-452.03977090280773,1022
-449.3686344333656,1117
-446.69857087679964,1265
-444.02957913835996,1290
-441.36165812422837,1236
-438.6948067415183,1228
-436.0290238982752,1248
-433.36430850347597,1204
-430.7006594670296,1263
-428.0380756997763,1249
-425.3765561134885,1357
-422.7160996208702,1319
-420.0567051355571,1358
-417.3983715721164,1384
-414.7410978460475,1342
-412.08488287378145,1249
-409.4297255726806,1194
-406.77562486103955,1241
-404.1225796580843,1130
-401.4705888839728,1016
-398.8196514597947,959
-396.1697663075713,1112
-393.5209323502555,1107
-390.8731485117323,929
-388.22641371681823,1090
-385.5807268912615,1213
-382.93608696174226,1035
-380.29249285587207,867
-377.64994350219456,818
-375.0084378301849,869
-372.36797477025016,947
-369.7285532537287,1145
-367.0901722128914,971
-364.45283058094014,962
-361.8165272920089,1129
-359.1812612811634,906
-356.54703148440103,738
-353.9138368386507,846
-351.28167628177346,991
-348.6505487525617,1037
-346.02045319074,917
-343.3913885369643,852
-340.76335373282245,921
-338.1363477208339,915
-335.5103694444499,1120
-332.8854178480535,1114
-330.26149187695944,1154
-327.63859047741425,1013
-325.016712596596,861
-322.3958571826148,778
-319.77602318451227,852
-317.15720955226186,1044
-314.5394152367686,1041
-311.9226391898695,897
-309.3068803643333,961
-306.69213771386023,1123
-304.0784101930824,1283
-301.4656967575635,1235
-298.8539963637994,1240
-296.2433079692172,1229
-293.6336305321761,1093
-291.02496301196675,1129
-288.41730436881176,1183
-285.81065356386534,1167
-283.2050095592135,1202
-280.60037131787396,1693
-277.9967378037961,1958
-275.39410798186134,1579
-272.7924808178824,1799
-270.19185527860407,1497
-267.5922303317028,1340
-264.9936049457866,1415
-262.3959780903955,1480
-259.79934873600087,1806
-257.2037158540064,1740
-254.6090784167469,1731
-252.01543539748934,1724
-249.42278577043237,1394
-246.8311285107061,1321
-244.24046259437262,1195
-241.6507869984256,1376
-239.0621007007909,1688
-236.4744026803254,1704
-233.88769191681808,1656
-231.30196739098994,1413
-228.7172280844934,1271
-226.13347297991243,1506
-223.550701060763,1554
-220.9689113114929,1490
-218.3881027174814,1511
-215.8082742650397,1604
-213.22942494141068,2059
-210.65155373476898,2513
-208.07465963422078,2202
-205.49874162980439,2334
-202.92379871248932,2437
-200.34982987417743,2209
-197.7768341077018,1825
-195.20481040682762,1576
-192.63375776625162,1687
-190.0636751816021,1700
-187.49456164943945,1962
-184.92641616725564,2206
-182.3592377334743,1876
-179.79302534745102,1963
-177.2277780094729,2287
-174.66349472075865,2308
-172.10017448345923,2292
-169.5378163006569,2323
-166.97641917636565,2134
-164.41598211553162,2437
-161.8565041240322,2931
-159.29798420867678,2675
-156.74042137720642,2599
-154.18381463829382,2593
-151.6281630015436,2318
-149.07346547749228,2016
-146.51972107760753,1864
-143.96692881428908,2131
-141.41508770086864,2389
-138.86419675160937,2861
-136.31425498170609,2767
-133.7652614072856,2861
-131.21721504540642,2425
-128.67011491405844,2628
-126.12396003216395,3487
-123.57874941957618,4135
-121.03448209708074,4003
-118.49115708639465,4264
-115.94877341016684,4437
-113.40733009197788,4430
-110.86682615633993,4117
-108.32726062869733,4159
-105.78863253542556,5820
-103.25094090383243,7422
-100.71418476215695,7047
-98.17836313957025,6222
-95.64347506617503,5092
-93.10951957300585,4323
-90.57649569202886,3720
-88.04440245614194,3569
-85.51323889917478,4531
-82.98300405588896,6818
-80.45369696197747,9413
-77.925316654065,12368
-75.39786216970867,15606
-72.87133254739649,17646
-70.34572682654857,20227
-67.82104404751692,23238
-65.29728325158499,29259
-62.774443480968216,36190
-60.252523778813384,39215
-57.73152318919938,43656
-55.21144075713676,39298
-52.69227552856796,35670
-50.17402655036665,36665
-47.65669287033859,29063
-45.14027353722133,26824
-42.624767600684095,33602
-40.11017411132775,41156
-37.59649212068507,45822
-35.08372068122037,58786
-32.57185884632963,57779
-30.06090567034107,52834
-27.550860208513996,51710
-25.04172151704006,61402
-22.533488653042014,65041
-20.02616067457484,65041
-17.51973664062507,65041
-15.014215611111126,65041
-12.509596646882983,65041
-10.005878809722162,65041
-7.503061162342419,65041
-5.001142768389059,65041
-2.5001226924387083,65041
-3.410605131648481E-13,65041
2.49922624248552,65041
4.997556967646801,65041
7.494993107179766,65041
9.99153559184856,65041
12.487185351485778,65041
14.98194331499235,65041
17.475810410337544,65041
19.96878756455851,65041
22.46087570376085,65041
24.952075753118834,34400
27.442388636874625,12431
29.93181527833849,9855
32.42035659988892,11306
34.90801352297353,15815
37.39478696810693,13032
39.880677854873056,10799
42.36568710192364,10536
44.8498156269784,12314
47.33306434682618,10708
49.815434177322686,11251
52.296926033393675,9631
54.77754082903198,8790
57.25727947729865,11853
59.736142890323435,12242
62.214131979304284,8411
64.6912476545076,6407
67.16749082526735,5162
69.64286239998614,4392
72.11736328613551,5303
74.59099439025431,5339
77.06375661794982,6303
79.53565087389825,5846
82.0066780618431,6248
84.4768390845968,4926
86.94613484403999,5224
89.41456624112152,7475
91.88213417585825,6245
94.34883954733527,5052
96.81468325370679,4632
99.2796661921941,3016
101.74378925908763,3654
104.20705334974559,4187
106.66945935859462,4956
109.1310081791296,5193
111.59170070391383,6617
114.05153782457865,4774
116.5105204318238,3168
118.96864941541708,4230
121.42592566419489,5098
123.88235006606146,4705
126.3379235079899,4546
128.79264687602085,4140
131.2465210552641,3401
133.69954692989631,2841
136.15172538316415,3217
138.60305729738116,2633
141.05354355393,2814
143.50318503326116,3532
145.95198261489327,3669
148.39993717741368,3532
150.84704959847772,3890
153.29332075480897,3926
155.73875152219944,3494
158.18334277550935,3695
160.62709538866693,3703
163.0700102346691,3796
165.51208818558075,3841
167.953330112535,3317
170.39373688573346,3052
172.8333093744459,3410
175.2720484470101,3768
177.70995497083277,3879
180.14702981238815,4069
182.58327383721917,3817
185.01868790993672,4030
187.45327289422062,3678
189.88702965281777,3398
192.31995904754444,3621
194.75206193928489,3743
197.18333918799135,3409
199.61379165268454,3546
202.04342019145315,3355
204.4722256614548,3483
206.90020891891436,3460
209.32737081912592,3320
211.7537122164515,3470
214.17923396432116,3902
216.6039369152336,3975
219.0278219207553,3501
221.45088983152186,3358
223.8731414972358,3371
226.29457776666914,3386
228.71519948766172,3367
231.1350075071216,3410
233.55400267102482,3676
235.97218582441633,3724
238.38955781140908,3252
240.806119475184,3516
243.2218716579905,3472
245.6368152011462,3381
248.05095094503736,3220
250.46427972911806,3309
252.87680239191036,3402
255.28851977100544,3911
257.69943270306203,4001
260.10954202380753,3375
262.5188485680378,3546
264.92735316961557,3603
267.33505666147425,3521
269.7419598756128,3470
272.14806364310084,3635
274.5533687940747,3365
276.95787615773975,3428
279.361586562369,3319
281.7645008353045,3100
284.1666198029559,3128
286.5679442908013,3214
288.96847512338695,3447
291.3682131243279,3294
293.7671591163071,3226
296.1653139210757,3174
298.562678359453,3336
300.9592532513268,3646
303.3550394156532,3456
305.75003767045655,3104
308.14424883282936,3140
310.53767371893196,3175
312.93031314399377,3185
315.3221679223125,3108
317.71323886725304,3115
320.1035267912496,3003
322.49303250580397,2846
324.881756821487,2861
327.2697005479374,2818
329.65686449386135,2936
332.0432494670347,3049
334.4288562743004,3000
336.81368572157066,2917
339.19773861382487,2900
341.58101575511205,2877
343.96351794854786,2730
346.3452459963173,2663
348.72620069967365,2694
351.1063828589379,2763
353.48579327349967,2972
355.8644327418169,2740
358.24230206141533,2644
360.6194020288899,2629
362.99573343990255,2624
365.3712970891845,2640
367.7460937705348,2559
370.12012427682066,2620
372.493389399978,2659
374.86588993101077,2632
377.23762665999084,2521
379.6086003760588,2546
381.9788118674235,2514
384.34826192136165,2632
386.7169513242188,2533
389.08488086140824,2495
391.4520513174118,2614
393.8184634757795,2673
396.1841181191296,2762
398.54901602914856,2738
400.9131579865916,2631
403.2765447712811,2636
405.63917716210926,2815
408.00105593703483,2756
410.36218187308646,2594
412.7225557463596,2515
415.0821783320191,2504
417.4410504042976,2391
419.79917273649585,2427
422.1565461009834,2559
424.5131712691973,2521
426.869049011643,2511
429.22418009789544,2646
431.578565296596,2371
433.9322053754556,2347
436.28510110125285,2327
438.6372532398352,2413
440.98866255611733,2262
443.33932981408293,2300
445.6892557767842,2462
448.0384412063411,2504
450.38688686394175,2557
452.7345935098431,2549
455.0815619033697,2447
457.42779280291506,2485
459.7732869659403,2582
462.1180451489754,2527
464.4620681076178,2377
466.80535659653424,2434
469.1479113694588,2465
471.48973317919445,2529
473.8308227776122,2473
476.17118091565135,2722
478.51080834331924,2615
480.8497058096914,2675
483.1878740629122,3005
485.5253138501944,2951
487.8620259178176,3162
490.1980110111317,3554
492.53326987455307,3571
494.86780325156724,3781
497.201611884728,3961
499.53469651565683,4170
501.8670578850447,4197
504.1986967326493,4092
506.52961379729754,3908
508.85980981688454,3580
511.18928552837315,3373
513.5180416677952,3356
515.8460789702503,3436
518.1733981699067,4084
520.5,4995
522.8258851928354,5319
525.1510544797857,4956
527.4755085912916,4552
529.7992482568625,4023
532.1222742050759,3296
534.4445871635783,2707
536.766187859083,2464
539.0870770173726,2297
541.4072553632982,2243
543.7267236207783,2305
546.0454825128002,2359
548.363532761419,2253
550.6808750877592,2320
552.9975102120118,2510
555.3134388534377,2365
557.6286617303654,2418
559.9431795601911,2301
562.2569930593802,2363
564.570102943466,2577
566.88250992705,2499
569.1942147238021,2248
571.5052180464602,2155
573.8155206068309,2251
576.1251231157885,2484
578.4340262832759,2455
580.7422308183045,2234
583.0497374289534,2163
585.3565468223703,2282
587.6626597047714,2301
589.9680767814409,2188
592.2727987567309,2258
594.5768263340624,2326
596.8801602159238,2242
599.1828011038731,2167
601.4847496985356,2187
603.7860066996047,2149
606.0865728058427,2119
608.3864487150802,2152
610.6856351242152,2242
612.9841327292149,2273
615.2819422251141,2205
617.5790643060163,2148
619.8754996650935,2119
622.1712489945849,2159
624.466312985799,2187
626.7606923291121,2178
629.0543877139692,2129
631.347399828883,2134
633.6397293614343,2196
635.9313769982732,2187
638.2223434251173,2246
640.5126293267522,2129
642.8022353870326,2073
645.0911622888809,2133
647.3794107142876,2141
649.666981344312,2206
651.9538748590815,2140
654.2400919377915,2309
656.525633258706,2350
658.8104994991568,2321
661.0946913355442,2279
663.3782094433375,2236
665.6610544970729,2407
667.9432271703561,2208
670.22472813586,2296
672.5055580653268,2415
674.7857176295659,2320
677.065207498456,2145
679.3440283409432,2173
681.6221808250425,2178
683.899665617837,2155
686.1764833854772,2110
688.4526347931837,2179
690.7281205052436,2230
693.0029411850135,2221
695.2770974949171,2223
697.5505900964474,2338
699.8234196501651,2163
702.0955868156989,2147
704.3670922517472,2137
706.6379366160747,2146
708.9081205655159,2258
711.1776447559728,2252
713.4465098424155,2229
715.714716478883,2264
717.9822653184822,2318
720.2491570133882,2292
722.5153922148452,2177
724.7809715731639,2103
727.0458957377248,2129
729.3101653569763,2074
731.5737810784346,2211
733.8367435486853,2142
736.0990534133803,2225
738.3607113172418,2287
740.6217179040591,2366
742.8820738166899,2334
745.1417796970607,2268
747.4008361861659,2238
749.6592439240678,2278
751.9170035498973,2459
754.1741157018539,2346
756.4305810172048,2274
758.686400132286,2333
760.9415736825013,2377
763.196102302323,2420
765.4499866252911,2363
767.7032272840152,2337
769.9558249101717,2189
772.207780134506,2287
774.4590935868323,2422
776.7097658960313,2451
778.9597976900541,2462
781.2091895959184,2442
783.457942239711,2170
785.7060562465867,2301
787.9535322407687,2356
790.2003708455488,2339
792.4465726832861,2418
794.6921383754088,2467
796.9370685424128,2421
799.1813638038632,2353
801.4250247783918,2380
803.6680520837006,2371
805.9104463365579,2327
808.1522081528019,2307
810.393338147338,2324
812.6338369341406,2327
814.8737051262517,2268
817.1129433357819,2327
819.35155217391,2282
821.5895322508834,2233
823.8268841760168,2298
826.0636085576946,2286
828.2997060033681,2251
830.535177119558,2233
832.7700225118522,2300
835.0042427849078,2255
837.2378385424493,2306
839.4708103872701,2267
841.7031589212318,2250
843.9348847452643,2215
846.1659884593648,2406
848.3964706626004,2299
850.6263319531054,2384
852.8555729280824,2233
855.0841941838025,2295
857.3121963156052,2302
859.5395799178978,2376
861.7663455841566,2425
863.9924939069251,2491
866.2180254778159,2405
868.4429408875103,2338
870.6672407257561,2349
872.890925581371,2472
875.1139960422404,2303
877.336452695318,2328
879.5582961266261,2373
881.7795269212543,2350
884.0001456633613,2320
886.2201529361741,2401
888.4395493219874,2543
890.6583354021648,2592
892.8765117571375,2458
895.094078966405,2447
897.3110376085365,2426
899.5273882611671,2385
901.7431315010019,2283
903.958267903814,2346
906.1727980444443,2226
908.3867224968019,2325
910.6000418338647,2263
912.8127566276792,2343
915.0248674493587,2538
917.2363748690857,2377
919.4472794561113,2311
921.6575817787543,2241
923.867282404402,2207
926.0763818995099,2159
928.2848808296014,2174
930.4927797592693,2266
932.700079252173,2273
934.9067798710416,2103
937.112882177672,2214
939.3183867329287,2161
941.5232940967453,2165
943.727604828124,2241
945.9313194851336,2176
948.1344386249132,2241
950.3369628036685,2345
952.5388925766747,2271
954.7402284982745,2104
956.9409711218789,2117
959.1411209999676,2109
961.3406786840883,2174
963.5396447248565,2183
965.7380196719573,2257
967.9358040741427,2261
970.1329984792335,2149
972.3296034341188,2154
974.5256194847555,2111
976.72104717617,2078
978.9158870524552,2178
981.1101396567742,2087
983.3038055313566,2075
985.4968852175009,2023
987.6893792555747,2107
989.8812881850124,2138
992.072612544318,2127
994.263352871063,2078
996.453509701887,2076
998.6430835724984,2033
1000.832075017674,2046
1003.0204845712583,2006
1005.208312766164,1925
1007.3955601343728,1914
1009.5822272069338,1983
1011.7683145139652,1948
1013.9538225846525,2014
1016.1387519472505,1955
1018.3231031290818,1972
1020.5068766565371,1921
1022.6900730550753,1956
1024.872692849224,1976
1027.054736562579,1950
1029.2362047178037,1854
1031.4170978366305,1810
1033.5974164398597,1885
1035.7771610473603,1847
1037.9563321780693,1890
1040.1349303499917,1785
1042.3129560802006,1801
1044.490409884838,1770
1046.667292279115,1744
1048.8436037773079,1768
1051.0193448927644,1794
1053.1945161378994,1809
1055.3691180241954,1871
1057.5431510622038,1875
1059.7166157615447,1897
1061.8895126309053,1789
1064.0618421780423,1827
1066.2336049097798,1789
1068.4048013320107,1724
1070.5754319496955,1741
1072.745497266863,1812
1074.9149977866118,1809
1077.0839340111065,1784
1079.2523064415818,1707
1081.4201155783398,1775
1083.587361920751,1758
1085.7540459672537,1739
1087.9201682153553,1816
1090.0857291616308,1786
1092.2507293017238,1686
1094.4151691303464,1765
1096.579049141279,1706
1098.7423698273687,1677
1100.9051316805335,1717
1103.0673351917571,1727
1105.2289808510936,1734
1107.3900691476633,1737
1109.550600569657,1693
1111.710575604332,1741
1113.8699947380146,1740
1116.028858456099,1758
1118.1871672430489,1655
1120.344921582394,1762
1122.5021219567334,1764
1124.6587688477362,1756
1126.8148627361365,1736
1128.9704041017399,1706
1131.1253934234173,1696
1133.2798311791098,1690
1135.4337178458263,1770
1137.5870538996437,1656
1139.7398398157075,1661
1141.8920760682313,1670
1144.0437631304972,1694
1146.1949014748543,1690
1148.3454915727225,1687
1150.4955338945874,1681
1152.6450289100044,1723
1154.7939770875969,1721
1156.9423788950558,1719
1159.0902347991405,1739
1161.2375452656802,1627
1163.3843107595703,1710
1165.530531744775,1720
1167.6762086843282,1700
1169.8213420403304,1637
1171.9659322739503,1628
1174.1099798454266,1755
1176.2534852140639,1747
1178.3964488382376,1668
1180.538871175389,1713
1182.680752682029,1784
1184.8220938137365,1691
1186.9628950251595,1696
1189.103156770012,1802
1191.2428795010783,1669
1193.3820636702108,1644
1195.5207097283287,1725
1197.6588181254215,1628
1199.7963893105457,1673
1201.9334237318253,1665
1204.0699218364548,1673
1206.2058840706954,1691
1208.3413108798773,1646
1210.476202708397,1637
1212.6105599997222,1744
1214.7443831963874,1708
1216.877672739995,1633
1219.0104290712165,1701
1221.1426526297905,1784
1223.2743438545253,1739
1225.4055031832972,1689
1227.5361310530493,1697
1229.6662278997946,1687
1231.7957941586142,1652
1233.9248302636565,1603
1236.053336648139,1670
1238.1813137443464,1767
1240.3087619836338,1726
1242.4356817964222,1693
1244.5620736122019,1685
1246.6879378595318,1667
1248.813274966039,1623
1250.938085358418,1637
1253.062369462432,1689
1255.186127702913,1604
1257.3093605037611,1679
1259.4320682879434,1680
1261.554251477498,1736
1263.6759104935277,1723
1265.797045756206,1660
1267.9176576847744,1632
1270.0377466975428,1779
1272.1573132118879,1694
1274.2763576442567,1736
1276.394880410162,1745
1278.5128819241877,1821
1280.6303625999835,1765
1282.7473228502695,1715
1284.8637630868325,1703
1286.9796837205272,1722
1289.0950851612783,1772
1291.209967818078,1789
1293.3243320989864,1832
1295.4381784111324,1869
1297.551507160712,1818
1299.6643187529912,1808
1301.776613592303,1722
1303.888392082049,1706
1305.9996546246998,1746
1308.1104016217923,1755
1310.220633473934,1770
1312.3303505807999,1887
1314.4395533411316,1837
1316.5482421527418,1773
1318.6564174125092,1773
1320.7640795163816,1773
1322.8712288593752,1729
1324.9778658355744,1724
1327.0839908381313,1748
1329.1896042592675,1704
1331.2947064902714,1827
1333.3992979215009,1765
1335.503378942381,1773
1337.6069499414057,1840
1339.7100113061383,1769
1341.8125634232074,1819
1343.9146066783128,1705
1346.0161414562212,1745
1348.1171681407677,1761
1350.2176871148563,1804
1352.3176987604575,1808
1354.4172034586127,1760
1356.5162015894289,1754
1358.6146935320835,1813
1360.7126796648213,1681
1362.8101603649548,1746
1364.9071360088656,1745
1367.0036069720036,1736
1369.099573628886,1746
1371.195036353099,1696
1373.2899955172975,1722
1375.3844514932039,1802
1377.4784046516088,1724
1379.5718553623715,1723
1381.6648039944193,1718
1383.7572509157485,1803
1385.8491964934224,1696
1387.9406410935735,1806
1390.0315850814022,1779
1392.122028821177,1782
1394.2119726762357,1752
1396.3014170089828,1762
1398.3903621808918,1809
1400.4788085525051,1797
1402.566756483432,1726
1404.6542063323514,1729
1406.7411584570095,1638
1408.8276132142219,1737
1410.9135709598704,1695
1412.9990320489078,1805
1415.083996835353,1756
1417.1684656722937,1751
1419.2524389118867,1737
1421.3359169053565,1742
1423.4189000029946,1702
1425.5013885541634,1703
1427.5833829072913,1760
1429.664883409876,1700
1431.7458904084833,1738
1433.8264042487467,1728
1435.9064252753697,1761
1437.9859538321216,1775
1440.0649902618416,1778
1442.1435349064373,1769
1444.2215881068837,1738
1446.2991502032237,1728
1448.37622153457,1700
1450.452802439103,1788
1452.5288932540698,1838
1454.604494315788,1785
1456.6796059596427,1796
1458.7542285200866,1791
1460.8283623306415,1776
1462.902007723897,1707
1464.9751650315106,1796
1467.0478345842089,1769
1469.1200167117868,1852
1471.1917117431062,1721
1473.2629200060992,1726
1475.333641827764,1745
1477.4038775341692,1760
1479.4736274504498,1811
1481.5428919008104,1805
1483.6116712085222,1842
1485.6799656959279,1857
1487.7477756844346,1757
1489.8151014945201,1798
1491.88194344573,1802
1493.9483018566775,1793
1496.0141770450455,1793
1498.0795693275822,1748
1500.1444790201076,1721
1502.2089064375086,1813
1504.2728518937402,1811
1506.3363157018239,1887
1508.3992981738534,1864
1510.4617996209872,1906
1512.5238203534536,1880
1514.5853606805495,1836
1516.6464209106384,1853
1518.7070013511543,1925
1520.7671023085973,1888
1522.8267240885375,1908
1524.885866995612,1884
1526.9445313335268,1894
1529.002717405056,1912
1531.0604255120425,1973
1533.1176559553965,1917
1535.1744090350971,1951
1537.2306850501914,2021
1539.2864842987956,2118
1541.3418070780922,1993
1543.396653684334,1987
1545.4510244128405,2006
1547.5049195580013,2066
1549.5583394132727,2095
1551.61128427118,2107
1553.6637544233158,2103
1555.7157501603415,2101
1557.7672717719888,2182
1559.8183195470538,2157
1561.8688937734037,2088
1563.9189947379737,2118
1565.9686227267657,2218
1568.0177780248514,2178
1570.0664609163696,2089
1572.1146716845292,2162
1574.162410611605,2097
1576.2096779789413,2042
1578.2564740669518,1940
1580.3027991551157,1969
1582.3486535219831,1909
1584.3940374451709,1851
1586.4389512013645,1894
1588.4833950663178,1915
1590.5273693148533,1807
1592.5708742208603,1891
1594.6139100572982,1821
1596.6564770961936,1848
1598.698575608642,1819
1600.7402058648063,1823
1602.7813681339185,1752
1604.8220626842776,1829
1606.8622897832533,1794
1608.9020496972812,1826
1610.9413426918663,1845
1612.9801690315808,1796
1615.018528980066,1781
1617.056422800033,1778
1619.0938507532578,1766
1621.1308131005876,1793
1623.1673101019355,1787
1625.2033420162848,1784
1627.2389091016862,1756
1629.274011615259,1750
1631.3086498131897,1810
1633.3428239507352,1750
1635.376534282219,1755
1637.4097810610324,1746
1639.4425645396364,1869
1641.4748849695593,1786
1643.5067426013989,1828
1645.53813768482,1768
1647.5690704685549,1753
1649.5995412004067,1706
1651.6295501272452,1798
1653.6590974950086,1829
1655.6881835487025,1846
1657.7168085324029,1768
1659.7449726892523,1698
1661.772676261462,1669
1663.7999194903114,1790
1665.8267026161484,1744
1667.8530258783894,1761
1669.8788895155185,1686
1671.9042937650888,1700
1673.9292388637205,1766
1675.953725047103,1708
1677.977752549994,1677
1680.0013216062184,1701
1682.0244324486712,1719
1684.0470853093134,1744
1686.0692804191767,1780
1688.0910180083588,1805
1690.1122983060268,1686
1692.1331215404175,1750
1694.1534879388319,1749
1696.173397727644,1738
1698.1928511322926,1858
1700.211848377286,1810
1702.2303896862018,1869
1704.248475281684,1824
1706.2661053854458,1827
1708.2832802182684,1826
1710.300000000002,1818
1712.3162649495644,1721
1714.3320752849409,1711
1716.3474312231865,1722
1718.362332980424,1787
1720.376780771845,1766
1722.3907748117072,1786
1724.4043153133393,1770
1726.4174024891367,1744
1728.4300365505628,1774
1730.442217708151,1790
1732.4539461715008,1769
1734.465222149282,1746
1736.4760458492306,1717
1738.4864174781524,1746
1740.496337241921,1714
1742.5058053454786,1762
1744.5148219928346,1772
1746.523387387068,1677
1748.531501730325,1714
1750.5391652238209,1746
1752.5463780678388,1813
1754.55314046173,1760
1756.5594526039135,1740
1758.565314691879,1767
1760.5707269221812,1713
1762.5756894904443,1746
1764.580202591363,1779
1766.5842664186966,1787
1768.5878811652751,1752
1770.591047022996,1741
1772.593764182825,1817
1774.5960328347965,1752
1776.5978531680116,1785
1778.5992253706427,1738
1780.6001496299273,1771
1782.6006261321731,1780
1784.6006550627553,1751
1786.6002366061175,1750
1788.5993709457725,1846
1790.5980582642992,1840
1792.5962987433468,1763
1794.5940925636314,1765
1796.5914399049389,1776
1798.5883409461221,1787
1800.584795865102,1750
1802.580804838869,1756
1804.5763680434807,1756
1806.571485654064,1721
1808.566157844813,1849
1810.5603847889902,1786
1812.5541666589274,1791
1814.5475036260236,1757
1816.5403958607467,1725
1818.5328435326323,1861
1820.5248468102845,1779
1822.5164058613755,1715
1824.5075208526468,1777
1826.4981919499064,1832
1828.488419318032,1843
1830.4782031209684,1781
1832.4675435217305,1764
1834.4564406823993,1760
1836.4448947641258,1836
1838.432905927128,1718
1840.4204743306927,1719
1842.4076001331746,1805
1844.3942834919985,1865
1846.380524563654,1829
1848.366323503702,1731
1850.351680466771,1774
1852.3365956065563,1758
1854.3210690758228,1790
1856.3051010264044,1753
1858.2886916092007,1803
1860.271840974182,1793
1862.2545492703862,1857
1864.2368166459191,1837
1866.2186432479543,1834
1868.2000292227349,1860
1870.1809747155717,1799
1872.1614798708429,1805
1874.1415448319963,1754
1876.1211697415474,1789
1878.1003547410805,1759
1880.0790999712472,1828
1882.0574055717675,1788
1884.0352716814305,1807
1886.0126984380927,1807
1887.989685978679,1760
1889.9662344391836,1777
1891.9423439546672,1867
1893.9180146592607,1808
1895.893246686161,1772
1897.868040167636,1828
1899.8423952350195,1882
1901.8163120187137,1842
1903.7897906481917,1829
1905.7628312519923,1765
1907.7354339577219,1818
1909.7075988920578,1877
1911.6793261807447,1831
1913.6506159485943,1805
1915.6214683194871,1835
1917.5918834163726,1884
1919.5618613612687,1738
1921.5314022752605,1757
1923.5005062785012,1820
1925.4691734902144,1767
1927.4374040286893,1807
1929.4051980112845,1783
1931.3725555544274,1735
1933.3394767736136,1697
1935.305961783406,1847
1937.2720106974361,1805
1939.237623628404,1780
1941.2028006880778,1778
1943.167541987295,1847
1945.1318476359588,1803
1947.0957177430432,1851
1949.0591524165898,1836
1951.0221517637078,1824
1952.984715890574,1802
1954.9468449024357,1775
1956.9085389036072,1833
1958.8697979974704,1859
1960.8306222864767,1841
1962.7910118721456,1814
1964.7509668550638,1826
1966.7104873348871,1855
1968.6695734103387,1786
1970.6282251792127,1858
1972.586442738368,1800
1974.5442261837343,1754
1976.501575610307,1842
1978.4584911121533,1851
1980.4149727824056,1860
1982.3710207132658,1831
1984.326634996004,1866
1986.2818157209585,1791
1988.2365629775359,1833
1990.1908768542116,1836
1992.144757438527,1882
1994.0982048170954,1896
1996.0512190755953,1877
1998.0038002987749,1850
1999.95594857045,1805
2001.9076639735054,1810
2003.8589465898945,1832
2005.8097965006368,1908
2007.760213785822,1786
2009.7101985246077,1832
2011.6597507952201,1811
2013.6088706749524,1850
2015.5575582401675,1763
2017.5058135662953,1791
2019.4536367278351,1799
2021.4010277983534,1852
2023.347986850486,1866
2025.2945139559365,1758
2027.2406091854768,1821
2029.1862726089462,1939
2031.1315042952538,1883
2033.0763043123766,1845
2035.0206727273585,1814
2036.964609606313,1918
2038.908115014422,1818
2040.8511890159348,1861
2042.7938316741693,1838
2044.7360430515123,1860
2046.677823209417,1843
2048.6191722084077,1841
2050.5600901080743,1825
2052.5005769670765,1862
2054.440632843142,1806
2056.380257793066,1807
2058.3194518727128,1822
2060.258215137015,1832
2062.1965476399732,1893
2064.1344494346554,1784
2066.0719205732,1837
2068.008961106812,1826
2069.945571085764,1856
2071.8817505593997,1849
2073.817499576128,1843
2075.7528181834273,1778
2077.6877064278447,1751
2079.622164354995,1754
2081.556192009562,1862
2083.4897894352966,1865
2085.4229566750187,1868
2087.355693770616,1806
2089.2880007630456,1815
2091.219877692331,1805
2093.151324597566,1748
2095.0823415169107,1828
2097.012928487595,1815
2098.9430855459173,1861
2100.872812727242,1834
2102.8021100660035,1831
2104.730977595705,1857
2106.659415348917,1839
2108.5874233572777,1892
2110.5150016514945,1862
2112.442150261343,1790
2114.3688692156675,1901
2116.2951585423793,1828
2118.2210182684585,1837
2120.146448419954,1778
2122.0714490219825,1837
2123.9960200987293,1775
2125.920161673447,1899
2127.843873768458,1848
2129.767156405151,1788
2131.690009603985,1789
2133.612433384486,1868
2135.534427765249,1813
2137.4559927639366,1882
2139.37712839728,1885
2141.2978346810783,1822
2143.2181116301995,1846
2145.1379592585795,1805
2147.057377579222,1855
2148.9763666042,1857
2150.894926344655,1810
2152.813056810794,1823
2154.730758011896,1807
2156.648029956306,1873
2158.564872651437,1847
2160.481286103772,1847
2162.397270318861,1841
2164.312825301323,1817
2166.227951054844,1725
2168.14264758218,1809
2170.056914885153,1830
2171.9707529646566,1923
2173.8841618206484,1811
2175.7971414521585,1883
2177.7096918572825,1864
2179.621813033186,1800
2181.5335049761,1834
2183.444767681327,1845
2185.355601143236,1893
2187.2660053552654,1869
2189.1759803099208,1889
2191.085525998777,1808
2192.994642412475,1904
2194.903329540727,1817
2196.811587372312,1818
2198.7194158950765,1793
2200.626815095937,1784
2202.5337849608763,1836
2204.440325474948,1861
2206.346436622271,1770
2208.2521183860345,1881
2210.157370748496,1884
2212.0621936909793,1805
2213.966587193879,1826
2215.8705512366573,1830
2217.774085797842,1846
2219.677190855033,1828
2221.579866384897,1853
2223.4821123631677,1835
2225.3839287646483,1871
2227.2853155632106,1930
2229.186272731794,1852
2231.0868002424063,1800
2232.986898066123,1848
2234.8865661730892,1817
2236.785804532517,1773
2238.6846131126877,1849
2240.5829918809495,1869
2242.4809408037213,1896
2244.3784598464877,1876
2246.275548973803,1872
2248.172208149288,1847
2250.0684373356357,1840
2251.964236494603,1864
2253.859605587017,1906
2255.7545445727733,1886
2257.6490534108357,1852
2259.5431320592356,1842
2261.436780475073,1851
2263.329998614516,1866
2265.222786432802,1925
2267.1151438842344,1886
2269.0070709221877,1865
2270.8985674991022,1830
2272.789633566488,1848
2274.6802690749237,1865
2276.570473974053,1766
2278.4602482125933,1794
2280.3495917383257,1831
2282.238504498101,1790
2284.1269864378387,1838
2286.0150375025264,1791
2287.9026576362203,1827
2289.789846782043,1836
2291.6766048821873,1930
2293.5629318779147,1885
2295.4488277095534,1905
2297.3342923164996,1858
2299.2193256372193,1854
2301.1039276092465,1854
2302.9880981691817,1835
2304.871837252696,1861
2306.755144794528,1929
2308.6380207284838,1870
2310.5204649874386,1941
2312.4024775033354,1926
2314.2840582071854,1850
2316.165207029068,1950
2318.0459238981325,1919
2319.926208742594,1861
2321.8060614897363,1836
2323.6854820659137,1856
2325.5644703965463,1915
2327.443026406124,1860
2329.321150018203,1831
2331.1988411554107,1869
2333.0760997394395,1889
2334.952925691053,1892
2336.829318930082,1869
2338.705279375424,1835
2340.5808069450477,1829
2342.4559015559867,1908
2344.3305631243456,1911
2346.204791565297,1857
2348.07858679308,1924
2349.9519487210027,1920
2351.824877261443,1875
2353.6973723258448,1855
2355.5694338247226,1910
2357.4410616676564,1856
2359.312255763297,1889
2361.1830160193617,1889
2363.053342342637,1993
2364.9232346389776,1848
2366.792692813306,1939
2368.6617167696145,1861
2370.5303064109603,1852
2372.3984616394723,1873
2374.2661823563467,1890
2376.1334684618464,1923
2378.0003198553054,1852
2379.8667364351227,1860
2381.7327180987672,1886
2383.5982647427777,1909
2385.4633762627586,1885
2387.3280525533837,1842
2389.192293508395,1914
2391.0560990206027,1900
2392.919468981885,1872
2394.782403283189,1922
2396.644901814531,1869
2398.5069644649916,1949
2400.3685911227235,1942
2402.2297816749474,1843
2404.0905360079505,1881
2405.950854007089,1917
2407.8107355567886,1897
2409.670180540541,1873
2411.529188840908,1882
2413.387760339518,1995
2415.2458949170705,1903
2417.1035924533294,1826
2418.96085282713,1940
2420.8176759163744,1892
2422.6740615980334,1841
2424.5300097481468,1812
2426.38552024182,1924
2428.24059295323,1969
2430.0952277556207,1920
2431.949424521303,1885
2433.803183121658,1942
2435.6565034271343,1894
2437.5093853072485,1866
2439.361828630585,1865
2441.213833264798,1978
2443.0653990766095,1946
2444.916525931808,1873
2446.7672136952524,1897
2448.6174622308695,1861
2450.4672714016538,1916
2452.3166410696676,1930
2454.165571096043,1932
2456.0140613409794,1940
2457.8621116637432,1935
2459.709721922672,1882
2461.556891975169,1922
2463.403621677707,1884
2465.249910885827,1921
2467.0957594541383,1876
2468.9411672363167,1882
2470.78613408511,1919
2472.630659852331,1898
2474.4747443888614,1903
2476.3183875446516,1891
2478.161589168721,1971
2480.0043491091556,1899
2481.8466672131112,1911
2483.6885433268108,1929
2485.529977295547,1903
2487.370968963678,1840
2489.2115181746335,1928
2491.0516247709097,1779
2492.891288594071,1910
2494.7305094847497,1882
2496.569287282649,1932
2498.407621826537,1927
2500.2455129542523,1887
2502.0829605027,1877
2503.919964307855,1920
2505.7565242047594,1903
2507.5926400275252,1940
2509.42831160933,1908
2511.263538782423,1843
2513.0983213781174,1846
2514.9326592267994,1821
2516.76655215792,1880
2518.5999999999995,1944
2520.4330025806275,1908
2522.2655597264607,1852
2524.0976712632237,1876
2525.9293370157097,1845
2527.760556807782,1951
2529.591330462369,2002
2531.4216578014702,1929
2533.2515386461523,1923
2535.080972816548,1985
2536.9099601318626,1949
2538.738500410366,1895
2540.5665934693993,1803
2542.3942391253695,1908
2544.221437193752,1817
2546.0481874890925,1936
2547.874489825003,1945
2549.700344014164,1894
2551.5257498683245,1935
2553.350707198304,1900
2555.175215813986,1959
2556.9992755243256,1902
2558.8228861373454,1960
2560.646047460134,1934
2562.468759298852,1898
2564.2910214587255,1951
2566.1128337440496,1929
2567.93419595819,1856
2569.7551079035757,1958
2571.5755693817077,1866
2573.395580193155,1836
2575.2151401375536,1921
2577.034249013609,1899
2578.8529066190936,1959
2580.6711127508493,2002
2582.488867204785,1934
2584.3061697758794,1979
2586.1230202581787,1901
2587.939418444797,1939
2589.7553641279183,1951
2591.570857098791,1911
2593.385897147736,1904
2595.200484064141,1922
2597.014617636461,1994
2598.8282976522214,1971
2600.6415238980126,1932
2602.454296159496,1959
2604.266614221401,1964
2606.0784778675243,1942
2607.8898868807305,1981
2609.700841042955,1998
2611.5113401351973,1891
2613.32138393753,1924
2615.13097222909,1959
2616.940104788084,1944
2618.748781391788,1979
2620.557001816543,2010
2622.364765837763,2051
2624.1720732299264,1969
2625.9789237665814,2013
2627.7853172203445,2026
2629.5912533629,1937
2631.396731965001,1987
2633.2017527964676,2032
2635.0063156261904,1965
2636.810420222126,2005
2638.614066351301,1902
2640.417253779809,1924
2642.219982272813,1975
2644.022251594542,1952
2645.8240615082973,1919
2647.625411776444,1967
2649.4263021604183,1904
2651.226732420724,1963
2653.026702316933,1921
2654.8262116076858,1934
2656.625260050691,1946
2658.423847402724,1981
2660.221973419631,1828
2662.0196378563246,1931
2663.8168404667867,1964
2665.613581004068,1927
2667.4098592202854,1985
2669.2056748666246,1905
2671.0010276933417,1979
2672.7959174497596,1954
2674.5903438842674,1892
2676.384306744327,1891
2678.177805776465,1965
2679.9708407262765,1946
2681.7634113384274,1934
2683.555517356648,1937
2685.3471585237403,1938
2687.138334581574,1914
2688.9290452710843,1952
2690.7192903322784,1925
2692.50906950423,1950
2694.2983825250794,1945
2696.087229132039,1923
2697.875609061386,1901
2699.6635220484677,1998
2701.450967827699,1939
2703.237946132564,1918
2705.0244566956126,1929
2706.8104992484664,1889
2708.596073521813,1903
2710.381179245408,1913
2712.1658161480777,1871
2713.949983957714,1926
2715.7336824012773,2021
2717.516911204798,1950
2719.299670093374,1898
2721.0819587911706,1947
2722.8637770214223,1896
2724.6451245064322,1915
2726.426000967571,1882
2728.2064061252763,1931
2729.986339699057,1968
2731.765801407488,1912
2733.5447909682134,1909
2735.323308097945,1884
2737.101352512463,1953
2738.8789239266166,1893
2740.6560220543215,1863
2742.4326466085645,1954
2744.2087973013977,1937
2745.984473843944,1969
2747.7596759463922,1943
2749.534403318001,1878
2751.308655667096,1876
2753.0824327010737,1933
2754.8557341263954,1891
2756.628559648593,1887
2758.4009089722667,1897
2760.172781801083,1890
2761.944177837779,1890
2763.715096784159,1979
2765.4855383410945,1846
2767.2555022085267,1902
2769.024988085465,1860
2770.793995669988,1943
2772.5625246592385,1912
2774.3305747494323,1841
2776.098145635852,1970
2777.865237012847,1873
2779.6318485738357,1897
2781.397980011306,1892
2783.163631016813,1935
2784.928801280979,1961
2786.6934904934974,1926
2788.457698343127,1896
2790.221424517697,1927
2791.9846687041027,1937
2793.74743058831,1931
2795.5097098553515,1917
2797.2715061893286,1885
2799.0328192734105,1929
2800.793648789836,1958
2802.553994419911,1912
2804.3138558440087,1893
2806.073232741573,1873
2807.8321247911135,1977
2809.590531670211,2011
2811.3484530555115,1943
2813.105888622732,1894
2814.8628380466557,1941
2816.6193010011348,1906
2818.3752771590903,1915
2820.13076619251,1915
2821.885767772452,1876
2823.640281569041,1876
2825.3943072514703,1922
2827.147844488002,1949
2828.9008929459665,1910
2830.6534522917614,1852
2832.405522190854,1936
2834.1571023077786,1955
2835.9081923061394,1876
2837.658791848606,1982
2839.40890059692,1943
2841.1585182118874,1935
2842.907644353386,1877
2844.6562786803593,1987
2846.4044208508203,1925
2848.15207052185,1928
2849.899227349598,1968
2851.6458909892804,1937
2853.392061095185,1882
2855.137737320664,1950
2856.882919318142,1941
2858.6276067391063,1923
2860.371799234118,1917
2862.1154964528037,1940
2863.8586980438586,2014
2865.6014036550464,1899
2867.343612933199,1981
2869.0853255242173,1932
2870.826541073068,1929
2872.567259223789,1980
2874.307479619485,1897
2876.0472019023287,1886
2877.7864257135625,1927
2879.525150693495,1913
2881.263376481505,1953
2883.0011027160385,1957
2884.73832903461,1924
2886.4750550738027,1952
2888.2112804692665,1989
2889.9470048557223,1975
2891.682227866956,1940
2893.416949135825,1924
2895.151168294252,1902
2896.88488497323,1994
2898.6180988028204,1991
2900.3508094121503,1975
2902.083016429419,1968
2903.81471948189,1988
2905.5459181958972,1966
2907.276612196844,1934
2909.0068011091994,1942
2910.736484556502,1900
2912.465662161359,1903
2914.194333545445,1917
2915.922498329504,1941
2917.650156133346,1926
2919.377306575852,1953
2921.103949274969,1888
2922.830083847715,1981
2924.555709910173,1973
2926.2808270774967,1849
2928.005434963907,1973
2929.7295331826936,1970
2931.4531213462133,1925
2933.1761990658924,1952
2934.8987659522254,2007
2936.6208216147747,1932
2938.3423656621694,1954
2940.0633977021116,1953
2941.783917341366,2019
2943.503924185768,1931
2945.223417840223,2035
2946.9423979087023,1931
2948.6608639942456,1975
2950.378815698962,1968
2952.096252624029,1920
2953.81317436969,2009
2955.529580535259,1903
2957.2454707191177,1858
2958.9608445187164,1982
2960.6757015305734,1992
2962.3900413502733,1973
2964.103863572472,1955
2965.817167790894,1984
2967.529953598327,1952
2969.2422205866337,1949
2970.953968346739,1969
2972.6651964686407,1921
2974.3759045414035,2022
2976.0860921531585,1931
2977.7957588911067,1903
2979.504904341517,1998
2981.2135280897273,1995
2982.9216297201433,1975
2984.629208816238,1956
2986.336264960554,1927
2988.0427977347017,2044
2989.7488067193594,1997
2991.454291494274,1984
2993.1592516382607,1979
2994.8636867292034,1967
2996.567596344053,1955
2998.2709800588295,1959
2999.973837448621,2040
3001.6761680875857,1983
3003.377971548946,1895
3005.0792474049954,1940
3006.7799952270957,1896
3008.480214585676,1937
3010.1799050502345,2003
3011.8790661893368,1951
3013.5776975706176,1926
3015.2757987607793,1965
3016.973369325592,1907
3018.6704088298966,1963
3020.366916837598,1932
3022.0628929116747,1941
3023.7583366141675,1955
3025.4532475061915,1893
3027.147625147925,1900
3028.841469098617,1992
3030.534778916585,1984
3032.2275541592144,1968
3033.9197943829577,1954
3035.611499143338,1854
3037.302667994943,1941
3038.9933004914333,1933
3040.683396185535,1926
3042.372954629042,1941
3044.061975372817,1951
3045.7504579667934,1948
3047.4384019599684,1965
3049.1258069004116,1924
3050.812672335258,1916
3052.4989978107124,1922
3054.184782872047,1961
3055.870027063603,1948
3057.554729928791,1954
3059.238891010086,1925
3060.9225098490347,1934
3062.6055859862518,1993
3064.2881189614177,1954
3065.970108313285,1936
3067.651553579671,1994
3069.3324542974633,1982
3071.012810002616,1953
3072.6926202301543,1916
3074.3718845141702,1956
3076.050602387822,1896
3077.728773383339,1896
3079.406397032018,1941
3081.083472864223,1988
3082.7600004093874,1979
3084.4359791960137,1995
3086.11140875167,1932
3087.7862886029952,1991
3089.4606182756943,1996
3091.134397294544,1975
3092.807625183385,1920
3094.4803014651284,1915
3096.152425661755,1944
3097.8239972943097,1917
3099.49501588291,1956
3101.165480946741,1924
3102.8353920040518,1976
3104.504748572165,1994
3106.1735501674693,1925
3107.8417963054226,1992
3109.5094865005485,2027
3111.176620266441,1930
3112.8431971157625,1960
3114.5092165602427,1978
3116.1746781106813,1934
3117.839581276943,1946
3119.503925567965,1903
3121.167710491747,1991
3122.830935555364,1956
3124.493600264954,1978
3126.1557041257247,1949
3127.817246641952,1963
3129.478227316982,2005
3131.1386456532273,2000
3132.798501152168,2009
3134.4577933143537,2002
3136.116521639402,1992
3137.7746856259982,2002
3139.4322847718977,1957
3141.0893185739224,1924
3142.745786527962,1983
3144.4016881289754,1996
3146.0570228709903,1973
3147.711790247102,1980
3149.3659897494754,1973
3151.0196208693396,1920
3152.6726830969974,1994
3154.3251759218165,1897
3155.9770988322334,1986
3157.6284513157534,2011
3159.2792328589485,1966
3160.929442947461,1909
3162.579081066002,1926
3164.2281466983477,1962
3165.8766393273454,1942
3167.5245584349086,1868
3169.1719035020224,1891
3170.818674008735,1959
3172.4648694341677,1956
3174.110489256508,1967
3175.7555329530105,2066
3177.4000000000005,1977
3179.0438898728707,1965
3180.6872020460805,1959
3182.32993599316,1951
3183.972091186706,1934
3185.613667098384,1926
3187.254663198927,1966
3188.8950789581386,2008
3190.5349138448873,2046
3192.1741673271126,1943
3193.8128388718224,1973
3195.4509279450886,2007
3197.0884340120574,2043
3198.725356536939,1933
3200.361694983014,1935
3201.997448812629,2001
3203.632617487203,1948
3205.2672004672195,1934
3206.901197212229,1991
3208.5346071808563,1956
3210.167429830789,2012
3211.799664618785,1966
3213.4313110006706,1904
3215.0623684313387,1907
3216.692836364753,2000
3218.3227142539445,1965
3219.9520015510125,1973
3221.5806977071215,1940
3223.2088021725103,1927
3224.8363143964816,1964
3226.4632338274077,1961
3228.089559912728,1921
3229.715292098951,1984
3231.3404298316545,1959
3232.9649725554846,1911
3234.5889197141523,1951
3236.2122707504395,1944
3237.8350251061984,1902
3239.457182222345,1964
3241.0787415388677,2001
3242.6997024948187,2055
3244.3200645283223,1982
3245.9398270765696,2036
3247.558989575821,2003
3249.177551461403,1984
3250.7955121677123,2084
3252.412871128213,2003
3254.029627775437,1881
3255.6457815409867,1935
3257.2613318555286,1958
3258.876278148802,1972
3260.490619849613,1853
3262.1043563858348,1963
3263.717487184408,1943
3265.3300116713453,1904
3266.941929271725,1965
3268.5532394096917,1981
3270.1639415084646,1916
3271.7740349903233,1914
3273.383519276621,1919
3274.9923937877775,1939
3276.6006579432833,2019
3278.2083111616903,2013
3279.815352860627,2078
3281.421782456786,1980
3283.027599365927,2033
3284.632803002881,1936
3286.237392781545,2013
3287.841368114885,1982
3289.4447284149373,2002
3291.047473092801,1949
3292.649601558651,1921
3294.2511132217223,1940
3295.8520074903254,1865
3297.452283771835,1943
3299.051941472695,1970
3300.650979998417,1942
3302.2493987535827,1967
3303.8471971418403,2022
3305.4443745659064,1986
3307.0409304275654,2012
3308.636864127674,2031
3310.2321750661513,1962
3311.8268626419876,1960
3313.420926253242,1951
3315.01436529704,1972
3316.6071791695776,1975
3318.1993672661183,1917
3319.7909289809913,2038
3321.3818637075983,1949
3322.972170838406,1958
3324.561849764951,1917
3326.150899877838,1980
3327.7393205667386,1978
3329.3271112203956,2007
3330.9142712266166,1939
3332.5007999722793,1949
3334.08669684333,1991
3335.6719612247834,2029
3337.2565925007193,2000
3338.840590054291,2047
3340.4239532677157,1930
3342.006681522281,2008
3343.5887741983406,2021
3345.1702306753214,2035
3346.7510503317126,1978
3348.3312325450743,1997
3349.910776692037,2040
3351.4896821482953,1975
3353.0679482886153,2015
3354.645574486829,1968
3356.2225601158398,2013
3357.798904547615,1981
