CollectionTime,4/2/2024 11:01:36 AM
ExposureUsed,3
CalibratedSpectrum
-994.8464149364308,650
-991.9439705588344,697
-989.042830375826,666
-986.1429931109675,775
-983.2444574887519,864
-980.3472222346043,827
-977.4512860748813,728
-974.5566477368716,762
-971.6633059487953,683
-968.7712594398042,655
-965.8805069399822,658
-962.9910471803447,670
-960.1028788928387,684
-957.2160008103432,712
-954.3304116666687,748
-951.4461101965578,828
-948.5630951356844,742
-945.6813652206545,799
-942.8009191890055,869
-939.9217557792067,867
-937.0438737306594,801
-934.167271783696,758
-931.2919486795813,733
-928.4179031605115,712
-925.5451339696144,708
-922.67363985095,821
-919.8034195495097,815
-916.9344718112166,772
-914.0667953829256,755
-911.2003890124234,767
-908.3352514484286,713
-905.471381440591,697
-902.6087777394928,693
-899.7474390966474,763
-896.8873642645002,785
-894.0285519964284,779
-891.1710010467407,763
-888.3147101706776,794
-885.4596781244115,725
-882.6059036650465,681
-879.7533855506183,665
-876.9021225400943,650
-874.0521133933738,700
-871.2033568712878,733
-868.3558517355991,701
-865.509596749002,865
-862.6645906751228,845
-859.8208322785192,902
-856.9783203246812,846
-854.1370535800299,729
-851.2970308119186,807
-848.4582507886321,866
-845.620712279387,755
-842.7844140543316,661
-839.9493548845461,703
-837.1155335420422,734
-834.2829487997635,711
-831.4515994315852,801
-828.6214842123144,778
-825.7926019176898,828
-822.9649513243819,773
-820.138531209993,833
-817.3133403530569,789
-814.4893775330396,782
-811.6666415303382,790
-808.845131126282,778
-806.0248451031321,807
-803.2057822440808,735
-800.3879413332527,740
-797.5713211557038,943
-794.755920497422,907
-791.941738145327,822
-789.1287728872701,846
-786.3170235120342,891
-783.5064888093341,755
-780.6971675698165,712
-777.8890585850597,703
-775.0821606475735,877
-772.2764725507997,774
-769.4719930891118,747
-766.6687210578151,849
-763.8666552531465,1097
-761.0657944722747,1143
-758.2661375133,935
-755.4676831752547,803
-752.6704302581027,771
-749.8743775627395,761
-747.0795238909925,765
-744.285868045621,796
-741.4934088303156,781
-738.702145049699,733
-735.9120755093254,844
-733.123199015681,1152
-730.3355143761836,1130
-727.5490203991826,810
-724.7637158939592,795
-721.9795996707265,807
-719.1966705406293,783
-716.4149273157439,763
-713.6343688090786,716
-710.8549938345734,754
-708.0768012070998,810
-705.2997897424614,836
-702.5239582573931,816
-699.7493055695622,943
-696.9758304975669,901
-694.2035318609377,789
-691.4324084801367,833
-688.6624591765578,782
-685.8936827725265,818
-683.1260780913001,807
-680.3596439570675,887
-677.5943791949499,816
-674.8302826309991,749
-672.0673530922,749
-669.3055894064685,809
-666.5449904026519,936
-663.78555491053,838
-661.0272817608139,835
-658.2701697851465,871
-655.5142178161026,919
-652.7594246871884,824
-650.0057892328422,790
-647.2533102884337,804
-644.5019866902646,850
-641.7518172755683,850
-639.0028008825099,875
-636.254936350186,874
-633.5082225186254,814
-630.7626582287882,886
-628.0182423225665,846
-625.2749736427841,885
-622.5328510331965,863
-619.7918733384909,940
-617.0520394042862,960
-614.3133480771331,942
-611.5757982045143,1039
-608.8393886348437,1054
-606.1041182174672,1078
-603.3699858026625,1069
-600.6369902416393,1000
-597.9051303865383,996
-595.1744050904326,1099
-592.4448132073267,1190
-589.7163535921568,1144
-586.9890251007912,1032
-584.2628265900296,985
-581.5377569176036,950
-578.8138149421764,1087
-576.090999523343,1018
-573.3693095216302,918
-570.6487437984965,1003
-567.9293012163321,1068
-565.210980638459,1070
-562.4937809291307,1031
-559.7777009535329,942
-557.0627395777825,988
-554.3488956689287,1017
-551.6361680949519,1098
-548.9245557247644,1221
-546.2140574282107,1314
-543.5046720760662,1155
-540.7963985400388,1169
-538.0892356927677,1215
-535.3831824078238,1189
-532.6782375597103,1335
-529.9744000238613,1468
-527.2716686766433,1605
-524.5700423953542,1666
-521.8695200582238,1584
-519.1701005444136,1466
-516.4717827340166,1661
-513.7745655080581,1784
-511.0784477484944,1892
-508.38342833821423,1913
-505.68950616103757,2081
-502.9966801017163,2238
-500.3049490459341,2373
-497.61431188030633,1967
-494.9247674923801,1603
-492.2363147706342,1498
-489.54895260447927,1444
-486.86267988425755,1458
-484.1774955012431,1510
-481.4933983476417,1649
-478.8103873165908,1394
-476.1284613021596,1336
-473.44761919934945,1270
-470.7678599040928,1240
-468.089182313254,1404
-465.4115853246294,1367
-462.735067836947,1548
-460.0596287498663,1478
-457.3852669639789,1233
-454.71198138080774,1086
-452.03977090280773,1050
-449.3686344333656,1055
-446.69857087679964,1288
-444.02957913835996,1320
-441.36165812422837,1234
-438.6948067415183,1271
-436.0290238982752,1218
-433.36430850347597,1187
-430.7006594670296,1295
-428.0380756997763,1296
-425.3765561134885,1372
-422.7160996208702,1323
-420.0567051355571,1441
-417.3983715721164,1382
-414.7410978460475,1333
-412.08488287378145,1306
-409.4297255726806,1200
-406.77562486103955,1225
-404.1225796580843,1156
-401.4705888839728,1025
-398.8196514597947,991
-396.1697663075713,1101
-393.5209323502555,1087
-390.8731485117323,856
-388.22641371681823,1067
-385.5807268912615,1213
-382.93608696174226,1066
-380.29249285587207,896
-377.64994350219456,901
-375.0084378301849,913
-372.36797477025016,898
-369.7285532537287,1014
-367.0901722128914,946
-364.45283058094014,1027
-361.8165272920089,1187
-359.1812612811634,914
-356.54703148440103,738
-353.9138368386507,830
-351.28167628177346,978
-348.6505487525617,1114
-346.02045319074,1006
-343.3913885369643,939
-340.76335373282245,1017
-338.1363477208339,967
-335.5103694444499,1096
-332.8854178480535,1047
-330.26149187695944,1019
-327.63859047741425,856
-325.016712596596,775
-322.3958571826148,782
-319.77602318451227,832
-317.15720955226186,949
-314.5394152367686,932
-311.9226391898695,831
-309.3068803643333,965
-306.69213771386023,1308
-304.0784101930824,1480
-301.4656967575635,1340
-298.8539963637994,1204
-296.2433079692172,1132
-293.6336305321761,1081
-291.02496301196675,1229
-288.41730436881176,1247
-285.81065356386534,1235
-283.2050095592135,1343
-280.60037131787396,1783
-277.9967378037961,1857
-275.39410798186134,1380
-272.7924808178824,1667
-270.19185527860407,1593
-267.5922303317028,1385
-264.9936049457866,1390
-262.3959780903955,1536
-259.79934873600087,1961
-257.2037158540064,1920
-254.6090784167469,1906
-252.01543539748934,1863
-249.42278577043237,1373
-246.8311285107061,1268
-244.24046259437262,1175
-241.6507869984256,1401
-239.0621007007909,1641
-236.4744026803254,1705
-233.88769191681808,1706
-231.30196739098994,1481
-228.7172280844934,1267
-226.13347297991243,1556
-223.550701060763,1671
-220.9689113114929,1659
-218.3881027174814,1645
-215.8082742650397,1839
-213.22942494141068,2370
-210.65155373476898,2674
-208.07465963422078,2441
-205.49874162980439,2352
-202.92379871248932,2337
-200.34982987417743,2100
-197.7768341077018,1731
-195.20481040682762,1473
-192.63375776625162,1644
-190.0636751816021,1713
-187.49456164943945,1747
-184.92641616725564,2053
-182.3592377334743,2120
-179.79302534745102,2033
-177.2277780094729,2241
-174.66349472075865,2346
-172.10017448345923,2404
-169.5378163006569,2342
-166.97641917636565,2043
-164.41598211553162,2494
-161.8565041240322,3216
-159.29798420867678,2978
-156.74042137720642,2699
-154.18381463829382,2600
-151.6281630015436,2294
-149.07346547749228,2196
-146.51972107760753,2159
-143.96692881428908,2504
-141.41508770086864,2606
-138.86419675160937,2621
-136.31425498170609,2557
-133.7652614072856,2934
-131.21721504540642,2710
-128.67011491405844,2951
-126.12396003216395,4043
-123.57874941957618,4799
-121.03448209708074,3844
-118.49115708639465,3697
-115.94877341016684,3995
-113.40733009197788,4241
-110.86682615633993,4143
-108.32726062869733,4473
-105.78863253542556,6020
-103.25094090383243,7544
-100.71418476215695,6783
-98.17836313957025,6028
-95.64347506617503,4875
-93.10951957300585,4185
-90.57649569202886,3736
-88.04440245614194,3748
-85.51323889917478,5000
-82.98300405588896,6935
-80.45369696197747,9542
-77.925316654065,12830
-75.39786216970867,16633
-72.87133254739649,18530
-70.34572682654857,21112
-67.82104404751692,23626
-65.29728325158499,29368
-62.774443480968216,34397
-60.252523778813384,37292
-57.73152318919938,39725
-55.21144075713676,36638
-52.69227552856796,33080
-50.17402655036665,36049
-47.65669287033859,28793
-45.14027353722133,26513
-42.624767600684095,34013
-40.11017411132775,42597
-37.59649212068507,47639
-35.08372068122037,65040
-32.57185884632963,65040
-30.06090567034107,63282
-27.550860208513996,65040
-25.04172151704006,65040
-22.533488653042014,65040
-20.02616067457484,65040
-17.51973664062507,65040
-15.014215611111126,65040
-12.509596646882983,65040
-10.005878809722162,65040
-7.503061162342419,65040
-5.001142768389059,65040
-2.5001226924387083,65040
-3.410605131648481E-13,65040
2.49922624248552,65040
4.997556967646801,65040
7.494993107179766,65040
9.99153559184856,65040
12.487185351485778,65040
14.98194331499235,65040
17.475810410337544,65040
19.96878756455851,65040
22.46087570376085,65040
24.952075753118834,36229
27.442388636874625,14490
29.93181527833849,11846
32.42035659988892,12058
34.90801352297353,16017
37.39478696810693,12703
39.880677854873056,11133
42.36568710192364,10576
44.8498156269784,11952
47.33306434682618,10271
49.815434177322686,10447
52.296926033393675,10566
54.77754082903198,9205
57.25727947729865,11755
59.736142890323435,11127
62.214131979304284,7930
64.6912476545076,6613
67.16749082526735,5444
69.64286239998614,4636
72.11736328613551,5580
74.59099439025431,5829
77.06375661794982,6246
79.53565087389825,5584
82.0066780618431,6399
84.4768390845968,5219
86.94613484403999,4957
89.41456624112152,6543
91.88213417585825,5717
94.34883954733527,4914
96.81468325370679,4492
99.2796661921941,3241
101.74378925908763,3751
104.20705334974559,4301
106.66945935859462,4679
109.1310081791296,5023
111.59170070391383,7681
114.05153782457865,6047
116.5105204318238,3503
118.96864941541708,3843
121.42592566419489,4289
123.88235006606146,3790
126.3379235079899,3836
128.79264687602085,4331
131.2465210552641,4266
133.69954692989631,3434
136.15172538316415,3611
138.60305729738116,3301
141.05354355393,3200
143.50318503326116,3461
145.95198261489327,3499
148.39993717741368,3607
150.84704959847772,4022
153.29332075480897,4505
155.73875152219944,3990
158.18334277550935,4033
160.62709538866693,3832
163.0700102346691,4000
165.51208818558075,3906
167.953330112535,3519
170.39373688573346,3050
172.8333093744459,3259
175.2720484470101,3545
177.70995497083277,4167
180.14702981238815,4394
182.58327383721917,3833
185.01868790993672,3932
187.45327289422062,3530
189.88702965281777,3416
192.31995904754444,3473
194.75206193928489,3804
197.18333918799135,3751
199.61379165268454,3691
202.04342019145315,3432
204.4722256614548,3483
206.90020891891436,3553
209.32737081912592,3341
211.7537122164515,3383
214.17923396432116,3642
216.6039369152336,3980
219.0278219207553,3608
221.45088983152186,3431
223.8731414972358,3308
226.29457776666914,3176
228.71519948766172,3395
231.1350075071216,3558
233.55400267102482,3723
235.97218582441633,3767
238.38955781140908,3471
240.806119475184,3586
243.2218716579905,3386
245.6368152011462,3321
248.05095094503736,3328
250.46427972911806,3603
252.87680239191036,3567
255.28851977100544,3901
257.69943270306203,3946
260.10954202380753,3324
262.5188485680378,3392
264.92735316961557,3726
267.33505666147425,3600
269.7419598756128,3467
272.14806364310084,3540
274.5533687940747,3419
276.95787615773975,3435
279.361586562369,3296
281.7645008353045,3097
284.1666198029559,3164
286.5679442908013,3099
288.96847512338695,3265
291.3682131243279,3253
293.7671591163071,3297
296.1653139210757,3217
298.562678359453,3320
300.9592532513268,3568
303.3550394156532,3387
305.75003767045655,3085
308.14424883282936,3135
310.53767371893196,3123
312.93031314399377,2998
315.3221679223125,3006
317.71323886725304,3037
320.1035267912496,2958
322.49303250580397,2875
324.881756821487,2908
327.2697005479374,2817
329.65686449386135,2793
332.0432494670347,3057
334.4288562743004,2951
336.81368572157066,2874
339.19773861382487,2773
341.58101575511205,2707
343.96351794854786,2571
346.3452459963173,2548
348.72620069967365,2814
351.1063828589379,2851
353.48579327349967,2924
355.8644327418169,2704
358.24230206141533,2670
360.6194020288899,2615
362.99573343990255,2577
365.3712970891845,2656
367.7460937705348,2542
370.12012427682066,2643
372.493389399978,2662
374.86588993101077,2662
377.23762665999084,2581
379.6086003760588,2449
381.9788118674235,2492
384.34826192136165,2599
386.7169513242188,2544
389.08488086140824,2540
391.4520513174118,2540
393.8184634757795,2611
396.1841181191296,2684
398.54901602914856,2655
400.9131579865916,2664
403.2765447712811,2640
405.63917716210926,2691
408.00105593703483,2665
410.36218187308646,2524
412.7225557463596,2445
415.0821783320191,2422
417.4410504042976,2423
419.79917273649585,2514
422.1565461009834,2470
424.5131712691973,2475
426.869049011643,2530
429.22418009789544,2595
431.578565296596,2418
433.9322053754556,2327
436.28510110125285,2271
438.6372532398352,2308
440.98866255611733,2259
443.33932981408293,2448
445.6892557767842,2425
448.0384412063411,2411
450.38688686394175,2592
452.7345935098431,2501
455.0815619033697,2345
457.42779280291506,2457
459.7732869659403,2588
462.1180451489754,2484
464.4620681076178,2426
466.80535659653424,2468
469.1479113694588,2356
471.48973317919445,2522
473.8308227776122,2536
476.17118091565135,2754
478.51080834331924,2632
480.8497058096914,2681
483.1878740629122,2985
485.5253138501944,2967
487.8620259178176,3081
490.1980110111317,3458
492.53326987455307,3515
494.86780325156724,3750
497.201611884728,4020
499.53469651565683,4120
501.8670578850447,4259
504.1986967326493,4118
506.52961379729754,4123
508.85980981688454,3704
511.18928552837315,3416
513.5180416677952,3313
515.8460789702503,3517
518.1733981699067,4126
520.5,5127
522.8258851928354,5232
525.1510544797857,5012
527.4755085912916,4439
529.7992482568625,3943
532.1222742050759,3277
534.4445871635783,2763
536.766187859083,2440
539.0870770173726,2294
541.4072553632982,2238
543.7267236207783,2268
546.0454825128002,2301
548.363532761419,2352
550.6808750877592,2326
552.9975102120118,2351
555.3134388534377,2350
557.6286617303654,2366
559.9431795601911,2430
562.2569930593802,2267
564.570102943466,2459
566.88250992705,2413
569.1942147238021,2193
571.5052180464602,2199
573.8155206068309,2312
576.1251231157885,2493
578.4340262832759,2382
580.7422308183045,2215
583.0497374289534,2103
585.3565468223703,2151
587.6626597047714,2241
589.9680767814409,2106
592.2727987567309,2217
594.5768263340624,2264
596.8801602159238,2156
599.1828011038731,2101
601.4847496985356,2277
603.7860066996047,2267
606.0865728058427,2119
608.3864487150802,2142
610.6856351242152,2289
612.9841327292149,2262
615.2819422251141,2112
617.5790643060163,2057
619.8754996650935,2102
622.1712489945849,2150
624.466312985799,2004
626.7606923291121,2130
629.0543877139692,2078
631.347399828883,2128
633.6397293614343,2102
635.9313769982732,2202
638.2223434251173,2212
640.5126293267522,2143
642.8022353870326,2081
645.0911622888809,2097
647.3794107142876,2156
649.666981344312,2136
651.9538748590815,2211
654.2400919377915,2188
656.525633258706,2290
658.8104994991568,2267
661.0946913355442,2333
663.3782094433375,2283
665.6610544970729,2268
667.9432271703561,2175
670.22472813586,2251
672.5055580653268,2295
674.7857176295659,2200
677.065207498456,2180
679.3440283409432,2213
681.6221808250425,2161
683.899665617837,2149
686.1764833854772,2128
688.4526347931837,2201
690.7281205052436,2134
693.0029411850135,2269
695.2770974949171,2283
697.5505900964474,2219
699.8234196501651,2249
702.0955868156989,2089
704.3670922517472,2067
706.6379366160747,2205
708.9081205655159,2170
711.1776447559728,2253
713.4465098424155,2245
715.714716478883,2232
717.9822653184822,2280
720.2491570133882,2272
722.5153922148452,2200
724.7809715731639,2160
727.0458957377248,2190
729.3101653569763,2120
731.5737810784346,2284
733.8367435486853,2205
736.0990534133803,2312
738.3607113172418,2274
740.6217179040591,2304
742.8820738166899,2308
745.1417796970607,2188
747.4008361861659,2250
749.6592439240678,2247
751.9170035498973,2332
754.1741157018539,2448
756.4305810172048,2386
758.686400132286,2261
760.9415736825013,2309
763.196102302323,2327
765.4499866252911,2335
767.7032272840152,2354
769.9558249101717,2236
772.207780134506,2219
774.4590935868323,2429
776.7097658960313,2401
778.9597976900541,2409
781.2091895959184,2231
783.457942239711,2274
785.7060562465867,2278
787.9535322407687,2377
790.2003708455488,2361
792.4465726832861,2368
794.6921383754088,2400
796.9370685424128,2395
799.1813638038632,2341
801.4250247783918,2389
803.6680520837006,2247
805.9104463365579,2207
808.1522081528019,2286
810.393338147338,2303
812.6338369341406,2286
814.8737051262517,2270
817.1129433357819,2300
819.35155217391,2363
821.5895322508834,2223
823.8268841760168,2206
826.0636085576946,2275
828.2997060033681,2273
830.535177119558,2209
832.7700225118522,2261
835.0042427849078,2261
837.2378385424493,2208
839.4708103872701,2293
841.7031589212318,2285
843.9348847452643,2294
846.1659884593648,2321
848.3964706626004,2315
850.6263319531054,2238
852.8555729280824,2197
855.0841941838025,2228
857.3121963156052,2271
859.5395799178978,2335
861.7663455841566,2320
863.9924939069251,2383
866.2180254778159,2386
868.4429408875103,2270
870.6672407257561,2345
872.890925581371,2443
875.1139960422404,2321
877.336452695318,2336
879.5582961266261,2414
881.7795269212543,2308
884.0001456633613,2441
886.2201529361741,2342
888.4395493219874,2497
890.6583354021648,2480
892.8765117571375,2395
895.094078966405,2356
897.3110376085365,2390
899.5273882611671,2373
901.7431315010019,2214
903.958267903814,2310
906.1727980444443,2279
908.3867224968019,2298
910.6000418338647,2292
912.8127566276792,2313
915.0248674493587,2418
917.2363748690857,2348
919.4472794561113,2319
921.6575817787543,2263
923.867282404402,2242
926.0763818995099,2149
928.2848808296014,2122
930.4927797592693,2218
932.700079252173,2217
934.9067798710416,2168
937.112882177672,2147
939.3183867329287,2158
941.5232940967453,2171
943.727604828124,2015
945.9313194851336,2117
948.1344386249132,2161
950.3369628036685,2274
952.5388925766747,2210
954.7402284982745,2113
956.9409711218789,2112
959.1411209999676,2087
961.3406786840883,2076
963.5396447248565,2117
965.7380196719573,2200
967.9358040741427,2205
970.1329984792335,2171
972.3296034341188,2105
974.5256194847555,2036
976.72104717617,2059
978.9158870524552,2084
981.1101396567742,2129
983.3038055313566,1999
985.4968852175009,2123
987.6893792555747,2020
989.8812881850124,2098
992.072612544318,2152
994.263352871063,2184
996.453509701887,2045
998.6430835724984,2069
1000.832075017674,2054
1003.0204845712583,1926
1005.208312766164,1916
1007.3955601343728,1952
1009.5822272069338,1864
1011.7683145139652,1914
1013.9538225846525,1872
1016.1387519472505,1884
1018.3231031290818,1845
1020.5068766565371,1905
1022.6900730550753,1884
1024.872692849224,1964
1027.054736562579,1904
1029.2362047178037,1810
1031.4170978366305,1797
1033.5974164398597,1855
1035.7771610473603,1793
1037.9563321780693,1789
1040.1349303499917,1729
1042.3129560802006,1850
1044.490409884838,1807
1046.667292279115,1828
1048.8436037773079,1785
1051.0193448927644,1790
1053.1945161378994,1809
1055.3691180241954,1826
1057.5431510622038,1832
1059.7166157615447,1800
1061.8895126309053,1864
1064.0618421780423,1897
1066.2336049097798,1729
1068.4048013320107,1698
1070.5754319496955,1714
1072.745497266863,1722
1074.9149977866118,1749
1077.0839340111065,1821
1079.2523064415818,1806
1081.4201155783398,1788
1083.587361920751,1687
1085.7540459672537,1685
1087.9201682153553,1745
1090.0857291616308,1711
1092.2507293017238,1718
1094.4151691303464,1629
1096.579049141279,1620
1098.7423698273687,1686
1100.9051316805335,1709
1103.0673351917571,1636
1105.2289808510936,1702
1107.3900691476633,1718
1109.550600569657,1701
1111.710575604332,1700
1113.8699947380146,1746
1116.028858456099,1698
1118.1871672430489,1699
1120.344921582394,1690
1122.5021219567334,1759
1124.6587688477362,1697
1126.8148627361365,1699
1128.9704041017399,1752
1131.1253934234173,1743
1133.2798311791098,1623
1135.4337178458263,1650
1137.5870538996437,1699
1139.7398398157075,1607
1141.8920760682313,1654
1144.0437631304972,1683
1146.1949014748543,1736
1148.3454915727225,1688
1150.4955338945874,1685
1152.6450289100044,1630
1154.7939770875969,1637
1156.9423788950558,1656
1159.0902347991405,1690
1161.2375452656802,1693
1163.3843107595703,1669
1165.530531744775,1701
1167.6762086843282,1705
1169.8213420403304,1685
1171.9659322739503,1680
1174.1099798454266,1688
1176.2534852140639,1555
1178.3964488382376,1631
1180.538871175389,1669
1182.680752682029,1705
1184.8220938137365,1708
1186.9628950251595,1657
1189.103156770012,1655
1191.2428795010783,1625
1193.3820636702108,1617
1195.5207097283287,1693
1197.6588181254215,1676
1199.7963893105457,1617
1201.9334237318253,1576
1204.0699218364548,1599
1206.2058840706954,1714
1208.3413108798773,1661
1210.476202708397,1656
1212.6105599997222,1645
1214.7443831963874,1715
1216.877672739995,1656
1219.0104290712165,1649
1221.1426526297905,1736
1223.2743438545253,1755
1225.4055031832972,1572
1227.5361310530493,1646
1229.6662278997946,1737
1231.7957941586142,1697
1233.9248302636565,1630
1236.053336648139,1609
1238.1813137443464,1719
1240.3087619836338,1722
1242.4356817964222,1660
1244.5620736122019,1696
1246.6879378595318,1663
1248.813274966039,1589
1250.938085358418,1614
1253.062369462432,1728
1255.186127702913,1683
1257.3093605037611,1698
1259.4320682879434,1704
1261.554251477498,1685
1263.6759104935277,1589
1265.797045756206,1623
1267.9176576847744,1671
1270.0377466975428,1686
1272.1573132118879,1665
1274.2763576442567,1762
1276.394880410162,1732
1278.5128819241877,1725
1280.6303625999835,1736
1282.7473228502695,1656
1284.8637630868325,1745
1286.9796837205272,1718
1289.0950851612783,1697
1291.209967818078,1686
1293.3243320989864,1740
1295.4381784111324,1858
1297.551507160712,1834
1299.6643187529912,1817
1301.776613592303,1732
1303.888392082049,1812
1305.9996546246998,1739
1308.1104016217923,1779
1310.220633473934,1755
1312.3303505807999,1782
1314.4395533411316,1824
1316.5482421527418,1727
1318.6564174125092,1754
1320.7640795163816,1769
1322.8712288593752,1683
1324.9778658355744,1739
1327.0839908381313,1784
1329.1896042592675,1802
1331.2947064902714,1719
1333.3992979215009,1784
1335.503378942381,1772
1337.6069499414057,1695
1339.7100113061383,1745
1341.8125634232074,1740
1343.9146066783128,1722
1346.0161414562212,1700
1348.1171681407677,1670
1350.2176871148563,1749
1352.3176987604575,1758
1354.4172034586127,1801
1356.5162015894289,1712
1358.6146935320835,1755
1360.7126796648213,1761
1362.8101603649548,1723
1364.9071360088656,1671
1367.0036069720036,1674
1369.099573628886,1736
1371.195036353099,1768
1373.2899955172975,1745
1375.3844514932039,1753
1377.4784046516088,1668
1379.5718553623715,1782
1381.6648039944193,1693
1383.7572509157485,1755
1385.8491964934224,1722
1387.9406410935735,1695
1390.0315850814022,1759
1392.122028821177,1750
1394.2119726762357,1753
1396.3014170089828,1740
1398.3903621808918,1712
1400.4788085525051,1753
1402.566756483432,1687
1404.6542063323514,1621
1406.7411584570095,1708
1408.8276132142219,1803
1410.9135709598704,1729
1412.9990320489078,1687
1415.083996835353,1768
1417.1684656722937,1662
1419.2524389118867,1651
1421.3359169053565,1779
1423.4189000029946,1719
1425.5013885541634,1713
1427.5833829072913,1709
1429.664883409876,1734
1431.7458904084833,1723
1433.8264042487467,1714
1435.9064252753697,1714
1437.9859538321216,1683
1440.0649902618416,1744
1442.1435349064373,1684
1444.2215881068837,1813
1446.2991502032237,1720
1448.37622153457,1690
1450.452802439103,1726
1452.5288932540698,1776
1454.604494315788,1742
1456.6796059596427,1730
1458.7542285200866,1756
1460.8283623306415,1654
1462.902007723897,1758
1464.9751650315106,1702
1467.0478345842089,1748
1469.1200167117868,1741
1471.1917117431062,1815
1473.2629200060992,1734
1475.333641827764,1779
1477.4038775341692,1763
1479.4736274504498,1795
1481.5428919008104,1767
1483.6116712085222,1755
1485.6799656959279,1726
1487.7477756844346,1779
1489.8151014945201,1758
1491.88194344573,1761
1493.9483018566775,1766
1496.0141770450455,1778
1498.0795693275822,1799
1500.1444790201076,1725
1502.2089064375086,1778
1504.2728518937402,1763
1506.3363157018239,1757
1508.3992981738534,1766
1510.4617996209872,1835
1512.5238203534536,1816
1514.5853606805495,1814
1516.6464209106384,1864
1518.7070013511543,1863
1520.7671023085973,1830
1522.8267240885375,1824
1524.885866995612,1912
1526.9445313335268,1926
1529.002717405056,1919
1531.0604255120425,1952
1533.1176559553965,1934
1535.1744090350971,1903
1537.2306850501914,1955
1539.2864842987956,1987
1541.3418070780922,2071
1543.396653684334,2066
1545.4510244128405,1981
1547.5049195580013,1989
1549.5583394132727,2000
1551.61128427118,2037
1553.6637544233158,2096
1555.7157501603415,2094
1557.7672717719888,2163
1559.8183195470538,2158
1561.8688937734037,2136
1563.9189947379737,2088
1565.9686227267657,2195
1568.0177780248514,2097
1570.0664609163696,2188
1572.1146716845292,2084
1574.162410611605,2040
1576.2096779789413,1993
1578.2564740669518,1962
1580.3027991551157,1927
1582.3486535219831,1936
1584.3940374451709,1947
1586.4389512013645,1837
1588.4833950663178,1866
1590.5273693148533,1837
1592.5708742208603,1777
1594.6139100572982,1902
1596.6564770961936,1805
1598.698575608642,1748
1600.7402058648063,1768
1602.7813681339185,1756
1604.8220626842776,1800
1606.8622897832533,1781
1608.9020496972812,1873
1610.9413426918663,1829
1612.9801690315808,1777
1615.018528980066,1765
1617.056422800033,1761
1619.0938507532578,1769
1621.1308131005876,1811
1623.1673101019355,1763
1625.2033420162848,1794
1627.2389091016862,1769
1629.274011615259,1768
1631.3086498131897,1748
1633.3428239507352,1820
1635.376534282219,1757
1637.4097810610324,1757
1639.4425645396364,1807
1641.4748849695593,1790
1643.5067426013989,1728
1645.53813768482,1751
1647.5690704685549,1810
1649.5995412004067,1767
1651.6295501272452,1709
1653.6590974950086,1786
1655.6881835487025,1831
1657.7168085324029,1829
1659.7449726892523,1694
1661.772676261462,1715
1663.7999194903114,1749
1665.8267026161484,1678
1667.8530258783894,1701
1669.8788895155185,1676
1671.9042937650888,1703
1673.9292388637205,1722
1675.953725047103,1702
1677.977752549994,1681
1680.0013216062184,1716
1682.0244324486712,1716
1684.0470853093134,1735
1686.0692804191767,1711
1688.0910180083588,1717
1690.1122983060268,1716
1692.1331215404175,1691
1694.1534879388319,1719
1696.173397727644,1795
1698.1928511322926,1763
1700.211848377286,1811
1702.2303896862018,1787
1704.248475281684,1818
1706.2661053854458,1777
1708.2832802182684,1771
1710.300000000002,1819
1712.3162649495644,1725
1714.3320752849409,1765
1716.3474312231865,1748
1718.362332980424,1729
1720.376780771845,1759
1722.3907748117072,1720
1724.4043153133393,1801
1726.4174024891367,1738
1728.4300365505628,1812
1730.442217708151,1745
1732.4539461715008,1731
1734.465222149282,1747
1736.4760458492306,1661
1738.4864174781524,1707
1740.496337241921,1761
1742.5058053454786,1715
1744.5148219928346,1752
1746.523387387068,1699
1748.531501730325,1738
1750.5391652238209,1738
1752.5463780678388,1765
1754.55314046173,1775
1756.5594526039135,1777
1758.565314691879,1723
1760.5707269221812,1718
1762.5756894904443,1763
1764.580202591363,1758
1766.5842664186966,1780
1768.5878811652751,1773
1770.591047022996,1783
1772.593764182825,1701
1774.5960328347965,1745
1776.5978531680116,1798
1778.5992253706427,1755
1780.6001496299273,1683
1782.6006261321731,1644
1784.6006550627553,1750
1786.6002366061175,1772
1788.5993709457725,1772
1790.5980582642992,1712
1792.5962987433468,1737
1794.5940925636314,1732
1796.5914399049389,1729
1798.5883409461221,1748
1800.584795865102,1755
1802.580804838869,1639
1804.5763680434807,1753
1806.571485654064,1766
1808.566157844813,1738
1810.5603847889902,1785
1812.5541666589274,1735
1814.5475036260236,1696
1816.5403958607467,1801
1818.5328435326323,1709
1820.5248468102845,1709
1822.5164058613755,1743
1824.5075208526468,1741
1826.4981919499064,1860
1828.488419318032,1806
1830.4782031209684,1699
1832.4675435217305,1707
1834.4564406823993,1772
1836.4448947641258,1735
1838.432905927128,1708
1840.4204743306927,1748
1842.4076001331746,1821
1844.3942834919985,1796
1846.380524563654,1831
1848.366323503702,1742
1850.351680466771,1681
1852.3365956065563,1735
1854.3210690758228,1758
1856.3051010264044,1797
1858.2886916092007,1730
1860.271840974182,1749
1862.2545492703862,1769
1864.2368166459191,1795
1866.2186432479543,1765
1868.2000292227349,1820
1870.1809747155717,1737
1872.1614798708429,1758
1874.1415448319963,1828
1876.1211697415474,1762
1878.1003547410805,1731
1880.0790999712472,1752
1882.0574055717675,1853
1884.0352716814305,1780
1886.0126984380927,1800
1887.989685978679,1785
1889.9662344391836,1791
1891.9423439546672,1791
1893.9180146592607,1791
1895.893246686161,1723
1897.868040167636,1758
1899.8423952350195,1774
1901.8163120187137,1796
1903.7897906481917,1779
1905.7628312519923,1792
1907.7354339577219,1814
1909.7075988920578,1758
1911.6793261807447,1785
1913.6506159485943,1779
1915.6214683194871,1803
1917.5918834163726,1751
1919.5618613612687,1763
1921.5314022752605,1778
1923.5005062785012,1758
1925.4691734902144,1796
1927.4374040286893,1775
1929.4051980112845,1742
1931.3725555544274,1753
1933.3394767736136,1761
1935.305961783406,1832
1937.2720106974361,1768
1939.237623628404,1792
1941.2028006880778,1778
1943.167541987295,1845
1945.1318476359588,1861
1947.0957177430432,1924
1949.0591524165898,1769
1951.0221517637078,1819
1952.984715890574,1818
1954.9468449024357,1785
1956.9085389036072,1713
1958.8697979974704,1739
1960.8306222864767,1773
1962.7910118721456,1785
1964.7509668550638,1818
1966.7104873348871,1817
1968.6695734103387,1769
1970.6282251792127,1806
1972.586442738368,1794
1974.5442261837343,1813
1976.501575610307,1797
1978.4584911121533,1813
1980.4149727824056,1806
1982.3710207132658,1785
1984.326634996004,1801
1986.2818157209585,1748
1988.2365629775359,1850
1990.1908768542116,1888
1992.144757438527,1802
1994.0982048170954,1872
1996.0512190755953,1792
1998.0038002987749,1793
1999.95594857045,1733
2001.9076639735054,1716
2003.8589465898945,1816
2005.8097965006368,1760
2007.760213785822,1761
2009.7101985246077,1784
2011.6597507952201,1821
2013.6088706749524,1788
2015.5575582401675,1816
2017.5058135662953,1821
2019.4536367278351,1856
2021.4010277983534,1758
2023.347986850486,1794
2025.2945139559365,1759
2027.2406091854768,1821
2029.1862726089462,1807
2031.1315042952538,1899
2033.0763043123766,1799
2035.0206727273585,1796
2036.964609606313,1749
2038.908115014422,1768
2040.8511890159348,1793
2042.7938316741693,1872
2044.7360430515123,1822
2046.677823209417,1771
2048.6191722084077,1795
2050.5600901080743,1819
2052.5005769670765,1735
2054.440632843142,1798
2056.380257793066,1786
2058.3194518727128,1772
2060.258215137015,1769
2062.1965476399732,1782
2064.1344494346554,1823
2066.0719205732,1884
2068.008961106812,1774
2069.945571085764,1807
2071.8817505593997,1787
2073.817499576128,1806
2075.7528181834273,1819
2077.6877064278447,1767
2079.622164354995,1804
2081.556192009562,1806
2083.4897894352966,1838
2085.4229566750187,1789
2087.355693770616,1783
2089.2880007630456,1788
2091.219877692331,1831
2093.151324597566,1799
2095.0823415169107,1766
2097.012928487595,1794
2098.9430855459173,1801
2100.872812727242,1853
2102.8021100660035,1828
2104.730977595705,1785
2106.659415348917,1859
2108.5874233572777,1856
2110.5150016514945,1842
2112.442150261343,1820
2114.3688692156675,1846
2116.2951585423793,1830
2118.2210182684585,1839
2120.146448419954,1765
2122.0714490219825,1758
2123.9960200987293,1798
2125.920161673447,1851
2127.843873768458,1819
2129.767156405151,1850
2131.690009603985,1759
2133.612433384486,1751
2135.534427765249,1835
2137.4559927639366,1834
2139.37712839728,1733
2141.2978346810783,1824
2143.2181116301995,1847
2145.1379592585795,1824
2147.057377579222,1790
2148.9763666042,1803
2150.894926344655,1842
2152.813056810794,1763
2154.730758011896,1867
2156.648029956306,1789
2158.564872651437,1747
2160.481286103772,1669
2162.397270318861,1858
2164.312825301323,1826
2166.227951054844,1721
2168.14264758218,1820
2170.056914885153,1840
2171.9707529646566,1798
2173.8841618206484,1778
2175.7971414521585,1767
2177.7096918572825,1807
2179.621813033186,1771
2181.5335049761,1799
2183.444767681327,1857
2185.355601143236,1830
2187.2660053552654,1813
2189.1759803099208,1809
2191.085525998777,1786
2192.994642412475,1756
2194.903329540727,1798
2196.811587372312,1840
2198.7194158950765,1806
2200.626815095937,1876
2202.5337849608763,1839
2204.440325474948,1838
2206.346436622271,1822
2208.2521183860345,1741
2210.157370748496,1814
2212.0621936909793,1817
2213.966587193879,1885
2215.8705512366573,1778
2217.774085797842,1750
2219.677190855033,1794
2221.579866384897,1824
2223.4821123631677,1804
2225.3839287646483,1796
2227.2853155632106,1916
2229.186272731794,1834
2231.0868002424063,1754
2232.986898066123,1802
2234.8865661730892,1717
2236.785804532517,1828
2238.6846131126877,1823
2240.5829918809495,1810
2242.4809408037213,1826
2244.3784598464877,1821
2246.275548973803,1875
2248.172208149288,1869
2250.0684373356357,1855
2251.964236494603,1841
2253.859605587017,1762
2255.7545445727733,1779
2257.6490534108357,1781
2259.5431320592356,1788
2261.436780475073,1768
2263.329998614516,1852
2265.222786432802,1845
2267.1151438842344,1776
2269.0070709221877,1816
2270.8985674991022,1754
2272.789633566488,1782
2274.6802690749237,1804
2276.570473974053,1722
2278.4602482125933,1851
2280.3495917383257,1843
2282.238504498101,1879
2284.1269864378387,1780
2286.0150375025264,1792
2287.9026576362203,1864
2289.789846782043,1869
2291.6766048821873,1803
2293.5629318779147,1899
2295.4488277095534,1842
2297.3342923164996,1861
2299.2193256372193,1835
2301.1039276092465,1850
2302.9880981691817,1839
2304.871837252696,1810
2306.755144794528,1845
2308.6380207284838,1863
2310.5204649874386,1899
2312.4024775033354,1812
2314.2840582071854,1821
2316.165207029068,1841
2318.0459238981325,1833
2319.926208742594,1833
2321.8060614897363,1848
2323.6854820659137,1884
2325.5644703965463,1839
2327.443026406124,1922
2329.321150018203,1823
2331.1988411554107,1823
2333.0760997394395,1859
2334.952925691053,1840
2336.829318930082,1867
2338.705279375424,1872
2340.5808069450477,1794
2342.4559015559867,1817
2344.3305631243456,1826
2346.204791565297,1831
2348.07858679308,1808
2349.9519487210027,1934
2351.824877261443,1860
2353.6973723258448,1872
2355.5694338247226,1825
2357.4410616676564,1803
2359.312255763297,1850
2361.1830160193617,1847
2363.053342342637,1820
2364.9232346389776,1889
2366.792692813306,1875
2368.6617167696145,1805
2370.5303064109603,1844
2372.3984616394723,1858
2374.2661823563467,1839
2376.1334684618464,1927
2378.0003198553054,1790
2379.8667364351227,1873
2381.7327180987672,1814
2383.5982647427777,1813
2385.4633762627586,1895
2387.3280525533837,1792
2389.192293508395,1876
2391.0560990206027,1850
2392.919468981885,1845
2394.782403283189,1852
2396.644901814531,1843
2398.5069644649916,1833
2400.3685911227235,1829
2402.2297816749474,1892
2404.0905360079505,1902
2405.950854007089,1830
2407.8107355567886,1929
2409.670180540541,1905
2411.529188840908,1916
2413.387760339518,1865
2415.2458949170705,1817
2417.1035924533294,1835
2418.96085282713,1807
2420.8176759163744,1832
2422.6740615980334,1891
2424.5300097481468,1912
2426.38552024182,1894
2428.24059295323,1820
2430.0952277556207,1843
2431.949424521303,1873
2433.803183121658,1841
2435.6565034271343,1869
2437.5093853072485,1840
2439.361828630585,1899
2441.213833264798,1919
2443.0653990766095,1948
2444.916525931808,1842
2446.7672136952524,1858
2448.6174622308695,1857
2450.4672714016538,1856
2452.3166410696676,1893
2454.165571096043,1849
2456.0140613409794,1825
2457.8621116637432,1847
2459.709721922672,1810
2461.556891975169,1832
2463.403621677707,1873
2465.249910885827,1836
2467.0957594541383,1837
2468.9411672363167,1876
2470.78613408511,1895
2472.630659852331,1795
2474.4747443888614,1845
2476.3183875446516,1829
2478.161589168721,1873
2480.0043491091556,1882
2481.8466672131112,1739
2483.6885433268108,1855
2485.529977295547,1897
2487.370968963678,1789
2489.2115181746335,1841
2491.0516247709097,1813
2492.891288594071,1828
2494.7305094847497,1903
2496.569287282649,1847
2498.407621826537,1826
2500.2455129542523,1814
2502.0829605027,1826
2503.919964307855,1885
2505.7565242047594,1878
2507.5926400275252,1875
2509.42831160933,1889
2511.263538782423,1844
2513.0983213781174,1842
2514.9326592267994,1810
2516.76655215792,1830
2518.5999999999995,1881
2520.4330025806275,1918
2522.2655597264607,1923
2524.0976712632237,1890
2525.9293370157097,1813
2527.760556807782,1852
2529.591330462369,1819
2531.4216578014702,1906
2533.2515386461523,1901
2535.080972816548,1935
2536.9099601318626,1794
2538.738500410366,1905
2540.5665934693993,1850
2542.3942391253695,1894
2544.221437193752,1806
2546.0481874890925,1763
2547.874489825003,1873
2549.700344014164,1892
2551.5257498683245,1818
2553.350707198304,1860
2555.175215813986,1885
2556.9992755243256,1881
2558.8228861373454,1937
2560.646047460134,1893
2562.468759298852,1919
2564.2910214587255,1905
2566.1128337440496,1924
2567.93419595819,1954
2569.7551079035757,1956
2571.5755693817077,1892
2573.395580193155,1861
2575.2151401375536,1881
2577.034249013609,1872
2578.8529066190936,1880
2580.6711127508493,1941
2582.488867204785,1866
2584.3061697758794,1883
2586.1230202581787,1884
2587.939418444797,1914
2589.7553641279183,1871
2591.570857098791,1920
2593.385897147736,1889
2595.200484064141,1916
2597.014617636461,1969
2598.8282976522214,1909
2600.6415238980126,1910
2602.454296159496,1890
2604.266614221401,1922
2606.0784778675243,1937
2607.8898868807305,1950
2609.700841042955,1908
2611.5113401351973,1873
2613.32138393753,1976
2615.13097222909,1932
2616.940104788084,1895
2618.748781391788,1943
2620.557001816543,1984
2622.364765837763,1864
2624.1720732299264,1954
2625.9789237665814,1917
2627.7853172203445,1911
2629.5912533629,1986
2631.396731965001,1864
2633.2017527964676,1997
2635.0063156261904,1923
2636.810420222126,1884
2638.614066351301,1880
2640.417253779809,1968
2642.219982272813,1880
2644.022251594542,1947
2645.8240615082973,1891
2647.625411776444,1814
2649.4263021604183,1875
2651.226732420724,1880
2653.026702316933,1933
2654.8262116076858,1922
2656.625260050691,1890
2658.423847402724,1880
2660.221973419631,1911
2662.0196378563246,1916
2663.8168404667867,1868
2665.613581004068,1908
2667.4098592202854,1849
2669.2056748666246,1853
2671.0010276933417,1947
2672.7959174497596,1921
2674.5903438842674,1980
2676.384306744327,1868
2678.177805776465,1934
2679.9708407262765,1926
2681.7634113384274,1851
2683.555517356648,1909
2685.3471585237403,1853
2687.138334581574,1859
2688.9290452710843,1867
2690.7192903322784,1827
2692.50906950423,1829
2694.2983825250794,1873
2696.087229132039,1885
2697.875609061386,1822
2699.6635220484677,1873
2701.450967827699,1936
2703.237946132564,1948
2705.0244566956126,1954
2706.8104992484664,1837
2708.596073521813,1888
2710.381179245408,1936
2712.1658161480777,1859
2713.949983957714,1903
2715.7336824012773,1800
2717.516911204798,1864
2719.299670093374,1856
2721.0819587911706,1822
2722.8637770214223,1839
2724.6451245064322,1825
2726.426000967571,1863
2728.2064061252763,1833
2729.986339699057,1901
2731.765801407488,1851
2733.5447909682134,1838
2735.323308097945,1853
2737.101352512463,1944
2738.8789239266166,1855
2740.6560220543215,1877
2742.4326466085645,1841
2744.2087973013977,1839
2745.984473843944,1858
2747.7596759463922,1894
2749.534403318001,1868
2751.308655667096,1881
2753.0824327010737,1870
2754.8557341263954,1802
2756.628559648593,1876
2758.4009089722667,1854
2760.172781801083,1850
2761.944177837779,1872
2763.715096784159,1842
2765.4855383410945,1886
2767.2555022085267,1859
2769.024988085465,1844
2770.793995669988,1849
2772.5625246592385,1837
2774.3305747494323,1863
2776.098145635852,1862
2777.865237012847,1916
2779.6318485738357,1908
2781.397980011306,1877
2783.163631016813,1874
2784.928801280979,1894
2786.6934904934974,1830
2788.457698343127,1804
2790.221424517697,1846
2791.9846687041027,1929
2793.74743058831,1927
2795.5097098553515,1799
2797.2715061893286,1914
2799.0328192734105,1830
2800.793648789836,1878
2802.553994419911,1888
2804.3138558440087,1895
2806.073232741573,1907
2807.8321247911135,1874
2809.590531670211,1909
2811.3484530555115,1880
2813.105888622732,1901
2814.8628380466557,1811
2816.6193010011348,1828
2818.3752771590903,1827
2820.13076619251,1860
2821.885767772452,1898
2823.640281569041,1939
2825.3943072514703,1902
2827.147844488002,1847
2828.9008929459665,1855
2830.6534522917614,1878
2832.405522190854,1838
2834.1571023077786,1937
2835.9081923061394,1878
2837.658791848606,1887
2839.40890059692,1877
2841.1585182118874,1868
2842.907644353386,1915
2844.6562786803593,1890
2846.4044208508203,1883
2848.15207052185,1955
2849.899227349598,1892
2851.6458909892804,1862
2853.392061095185,1867
2855.137737320664,1838
2856.882919318142,1832
2858.6276067391063,1876
2860.371799234118,1907
2862.1154964528037,1870
2863.8586980438586,1876
2865.6014036550464,1827
2867.343612933199,1935
2869.0853255242173,1876
2870.826541073068,1845
2872.567259223789,1851
2874.307479619485,1911
2876.0472019023287,1825
2877.7864257135625,1808
2879.525150693495,1871
2881.263376481505,1879
2883.0011027160385,1875
2884.73832903461,1901
2886.4750550738027,1909
2888.2112804692665,1923
2889.9470048557223,1908
2891.682227866956,1911
2893.416949135825,1900
2895.151168294252,1928
2896.88488497323,1874
2898.6180988028204,1927
2900.3508094121503,1946
2902.083016429419,1873
2903.81471948189,1920
2905.5459181958972,1905
2907.276612196844,1887
2909.0068011091994,1837
2910.736484556502,1872
2912.465662161359,1840
2914.194333545445,1899
2915.922498329504,1933
2917.650156133346,1865
2919.377306575852,1851
2921.103949274969,1880
2922.830083847715,1828
2924.555709910173,1908
2926.2808270774967,1858
2928.005434963907,1864
2929.7295331826936,1836
2931.4531213462133,1940
2933.1761990658924,1884
2934.8987659522254,1886
2936.6208216147747,1866
2938.3423656621694,1939
2940.0633977021116,1900
2941.783917341366,1964
2943.503924185768,1922
2945.223417840223,1937
2946.9423979087023,1958
2948.6608639942456,1963
2950.378815698962,1881
2952.096252624029,1895
2953.81317436969,1866
2955.529580535259,1892
2957.2454707191177,1939
2958.9608445187164,1941
2960.6757015305734,1927
2962.3900413502733,1942
2964.103863572472,1901
2965.817167790894,1875
2967.529953598327,1884
2969.2422205866337,1873
2970.953968346739,1853
2972.6651964686407,1883
2974.3759045414035,1878
2976.0860921531585,1876
2977.7957588911067,1927
2979.504904341517,1962
2981.2135280897273,1910
2982.9216297201433,1899
2984.629208816238,1907
2986.336264960554,1862
2988.0427977347017,1907
2989.7488067193594,1937
2991.454291494274,1925
2993.1592516382607,1905
2994.8636867292034,1881
2996.567596344053,1926
2998.2709800588295,1912
2999.973837448621,1906
3001.6761680875857,1959
3003.377971548946,1947
3005.0792474049954,1892
3006.7799952270957,1875
3008.480214585676,1918
3010.1799050502345,1866
3011.8790661893368,1912
3013.5776975706176,1905
3015.2757987607793,1838
3016.973369325592,1905
3018.6704088298966,1941
3020.366916837598,1871
3022.0628929116747,1877
3023.7583366141675,1913
3025.4532475061915,1854
3027.147625147925,1920
3028.841469098617,1917
3030.534778916585,1880
3032.2275541592144,1972
3033.9197943829577,1889
3035.611499143338,1980
3037.302667994943,1877
3038.9933004914333,1970
3040.683396185535,1866
3042.372954629042,1856
3044.061975372817,1889
3045.7504579667934,1853
3047.4384019599684,1889
3049.1258069004116,1896
3050.812672335258,1931
3052.4989978107124,1867
3054.184782872047,1884
3055.870027063603,1931
3057.554729928791,1944
3059.238891010086,1911
3060.9225098490347,1800
3062.6055859862518,1843
3064.2881189614177,1968
3065.970108313285,1946
3067.651553579671,1961
3069.3324542974633,1915
3071.012810002616,1941
3072.6926202301543,1933
3074.3718845141702,1900
3076.050602387822,1922
3077.728773383339,1865
3079.406397032018,1917
3081.083472864223,1968
3082.7600004093874,1966
3084.4359791960137,1913
3086.11140875167,1888
3087.7862886029952,1925
3089.4606182756943,1777
3091.134397294544,1869
3092.807625183385,1890
3094.4803014651284,1916
3096.152425661755,1860
3097.8239972943097,1924
3099.49501588291,1787
3101.165480946741,1928
3102.8353920040518,1889
3104.504748572165,1978
3106.1735501674693,1904
3107.8417963054226,1878
3109.5094865005485,1879
3111.176620266441,1911
3112.8431971157625,1970
3114.5092165602427,1896
3116.1746781106813,1940
3117.839581276943,1939
3119.503925567965,1879
3121.167710491747,1972
3122.830935555364,1895
3124.493600264954,1894
3126.1557041257247,1898
3127.817246641952,1937
3129.478227316982,1971
3131.1386456532273,1914
3132.798501152168,1925
3134.4577933143537,1935
3136.116521639402,1934
3137.7746856259982,1952
3139.4322847718977,1959
3141.0893185739224,1898
3142.745786527962,1917
3144.4016881289754,1940
3146.0570228709903,1871
3147.711790247102,1876
3149.3659897494754,1931
3151.0196208693396,1960
3152.6726830969974,1905
3154.3251759218165,1927
3155.9770988322334,1849
3157.6284513157534,1886
3159.2792328589485,1933
3160.929442947461,1889
3162.579081066002,1829
3164.2281466983477,1883
3165.8766393273454,1818
3167.5245584349086,1924
3169.1719035020224,1887
3170.818674008735,1879
3172.4648694341677,1876
3174.110489256508,1891
3175.7555329530105,1909
3177.4000000000005,1935
3179.0438898728707,1903
3180.6872020460805,1901
3182.32993599316,1945
3183.972091186706,1946
3185.613667098384,1950
3187.254663198927,2008
3188.8950789581386,1941
3190.5349138448873,1905
3192.1741673271126,1841
3193.8128388718224,1937
3195.4509279450886,1931
3197.0884340120574,1855
3198.725356536939,1854
3200.361694983014,1868
3201.997448812629,1924
3203.632617487203,1887
3205.2672004672195,1918
3206.901197212229,1934
3208.5346071808563,1819
3210.167429830789,1887
3211.799664618785,1866
3213.4313110006706,1925
3215.0623684313387,1896
3216.692836364753,1939
3218.3227142539445,1968
3219.9520015510125,1886
3221.5806977071215,1854
3223.2088021725103,1933
3224.8363143964816,1868
3226.4632338274077,1912
3228.089559912728,1881
3229.715292098951,1845
3231.3404298316545,1898
3232.9649725554846,1883
3234.5889197141523,1913
3236.2122707504395,1885
3237.8350251061984,1849
3239.457182222345,1908
3241.0787415388677,1906
3242.6997024948187,1903
3244.3200645283223,1972
3245.9398270765696,1869
3247.558989575821,1878
3249.177551461403,1870
3250.7955121677123,1884
3252.412871128213,1882
3254.029627775437,1927
3255.6457815409867,1921
3257.2613318555286,1894
3258.876278148802,1896
3260.490619849613,1920
3262.1043563858348,1908
3263.717487184408,1883
3265.3300116713453,1856
3266.941929271725,1879
3268.5532394096917,1896
3270.1639415084646,1917
3271.7740349903233,1916
3273.383519276621,1900
3274.9923937877775,1892
3276.6006579432833,1904
3278.2083111616903,1890
3279.815352860627,1918
3281.421782456786,1939
3283.027599365927,1945
3284.632803002881,1966
3286.237392781545,2044
3287.841368114885,1912
3289.4447284149373,1939
3291.047473092801,1937
3292.649601558651,1858
3294.2511132217223,1960
3295.8520074903254,1895
3297.452283771835,1957
3299.051941472695,1882
3300.650979998417,1923
3302.2493987535827,1910
3303.8471971418403,1892
3305.4443745659064,1882
3307.0409304275654,1885
3308.636864127674,1940
3310.2321750661513,1992
3311.8268626419876,1913
3313.420926253242,1904
3315.01436529704,1883
3316.6071791695776,1908
3318.1993672661183,1900
3319.7909289809913,1872
3321.3818637075983,1927
3322.972170838406,1827
3324.561849764951,1917
3326.150899877838,1937
3327.7393205667386,1936
3329.3271112203956,1911
3330.9142712266166,1910
3332.5007999722793,1888
3334.08669684333,1919
3335.6719612247834,1920
3337.2565925007193,1890
3338.840590054291,1964
3340.4239532677157,1955
3342.006681522281,1970
3343.5887741983406,1994
3345.1702306753214,1927
3346.7510503317126,1932
3348.3312325450743,1958
3349.910776692037,1931
3351.4896821482953,1933
3353.0679482886153,1951
3354.645574486829,1968
3356.2225601158398,1947
3357.798904547615,1927
