CollectionTime,9/25/2024 11:12:22 AM
ExposureUsed,3
CalibratedSpectrum
-962.7078968117929,521
-959.9714848408522,561
-957.2358232597828,568
-954.5009119013725,572
-951.7667505983302,565
-949.0333391832855,590
-946.3006774887896,572
-943.5687653473143,612
-940.837602591253,560
-938.1071890529199,578
-935.3775245645503,524
-932.6486089583007,581
-929.9204420662485,569
-927.1930237203925,592
-924.4663537526524,579
-921.7404319948689,596
-919.0152582788041,560
-916.2908324361409,605
-913.5671542984834,612
-910.8442236973568,573
-908.1220404642074,589
-905.4006044304027,570
-902.679915427231,577
-899.959973285902,582
-897.2407778375464,545
-894.5223289132158,588
-891.8046263438832,556
-889.0876699604426,565
-886.3714595937089,565
-883.6559950744183,586
-880.9412762332282,572
-878.2273029007168,557
-875.5140749073835,540
-872.8015920836489,530
-870.0898542598545,555
-867.3788612662631,556
-864.6686129330585,583
-861.9591090903457,598
-859.2503495681506,553
-856.5423341964203,557
-853.8350628050229,536
-851.1285352237478,580
-848.4227512823054,574
-845.7177108103272,556
-843.0134136373656,570
-840.3098595928943,565
-837.6070485063082,604
-834.9049802069229,637
-832.2036545239757,622
-829.5030712866244,568
-826.8032303239481,562
-824.1041314649472,559
-821.4057745385428,576
-818.7081593735775,578
-816.0112857988148,588
-813.3151536429393,554
-810.6197627345566,583
-807.9251129021936,560
-805.2312039742981,559
-802.5380357792392,610
-799.8456081453069,613
-797.1539209007124,589
-794.462973873588,616
-791.772766891987,599
-789.083299783884,618
-786.3945723771743,593
-783.7065844996748,581
-781.0193359791231,578
-778.3328266431781,578
-775.6470563194197,587
-772.9620248353489,579
-770.2777320183878,603
-767.5941776958798,607
-764.9113616950891,580
-762.2292838432011,576
-759.5479439673222,561
-756.8673418944801,570
-754.1874774516235,589
-751.5083504656222,633
-748.8299607632671,597
-746.15230817127,594
-743.475392516264,621
-740.7992136248035,613
-738.1237713233636,619
-735.4490654383407,589
-732.7750957960521,608
-730.1018622227365,601
-727.4293645445534,609
-724.7576025875837,597
-722.0865761778291,603
-719.4162851412126,600
-716.7467293035781,644
-714.0779084906909,632
-711.409822528237,618
-708.7424712418238,601
-706.0758544569796,618
-703.4099719991541,632
-700.7448236937178,607
-698.0804093659622,600
-695.4167288411002,630
-692.7537819442656,664
-690.0915685005134,630
-687.4300883348199,647
-684.7693412720819,671
-682.1093271371178,665
-679.4500457546669,637
-676.7914969493897,648
-674.1336805458676,623
-671.4765963686034,629
-668.8202442420206,635
-666.1646239904642,646
-663.5097354382001,661
-660.8555784094151,632
-658.2021527282176,642
-655.5494582186366,684
-652.8974947046223,651
-650.2462620100463,680
-647.5957599587009,743
-644.9459883742998,661
-642.2969470804776,649
-639.6486359007902,643
-637.0010546587141,664
-634.3542031776476,666
-631.7080812809096,642
-629.0626887917401,630
-626.4180255333008,690
-623.7740913286734,677
-621.1308860008619,687
-618.4884093727904,675
-615.8466612673046,633
-613.2056415071715,697
-610.5653499150785,650
-607.9257863136347,681
-605.28695052537,744
-602.6488423727357,655
-600.0114616781036,668
-597.3748082637674,673
-594.7388819519412,726
-592.1036825647604,694
-589.4692099242818,643
-586.8354638524829,687
-584.2024441712624,738
-581.5701507024403,758
-578.9385832677575,706
-576.3077416888759,703
-573.6776257873787,705
-571.0482353847704,673
-568.4195703024757,681
-565.7916303618415,695
-563.164415384135,711
-560.5379251905453,690
-557.9121596021815,713
-555.2871184400748,724
-552.6628015251767,715
-550.0392086783606,698
-547.4163397204204,778
-544.794194472071,744
-542.1727727539491,764
-539.5520743866118,709
-536.9320991905377,760
-534.3128469861261,757
-531.6943175936979,783
-529.0765108334947,824
-526.4594265256793,873
-523.8430644903358,1001
-521.2274245474689,1097
-518.612506517005,1139
-515.9983102187913,1125
-513.3848354725959,1213
-510.77208209810846,1339
-508.16004991493924,1449
-505.5487387426199,1548
-502.9381484006032,1528
-500.3282787082628,1606
-497.71912948489364,1455
-495.1107005497117,1363
-492.5029917218539,1196
-489.8960028203786,1069
-487.28973366426493,953
-484.68418407241325,901
-482.07935386364494,871
-479.47524285670266,845
-476.87185087025,845
-474.2691777228715,866
-471.66722323307334,864
-469.0659872192821,926
-466.4654694998459,889
-463.86566989303384,918
-461.26658821703614,860
-458.66822428996414,870
-456.07057792985,851
-453.4736489546475,905
-450.877437182231,885
-448.28194243039627,860
-445.68716451686,863
-443.09310325926003,852
-440.49975847515555,809
-437.9071299820263,874
-435.31521759727354,829
-432.72402113821954,875
-430.13354042210767,945
-427.5437752661022,912
-424.95472548728867,917
-422.36639090267386,881
-419.7787713291855,893
-417.1918665836721,920
-414.60567648290385,987
-412.0202008435715,916
-409.4354394822874,910
-406.8513922155845,886
-404.26805885991723,947
-401.685439231661,929
-399.103533147112,918
-396.522340422488,938
-393.9418608739278,926
-391.3620943174908,915
-388.7830405691583,935
-386.2046994448317,905
-383.6270707603344,830
-381.05015433141045,806
-378.473949973725,802
-375.8984575028645,744
-373.32367673433623,687
-370.74960748356875,642
-368.1762495659117,666
-365.60360279663576,629
-363.03166699093265,580
-360.4604419639154,533
-357.8899275306178,510
-355.32012350599507,495
-352.7510297049233,524
-350.1826459421999,516
-347.61497203254316,487
-345.04800779059235,515
-342.4817530309082,509
-339.91620756797226,506
-337.35137121618743,491
-334.7872437898774,473
-332.22382510328725,472
-329.66111497058273,562
-327.09911320585127,577
-324.53781962310075,551
-321.9772340362607,551
-319.4173562591816,501
-316.8581861056348,501
-314.2997233893127,492
-311.7419679238294,518
-309.1849195227194,546
-306.62857799943856,549
-304.0729431673641,512
-301.51801483979375,534
-298.963792829947,523
-296.41027695096386,529
-293.85746701590574,584
-291.3053628377552,644
-288.7539642294155,654
-286.2032710037115,693
-283.65328297338897,658
-281.1039999511146,614
-278.5554217494762,647
-276.007548180983,718
-273.4603790580651,750
-270.9139141930734,815
-268.3681533982807,791
-265.8230964858798,762
-263.27874326798565,725
-260.7350935566336,685
-258.1921471637804,773
-255.6499039013039,812
-253.10836358100266,826
-250.56752601459698,677
-248.02739101372765,760
-245.48795838995704,824
-242.94922795476816,824
-240.41119951956557,715
-237.8738728956746,802
-235.33724789434166,893
-232.80132432673452,802
-230.2661020039418,743
-227.73158073697357,876
-225.19776033676033,895
-222.66464061415422,957
-220.1322213799284,885
-217.60050244477725,787
-215.06948361931552,804
-212.53916471408013,879
-210.00954553952818,993
-207.48062590603843,900
-204.9524056239104,797
-202.4248845033651,868
-199.8980623545441,1107
-197.37193898751036,1120
-194.84651421224817,996
-192.32178783866232,866
-189.79775967657952,905
-187.27442953574644,1045
-184.7517972258321,1111
-182.2298625564256,886
-179.7086253370378,752
-177.18808537710026,963
-174.66824248596583,1325
-172.14909647290835,1427
-169.6306471471229,1387
-167.11289431772548,1083
-164.59583779375328,984
-162.07947738416453,1259
-159.5638128978386,1605
-157.04884414357605,1803
-154.53457093009854,1944
-152.02099306604828,1594
-149.50811035998936,1344
-146.99592262040665,1246
-144.48442965570587,1438
-141.97363127421409,1703
-139.46352728417958,1751
-136.95411749377126,1838
-134.44540171107985,1674
-131.93737974411636,1481
-129.43005140081357,1304
-126.92341648902493,1931
-124.41747481652521,2446
-121.91222619101006,2749
-119.40767042009657,3270
-116.90380731132257,4120
-114.40063667214702,4083
-111.8981583099503,3259
-109.3963720320337,2929
-106.89527764561933,3479
-104.39487495785067,4411
-101.89516377579241,6103
-99.39614390642998,8306
-96.89781515667039,10059
-94.40017733334128,11084
-91.90323024319173,7762
-89.40697369289148,4784
-86.91140748903172,3678
-84.41653143812482,3848
-81.92234534660395,4471
-79.42884902082358,6647
-76.93604226705907,7661
-74.4439248915071,7821
-71.95249670028534,7292
-69.46175749943245,7496
-66.97170709490854,9018
-64.48234529259423,12257
-61.99367189829195,16168
-59.50568671772464,19472
-57.01838955653636,23719
-54.53178022029283,28059
-52.045858514480074,29798
-49.560624244506016,30160
-47.07607721569923,29199
-44.59221723330904,25423
-42.10904410250669,21618
-39.62655762838392,19277
-37.14475761595372,19330
-34.66364387015028,20396
-32.18321619582866,25316
-29.70347439776515,28496
-27.224418280657005,31710
-24.74604764912317,39231
-22.26836230770266,58834
-19.7913620608565,65041
-17.315046712966478,65041
-14.83941606833514,65041
-12.36446993118659,65041
-9.89020810566592,65041
-7.416630395839093,65041
-4.94373660569363,65041
-2.471526539137585,65041
-6.821210263296962E-13,65041
2.47084320796705,65041
4.941003281093458,65041
7.410480415786196,65041
9.879274808531363,65041
12.347386655893956,65041
14.814816154518212,65041
17.28156350112681,65041
19.74762889252179,65041
22.21301252558385,65041
24.67771459727237,19931
27.141735304626195,5086
29.605074844762612,4307
32.06773341487792,3678
34.52971121224755,3235
36.99100843422559,3442
39.45162527824516,3647
41.91156194181792,3899
44.370818622535126,3731
46.82939551806646,3419
49.287292826160524,3100
51.74451074464503,2720
54.201049471426245,2678
56.65690920448981,2831
59.112090141899785,2733
61.56659248179983,2975
64.02041642241159,2554
66.4735621620365,2418
68.92602989905402,2665
71.37781983192338,2839
73.82893215918205,2328
76.27936707944684,2063
78.72912479141326,1868
81.17820549385567,2041
83.62660938562783,2140
86.07433666566146,1769
88.5213875329681,1892
90.96776218663751,2436
93.41346082583925,2342
95.85848364982041,1845
98.30283085790859,1395
100.7465026495089,1510
103.18949922410604,1720
105.63182078126385,1695
108.07346752062438,1658
110.51443964190923,1406
112.95473734491827,1225
115.39436082953114,1219
117.83331029570547,1501
120.27158594347827,1688
122.7091879729652,1586
125.1461165843615,1657
127.58237197794062,1585
130.01795435405518,1483
132.4528639131364,1300
134.88710085569494,1249
137.32066538231982,1519
139.75355769367923,1291
142.1857779905207,1297
144.61732647366978,1359
147.04820334403132,1386
149.47840880258934,1371
151.90794305040674,1245
154.33680628862487,1264
156.76499871846443,1416
159.19252054122433,1581
161.61937195828352,1497
164.04555317109896,1527
166.47106438120693,1778
168.89590579022217,2024
171.320077599839,2081
173.7435800118302,2134
176.16641322804742,2157
178.58857745042144,2232
181.01007288096173,2265
183.43089972175687,2253
185.85105817497413,2314
188.27054844285988,2178
190.6893707277394,2281
193.10752523201643,2350
195.5250121581745,2466
197.9418317087751,2366
200.3579840864594,2224
202.7734694939469,2326
205.18828813403627,2410
207.6024402096051,2556
210.01592592360964,2493
212.42874547908548,2607
214.84089907914665,2487
217.2523869269868,2377
219.66320922587727,2460
222.0733661791695,2457
224.48285799029293,2508
226.8916848627572,2393
229.29984700014882,2609
231.7073446061355,2658
234.11417788446204,2543
236.520347038953,2711
238.92585227351185,2476
241.33069379212054,2608
243.73487179884035,2634
246.1383864978112,2720
248.541238093252,2741
250.9434267894609,2816
253.34495279081432,2902
255.74581630176783,2841
258.1460175268563,2805
260.54555667069314,2809
262.9444339379703,2784
265.3426495334594,2811
267.7402036620107,2725
270.1370965285529,2653
272.53332833809407,2644
274.9288992957214,2528
277.32380960660055,2487
279.718059475976,2330
282.1116491091717,2293
284.5045787115897,2424
286.89684848871195,2310
289.2884586460981,2304
291.67940938938807,2294
294.0697009242996,2285
296.4593334566299,2341
298.84830719225477,2411
301.23662233712923,2305
303.6242790972866,2233
306.01127767884,2230
308.39761828798066,2200
310.78330113097934,2213
313.16832641418534,2096
315.5526943440269,2050
317.9364051270112,2158
320.3194589697242,2087
322.70185607883093,2079
325.0835966610754,2050
327.4646809232805,1986
329.8451090723478,1950
332.2248813152577,1999
334.6039978590701,1980
336.9824589109231,1994
339.36026467803447,1972
341.7374153677,1899
344.113911187295,1894
346.48975234427337,1891
348.8649390461686,1932
351.2394715005918,1880
353.61334991523415,1917
355.9865744978655,1864
358.35914545633375,1865
360.73106299856715,1896
363.10232733257146,1872
365.47293866643247,1870
367.84289720831396,1765
370.2122031664593,1824
372.5808567491905,1960
374.9488581649083,1863
377.31620762209275,1857
379.6829053293021,1809
382.0489514951745,1826
384.4143463284262,1770
386.7790900378528,1770
389.14318283232853,1820
391.50662492080653,1749
393.86941651231916,1882
396.23155781597745,1805
398.5930490409713,1884
400.9538903965696,1909
403.3140820921202,1842
405.6736243370498,1764
408.03251734086336,1782
410.3907613131465,1779
412.74835646356166,1769
415.10530300185144,1784
417.4616011378372,1808
419.81725108141893,1718
422.1722530425758,1829
424.5266072313656,1790
426.880313857925,1877
429.2333731324701,1770
431.58578526529516,1673
433.9375504667738,1648
436.2886689473588,1733
438.63914091758113,1737
440.9889665880513,1658
443.33814616945835,1769
445.68667987257015,1751
448.03456790823395,1676
450.3818104873759,1742
452.72840782100013,1683
455.07436012019105,1733
457.41966759611057,1686
459.7643304600007,1679
462.10834892318155,1639
464.4517231970525,1646
466.79445349309174,1704
469.1365400228566,1744
471.4779829979826,1678
473.81878263018564,1685
476.15893913125876,1729
478.4984527130747,1754
480.8373235875855,1723
483.17555196682144,1839
485.5131380628919,1800
487.8500820879857,1888
490.1863842543697,1982
492.52204477439034,2078
494.8570638604725,2263
497.1914417251204,2438
499.52517858091653,2779
501.85827464052306,3080
504.19073011668036,3299
506.5225452222086,3432
508.85372017000566,3330
511.18425517304956,3281
513.514150444396,3435
515.8434061971808,4309
518.1720226446176,4889
520.4999999999999,5056
522.8273384766991,4871
525.1540382881666,4421
527.480099647932,3920
529.8055227696037,3131
532.1303078668694,2386
534.454455153496,1984
536.777964843328,1852
539.1008371502907,1833
541.4230722883866,1737
543.744670471698,1713
546.0656319143858,1713
548.3859568306899,1721
550.7056454349294,1714
553.0246979415016,1634
555.3431145648834,1706
557.6608955196306,1669
559.978041020377,1663
562.2945512818363,1752
564.6104265188006,1684
566.9256669461412,1688
569.2402727788082,1683
571.5542442318302,1746
573.8675815203156,1724
576.1802848594508,1771
578.4923544645015,1751
580.8037905508126,1714
583.114593333807,1660
585.4247630289875,1695
587.7342998519354,1704
590.0432040183106,1721
592.3514757438526,1692
594.6591152443794,1718
596.9661227357875,1767
599.2724984340531,1759
601.578242555231,1648
603.8833553154542,1646
606.1878369309362,1647
608.4916876179676,1684
610.7949075929192,1674
613.0974970722403,1738
615.3994562724587,1727
617.7007854101818,1743
620.0014847020951,1738
622.3015543649641,1722
624.6009946156324,1729
626.8998056710224,1693
629.1979877481361,1658
631.4955410640538,1748
633.7924658359349,1747
636.0887622810175,1632
638.3844306166192,1701
640.6794710601358,1791
642.9738838290426,1736
645.2676691408932,1736
647.5608272133207,1741
649.853358264037,1704
652.1452625108324,1710
654.4365401715764,1744
656.7271914642178,1767
659.0172166067838,1795
661.3066158173809,1783
663.5953893141935,1831
665.8835373154867,1764
668.1710600396028,1819
670.4579577049639,1784
672.7442305300709,1820
675.0298787335033,1736
677.3149025339197,1768
679.599302150058,1813
681.8830778007342,1730
684.1662297048437,1687
686.4487580813608,1741
688.7306631493387,1798
691.0119451279091,1796
693.2926042362834,1708
695.5726406937516,1785
697.8520547196814,1730
700.1308465335215,1771
702.4090163547982,1680
704.6865644031171,1712
706.9634908981619,1709
709.2397960596965,1770
711.5154801075631,1681
713.7905432616823,1809
716.0649857420548,1775
718.3388077687592,1749
720.612009561953,1626
722.8845913418733,1745
725.1565533288352,1711
727.427895743234,1714
729.6986188055427,1701
731.9687227363137,1698
734.238207756178,1693
736.5070740858458,1682
738.7753219461066,1754
741.0429515578281,1763
743.3099631419569,1714
745.5763569195191,1712
747.8421331116193,1671
750.1072919394409,1737
752.3718336242467,1736
754.6357583873777,1784
756.8990664502545,1750
759.1617580343765,1753
761.423833361321,1746
763.6852926527457,1791
765.9461361303862,1770
768.206364016058,1764
770.4659765316536,1711
772.7249738991469,1756
774.9833563405886,1745
777.2411240781092,1796
779.4982773339183,1740
781.7548163303044,1744
784.010741289634,1773
786.2660524343538,1837
788.5207499869881,1753
790.7748341701416,1848
793.0283052064964,1750
795.2811633188143,1710
797.5334087299362,1763
799.7850416627813,1790
802.0360623403484,1834
804.2864709857143,1813
806.5362678220353,1772
808.7854530725468,1805
811.0340269605625,1760
813.2819897094754,1766
815.5293415427581,1806
817.77608268396,1805
820.0222133567116,1775
822.2677337847211,1741
824.5126441917765,1790
826.7569448017433,1798
829.0006358385675,1813
831.2437175262731,1782
833.4861900889629,1743
835.7280537508192,1756
837.9693087361026,1723
840.2099552691533,1721
842.4499935743896,1755
844.689423876309,1775
846.9282463994886,1745
849.1664613685833,1766
851.4040690083276,1768
853.6410695435349,1756
855.877463199097,1770
858.1132501999847,1797
860.3484307712487,1816
862.5830051380175,1808
864.8169735254988,1787
867.0503361589791,1860
869.2830932638243,1801
871.5152450654786,1760
873.7467917894654,1763
875.9777336613873,1759
878.2080709069252,1802
880.4378037518389,1808
882.666932421968,1792
884.8954571432301,1817
887.1233781416219,1907
889.3506956432192,1803
891.5774098741766,1781
893.803521060728,1829
896.0290294291852,1780
898.2539352059397,1866
900.4782386174619,1823
902.7019398903011,1893
904.925039251085,1836
907.147536926521,1854
909.3694331433943,1822
911.59072812857,1804
913.8114221089921,1873
916.0315153116827,1840
918.2510079637437,1821
920.4699002923547,1807
922.6881925247761,1763
924.905884888345,1825
927.1229776104793,1785
929.3394709186747,1780
931.555365040506,1746
933.7706602036275,1785
935.9853566357709,1804
938.1994545647489,1842
940.4129542184515,1819
942.6258558248488,1841
944.8381596119883,1810
947.0498658079974,1814
949.2609746410825,1876
951.4714863395287,1872
953.6814011316998,1825
955.8907192460387,1749
958.0994409110671,1768
960.3075663553858,1840
962.5150958076741,1803
964.7220294966913,1813
966.928367651274,1797
969.1341105003388,1838
971.3392582728806,1780
973.5438111979742,1740
975.747769504772,1729
977.9511334225061,1771
980.153903180487,1690
982.3560790081052,1754
984.5576611348289,1702
986.7586497902058,1703
988.9590452038618,1672
991.158847605503,1622
993.3580572249133,1649
995.5566742919558,1632
997.7546990365728,1569
999.952131688785,1580
1002.1489724786926,1583
1004.3452216364743,1571
1006.5408793923874,1503
1008.7359459767691,1520
1010.9304216200343,1503
1013.1243065526781,1456
1015.3176010052733,1539
1017.510305208472,1521
1019.7024193930064,1527
1021.8939437896848,1546
1024.0848786293977,1515
1026.2752241431122,1518
1028.4649805618747,1562
1030.6541481168115,1490
1032.842727039127,1476
1035.0307175601051,1470
1037.2181199111074,1457
1039.4049343235752,1519
1041.591161029029,1501
1043.7768002590683,1488
1045.9618522453698,1542
1048.1463172196918,1410
1050.3301954138697,1494
1052.513487059818,1543
1054.69619238953,1461
1056.8783116350783,1456
1059.0598450286152,1499
1061.2407928023704,1426
1063.4211551886528,1450
1065.6009324198508,1428
1067.780124728432,1417
1069.9587323469414,1492
1072.1367555080046,1459
1074.314194444325,1432
1076.4910493886855,1407
1078.667320573947,1448
1080.843008233051,1415
1083.0181125990161,1458
1085.1926339049414,1406
1087.3665723840027,1450
1089.5399282694575,1460
1091.7127017946405,1420
1093.8848931929647,1402
1096.0565026979243,1464
1098.2275305430899,1397
1100.3979769621128,1420
1102.567842188722,1370
1104.737126456726,1407
1106.9058300000124,1378
1109.0739530525475,1386
1111.2414958483764,1370
1113.4084586216231,1405
1115.5748416064907,1430
1117.7406450372605,1477
1119.9058691482942,1427
1122.0705141740304,1397
1124.2345803489884,1432
1126.3980679077658,1429
1128.5609770850388,1426
1130.7233081155623,1371
1132.8850612341707,1349
1135.0462366757774,1384
1137.2068346753745,1291
1139.3668554680326,1458
1141.526299288901,1392
1143.68516637321,1380
1145.8434569562655,1333
1148.001171273455,1336
1150.158309560244,1359
1152.3148720521767,1397
1154.470858984876,1348
1156.626270594044,1423
1158.7811071154629,1413
1160.9353687849912,1399
1163.089055838569,1383
1165.242168512213,1307
1167.3947070420209,1355
1169.5466716641677,1340
1171.6980626149075,1363
1173.8488801305748,1365
1175.9991244475814,1386
1178.1487958024186,1393
1180.2978944316555,1353
1182.4464205719428,1334
1184.5943744600072,1375
1186.7417563326567,1395
1188.8885664267755,1365
1191.0348049793297,1350
1193.1804722273619,1402
1195.325568407995,1332
1197.4700937584303,1394
1199.614048515948,1380
1201.7574329179074,1371
1203.900247201746,1410
1206.042491604982,1354
1208.1841663652099,1319
1210.3252717201053,1360
1212.465807907422,1355
1214.6057751649923,1409
1216.7451737307279,1399
1218.8840038426192,1399
1221.0222657387353,1413
1223.1599596572241,1431
1225.2970858363137,1335
1227.4336445143094,1447
1229.5696359295966,1370
1231.705060320639,1416
1233.8399179259786,1423
1235.9742089842384,1466
1238.107933734118,1411
1240.2410924143974,1424
1242.373685263935,1437
1244.5057125216676,1475
1246.6371744266116,1445
1248.7680712178621,1413
1250.898403134593,1442
1253.028170416058,1452
1255.1573733015875,1441
1257.2860120305932,1447
1259.4140868425648,1492
1261.54159797707,1458
1263.6685456737569,1469
1265.7949301723515,1508
1267.9207517126597,1454
1270.046010534565,1415
1272.1707068780306,1513
1274.2948409830983,1512
1276.4184130898889,1471
1278.541423438603,1531
1280.6638722695184,1476
1282.785759822993,1513
1284.9070863394636,1525
1287.0278520594447,1534
1289.1480572235314,1538
1291.2677020723963,1565
1293.3867868467923,1590
1295.5053117875495,1524
1297.623277135579,1568
1299.740683131868,1592
1301.8575300174857,1563
1303.973818033578,1551
1306.0895474213703,1622
1308.2047184221678,1634
1310.3193312773528,1651
1312.4333862283888,1689
1314.5468835168163,1593
1316.659823384255,1663
1318.7722060724045,1681
1320.8840318230418,1689
1322.9953008780249,1671
1325.1060134792888,1718
1327.2161698688478,1678
1329.3257702887959,1757
1331.4348149813054,1707
1333.5433041886276,1675
1335.6512381530933,1710
1337.7586171171101,1764
1339.8654413231675,1618
1341.9717110138317,1612
1344.0774264317488,1625
1346.1825878196432,1599
1348.2871954203192,1546
1350.3912494766587,1609
1352.4947502316231,1597
1354.5976979282532,1623
1356.7000928096686,1623
1358.8019351190665,1584
1360.9032250997243,1579
1363.0039629949988,1644
1365.1041490483235,1637
1367.2037835032133,1617
1369.3028666032606,1531
1371.401398592137,1564
1373.4993797135926,1593
1375.5968102114575,1592
1377.6936903296396,1572
1379.7900203121262,1590
1381.8858004029835,1559
1383.9810308463561,1552
1386.075711886469,1528
1388.1698437676241,1623
1390.2634267342032,1575
1392.356461030667,1623
1394.4489469015557,1612
1396.5408845914872,1524
1398.6322743451592,1558
1400.7231164073469,1572
1402.813411022907,1597
1404.903158436773,1584
1406.9923588939578,1608
1409.0810126395531,1569
1411.1691199187303,1638
1413.2566809767386,1650
1415.343696058907,1648
1417.4301654106425,1606
1419.5160892774315,1709
1421.6014679048399,1605
1423.6863015385125,1698
1425.7705904241707,1735
1427.8543348076178,1703
1429.9375349347342,1702
1432.0201910514802,1800
1434.102303403894,1713
1436.1838722380944,1788
1438.2648978002767,1713
1440.3453803367174,1711
1442.4253200937692,1844
1444.5047173178677,1785
1446.5835722555234,1831
1448.6618851533285,1768
1450.739656257952,1770
1452.8168858161434,1845
1454.8935740747306,1855
1456.96972128062,1926
1459.045327680797,1886
1461.120393522327,1925
1463.1949190523528,1952
1465.2689045180973,2030
1467.3423501668608,2052
1469.415256246024,2087
1471.4876230030463,2027
1473.559450685465,2109
1475.6307395408976,2130
1477.7014898170391,2181
1479.771701761665,2126
1481.8413756226287,2160
1483.9105116478618,2242
1485.9791100853772,2173
1488.0471711832643,2240
1490.1146951896926,2224
1492.1816823529098,2238
1494.2481329212433,2292
1496.3140471430984,2230
1498.3794252669609,2399
1500.4442675413939,2438
1502.5085742150404,2381
1504.572345536622,2376
1506.6355817549388,2367
1508.6982831188702,2334
1510.7604498773744,2382
1512.8220822794883,2396
1514.8831805743293,2450
1516.9437450110909,2461
1519.003775839048,2577
1521.0632733075522,2538
1523.1222376660367,2512
1525.1806691640113,2592
1527.2385680510652,2495
1529.2959345768668,2555
1531.3527689911643,2590
1533.4090715437833,2516
1535.4648424846291,2685
1537.5200820636855,2622
1539.5747905310159,2657
1541.6289681367616,2772
1543.6826151311434,2749
1545.7357317644614,2829
1547.7883182870937,2832
1549.8403749494987,2807
1551.8919020022113,2894
1553.9428996958477,2943
1555.9933682811015,3053
1558.0433080087469,3112
1560.0927191296346,3164
1562.1416018946961,3208
1564.1899565549415,3180
1566.2377833614592,3276
1568.2850825654164,3226
1570.3318544180606,3193
1572.3780991707158,3178
1574.423817074788,3051
1576.4690083817595,2898
1578.5136733431923,2818
1580.5578122107272,2767
1582.601425236085,2637
1584.6445126710646,2576
1586.6870747675434,2456
1588.7291117774776,2463
1590.7706239529034,2323
1592.8116115459347,2249
1594.8520748087658,2278
1596.8920139936686,2173
1598.9314293529933,2067
1600.9703211391711,2052
1603.008689604711,1964
1605.0465350022005,1876
1607.0838575843068,1834
1609.1206576037753,1855
1611.1569353134305,1803
1613.1926909661765,1765
1615.2279248149953,1724
1617.2626371129481,1718
1619.2968281131757,1625
1621.3304980688963,1666
1623.3636472334088,1623
1625.39627586009,1598
1627.428384202396,1601
1629.459972513861,1604
1631.4910410480993,1616
1633.5215900588028,1528
1635.551619799744,1541
1637.5811305247717,1524
1639.6101224878166,1518
1641.6385959428862,1534
1643.6665511440683,1513
1645.693988345528,1441
1647.7209078015112,1463
1649.7473097663405,1473
1651.7731944944203,1466
1653.7985622402307,1491
1655.823413258333,1459
1657.847747803366,1498
1659.8715661300494,1411
1661.8948684931793,1430
1663.9176551476316,1422
1665.9399263483624,1391
1667.9616823504057,1421
1669.982923408873,1451
1672.0036497789574,1408
1674.0238617159293,1405
1676.043559475138,1432
1678.0627433120121,1459
1680.081413482059,1346
1682.0995702408654,1439
1684.117213844096,1392
1686.134344547495,1459
1688.1509626068864,1433
1690.1670682781705,1369
1692.182661817329,1424
1694.1977434804217,1368
1696.2123135235875,1398
1698.226372203043,1365
1700.2399197750851,1414
1702.2529564960905,1426
1704.2654826225112,1422
1706.277498410882,1404
1708.2890041178139,1362
1710.2999999999988,1380
1712.3104863142066,1462
1714.3204633172854,1383
1716.329931266163,1412
1718.3388904178469,1384
1720.3473410294214,1338
1722.3552833580516,1402
1724.3627176609807,1380
1726.3696441955308,1339
1728.3760632191033,1352
1730.3819749891782,1374
1732.3873797633146,1379
1734.3922777991502,1368
1736.3966693544012,1377
1738.4005546868639,1320
1740.4039340544127,1331
1742.406807715001,1342
1744.4091759266616,1362
1746.4110389475054,1326
1748.4123970357223,1304
1750.413250449582,1313
1752.4135994474318,1322
1754.4134442876993,1294
1756.4127852288902,1356
1758.4116225295893,1279
1760.4099564484595,1269
1762.407787244244,1293
1764.405115175764,1290
1766.4019405019203,1390
1768.3982634816916,1328
1770.3940843741357,1347
1772.3894034383907,1300
1774.3842209336717,1303
1776.378537119274,1322
1778.372352254571,1287
1780.3656665990156,1313
1782.3584804121397,1302
1784.3507939535534,1265
1786.3426074829463,1258
1788.3339212600863,1260
1790.3247355448211,1284
1792.3150505970766,1250
1794.3048666768573,1274
1796.2941840442477,1270
1798.2830029594106,1276
1800.2713236825884,1276
1802.2591464741004,1285
1804.2464715943465,1277
1806.2332993038058,1205
1808.2196298630352,1244
1810.2054635326708,1285
1812.190800573428,1281
1814.175641246101,1241
1816.1599858115628,1239
1818.1438345307652,1269
1820.127187664738,1324
1822.1100454745924,1278
1824.092408221516,1317
1826.0742761667766,1271
1828.055649571721,1273
1830.0365286977735,1259
1832.0169138064398,1266
1833.9968051593014,1265
1835.9762030180214,1296
1837.9551076443408,1277
1839.9335193000788,1238
1841.9114382471344,1322
1843.888864747485,1286
1845.8657990631878,1282
1847.842241456378,1325
1849.8181921892697,1236
1851.7936515241558,1247
1853.7686197234098,1258
1855.7430970494815,1272
1857.7170837649014,1238
1859.6905801322787,1241
1861.6635864143004,1232
1863.6361028737338,1277
1865.608129773424,1282
1867.5796673762961,1274
1869.5507159453537,1293
1871.521275743678,1301
1873.4913470344313,1317
1875.4609300808534,1338
1877.4300251462632,1267
1879.3986324940588,1276
1881.366752387717,1333
1883.3343850907936,1321
1885.3015308669228,1280
1887.268189979819,1310
1889.2343626932739,1315
1891.2000492711595,1295
1893.1652499774254,1323
1895.1299650761011,1292
1897.0941948312952,1288
1899.0579395071945,1303
1901.0211993680641,1326
1902.98397467825,1307
1904.9462657021745,1301
1906.9080727043415,1360
1908.869395949332,1281
1910.8302357018065,1301
1912.790592226504,1372
1914.7504657882428,1313
1916.7098566519212,1276
1918.6687650825133,1302
1920.6271913450764,1269
1922.5851357047422,1295
1924.5425984267245,1340
1926.499579776314,1303
1928.4560800188833,1305
1930.4120994198802,1331
1932.367638244833,1328
1934.32269675935,1272
1936.2772752291175,1340
1938.231373919899,1316
1940.1849930975404,1373
1942.1381330279637,1333
1944.0907939771696,1354
1946.0429762112412,1302
1947.9946799963363,1273
1949.9459055986945,1315
1951.896653284633,1265
1953.8469233205478,1225
1955.7967159729142,1264
1957.7460315082863,1265
1959.6948701932974,1269
1961.6432322946594,1284
1963.5911180791632,1276
1965.5385278136787,1240
1967.4854617651545,1249
1969.4319202006182,1275
1971.377903387176,1297
1973.3234115920136,1261
1975.268445082395,1270
1977.2130041256642,1278
1979.1570889892423,1206
1981.1006999406304,1228
1983.04383724741,1228
1984.986501177238,1250
1986.928691997853,1219
1988.8704099770712,1244
1990.811655382789,1238
1992.7524284829801,1241
1994.692729545698,1318
1996.6325588390755,1268
1998.5719166313224,1208
2000.5108031907307,1285
2002.4492187856677,1219
2004.387163684583,1244
2006.3246381560011,1242
2008.2616424685298,1220
2010.1981768908527,1206
2012.1342416917332,1233
2014.069837140014,1201
2016.0049635046162,1188
2017.9396210545406,1196
2019.8738100588666,1237
2021.8075307867502,1165
2023.740783507431,1227
2025.6735684902228,1235
2027.6058860045214,1240
2029.5377363198004,1169
2031.4691197056118,1248
2033.4000364315875,1270
2035.3304867674374,1260
2037.260470982952,1257
2039.189989347998,1205
2041.1190421325232,1263
2043.047629606554,1248
2044.9757520401945,1234
2046.9034097036288,1216
2048.8306028671195,1198
2050.7573318010086,1166
2052.683596775716,1224
2054.609398061742,1239
2056.5347359296647,1213
2058.4596106501403,1236
2060.384022493906,1234
2062.3079717317764,1212
2064.231458634646,1211
2066.1544834734873,1286
2068.077046519352,1267
2069.99914804337,1261
2071.9207883167524,1251
2073.8419676107865,1223
2075.7626861968406,1253
2077.6829443463607,1274
2079.6027423308715,1252
2081.522080421977,1173
2083.440958891362,1261
2085.359378010786,1271
2087.2773380520907,1253
2089.194839287196,1277
2091.111881988101,1227
2093.0284664268825,1248
2094.9445928756973,1227
2096.86026160678,1273
2098.775472892446,1227
2100.690227005088,1219
2102.604524217178,1237
2104.5183648012676,1226
2106.431749029985,1229
2108.34467717604,1200
2110.2571495122206,1278
2112.169166311393,1231
2114.080727846503,1202
2115.9918343905747,1249
2117.902486216711,1303
2119.8126835980956,1187
2121.722426807987,1235
2123.6317161197285,1226
2125.5405518067364,1192
2127.448934142509,1278
2129.356863400624,1250
2131.264339854737,1259
2133.1713637785815,1283
2135.077935445972,1258
2136.9840551308002,1212
2138.889723107037,1276
2140.7949396487334,1260
2142.699705030018,1277
2144.6040195250994,1315
2146.507883408264,1276
2148.4112969538774,1215
2150.3142604363848,1184
2152.2167741303097,1240
2154.1188383102535,1199
2156.0204532508997,1225
2157.9216192270064,1243
2159.822336513414,1198
2161.7226053850413,1326
2163.622426116884,1236
2165.5217989840185,1235
2167.4207242616,1292
2169.319202224862,1247
2171.2172331491165,1267
2173.1148173097563,1241
2175.0119549822507,1303
2176.90864644215,1255
2178.8048919650823,1238
2180.7006918267534,1230
2182.596046302952,1243
2184.4909556695407,1260
2186.3854202024645,1259
2188.279440177746,1270
2190.173015871487,1253
2192.066147559868,1242
2193.958835519149,1256
2195.851080025667,1281
2197.7428813558417,1276
2199.6342397861667,1308
2201.5251555932186,1263
2203.415629053651,1277
2205.3056604441986,1245
2207.19525004167,1292
2209.084398122958,1227
2210.9731049650327,1316
2212.861370844941,1292
2214.749196039812,1237
2216.636580826851,1281
2218.523525483344,1259
2220.410030286655,1289
2222.296095514226,1273
2224.1817214435805,1287
2226.066908352319,1210
2227.951656518121,1191
2229.835966218746,1292
2231.71983773203,1314
2233.6032713358913,1300
2235.486267308324,1293
2237.3688259274036,1284
2239.2509474712824,1308
2241.132632218193,1257
2243.013880446447,1254
2244.8946924344323,1271
2246.7750684606203,1272
2248.6550088035574,1261
2250.534513741871,1273
2252.413583554265,1275
2254.292218519526,1300
2256.170418916517,1276
2258.0481850241786,1237
2259.925517121534,1239
2261.8024154876825,1240
2263.678880401803,1317
2265.5549121431536,1281
2267.430510991071,1294
2269.305677224971,1284
2271.180411124348,1249
2273.0547129687766,1301
2274.9285830379076,1270
2276.8020216114737,1258
2278.6750289692845,1252
2280.5476053912294,1300
2282.4197511572766,1301
2284.2914665474727,1197
2286.162751841943,1267
2288.0336073208937,1302
2289.904033264608,1318
2291.774029953448,1287
2293.6435976678554,1294
2295.5127366883517,1206
2297.381447295534,1273
2299.2497297700825,1232
2301.1175843927526,1224
2302.9850114443825,1237
2304.852011205885,1190
2306.7185839582553,1153
2308.5847299825664,1146
2310.4504495599676,1172
2312.3157429716925,1119
2314.1806104990483,1154
2316.0450524234247,1190
2317.9090690262888,1182
2319.772660589186,1194
2321.635827393742,1212
2323.498569721661,1148
2325.3608878547248,1156
2327.2227820747967,1178
2329.0842526638157,1193
2330.945299903803,1211
2332.805924076857,1140
2334.6661254651535,1172
2336.525904350951,1165
2338.3852610165827,1078
2340.244195744464,1132
2342.102708817088,1157
2343.9608005170253,1176
2345.8184711269287,1163
2347.675720929526,1184
2349.532550207628,1171
2351.38895924412,1228
2353.24494832197,1228
2355.100517724223,1216
2356.955667734004,1195
2358.810398634514,1227
2360.664710709037,1170
2362.5186042409337,1165
2364.3720795136437,1172
2366.225136810686,1191
2368.0777764156583,1129
2369.929998612237,1221
2371.7818036841777,1209
2373.633191915315,1217
2375.484163589562,1217
2377.3347189909114,1176
2379.184858403434,1192
2381.03458211128,1199
2382.8838903986775,1197
2384.732783549936,1215
2386.5812618494406,1181
2388.4293255816588,1210
2390.2769750311327,1187
2392.1242104824883,1216
2393.971032220427,1232
2395.8174405297295,1249
2397.6634356952563,1222
2399.509018001947,1234
2401.3541877348193,1139
2403.1989451789705,1163
2405.043290619576,1254
2406.8872243418905,1198
2408.730746631247,1197
2410.5738577730594,1197
2412.4165580528183,1208
2414.258847756095,1235
2416.100727168537,1221
2417.9421965758734,1237
2419.783256263912,1238
2421.623906518538,1176
2423.4641476257157,1257
2425.303979871491,1226
2427.143403541984,1283
2428.9824189233977,1194
2430.821026302012,1195
2432.6592259641866,1239
2434.497018196361,1191
2436.33440328505,1217
2438.171381516851,1207
2440.00795317844,1253
2441.844118556569,1242
2443.6798779380724,1267
2445.5152316098606,1222
2447.3501798589255,1237
2449.1847229723357,1193
2451.0188612372403,1227
2452.8525949408663,1218
2454.6859243705203,1229
2456.518849813587,1233
2458.3513715575314,1220
2460.183489889895,1227
2462.015205098301,1234
2463.8465174704493,1247
2465.67742729412,1222
2467.5079348571717,1226
2469.338040447542,1223
2471.1677443532476,1215
2472.9970468623833,1242
2474.825948263123,1263
2476.6544488437207,1220
2478.482548892508,1256
2480.310248697896,1240
2482.137548548374,1248
2483.9644487325118,1243
2485.790949538956,1267
2487.617051256433,1217
2489.44275417375,1180
2491.26805857979,1241
2493.0929647635157,1249
2494.917473013971,1250
2496.741583620276,1287
2498.5652968716304,1291
2500.3886130573137,1280
2502.2115324666834,1290
2504.0340553891765,1254
2505.856182114308,1352
2507.6779129316733,1274
2509.499248130945,1275
2511.3201880018764,1237
2513.140732834298,1228
2514.9608829181198,1318
2516.780638543331,1314
2518.6,1278
2520.418967578273,1334
2522.237541568376,1352
2524.0557222606144,1311
2525.8735099453706,1251
2527.6909049131086,1283
2529.507907454368,1315
2531.32451785977,1324
2533.140736420014,1341
2534.9565634258774,1264
2536.771999168218,1367
2538.5870439379714,1280
2540.4016980261526,1396
2542.2159617238544,1339
2544.02983532225,1352
2545.8433191125914,1365
2547.656413386209,1394
2549.4691184345115,1413
2551.2814345489874,1427
2553.093362021204,1464
2554.904901142808,1407
2556.716052205523,1399
2558.526815501153,1432
2560.3371913215824,1445
2562.147179958771,1435
2563.956781704761,1440
2565.7659968516705,1431
2567.5748256916986,1554
2569.3832685171224,1446
2571.1913256202984,1537
2572.9989972936614,1495
2574.806283829725,1510
2576.613185521084,1516
2578.4197026604074,1556
2580.2258355404483,1507
2582.031584454035,1480
2583.836949694077,1520
2585.6419315535613,1579
2587.4465303255533,1592
2589.2507463032002,1518
2591.0545797797245,1499
2592.8580310484303,1596
2594.6611004026995,1555
2596.463788135992,1581
2598.266094541849,1548
2600.0680199138874,1561
2601.869564545807,1560
2603.670728731383,1546
2605.4715127644704,1552
2607.2719169390048,1549
2609.071941548998,1515
2610.8715868885433,1528
2612.670853251811,1517
2614.469740933052,1477
2616.268250226594,1524
2618.0663814268455,1565
2619.864134828292,1562
2621.6615107255006,1502
2623.458509413115,1517
2625.2551311858597,1491
2627.0513763385347,1544
2628.8472451660223,1493
2630.6427379632833,1412
2632.4378550253564,1492
2634.232596647359,1428
2636.026963124488,1478
2637.8209547520187,1427
2639.6145718253065,1463
2641.407814639785,1361
2643.200683490966,1426
2644.9931786744414,1424
2646.7853004858807,1361
2648.577049221034,1453
2650.3684251757277,1393
2652.1594286458712,1368
2653.9500599274484,1403
2655.740319316525,1334
2657.5302071092437,1386
2659.3197236018286,1321
2661.10886909058,1390
2662.8976438718782,1373
2664.686048242183,1357
2666.4740824980327,1337
2668.2617469360443,1331
2670.0490418529134,1316
2671.8359675454153,1358
2673.622524310403,1317
2675.408712444811,1303
2677.1945322456495,1295
2678.979984010009,1279
2680.76506803506,1287
2682.5497846180497,1277
2684.334134056306,1228
2686.1181166472343,1289
2687.9017326883213,1253
2689.6849824771293,1199
2691.4678663113013,1263
2693.2503844885596,1214
2695.032537306705,1207
2696.8143250636167,1250
2698.5957480572542,1231
2700.3768065856534,1222
2702.1575009469316,1248
2703.937831439283,1236
2705.717798360982,1235
2707.4974020103837,1244
2709.276642685917,1221
2711.055520686095,1260
2712.834036309506,1194
2714.612189854819,1264
2716.389981620782,1197
2718.1674119062204,1206
2719.944481010041,1193
2721.721189231226,1237
2723.4975368688415,1183
2725.273524222027,1243
2727.0491515900053,1201
2728.824419272075,1181
2730.5993275676146,1197
2732.3738767760838,1169
2734.148067197016,1183
2735.921899130031,1197
2737.6953728748194,1224
2739.468488731156,1158
2741.2412469988926,1167
2743.0136479779617,1190
2744.785691968372,1188
2746.5573792702116,1165
2748.3287101836504,1190
2750.099685008934,1151
2751.870304046388,1150
2753.640567596418,1188
2755.4104759595057,1197
2757.1800294362156,1134
2758.949228327187,1114
2760.7180729331412,1172
2762.486563554877,1138
2764.254700493272,1129
2766.022484049284,1130
2767.789914523947,1149
2769.5569922183786,1195
2771.3237174337705,1145
2773.090090471394,1145
2774.8561116326036,1101
2776.6217812188274,1121
2778.3870995315756,1133
2780.1520668724356,1103
2781.9166835430747,1134
2783.6809498452394,1145
2785.444866080754,1162
2787.2084325515225,1090
2788.971649559527,1132
2790.73451740683,1134
2792.4970363955713,1165
2794.2592068279705,1123
2796.0210290063264,1142
2797.7825032330147,1153
2799.543629810493,1178
2801.304409041296,1143
2803.0648412280366,1182
2804.8249266734088,1175
2806.5846656801846,1102
2808.344058551212,1217
2810.1031055894246,1156
2811.8618070978273,1224
2813.6201633795085,1134
2815.378174737636,1153
2817.1358414754536,1210
2818.893163896285,1153
2820.6501423035334,1156
2822.4067770006814,1166
2824.1630682912883,1153
2825.9190164789957,1166
2827.6746218675207,1222
2829.429884760661,1159
2831.184805462294,1229
2832.9393842763743,1207
2834.693621506936,1246
2836.4475174580916,1182
2838.201072434034,1154
2839.954286739034,1156
2841.707160677441,1156
2843.459694553685,1159
2845.2118886722724,1136
2846.96374333779,1153
2848.7152588549034,1143
2850.4664355283567,1153
2852.217273662973,1182
2853.9677735636546,1164
2855.7179355353833,1135
2857.4677598832186,1149
2859.217246912299,1148
2860.9663969278427,1173
2862.715210235146,1158
2864.4636871395846,1154
2866.211827946614,1133
2867.9596329617652,1188
2869.7071024906536,1133
2871.4542368389684,1153
2873.20103631248,1191
2874.947501217038,1129
2876.6936318585695,1113
2878.4394285430812,1106
2880.1848915766604,1147
2881.9300212654707,1135
2883.6748179157553,1176
2885.4192818338374,1145
2887.1634133261173,1182
2888.907212699077,1128
2890.6506802592744,1154
2892.393816313348,1127
2894.1366211680142,1176
2895.8790951300693,1159
2897.621238506388,1112
2899.363051603925,1168
2901.1045347297118,1161
2902.8456881908596,1152
2904.58651229456,1170
2906.327007348081,1118
2908.067173658772,1147
2909.8070115340597,1107
2911.5465212814497,1163
2913.285703208527,1130
2915.0245576229563,1141
2916.7630848324807,1104
2918.5012851449196,1130
2920.2391588681758,1147
2921.976706310227,1155
2923.7139277791334,1170
2925.4508235830313,1132
2927.187394030137,1143
2928.923639428745,1116
2930.6595600872306,1155
2932.395156314046,1178
2934.1304284177218,1146
2935.8653767068713,1141
2937.6000014901815,1167
2939.3343030764227,1168
2941.068281774442,1105
2942.8019378931644,1121
2944.5352717415976,1112
2946.2682836288236,1193
2948.0009738640065,1147
2949.7333427563885,1173
2951.465390615289,1151
2953.1971177501086,1193
2954.9285244703265,1161
2956.6596110855,1157
2958.3903779052657,1101
2960.1208252393385,1102
2961.8509533975125,1132
2963.5807626896617,1125
2965.3102534257378,1172
2967.0394259157715,1111
2968.768280469873,1170
2970.496817398232,1150
2972.2250370111146,1123
2973.952939618869,1175
2975.6805255319196,1147
2977.4077950607707,1151
2979.134748516006,1160
2980.861386208289,1129
2982.587708448359,1118
2984.313715547037,1127
2986.039407815222,1130
2987.764785563891,1105
2989.489849104102,1182
2991.2145987469908,1100
2992.9390348037705,1141
2994.6631575857346,1146
2996.3869674042576,1131
2998.1104645707887,1123
2999.83364939686,1123
3001.5565221940783,1138
3003.2790832741334,1130
3005.0013329487924,1116
3006.7232715298996,1130
3008.4448993293804,1140
3010.166216659239,1110
3011.887223831558,1108
3013.607921158498,1149
3015.3283089522993,1135
3017.0483875252826,1210
3018.7681571898443,1153
3020.4876182584626,1106
3022.2067710436927,1120
3023.9256158581707,1158
3025.644153014609,1152
3027.362382825801,1136
3029.0803056046193,1088
3030.797921664012,1118
3032.5152313170106,1143
3034.2322348767225,1127
3035.9489326563353,1138
3037.665324969115,1121
3039.3814121284063,1171
3041.097194447633,1132
3042.812672240299,1114
3044.5278458199855,1132
3046.2427155003525,1104
3047.9572815951406,1145
3049.671544418167,1115
3051.38550428333,1126
3053.0991615046073,1153
3054.812516396051,1180
3056.5255692717974,1135
3058.2383204460575,1117
3059.9507702331257,1103
3061.662918947372,1096
3063.3747669032446,1155
3065.0863144152736,1141
3066.7975617980674,1096
3068.508509366309,1154
3070.219157434767,1105
3071.9295063182844,1168
3073.639556331785,1099
3075.3493077902704,1113
3077.058761008821,1126
3078.7679163025964,1084
3080.476773986837,1088
3082.1853343768594,1164
3083.89359778806,1144
3085.6015645359153,1151
3087.3092349359786,1103
3089.016609303884,1115
3090.7236879553434,1147
3092.4304712061476,1134
3094.136959372166,1101
3095.843152769349,1089
3097.5490517137237,1164
3099.2546565213966,1136
3100.959967508554,1136
3102.66498499146,1116
3104.3697092864577,1138
3106.0741407099695,1141
3107.778279578498,1075
3109.482126208622,1134
3111.1856809170004,1149
3112.8889440203716,1138
3114.5919158355528,1144
3116.294596679439,1121
3117.996986869006,1128
3119.6990867213062,1113
3121.4008965534726,1117
3123.102416682717,1117
3124.803647426329,1105
3126.5045891016784,1125
3128.205242026213,1156
3129.90560651746,1145
3131.605682893025,1120
3133.3054714705922,1133
3135.0049725679282,1210
3136.7041865028714,1083
3138.4031135933465,1160
3140.101754157353,1124
3141.800108512971,1115
3143.498176978357,1151
3145.1959598717494,1101
3146.8934575114636,1141
3148.5906702158954,1119
3150.2875983035183,1146
3151.9842420928853,1164
3153.680601902627,1197
3155.376678051456,1107
3157.07247085816,1136
3158.767980641609,1058
3160.463207720748,1142
3162.158152414606,1149
3163.8528150422862,1142
3165.5471959229726,1102
3167.2412953759303,1141
3168.9351137204976,1089
3170.628651276098,1111
3172.3219083622307,1108
3174.014885298474,1070
3175.707582404485,1148
3177.4000000000005,1133
3179.092138404835,1112
3180.7839979388846,1146
3182.47557892212,1104
3184.166881674594,1115
3185.8579065164386,1117
3187.5486537678626,1132
3189.2391237491547,1086
3190.9293167806827,1133
3192.6192331828934,1187
3194.3088732763117,1192
3195.998237381542,1108
3197.687325819268,1087
3199.376138910251,1106
3201.064676975334,1074
3202.7529403354347,1080
3204.4409293115523,1173
3206.1286442247647,1136
3207.816085396229,1095
3209.5032531471825,1121
3211.190147798936,1102
3212.8767696728846,1044
3214.5631190905015,1080
3216.2491963733373,1114
3217.9350018430214,1097
3219.6205358212637,1099
3221.305798629851,1099
3222.990790590651,1074
3224.6755120256103,1084
3226.359963256751,1101
3228.0441446061795,1063
3229.7280563960758,1118
3231.411698948703,1100
3233.0950725863995,1096
3234.778177631587,1091
3236.461014406761,1115
3238.1435832345005,1083
3239.8258844374595,1170
3241.507918338374,1142
3243.1896852600576,1124
3244.8711855254023,1084
3246.552419457381,1085
3248.233387379042,1105
3249.914089613516,1164
3251.59452648401,1124
3253.274698313813,1095
3254.95460542629,1112
3256.6342481448855,1094
3258.313626793125,1079
3259.9927416946084,1098
3261.6715931730196,1076
3263.3501815521176,1082
3265.0285071557437,1077
3266.706570307815,1088
3268.3843713323286,1115
3270.0619105533615,1099
3271.739188295068,1040
3273.4162048816834,1113
3275.0929606375184,1086
3276.769455886966,1067
3278.445690954498,1076
3280.1216661646613,1105
3281.797381842087,1101
3283.4728383114807,1074
3285.1480358976296,1082
3286.8229749253996,1085
3288.4976557197333,1071
3290.172078605655,1095
3291.846243908266,1113
3293.5201519527463,1143
3295.193803064357,1084
3296.8671975684374,1089
3298.5403357904024,1085
3300.21321805575,1079
3301.8858446900567,1035
3303.558216018975,1095
3305.23033236824,1081
3306.9021940636603,1111
3308.57380143113,1079
3310.2451547966184,1186
3311.916254486174,1170
3313.5871008259246,1104
3315.2576941420766,1081
3316.9280347609147,1099
3318.5981230088046,1078
3320.2679592121895,1098
3321.9375436975924,1113
3323.606876791612,1099
3325.27595882093,1089
3326.944790112305,1088
3328.6133709925753,1066
3330.2817017886573,1034
3331.949782827547,1092
3333.617614436319,1078
3335.2851969421245,1079
3336.952530672199,1092
3338.619615953853,1104
3340.286453114475,1115
3341.9530424815357,1105
3343.619384382583,1110
3345.2854791452437,1160
3346.951327097224,1131
3348.6169285663073,1089
3350.2822838803577,1055
3351.947393367319,1081
3353.61225735521,1104
3355.2768761721345,1076
3356.9412501462693,1061
3358.605379605873,1021
3360.2692648792827,1119
3361.9329062949146,1057
3363.596304181263,1085
