CollectionTime,9/25/2024 11:12:32 AM
ExposureUsed,3
CalibratedSpectrum
-962.7078968117929,589
-959.9714848408522,598
-957.2358232597828,615
-954.5009119013725,633
-951.7667505983302,618
-949.0333391832855,600
-946.3006774887896,588
-943.5687653473143,633
-940.837602591253,616
-938.1071890529199,640
-935.3775245645503,625
-932.6486089583007,616
-929.9204420662485,660
-927.1930237203925,645
-924.4663537526524,665
-921.7404319948689,661
-919.0152582788041,632
-916.2908324361409,681
-913.5671542984834,646
-910.8442236973568,611
-908.1220404642074,626
-905.4006044304027,662
-902.679915427231,632
-899.959973285902,632
-897.2407778375464,639
-894.5223289132158,590
-891.8046263438832,607
-889.0876699604426,591
-886.3714595937089,632
-883.6559950744183,605
-880.9412762332282,617
-878.2273029007168,594
-875.5140749073835,617
-872.8015920836489,591
-870.0898542598545,587
-867.3788612662631,574
-864.6686129330585,628
-861.9591090903457,621
-859.2503495681506,623
-856.5423341964203,601
-853.8350628050229,620
-851.1285352237478,608
-848.4227512823054,608
-845.7177108103272,634
-843.0134136373656,609
-840.3098595928943,599
-837.6070485063082,631
-834.9049802069229,656
-832.2036545239757,626
-829.5030712866244,636
-826.8032303239481,603
-824.1041314649472,600
-821.4057745385428,636
-818.7081593735775,633
-816.0112857988148,588
-813.3151536429393,614
-810.6197627345566,634
-807.9251129021936,634
-805.2312039742981,596
-802.5380357792392,603
-799.8456081453069,633
-797.1539209007124,628
-794.462973873588,643
-791.772766891987,654
-789.083299783884,637
-786.3945723771743,599
-783.7065844996748,621
-781.0193359791231,636
-778.3328266431781,655
-775.6470563194197,625
-772.9620248353489,635
-770.2777320183878,624
-767.5941776958798,647
-764.9113616950891,663
-762.2292838432011,611
-759.5479439673222,633
-756.8673418944801,625
-754.1874774516235,640
-751.5083504656222,668
-748.8299607632671,635
-746.15230817127,651
-743.475392516264,677
-740.7992136248035,663
-738.1237713233636,663
-735.4490654383407,628
-732.7750957960521,646
-730.1018622227365,630
-727.4293645445534,664
-724.7576025875837,631
-722.0865761778291,635
-719.4162851412126,693
-716.7467293035781,673
-714.0779084906909,644
-711.409822528237,649
-708.7424712418238,650
-706.0758544569796,684
-703.4099719991541,668
-700.7448236937178,648
-698.0804093659622,671
-695.4167288411002,679
-692.7537819442656,697
-690.0915685005134,672
-687.4300883348199,677
-684.7693412720819,709
-682.1093271371178,685
-679.4500457546669,687
-676.7914969493897,666
-674.1336805458676,716
-671.4765963686034,669
-668.8202442420206,707
-666.1646239904642,682
-663.5097354382001,720
-660.8555784094151,653
-658.2021527282176,687
-655.5494582186366,685
-652.8974947046223,696
-650.2462620100463,747
-647.5957599587009,745
-644.9459883742998,716
-642.2969470804776,736
-639.6486359007902,747
-637.0010546587141,723
-634.3542031776476,713
-631.7080812809096,676
-629.0626887917401,694
-626.4180255333008,705
-623.7740913286734,702
-621.1308860008619,721
-618.4884093727904,754
-615.8466612673046,722
-613.2056415071715,716
-610.5653499150785,724
-607.9257863136347,717
-605.28695052537,724
-602.6488423727357,730
-600.0114616781036,734
-597.3748082637674,747
-594.7388819519412,774
-592.1036825647604,723
-589.4692099242818,726
-586.8354638524829,732
-584.2024441712624,796
-581.5701507024403,777
-578.9385832677575,758
-576.3077416888759,764
-573.6776257873787,733
-571.0482353847704,699
-568.4195703024757,751
-565.7916303618415,756
-563.164415384135,765
-560.5379251905453,755
-557.9121596021815,770
-555.2871184400748,745
-552.6628015251767,726
-550.0392086783606,793
-547.4163397204204,799
-544.794194472071,795
-542.1727727539491,766
-539.5520743866118,792
-536.9320991905377,798
-534.3128469861261,867
-531.6943175936979,873
-529.0765108334947,867
-526.4594265256793,917
-523.8430644903358,1049
-521.2274245474689,1194
-518.612506517005,1151
-515.9983102187913,1208
-513.3848354725959,1231
-510.77208209810846,1344
-508.16004991493924,1491
-505.5487387426199,1568
-502.9381484006032,1620
-500.3282787082628,1578
-497.71912948489364,1488
-495.1107005497117,1371
-492.5029917218539,1221
-489.8960028203786,1149
-487.28973366426493,983
-484.68418407241325,929
-482.07935386364494,913
-479.47524285670266,928
-476.87185087025,979
-474.2691777228715,957
-471.66722323307334,966
-469.0659872192821,963
-466.4654694998459,930
-463.86566989303384,930
-461.26658821703614,850
-458.66822428996414,929
-456.07057792985,980
-453.4736489546475,984
-450.877437182231,911
-448.28194243039627,893
-445.68716451686,892
-443.09310325926003,868
-440.49975847515555,850
-437.9071299820263,898
-435.31521759727354,855
-432.72402113821954,926
-430.13354042210767,1017
-427.5437752661022,1005
-424.95472548728867,929
-422.36639090267386,923
-419.7787713291855,926
-417.1918665836721,925
-414.60567648290385,964
-412.0202008435715,992
-409.4354394822874,945
-406.8513922155845,993
-404.26805885991723,1009
-401.685439231661,957
-399.103533147112,975
-396.522340422488,964
-393.9418608739278,971
-391.3620943174908,977
-388.7830405691583,964
-386.2046994448317,941
-383.6270707603344,885
-381.05015433141045,840
-378.473949973725,857
-375.8984575028645,757
-373.32367673433623,680
-370.74960748356875,678
-368.1762495659117,639
-365.60360279663576,584
-363.03166699093265,576
-360.4604419639154,537
-357.8899275306178,527
-355.32012350599507,520
-352.7510297049233,507
-350.1826459421999,520
-347.61497203254316,497
-345.04800779059235,504
-342.4817530309082,485
-339.91620756797226,490
-337.35137121618743,495
-334.7872437898774,491
-332.22382510328725,488
-329.66111497058273,537
-327.09911320585127,577
-324.53781962310075,559
-321.9772340362607,535
-319.4173562591816,484
-316.8581861056348,509
-314.2997233893127,508
-311.7419679238294,506
-309.1849195227194,514
-306.62857799943856,499
-304.0729431673641,520
-301.51801483979375,487
-298.963792829947,516
-296.41027695096386,547
-293.85746701590574,557
-291.3053628377552,615
-288.7539642294155,635
-286.2032710037115,623
-283.65328297338897,628
-281.1039999511146,622
-278.5554217494762,636
-276.007548180983,649
-273.4603790580651,693
-270.9139141930734,776
-268.3681533982807,769
-265.8230964858798,692
-263.27874326798565,646
-260.7350935566336,668
-258.1921471637804,734
-255.6499039013039,826
-253.10836358100266,781
-250.56752601459698,680
-248.02739101372765,735
-245.48795838995704,782
-242.94922795476816,784
-240.41119951956557,664
-237.8738728956746,758
-235.33724789434166,819
-232.80132432673452,741
-230.2661020039418,734
-227.73158073697357,879
-225.19776033676033,832
-222.66464061415422,899
-220.1322213799284,836
-217.60050244477725,793
-215.06948361931552,794
-212.53916471408013,879
-210.00954553952818,918
-207.48062590603843,840
-204.9524056239104,782
-202.4248845033651,934
-199.8980623545441,1067
-197.37193898751036,1046
-194.84651421224817,938
-192.32178783866232,833
-189.79775967657952,851
-187.27442953574644,1028
-184.7517972258321,1064
-182.2298625564256,872
-179.7086253370378,762
-177.18808537710026,932
-174.66824248596583,1269
-172.14909647290835,1349
-169.6306471471229,1291
-167.11289431772548,1028
-164.59583779375328,965
-162.07947738416453,1141
-159.5638128978386,1497
-157.04884414357605,1628
-154.53457093009854,1795
-152.02099306604828,1490
-149.50811035998936,1290
-146.99592262040665,1194
-144.48442965570587,1327
-141.97363127421409,1529
-139.46352728417958,1650
-136.95411749377126,1770
-134.44540171107985,1563
-131.93737974411636,1395
-129.43005140081357,1377
-126.92341648902493,1908
-124.41747481652521,2399
-121.91222619101006,2662
-119.40767042009657,3277
-116.90380731132257,3888
-114.40063667214702,4000
-111.8981583099503,3143
-109.3963720320337,2923
-106.89527764561933,3243
-104.39487495785067,4218
-101.89516377579241,5924
-99.39614390642998,8181
-96.89781515667039,9664
-94.40017733334128,10654
-91.90323024319173,7485
-89.40697369289148,4865
-86.91140748903172,3483
-84.41653143812482,3627
-81.92234534660395,4374
-79.42884902082358,6406
-76.93604226705907,7185
-74.4439248915071,7422
-71.95249670028534,6913
-69.46175749943245,7122
-66.97170709490854,8620
-64.48234529259423,11595
-61.99367189829195,15093
-59.50568671772464,17743
-57.01838955653636,21986
-54.53178022029283,25260
-52.045858514480074,25862
-49.560624244506016,26596
-47.07607721569923,25606
-44.59221723330904,21418
-42.10904410250669,17129
-39.62655762838392,16242
-37.14475761595372,18268
-34.66364387015028,20111
-32.18321619582866,26346
-29.70347439776515,30495
-27.224418280657005,32946
-24.74604764912317,39966
-22.26836230770266,58308
-19.7913620608565,65041
-17.315046712966478,65041
-14.83941606833514,65041
-12.36446993118659,65041
-9.89020810566592,65041
-7.416630395839093,65041
-4.94373660569363,65041
-2.471526539137585,65041
-6.821210263296962E-13,65041
2.47084320796705,65041
4.941003281093458,65041
7.410480415786196,65041
9.879274808531363,65041
12.347386655893956,65041
14.814816154518212,65041
17.28156350112681,65041
19.74762889252179,65041
22.21301252558385,65041
24.67771459727237,19912
27.141735304626195,4950
29.605074844762612,3981
32.06773341487792,3186
34.52971121224755,3029
36.99100843422559,3337
39.45162527824516,3599
41.91156194181792,3940
44.370818622535126,3605
46.82939551806646,3037
49.287292826160524,2793
51.74451074464503,2732
54.201049471426245,2642
56.65690920448981,2637
59.112090141899785,2557
61.56659248179983,2728
64.02041642241159,2482
66.4735621620365,2319
68.92602989905402,2500
71.37781983192338,2655
73.82893215918205,2195
76.27936707944684,1856
78.72912479141326,1729
81.17820549385567,1819
83.62660938562783,2023
86.07433666566146,1752
88.5213875329681,1915
90.96776218663751,2339
93.41346082583925,2234
95.85848364982041,1714
98.30283085790859,1338
100.7465026495089,1387
103.18949922410604,1520
105.63182078126385,1552
108.07346752062438,1616
110.51443964190923,1345
112.95473734491827,1192
115.39436082953114,1189
117.83331029570547,1442
120.27158594347827,1515
122.7091879729652,1534
125.1461165843615,1504
127.58237197794062,1400
130.01795435405518,1255
132.4528639131364,1175
134.88710085569494,1245
137.32066538231982,1443
139.75355769367923,1194
142.1857779905207,1183
144.61732647366978,1209
147.04820334403132,1228
149.47840880258934,1292
151.90794305040674,1162
154.33680628862487,1250
156.76499871846443,1367
159.19252054122433,1446
161.61937195828352,1454
164.04555317109896,1529
166.47106438120693,1675
168.89590579022217,1924
171.320077599839,2067
173.7435800118302,2162
176.16641322804742,2137
178.58857745042144,2279
181.01007288096173,2390
183.43089972175687,2346
185.85105817497413,2337
188.27054844285988,2380
190.6893707277394,2295
193.10752523201643,2331
195.5250121581745,2540
197.9418317087751,2443
200.3579840864594,2339
202.7734694939469,2357
205.18828813403627,2469
207.6024402096051,2500
210.01592592360964,2481
212.42874547908548,2608
214.84089907914665,2556
217.2523869269868,2402
219.66320922587727,2583
222.0733661791695,2597
224.48285799029293,2567
226.8916848627572,2396
229.29984700014882,2547
231.7073446061355,2528
234.11417788446204,2562
236.520347038953,2632
238.92585227351185,2681
241.33069379212054,2592
243.73487179884035,2679
246.1383864978112,2727
248.541238093252,2635
250.9434267894609,2781
253.34495279081432,2864
255.74581630176783,2892
258.1460175268563,2962
260.54555667069314,2841
262.9444339379703,2910
265.3426495334594,2843
267.7402036620107,2790
270.1370965285529,2745
272.53332833809407,2619
274.9288992957214,2591
277.32380960660055,2512
279.718059475976,2385
282.1116491091717,2379
284.5045787115897,2363
286.89684848871195,2412
289.2884586460981,2378
291.67940938938807,2286
294.0697009242996,2322
296.4593334566299,2384
298.84830719225477,2376
301.23662233712923,2356
303.6242790972866,2318
306.01127767884,2279
308.39761828798066,2226
310.78330113097934,2264
313.16832641418534,2179
315.5526943440269,2159
317.9364051270112,2128
320.3194589697242,2167
322.70185607883093,2091
325.0835966610754,2045
327.4646809232805,2004
329.8451090723478,2034
332.2248813152577,2023
334.6039978590701,2137
336.9824589109231,2075
339.36026467803447,2054
341.7374153677,1943
344.113911187295,1988
346.48975234427337,1920
348.8649390461686,1920
351.2394715005918,1989
353.61334991523415,1988
355.9865744978655,1960
358.35914545633375,1907
360.73106299856715,1913
363.10232733257146,1983
365.47293866643247,1916
367.84289720831396,1977
370.2122031664593,1888
372.5808567491905,1913
374.9488581649083,1980
377.31620762209275,1901
379.6829053293021,1968
382.0489514951745,1925
384.4143463284262,1911
386.7790900378528,1933
389.14318283232853,1856
391.50662492080653,1809
393.86941651231916,1774
396.23155781597745,1959
398.5930490409713,1949
400.9538903965696,1856
403.3140820921202,1843
405.6736243370498,1888
408.03251734086336,1811
410.3907613131465,1813
412.74835646356166,1810
415.10530300185144,1825
417.4616011378372,1809
419.81725108141893,1770
422.1722530425758,1793
424.5266072313656,1811
426.880313857925,1791
429.2333731324701,1740
431.58578526529516,1719
433.9375504667738,1808
436.2886689473588,1788
438.63914091758113,1767
440.9889665880513,1809
443.33814616945835,1791
445.68667987257015,1790
448.03456790823395,1712
450.3818104873759,1784
452.72840782100013,1765
455.07436012019105,1754
457.41966759611057,1745
459.7643304600007,1708
462.10834892318155,1674
464.4517231970525,1768
466.79445349309174,1718
469.1365400228566,1746
471.4779829979826,1765
473.81878263018564,1750
476.15893913125876,1738
478.4984527130747,1837
480.8373235875855,1841
483.17555196682144,1823
485.5131380628919,1879
487.8500820879857,1959
490.1863842543697,1977
492.52204477439034,2069
494.8570638604725,2200
497.1914417251204,2495
499.52517858091653,2716
501.85827464052306,3074
504.19073011668036,3390
506.5225452222086,3429
508.85372017000566,3396
511.18425517304956,3366
513.514150444396,3603
515.8434061971808,4263
518.1720226446176,4981
520.4999999999999,5044
522.8273384766991,4852
525.1540382881666,4405
527.480099647932,3930
529.8055227696037,3247
532.1303078668694,2418
534.454455153496,2068
536.777964843328,1965
539.1008371502907,1873
541.4230722883866,1800
543.744670471698,1795
546.0656319143858,1825
548.3859568306899,1793
550.7056454349294,1726
553.0246979415016,1756
555.3431145648834,1743
557.6608955196306,1697
559.978041020377,1696
562.2945512818363,1737
564.6104265188006,1755
566.9256669461412,1753
569.2402727788082,1757
571.5542442318302,1744
573.8675815203156,1735
576.1802848594508,1774
578.4923544645015,1803
580.8037905508126,1798
583.114593333807,1757
585.4247630289875,1797
587.7342998519354,1756
590.0432040183106,1762
592.3514757438526,1723
594.6591152443794,1728
596.9661227357875,1663
599.2724984340531,1773
601.578242555231,1751
603.8833553154542,1825
606.1878369309362,1723
608.4916876179676,1714
610.7949075929192,1716
613.0974970722403,1782
615.3994562724587,1766
617.7007854101818,1748
620.0014847020951,1722
622.3015543649641,1725
624.6009946156324,1731
626.8998056710224,1758
629.1979877481361,1833
631.4955410640538,1826
633.7924658359349,1694
636.0887622810175,1779
638.3844306166192,1773
640.6794710601358,1901
642.9738838290426,1753
645.2676691408932,1818
647.5608272133207,1761
649.853358264037,1835
652.1452625108324,1756
654.4365401715764,1830
656.7271914642178,1830
659.0172166067838,1820
661.3066158173809,1837
663.5953893141935,1831
665.8835373154867,1840
668.1710600396028,1810
670.4579577049639,1818
672.7442305300709,1836
675.0298787335033,1787
677.3149025339197,1777
679.599302150058,1877
681.8830778007342,1786
684.1662297048437,1819
686.4487580813608,1831
688.7306631493387,1844
691.0119451279091,1835
693.2926042362834,1776
695.5726406937516,1753
697.8520547196814,1813
700.1308465335215,1798
702.4090163547982,1857
704.6865644031171,1763
706.9634908981619,1780
709.2397960596965,1752
711.5154801075631,1797
713.7905432616823,1777
716.0649857420548,1831
718.3388077687592,1925
720.612009561953,1752
722.8845913418733,1809
725.1565533288352,1836
727.427895743234,1866
729.6986188055427,1828
731.9687227363137,1819
734.238207756178,1818
736.5070740858458,1760
738.7753219461066,1733
741.0429515578281,1765
743.3099631419569,1836
745.5763569195191,1883
747.8421331116193,1814
750.1072919394409,1796
752.3718336242467,1860
754.6357583873777,1793
756.8990664502545,1821
759.1617580343765,1826
761.423833361321,1868
763.6852926527457,1874
765.9461361303862,1792
768.206364016058,1794
770.4659765316536,1834
772.7249738991469,1782
774.9833563405886,1880
777.2411240781092,1837
779.4982773339183,1807
781.7548163303044,1775
784.010741289634,1824
786.2660524343538,1818
788.5207499869881,1840
790.7748341701416,1842
793.0283052064964,1779
795.2811633188143,1762
797.5334087299362,1786
799.7850416627813,1796
802.0360623403484,1910
804.2864709857143,1828
806.5362678220353,1896
808.7854530725468,1866
811.0340269605625,1916
813.2819897094754,1916
815.5293415427581,1905
817.77608268396,1842
820.0222133567116,1875
822.2677337847211,1824
824.5126441917765,1813
826.7569448017433,1897
829.0006358385675,1851
831.2437175262731,1848
833.4861900889629,1856
835.7280537508192,1803
837.9693087361026,1829
840.2099552691533,1859
842.4499935743896,1830
844.689423876309,1823
846.9282463994886,1857
849.1664613685833,1812
851.4040690083276,1865
853.6410695435349,1840
855.877463199097,1821
858.1132501999847,1912
860.3484307712487,1796
862.5830051380175,1882
864.8169735254988,1895
867.0503361589791,1820
869.2830932638243,1925
871.5152450654786,1876
873.7467917894654,1840
875.9777336613873,1862
878.2080709069252,1848
880.4378037518389,1932
882.666932421968,1904
884.8954571432301,1877
887.1233781416219,1900
889.3506956432192,1905
891.5774098741766,1911
893.803521060728,1924
896.0290294291852,1858
898.2539352059397,1924
900.4782386174619,1938
902.7019398903011,1915
904.925039251085,1859
907.147536926521,1948
909.3694331433943,1897
911.59072812857,1876
913.8114221089921,1884
916.0315153116827,1897
918.2510079637437,1898
920.4699002923547,1807
922.6881925247761,1881
924.905884888345,1844
927.1229776104793,1839
929.3394709186747,1831
931.555365040506,1828
933.7706602036275,1806
935.9853566357709,1860
938.1994545647489,1908
940.4129542184515,1887
942.6258558248488,1906
944.8381596119883,1914
947.0498658079974,1848
949.2609746410825,1907
951.4714863395287,1878
953.6814011316998,1867
955.8907192460387,1852
958.0994409110671,1917
960.3075663553858,1881
962.5150958076741,1902
964.7220294966913,1841
966.928367651274,1888
969.1341105003388,1904
971.3392582728806,1816
973.5438111979742,1905
975.747769504772,1910
977.9511334225061,1785
980.153903180487,1846
982.3560790081052,1804
984.5576611348289,1813
986.7586497902058,1772
988.9590452038618,1721
991.158847605503,1801
993.3580572249133,1722
995.5566742919558,1766
997.7546990365728,1742
999.952131688785,1647
1002.1489724786926,1684
1004.3452216364743,1644
1006.5408793923874,1588
1008.7359459767691,1668
1010.9304216200343,1607
1013.1243065526781,1661
1015.3176010052733,1521
1017.510305208472,1619
1019.7024193930064,1587
1021.8939437896848,1641
1024.0848786293977,1570
1026.2752241431122,1537
1028.4649805618747,1572
1030.6541481168115,1587
1032.842727039127,1528
1035.0307175601051,1535
1037.2181199111074,1588
1039.4049343235752,1594
1041.591161029029,1580
1043.7768002590683,1556
1045.9618522453698,1618
1048.1463172196918,1519
1050.3301954138697,1593
1052.513487059818,1580
1054.69619238953,1578
1056.8783116350783,1567
1059.0598450286152,1564
1061.2407928023704,1493
1063.4211551886528,1564
1065.6009324198508,1570
1067.780124728432,1523
1069.9587323469414,1603
1072.1367555080046,1538
1074.314194444325,1538
1076.4910493886855,1513
1078.667320573947,1482
1080.843008233051,1502
1083.0181125990161,1464
1085.1926339049414,1470
1087.3665723840027,1508
1089.5399282694575,1548
1091.7127017946405,1558
1093.8848931929647,1476
1096.0565026979243,1518
1098.2275305430899,1468
1100.3979769621128,1469
1102.567842188722,1514
1104.737126456726,1538
1106.9058300000124,1511
1109.0739530525475,1439
1111.2414958483764,1482
1113.4084586216231,1453
1115.5748416064907,1473
1117.7406450372605,1486
1119.9058691482942,1426
1122.0705141740304,1518
1124.2345803489884,1482
1126.3980679077658,1480
1128.5609770850388,1492
1130.7233081155623,1463
1132.8850612341707,1435
1135.0462366757774,1442
1137.2068346753745,1533
1139.3668554680326,1550
1141.526299288901,1451
1143.68516637321,1462
1145.8434569562655,1403
1148.001171273455,1465
1150.158309560244,1434
1152.3148720521767,1454
1154.470858984876,1471
1156.626270594044,1510
1158.7811071154629,1474
1160.9353687849912,1472
1163.089055838569,1485
1165.242168512213,1468
1167.3947070420209,1438
1169.5466716641677,1452
1171.6980626149075,1439
1173.8488801305748,1465
1175.9991244475814,1446
1178.1487958024186,1530
1180.2978944316555,1373
1182.4464205719428,1423
1184.5943744600072,1459
1186.7417563326567,1468
1188.8885664267755,1446
1191.0348049793297,1384
1193.1804722273619,1411
1195.325568407995,1427
1197.4700937584303,1447
1199.614048515948,1424
1201.7574329179074,1457
1203.900247201746,1417
1206.042491604982,1446
1208.1841663652099,1463
1210.3252717201053,1434
1212.465807907422,1445
1214.6057751649923,1437
1216.7451737307279,1444
1218.8840038426192,1513
1221.0222657387353,1486
1223.1599596572241,1544
1225.2970858363137,1478
1227.4336445143094,1437
1229.5696359295966,1455
1231.705060320639,1512
1233.8399179259786,1461
1235.9742089842384,1537
1238.107933734118,1515
1240.2410924143974,1476
1242.373685263935,1524
1244.5057125216676,1497
1246.6371744266116,1530
1248.7680712178621,1454
1250.898403134593,1536
1253.028170416058,1507
1255.1573733015875,1501
1257.2860120305932,1526
1259.4140868425648,1506
1261.54159797707,1510
1263.6685456737569,1477
1265.7949301723515,1557
1267.9207517126597,1566
1270.046010534565,1589
1272.1707068780306,1595
1274.2948409830983,1639
1276.4184130898889,1524
1278.541423438603,1542
1280.6638722695184,1561
1282.785759822993,1609
1284.9070863394636,1620
1287.0278520594447,1609
1289.1480572235314,1623
1291.2677020723963,1675
1293.3867868467923,1706
1295.5053117875495,1624
1297.623277135579,1686
1299.740683131868,1693
1301.8575300174857,1689
1303.973818033578,1653
1306.0895474213703,1649
1308.2047184221678,1670
1310.3193312773528,1791
1312.4333862283888,1712
1314.5468835168163,1713
1316.659823384255,1729
1318.7722060724045,1795
1320.8840318230418,1712
1322.9953008780249,1685
1325.1060134792888,1754
1327.2161698688478,1737
1329.3257702887959,1694
1331.4348149813054,1766
1333.5433041886276,1740
1335.6512381530933,1758
1337.7586171171101,1666
1339.8654413231675,1735
1341.9717110138317,1744
1344.0774264317488,1720
1346.1825878196432,1703
1348.2871954203192,1798
1350.3912494766587,1681
1352.4947502316231,1652
1354.5976979282532,1641
1356.7000928096686,1720
1358.8019351190665,1675
1360.9032250997243,1655
1363.0039629949988,1703
1365.1041490483235,1649
1367.2037835032133,1699
1369.3028666032606,1655
1371.401398592137,1647
1373.4993797135926,1676
1375.5968102114575,1652
1377.6936903296396,1632
1379.7900203121262,1634
1381.8858004029835,1691
1383.9810308463561,1626
1386.075711886469,1609
1388.1698437676241,1691
1390.2634267342032,1680
1392.356461030667,1665
1394.4489469015557,1653
1396.5408845914872,1647
1398.6322743451592,1693
1400.7231164073469,1710
1402.813411022907,1697
1404.903158436773,1691
1406.9923588939578,1702
1409.0810126395531,1610
1411.1691199187303,1669
1413.2566809767386,1686
1415.343696058907,1693
1417.4301654106425,1736
1419.5160892774315,1720
1421.6014679048399,1766
1423.6863015385125,1746
1425.7705904241707,1746
1427.8543348076178,1737
1429.9375349347342,1735
1432.0201910514802,1774
1434.102303403894,1775
1436.1838722380944,1792
1438.2648978002767,1755
1440.3453803367174,1829
1442.4253200937692,1851
1444.5047173178677,1828
1446.5835722555234,1862
1448.6618851533285,1909
1450.739656257952,1847
1452.8168858161434,1936
1454.8935740747306,1967
1456.96972128062,1912
1459.045327680797,1989
1461.120393522327,2042
1463.1949190523528,2030
1465.2689045180973,2130
1467.3423501668608,2092
1469.415256246024,2046
1471.4876230030463,2158
1473.559450685465,2213
1475.6307395408976,2194
1477.7014898170391,2209
1479.771701761665,2200
1481.8413756226287,2300
1483.9105116478618,2217
1485.9791100853772,2307
1488.0471711832643,2317
1490.1146951896926,2419
1492.1816823529098,2363
1494.2481329212433,2419
1496.3140471430984,2348
1498.3794252669609,2425
1500.4442675413939,2432
1502.5085742150404,2525
1504.572345536622,2497
1506.6355817549388,2512
1508.6982831188702,2418
1510.7604498773744,2475
1512.8220822794883,2430
1514.8831805743293,2520
1516.9437450110909,2526
1519.003775839048,2540
1521.0632733075522,2528
1523.1222376660367,2598
1525.1806691640113,2645
1527.2385680510652,2616
1529.2959345768668,2624
1531.3527689911643,2704
1533.4090715437833,2671
1535.4648424846291,2796
1537.5200820636855,2637
1539.5747905310159,2699
1541.6289681367616,2816
1543.6826151311434,2822
1545.7357317644614,2885
1547.7883182870937,2894
1549.8403749494987,2922
1551.8919020022113,2948
1553.9428996958477,2978
1555.9933682811015,3136
1558.0433080087469,3129
1560.0927191296346,3245
1562.1416018946961,3224
1564.1899565549415,3277
1566.2377833614592,3222
1568.2850825654164,3301
1570.3318544180606,3316
1572.3780991707158,3302
1574.423817074788,3167
1576.4690083817595,2998
1578.5136733431923,2944
1580.5578122107272,2848
1582.601425236085,2706
1584.6445126710646,2651
1586.6870747675434,2576
1588.7291117774776,2548
1590.7706239529034,2541
1592.8116115459347,2422
1594.8520748087658,2308
1596.8920139936686,2197
1598.9314293529933,2152
1600.9703211391711,2130
1603.008689604711,2045
1605.0465350022005,2008
1607.0838575843068,1936
1609.1206576037753,1870
1611.1569353134305,1857
1613.1926909661765,1804
1615.2279248149953,1816
1617.2626371129481,1770
1619.2968281131757,1750
1621.3304980688963,1754
1623.3636472334088,1686
1625.39627586009,1747
1627.428384202396,1655
1629.459972513861,1687
1631.4910410480993,1673
1633.5215900588028,1590
1635.551619799744,1631
1637.5811305247717,1545
1639.6101224878166,1626
1641.6385959428862,1563
1643.6665511440683,1580
1645.693988345528,1541
1647.7209078015112,1562
1649.7473097663405,1538
1651.7731944944203,1507
1653.7985622402307,1534
1655.823413258333,1541
1657.847747803366,1556
1659.8715661300494,1511
1661.8948684931793,1546
1663.9176551476316,1553
1665.9399263483624,1525
1667.9616823504057,1530
1669.982923408873,1446
1672.0036497789574,1543
1674.0238617159293,1483
1676.043559475138,1408
1678.0627433120121,1429
1680.081413482059,1459
1682.0995702408654,1538
1684.117213844096,1514
1686.134344547495,1486
1688.1509626068864,1508
1690.1670682781705,1442
1692.182661817329,1497
1694.1977434804217,1577
1696.2123135235875,1504
1698.226372203043,1482
1700.2399197750851,1534
1702.2529564960905,1580
1704.2654826225112,1487
1706.277498410882,1460
1708.2890041178139,1527
1710.2999999999988,1504
1712.3104863142066,1516
1714.3204633172854,1510
1716.329931266163,1442
1718.3388904178469,1471
1720.3473410294214,1452
1722.3552833580516,1564
1724.3627176609807,1436
1726.3696441955308,1445
1728.3760632191033,1451
1730.3819749891782,1462
1732.3873797633146,1411
1734.3922777991502,1470
1736.3966693544012,1459
1738.4005546868639,1480
1740.4039340544127,1435
1742.406807715001,1471
1744.4091759266616,1464
1746.4110389475054,1439
1748.4123970357223,1400
1750.413250449582,1413
1752.4135994474318,1407
1754.4134442876993,1404
1756.4127852288902,1405
1758.4116225295893,1409
1760.4099564484595,1393
1762.407787244244,1464
1764.405115175764,1353
1766.4019405019203,1348
1768.3982634816916,1407
1770.3940843741357,1447
1772.3894034383907,1363
1774.3842209336717,1381
1776.378537119274,1378
1778.372352254571,1411
1780.3656665990156,1430
1782.3584804121397,1389
1784.3507939535534,1336
1786.3426074829463,1371
1788.3339212600863,1377
1790.3247355448211,1353
1792.3150505970766,1375
1794.3048666768573,1367
1796.2941840442477,1323
1798.2830029594106,1357
1800.2713236825884,1311
1802.2591464741004,1381
1804.2464715943465,1390
1806.2332993038058,1343
1808.2196298630352,1345
1810.2054635326708,1377
1812.190800573428,1341
1814.175641246101,1336
1816.1599858115628,1397
1818.1438345307652,1336
1820.127187664738,1341
1822.1100454745924,1349
1824.092408221516,1426
1826.0742761667766,1372
1828.055649571721,1403
1830.0365286977735,1345
1832.0169138064398,1378
1833.9968051593014,1385
1835.9762030180214,1397
1837.9551076443408,1371
1839.9335193000788,1365
1841.9114382471344,1371
1843.888864747485,1377
1845.8657990631878,1357
1847.842241456378,1348
1849.8181921892697,1335
1851.7936515241558,1327
1853.7686197234098,1311
1855.7430970494815,1349
1857.7170837649014,1371
1859.6905801322787,1336
1861.6635864143004,1340
1863.6361028737338,1333
1865.608129773424,1412
1867.5796673762961,1365
1869.5507159453537,1312
1871.521275743678,1308
1873.4913470344313,1364
1875.4609300808534,1358
1877.4300251462632,1358
1879.3986324940588,1382
1881.366752387717,1353
1883.3343850907936,1393
1885.3015308669228,1398
1887.268189979819,1381
1889.2343626932739,1384
1891.2000492711595,1380
1893.1652499774254,1422
1895.1299650761011,1377
1897.0941948312952,1416
1899.0579395071945,1391
1901.0211993680641,1395
1902.98397467825,1423
1904.9462657021745,1396
1906.9080727043415,1411
1908.869395949332,1401
1910.8302357018065,1387
1912.790592226504,1406
1914.7504657882428,1372
1916.7098566519212,1380
1918.6687650825133,1417
1920.6271913450764,1401
1922.5851357047422,1368
1924.5425984267245,1417
1926.499579776314,1332
1928.4560800188833,1400
1930.4120994198802,1357
1932.367638244833,1390
1934.32269675935,1319
1936.2772752291175,1412
1938.231373919899,1360
1940.1849930975404,1407
1942.1381330279637,1349
1944.0907939771696,1354
1946.0429762112412,1369
1947.9946799963363,1404
1949.9459055986945,1362
1951.896653284633,1340
1953.8469233205478,1358
1955.7967159729142,1378
1957.7460315082863,1337
1959.6948701932974,1390
1961.6432322946594,1354
1963.5911180791632,1331
1965.5385278136787,1351
1967.4854617651545,1360
1969.4319202006182,1383
1971.377903387176,1353
1973.3234115920136,1366
1975.268445082395,1373
1977.2130041256642,1395
1979.1570889892423,1367
1981.1006999406304,1366
1983.04383724741,1347
1984.986501177238,1320
1986.928691997853,1356
1988.8704099770712,1362
1990.811655382789,1317
1992.7524284829801,1376
1994.692729545698,1349
1996.6325588390755,1330
1998.5719166313224,1341
2000.5108031907307,1288
2002.4492187856677,1301
2004.387163684583,1347
2006.3246381560011,1342
2008.2616424685298,1340
2010.1981768908527,1340
2012.1342416917332,1338
2014.069837140014,1321
2016.0049635046162,1315
2017.9396210545406,1306
2019.8738100588666,1334
2021.8075307867502,1356
2023.740783507431,1290
2025.6735684902228,1313
2027.6058860045214,1327
2029.5377363198004,1345
2031.4691197056118,1355
2033.4000364315875,1298
2035.3304867674374,1333
2037.260470982952,1308
2039.189989347998,1256
2041.1190421325232,1303
2043.047629606554,1277
2044.9757520401945,1316
2046.9034097036288,1291
2048.8306028671195,1328
2050.7573318010086,1311
2052.683596775716,1291
2054.609398061742,1316
2056.5347359296647,1290
2058.4596106501403,1321
2060.384022493906,1316
2062.3079717317764,1304
2064.231458634646,1317
2066.1544834734873,1295
2068.077046519352,1349
2069.99914804337,1297
2071.9207883167524,1294
2073.8419676107865,1320
2075.7626861968406,1323
2077.6829443463607,1263
2079.6027423308715,1296
2081.522080421977,1362
2083.440958891362,1358
2085.359378010786,1311
2087.2773380520907,1299
2089.194839287196,1278
2091.111881988101,1263
2093.0284664268825,1292
2094.9445928756973,1314
2096.86026160678,1337
2098.775472892446,1307
2100.690227005088,1300
2102.604524217178,1304
2104.5183648012676,1328
2106.431749029985,1317
2108.34467717604,1338
2110.2571495122206,1279
2112.169166311393,1313
2114.080727846503,1288
2115.9918343905747,1311
2117.902486216711,1369
2119.8126835980956,1350
2121.722426807987,1338
2123.6317161197285,1305
2125.5405518067364,1357
2127.448934142509,1379
2129.356863400624,1350
2131.264339854737,1369
2133.1713637785815,1341
2135.077935445972,1389
2136.9840551308002,1417
2138.889723107037,1339
2140.7949396487334,1330
2142.699705030018,1322
2144.6040195250994,1370
2146.507883408264,1315
2148.4112969538774,1369
2150.3142604363848,1376
2152.2167741303097,1331
2154.1188383102535,1340
2156.0204532508997,1351
2157.9216192270064,1352
2159.822336513414,1329
2161.7226053850413,1289
2163.622426116884,1322
2165.5217989840185,1350
2167.4207242616,1297
2169.319202224862,1321
2171.2172331491165,1342
2173.1148173097563,1351
2175.0119549822507,1343
2176.90864644215,1354
2178.8048919650823,1340
2180.7006918267534,1358
2182.596046302952,1356
2184.4909556695407,1336
2186.3854202024645,1330
2188.279440177746,1352
2190.173015871487,1401
2192.066147559868,1325
2193.958835519149,1355
2195.851080025667,1355
2197.7428813558417,1305
2199.6342397861667,1379
2201.5251555932186,1331
2203.415629053651,1359
2205.3056604441986,1322
2207.19525004167,1324
2209.084398122958,1387
2210.9731049650327,1384
2212.861370844941,1330
2214.749196039812,1386
2216.636580826851,1364
2218.523525483344,1356
2220.410030286655,1325
2222.296095514226,1332
2224.1817214435805,1357
2226.066908352319,1384
2227.951656518121,1307
2229.835966218746,1394
2231.71983773203,1331
2233.6032713358913,1362
2235.486267308324,1354
2237.3688259274036,1350
2239.2509474712824,1313
2241.132632218193,1366
2243.013880446447,1316
2244.8946924344323,1356
2246.7750684606203,1312
2248.6550088035574,1368
2250.534513741871,1352
2252.413583554265,1410
2254.292218519526,1309
2256.170418916517,1338
2258.0481850241786,1363
2259.925517121534,1283
2261.8024154876825,1346
2263.678880401803,1380
2265.5549121431536,1372
2267.430510991071,1335
2269.305677224971,1369
2271.180411124348,1331
2273.0547129687766,1386
2274.9285830379076,1266
2276.8020216114737,1313
2278.6750289692845,1294
2280.5476053912294,1307
2282.4197511572766,1432
2284.2914665474727,1374
2286.162751841943,1413
2288.0336073208937,1393
2289.904033264608,1380
2291.774029953448,1426
2293.6435976678554,1387
2295.5127366883517,1365
2297.381447295534,1345
2299.2497297700825,1281
2301.1175843927526,1322
2302.9850114443825,1355
2304.852011205885,1320
2306.7185839582553,1317
2308.5847299825664,1314
2310.4504495599676,1261
2312.3157429716925,1251
2314.1806104990483,1320
2316.0450524234247,1262
2317.9090690262888,1225
2319.772660589186,1207
2321.635827393742,1283
2323.498569721661,1217
2325.3608878547248,1251
2327.2227820747967,1252
2329.0842526638157,1304
2330.945299903803,1266
2332.805924076857,1272
2334.6661254651535,1292
2336.525904350951,1246
2338.3852610165827,1282
2340.244195744464,1309
2342.102708817088,1240
2343.9608005170253,1273
2345.8184711269287,1247
2347.675720929526,1223
2349.532550207628,1246
2351.38895924412,1263
2353.24494832197,1259
2355.100517724223,1305
2356.955667734004,1255
2358.810398634514,1250
2360.664710709037,1285
2362.5186042409337,1295
2364.3720795136437,1269
2366.225136810686,1268
2368.0777764156583,1242
2369.929998612237,1278
2371.7818036841777,1308
2373.633191915315,1306
2375.484163589562,1305
2377.3347189909114,1308
2379.184858403434,1248
2381.03458211128,1242
2382.8838903986775,1349
2384.732783549936,1301
2386.5812618494406,1256
2388.4293255816588,1326
2390.2769750311327,1302
2392.1242104824883,1260
2393.971032220427,1304
2395.8174405297295,1282
2397.6634356952563,1312
2399.509018001947,1341
2401.3541877348193,1301
2403.1989451789705,1314
2405.043290619576,1304
2406.8872243418905,1317
2408.730746631247,1261
2410.5738577730594,1278
2412.4165580528183,1283
2414.258847756095,1245
2416.100727168537,1328
2417.9421965758734,1321
2419.783256263912,1276
2421.623906518538,1342
2423.4641476257157,1275
2425.303979871491,1285
2427.143403541984,1284
2428.9824189233977,1334
2430.821026302012,1340
2432.6592259641866,1389
2434.497018196361,1337
2436.33440328505,1346
2438.171381516851,1266
2440.00795317844,1268
2441.844118556569,1333
2443.6798779380724,1312
2445.5152316098606,1332
2447.3501798589255,1309
2449.1847229723357,1304
2451.0188612372403,1330
2452.8525949408663,1280
2454.6859243705203,1328
2456.518849813587,1321
2458.3513715575314,1305
2460.183489889895,1298
2462.015205098301,1286
2463.8465174704493,1291
2465.67742729412,1323
2467.5079348571717,1295
2469.338040447542,1308
2471.1677443532476,1285
2472.9970468623833,1330
2474.825948263123,1297
2476.6544488437207,1397
2478.482548892508,1389
2480.310248697896,1264
2482.137548548374,1303
2483.9644487325118,1352
2485.790949538956,1318
2487.617051256433,1335
2489.44275417375,1311
2491.26805857979,1340
2493.0929647635157,1343
2494.917473013971,1379
2496.741583620276,1290
2498.5652968716304,1369
2500.3886130573137,1326
2502.2115324666834,1273
2504.0340553891765,1354
2505.856182114308,1359
2507.6779129316733,1419
2509.499248130945,1367
2511.3201880018764,1379
2513.140732834298,1329
2514.9608829181198,1290
2516.780638543331,1386
2518.6,1378
2520.418967578273,1389
2522.237541568376,1413
2524.0557222606144,1385
2525.8735099453706,1425
2527.6909049131086,1412
2529.507907454368,1405
2531.32451785977,1364
2533.140736420014,1442
2534.9565634258774,1423
2536.771999168218,1417
2538.5870439379714,1445
2540.4016980261526,1387
2542.2159617238544,1484
2544.02983532225,1425
2545.8433191125914,1473
2547.656413386209,1463
2549.4691184345115,1506
2551.2814345489874,1511
2553.093362021204,1458
2554.904901142808,1529
2556.716052205523,1445
2558.526815501153,1486
2560.3371913215824,1512
2562.147179958771,1488
2563.956781704761,1521
2565.7659968516705,1578
2567.5748256916986,1576
2569.3832685171224,1544
2571.1913256202984,1540
2572.9989972936614,1631
2574.806283829725,1587
2576.613185521084,1589
2578.4197026604074,1599
2580.2258355404483,1643
2582.031584454035,1577
2583.836949694077,1625
2585.6419315535613,1592
2587.4465303255533,1551
2589.2507463032002,1695
2591.0545797797245,1640
2592.8580310484303,1611
2594.6611004026995,1571
2596.463788135992,1535
2598.266094541849,1574
2600.0680199138874,1605
2601.869564545807,1681
2603.670728731383,1570
2605.4715127644704,1651
2607.2719169390048,1648
2609.071941548998,1657
2610.8715868885433,1598
2612.670853251811,1636
2614.469740933052,1527
2616.268250226594,1578
2618.0663814268455,1626
2619.864134828292,1647
2621.6615107255006,1602
2623.458509413115,1637
2625.2551311858597,1615
2627.0513763385347,1535
2628.8472451660223,1585
2630.6427379632833,1522
2632.4378550253564,1541
2634.232596647359,1551
2636.026963124488,1488
2637.8209547520187,1577
2639.6145718253065,1495
2641.407814639785,1507
2643.200683490966,1563
2644.9931786744414,1502
2646.7853004858807,1507
2648.577049221034,1485
2650.3684251757277,1493
2652.1594286458712,1486
2653.9500599274484,1496
2655.740319316525,1465
2657.5302071092437,1392
2659.3197236018286,1429
2661.10886909058,1474
2662.8976438718782,1415
2664.686048242183,1431
2666.4740824980327,1419
2668.2617469360443,1418
2670.0490418529134,1406
2671.8359675454153,1375
2673.622524310403,1405
2675.408712444811,1401
2677.1945322456495,1394
2678.979984010009,1361
2680.76506803506,1369
2682.5497846180497,1387
2684.334134056306,1379
2686.1181166472343,1306
2687.9017326883213,1318
2689.6849824771293,1375
2691.4678663113013,1308
2693.2503844885596,1332
2695.032537306705,1317
2696.8143250636167,1293
2698.5957480572542,1317
2700.3768065856534,1302
2702.1575009469316,1314
2703.937831439283,1293
2705.717798360982,1331
2707.4974020103837,1299
2709.276642685917,1314
2711.055520686095,1244
2712.834036309506,1300
2714.612189854819,1291
2716.389981620782,1314
2718.1674119062204,1282
2719.944481010041,1337
2721.721189231226,1321
2723.4975368688415,1282
2725.273524222027,1249
2727.0491515900053,1278
2728.824419272075,1268
2730.5993275676146,1246
2732.3738767760838,1257
2734.148067197016,1284
2735.921899130031,1220
2737.6953728748194,1256
2739.468488731156,1248
2741.2412469988926,1261
2743.0136479779617,1286
2744.785691968372,1239
2746.5573792702116,1297
2748.3287101836504,1254
2750.099685008934,1270
2751.870304046388,1262
2753.640567596418,1197
2755.4104759595057,1249
2757.1800294362156,1206
2758.949228327187,1208
2760.7180729331412,1229
2762.486563554877,1282
2764.254700493272,1229
2766.022484049284,1252
2767.789914523947,1202
2769.5569922183786,1220
2771.3237174337705,1244
2773.090090471394,1228
2774.8561116326036,1238
2776.6217812188274,1266
2778.3870995315756,1208
2780.1520668724356,1200
2781.9166835430747,1216
2783.6809498452394,1233
2785.444866080754,1307
2787.2084325515225,1239
2788.971649559527,1195
2790.73451740683,1257
2792.4970363955713,1282
2794.2592068279705,1253
2796.0210290063264,1278
2797.7825032330147,1274
2799.543629810493,1234
2801.304409041296,1199
2803.0648412280366,1263
2804.8249266734088,1186
2806.5846656801846,1196
2808.344058551212,1226
2810.1031055894246,1282
2811.8618070978273,1253
2813.6201633795085,1252
2815.378174737636,1246
2817.1358414754536,1242
2818.893163896285,1215
2820.6501423035334,1263
2822.4067770006814,1205
2824.1630682912883,1226
2825.9190164789957,1240
2827.6746218675207,1221
2829.429884760661,1228
2831.184805462294,1221
2832.9393842763743,1250
2834.693621506936,1230
2836.4475174580916,1234
2838.201072434034,1242
2839.954286739034,1247
2841.707160677441,1221
2843.459694553685,1192
2845.2118886722724,1234
2846.96374333779,1251
2848.7152588549034,1242
2850.4664355283567,1205
2852.217273662973,1248
2853.9677735636546,1200
2855.7179355353833,1231
2857.4677598832186,1178
2859.217246912299,1229
2860.9663969278427,1230
2862.715210235146,1242
2864.4636871395846,1180
2866.211827946614,1273
2867.9596329617652,1246
2869.7071024906536,1200
2871.4542368389684,1211
2873.20103631248,1229
2874.947501217038,1179
2876.6936318585695,1185
2878.4394285430812,1226
2880.1848915766604,1205
2881.9300212654707,1224
2883.6748179157553,1204
2885.4192818338374,1240
2887.1634133261173,1209
2888.907212699077,1226
2890.6506802592744,1218
2892.393816313348,1217
2894.1366211680142,1198
2895.8790951300693,1209
2897.621238506388,1201
2899.363051603925,1201
2901.1045347297118,1186
2902.8456881908596,1234
2904.58651229456,1208
2906.327007348081,1248
2908.067173658772,1234
2909.8070115340597,1204
2911.5465212814497,1185
2913.285703208527,1215
2915.0245576229563,1207
2916.7630848324807,1135
2918.5012851449196,1185
2920.2391588681758,1222
2921.976706310227,1226
2923.7139277791334,1206
2925.4508235830313,1180
2927.187394030137,1209
2928.923639428745,1225
2930.6595600872306,1194
2932.395156314046,1203
2934.1304284177218,1220
2935.8653767068713,1287
2937.6000014901815,1208
2939.3343030764227,1179
2941.068281774442,1150
2942.8019378931644,1201
2944.5352717415976,1271
2946.2682836288236,1237
2948.0009738640065,1266
2949.7333427563885,1257
2951.465390615289,1203
2953.1971177501086,1193
2954.9285244703265,1226
2956.6596110855,1196
2958.3903779052657,1205
2960.1208252393385,1203
2961.8509533975125,1203
2963.5807626896617,1169
2965.3102534257378,1205
2967.0394259157715,1208
2968.768280469873,1203
2970.496817398232,1250
2972.2250370111146,1238
2973.952939618869,1197
2975.6805255319196,1210
2977.4077950607707,1223
2979.134748516006,1212
2980.861386208289,1225
2982.587708448359,1266
2984.313715547037,1207
2986.039407815222,1240
2987.764785563891,1247
2989.489849104102,1200
2991.2145987469908,1205
2992.9390348037705,1214
2994.6631575857346,1167
2996.3869674042576,1165
2998.1104645707887,1186
2999.83364939686,1220
3001.5565221940783,1208
3003.2790832741334,1208
3005.0013329487924,1189
3006.7232715298996,1194
3008.4448993293804,1170
3010.166216659239,1153
3011.887223831558,1187
3013.607921158498,1157
3015.3283089522993,1198
3017.0483875252826,1173
3018.7681571898443,1176
3020.4876182584626,1197
3022.2067710436927,1161
3023.9256158581707,1192
3025.644153014609,1205
3027.362382825801,1198
3029.0803056046193,1219
3030.797921664012,1197
3032.5152313170106,1174
3034.2322348767225,1199
3035.9489326563353,1184
3037.665324969115,1192
3039.3814121284063,1184
3041.097194447633,1197
3042.812672240299,1226
3044.5278458199855,1176
3046.2427155003525,1188
3047.9572815951406,1184
3049.671544418167,1202
3051.38550428333,1172
3053.0991615046073,1128
3054.812516396051,1161
3056.5255692717974,1182
3058.2383204460575,1178
3059.9507702331257,1193
3061.662918947372,1211
3063.3747669032446,1217
3065.0863144152736,1185
3066.7975617980674,1182
3068.508509366309,1172
3070.219157434767,1216
3071.9295063182844,1230
3073.639556331785,1178
3075.3493077902704,1147
3077.058761008821,1183
3078.7679163025964,1209
3080.476773986837,1183
3082.1853343768594,1219
3083.89359778806,1217
3085.6015645359153,1230
3087.3092349359786,1199
3089.016609303884,1202
3090.7236879553434,1195
3092.4304712061476,1194
3094.136959372166,1199
3095.843152769349,1209
3097.5490517137237,1222
3099.2546565213966,1199
3100.959967508554,1162
3102.66498499146,1234
3104.3697092864577,1212
3106.0741407099695,1203
3107.778279578498,1136
3109.482126208622,1258
3111.1856809170004,1190
3112.8889440203716,1162
3114.5919158355528,1208
3116.294596679439,1192
3117.996986869006,1219
3119.6990867213062,1212
3121.4008965534726,1174
3123.102416682717,1203
3124.803647426329,1165
3126.5045891016784,1202
3128.205242026213,1232
3129.90560651746,1172
3131.605682893025,1225
3133.3054714705922,1173
3135.0049725679282,1211
3136.7041865028714,1213
3138.4031135933465,1175
3140.101754157353,1173
3141.800108512971,1190
3143.498176978357,1234
3145.1959598717494,1191
3146.8934575114636,1181
3148.5906702158954,1178
3150.2875983035183,1193
3151.9842420928853,1180
3153.680601902627,1198
3155.376678051456,1203
3157.07247085816,1172
3158.767980641609,1187
3160.463207720748,1217
3162.158152414606,1247
3163.8528150422862,1158
3165.5471959229726,1189
3167.2412953759303,1198
3168.9351137204976,1188
3170.628651276098,1187
3172.3219083622307,1197
3174.014885298474,1149
3175.707582404485,1240
3177.4000000000005,1216
3179.092138404835,1188
3180.7839979388846,1206
3182.47557892212,1170
3184.166881674594,1225
3185.8579065164386,1240
3187.5486537678626,1148
3189.2391237491547,1179
3190.9293167806827,1203
3192.6192331828934,1163
3194.3088732763117,1165
3195.998237381542,1188
3197.687325819268,1209
3199.376138910251,1132
3201.064676975334,1149
3202.7529403354347,1146
3204.4409293115523,1154
3206.1286442247647,1231
3207.816085396229,1138
3209.5032531471825,1172
3211.190147798936,1186
3212.8767696728846,1197
3214.5631190905015,1163
3216.2491963733373,1208
3217.9350018430214,1140
3219.6205358212637,1202
3221.305798629851,1175
3222.990790590651,1141
3224.6755120256103,1132
3226.359963256751,1133
3228.0441446061795,1126
3229.7280563960758,1131
3231.411698948703,1155
3233.0950725863995,1192
3234.778177631587,1170
3236.461014406761,1229
3238.1435832345005,1206
3239.8258844374595,1162
3241.507918338374,1239
3243.1896852600576,1176
3244.8711855254023,1162
3246.552419457381,1152
3248.233387379042,1169
3249.914089613516,1132
3251.59452648401,1200
3253.274698313813,1070
3254.95460542629,1143
3256.6342481448855,1185
3258.313626793125,1162
3259.9927416946084,1106
3261.6715931730196,1141
3263.3501815521176,1136
3265.0285071557437,1131
3266.706570307815,1119
3268.3843713323286,1157
3270.0619105533615,1156
3271.739188295068,1167
3273.4162048816834,1163
3275.0929606375184,1207
3276.769455886966,1195
3278.445690954498,1191
3280.1216661646613,1127
3281.797381842087,1180
3283.4728383114807,1154
3285.1480358976296,1162
3286.8229749253996,1154
3288.4976557197333,1193
3290.172078605655,1155
3291.846243908266,1197
3293.5201519527463,1160
3295.193803064357,1169
3296.8671975684374,1195
3298.5403357904024,1173
3300.21321805575,1131
3301.8858446900567,1131
3303.558216018975,1161
3305.23033236824,1169
3306.9021940636603,1184
3308.57380143113,1178
3310.2451547966184,1227
3311.916254486174,1191
3313.5871008259246,1137
3315.2576941420766,1157
3316.9280347609147,1158
3318.5981230088046,1148
3320.2679592121895,1101
3321.9375436975924,1186
3323.606876791612,1102
3325.27595882093,1169
3326.944790112305,1151
3328.6133709925753,1114
3330.2817017886573,1194
3331.949782827547,1217
3333.617614436319,1151
3335.2851969421245,1153
3336.952530672199,1206
3338.619615953853,1184
3340.286453114475,1118
3341.9530424815357,1134
3343.619384382583,1157
3345.2854791452437,1166
3346.951327097224,1135
3348.6169285663073,1121
3350.2822838803577,1171
3351.947393367319,1141
3353.61225735521,1159
3355.2768761721345,1139
3356.9412501462693,1154
3358.605379605873,1192
3360.2692648792827,1161
3361.9329062949146,1148
3363.596304181263,1138
