CollectionTime,9/25/2024 11:12:03 AM
ExposureUsed,3
CalibratedSpectrum
-962.7078968117929,531
-959.9714848408522,541
-957.2358232597828,547
-954.5009119013725,553
-951.7667505983302,601
-949.0333391832855,552
-946.3006774887896,616
-943.5687653473143,581
-940.837602591253,579
-938.1071890529199,595
-935.3775245645503,581
-932.6486089583007,612
-929.9204420662485,566
-927.1930237203925,594
-924.4663537526524,608
-921.7404319948689,578
-919.0152582788041,598
-916.2908324361409,634
-913.5671542984834,595
-910.8442236973568,565
-908.1220404642074,598
-905.4006044304027,604
-902.679915427231,603
-899.959973285902,565
-897.2407778375464,545
-894.5223289132158,589
-891.8046263438832,575
-889.0876699604426,573
-886.3714595937089,535
-883.6559950744183,563
-880.9412762332282,550
-878.2273029007168,568
-875.5140749073835,545
-872.8015920836489,553
-870.0898542598545,560
-867.3788612662631,552
-864.6686129330585,550
-861.9591090903457,560
-859.2503495681506,554
-856.5423341964203,530
-853.8350628050229,538
-851.1285352237478,549
-848.4227512823054,581
-845.7177108103272,580
-843.0134136373656,542
-840.3098595928943,547
-837.6070485063082,594
-834.9049802069229,601
-832.2036545239757,585
-829.5030712866244,550
-826.8032303239481,585
-824.1041314649472,608
-821.4057745385428,583
-818.7081593735775,566
-816.0112857988148,598
-813.3151536429393,576
-810.6197627345566,562
-807.9251129021936,556
-805.2312039742981,571
-802.5380357792392,576
-799.8456081453069,595
-797.1539209007124,611
-794.462973873588,626
-791.772766891987,607
-789.083299783884,579
-786.3945723771743,599
-783.7065844996748,577
-781.0193359791231,598
-778.3328266431781,603
-775.6470563194197,604
-772.9620248353489,580
-770.2777320183878,602
-767.5941776958798,565
-764.9113616950891,549
-762.2292838432011,578
-759.5479439673222,573
-756.8673418944801,580
-754.1874774516235,652
-751.5083504656222,630
-748.8299607632671,584
-746.15230817127,582
-743.475392516264,622
-740.7992136248035,575
-738.1237713233636,600
-735.4490654383407,584
-732.7750957960521,592
-730.1018622227365,615
-727.4293645445534,620
-724.7576025875837,585
-722.0865761778291,589
-719.4162851412126,611
-716.7467293035781,638
-714.0779084906909,604
-711.409822528237,584
-708.7424712418238,624
-706.0758544569796,648
-703.4099719991541,643
-700.7448236937178,595
-698.0804093659622,617
-695.4167288411002,611
-692.7537819442656,633
-690.0915685005134,629
-687.4300883348199,634
-684.7693412720819,649
-682.1093271371178,630
-679.4500457546669,640
-676.7914969493897,645
-674.1336805458676,623
-671.4765963686034,607
-668.8202442420206,627
-666.1646239904642,648
-663.5097354382001,625
-660.8555784094151,623
-658.2021527282176,647
-655.5494582186366,639
-652.8974947046223,663
-650.2462620100463,672
-647.5957599587009,674
-644.9459883742998,684
-642.2969470804776,673
-639.6486359007902,727
-637.0010546587141,659
-634.3542031776476,673
-631.7080812809096,652
-629.0626887917401,650
-626.4180255333008,674
-623.7740913286734,677
-621.1308860008619,705
-618.4884093727904,676
-615.8466612673046,670
-613.2056415071715,645
-610.5653499150785,669
-607.9257863136347,668
-605.28695052537,705
-602.6488423727357,684
-600.0114616781036,664
-597.3748082637674,728
-594.7388819519412,723
-592.1036825647604,690
-589.4692099242818,675
-586.8354638524829,684
-584.2024441712624,732
-581.5701507024403,768
-578.9385832677575,715
-576.3077416888759,721
-573.6776257873787,661
-571.0482353847704,679
-568.4195703024757,656
-565.7916303618415,673
-563.164415384135,689
-560.5379251905453,694
-557.9121596021815,683
-555.2871184400748,715
-552.6628015251767,683
-550.0392086783606,709
-547.4163397204204,753
-544.794194472071,703
-542.1727727539491,770
-539.5520743866118,739
-536.9320991905377,770
-534.3128469861261,770
-531.6943175936979,786
-529.0765108334947,786
-526.4594265256793,854
-523.8430644903358,985
-521.2274245474689,1069
-518.612506517005,1132
-515.9983102187913,1143
-513.3848354725959,1165
-510.77208209810846,1290
-508.16004991493924,1435
-505.5487387426199,1565
-502.9381484006032,1575
-500.3282787082628,1671
-497.71912948489364,1497
-495.1107005497117,1410
-492.5029917218539,1262
-489.8960028203786,1102
-487.28973366426493,975
-484.68418407241325,954
-482.07935386364494,912
-479.47524285670266,903
-476.87185087025,867
-474.2691777228715,898
-471.66722323307334,936
-469.0659872192821,928
-466.4654694998459,876
-463.86566989303384,914
-461.26658821703614,880
-458.66822428996414,886
-456.07057792985,867
-453.4736489546475,921
-450.877437182231,850
-448.28194243039627,834
-445.68716451686,814
-443.09310325926003,845
-440.49975847515555,822
-437.9071299820263,825
-435.31521759727354,844
-432.72402113821954,875
-430.13354042210767,894
-427.5437752661022,844
-424.95472548728867,880
-422.36639090267386,862
-419.7787713291855,888
-417.1918665836721,924
-414.60567648290385,958
-412.0202008435715,938
-409.4354394822874,901
-406.8513922155845,880
-404.26805885991723,897
-401.685439231661,947
-399.103533147112,992
-396.522340422488,973
-393.9418608739278,949
-391.3620943174908,902
-388.7830405691583,862
-386.2046994448317,910
-383.6270707603344,883
-381.05015433141045,826
-378.473949973725,773
-375.8984575028645,705
-373.32367673433623,663
-370.74960748356875,652
-368.1762495659117,662
-365.60360279663576,619
-363.03166699093265,549
-360.4604419639154,529
-357.8899275306178,505
-355.32012350599507,500
-352.7510297049233,494
-350.1826459421999,519
-347.61497203254316,457
-345.04800779059235,483
-342.4817530309082,479
-339.91620756797226,461
-337.35137121618743,525
-334.7872437898774,480
-332.22382510328725,468
-329.66111497058273,562
-327.09911320585127,578
-324.53781962310075,521
-321.9772340362607,533
-319.4173562591816,510
-316.8581861056348,473
-314.2997233893127,464
-311.7419679238294,487
-309.1849195227194,533
-306.62857799943856,550
-304.0729431673641,521
-301.51801483979375,515
-298.963792829947,536
-296.41027695096386,538
-293.85746701590574,587
-291.3053628377552,597
-288.7539642294155,664
-286.2032710037115,678
-283.65328297338897,642
-281.1039999511146,631
-278.5554217494762,671
-276.007548180983,687
-273.4603790580651,705
-270.9139141930734,791
-268.3681533982807,848
-265.8230964858798,771
-263.27874326798565,690
-260.7350935566336,694
-258.1921471637804,775
-255.6499039013039,855
-253.10836358100266,859
-250.56752601459698,711
-248.02739101372765,746
-245.48795838995704,790
-242.94922795476816,811
-240.41119951956557,765
-237.8738728956746,887
-235.33724789434166,859
-232.80132432673452,816
-230.2661020039418,719
-227.73158073697357,798
-225.19776033676033,809
-222.66464061415422,966
-220.1322213799284,807
-217.60050244477725,713
-215.06948361931552,808
-212.53916471408013,944
-210.00954553952818,921
-207.48062590603843,829
-204.9524056239104,753
-202.4248845033651,896
-199.8980623545441,1162
-197.37193898751036,1074
-194.84651421224817,943
-192.32178783866232,808
-189.79775967657952,809
-187.27442953574644,941
-184.7517972258321,1043
-182.2298625564256,876
-179.7086253370378,740
-177.18808537710026,914
-174.66824248596583,1165
-172.14909647290835,1423
-169.6306471471229,1395
-167.11289431772548,1055
-164.59583779375328,983
-162.07947738416453,1217
-159.5638128978386,1538
-157.04884414357605,1741
-154.53457093009854,1896
-152.02099306604828,1477
-149.50811035998936,1275
-146.99592262040665,1278
-144.48442965570587,1410
-141.97363127421409,1632
-139.46352728417958,1745
-136.95411749377126,1726
-134.44540171107985,1752
-131.93737974411636,1579
-129.43005140081357,1380
-126.92341648902493,1904
-124.41747481652521,2234
-121.91222619101006,2656
-119.40767042009657,3516
-116.90380731132257,4292
-114.40063667214702,4001
-111.8981583099503,3119
-109.3963720320337,2846
-106.89527764561933,3341
-104.39487495785067,3865
-101.89516377579241,5490
-99.39614390642998,7778
-96.89781515667039,9076
-94.40017733334128,10147
-91.90323024319173,7029
-89.40697369289148,4318
-86.91140748903172,3410
-84.41653143812482,3523
-81.92234534660395,4169
-79.42884902082358,5867
-76.93604226705907,6821
-74.4439248915071,6282
-71.95249670028534,5989
-69.46175749943245,6692
-66.97170709490854,8694
-64.48234529259423,11275
-61.99367189829195,13556
-59.50568671772464,16189
-57.01838955653636,19366
-54.53178022029283,22866
-52.045858514480074,22909
-49.560624244506016,21820
-47.07607721569923,20471
-44.59221723330904,18108
-42.10904410250669,16815
-39.62655762838392,15830
-37.14475761595372,16341
-34.66364387015028,17944
-32.18321619582866,21465
-29.70347439776515,23822
-27.224418280657005,26514
-24.74604764912317,35053
-22.26836230770266,56531
-19.7913620608565,65041
-17.315046712966478,65041
-14.83941606833514,65041
-12.36446993118659,65041
-9.89020810566592,65041
-7.416630395839093,65041
-4.94373660569363,65041
-2.471526539137585,65041
-6.821210263296962E-13,65041
2.47084320796705,65041
4.941003281093458,65041
7.410480415786196,65041
9.879274808531363,65041
12.347386655893956,65041
14.814816154518212,65041
17.28156350112681,65041
19.74762889252179,65041
22.21301252558385,23267
24.67771459727237,5132
27.141735304626195,3870
29.605074844762612,4117
32.06773341487792,3675
34.52971121224755,3140
36.99100843422559,3029
39.45162527824516,3754
41.91156194181792,3391
44.370818622535126,3004
46.82939551806646,2976
49.287292826160524,2939
51.74451074464503,2519
54.201049471426245,2320
56.65690920448981,2643
59.112090141899785,3009
61.56659248179983,3351
64.02041642241159,2586
66.4735621620365,2131
68.92602989905402,2454
71.37781983192338,2538
73.82893215918205,2161
76.27936707944684,2062
78.72912479141326,1837
81.17820549385567,1869
83.62660938562783,1849
86.07433666566146,1500
88.5213875329681,1688
90.96776218663751,2374
93.41346082583925,2364
95.85848364982041,1824
98.30283085790859,1342
100.7465026495089,1467
103.18949922410604,1485
105.63182078126385,1631
108.07346752062438,1886
110.51443964190923,1725
112.95473734491827,1383
115.39436082953114,1204
117.83331029570547,1378
120.27158594347827,1569
122.7091879729652,1700
125.1461165843615,1825
127.58237197794062,1659
130.01795435405518,1455
132.4528639131364,1268
134.88710085569494,1229
137.32066538231982,1452
139.75355769367923,1285
142.1857779905207,1256
144.61732647366978,1290
147.04820334403132,1222
149.47840880258934,1216
151.90794305040674,1130
154.33680628862487,1190
156.76499871846443,1344
159.19252054122433,1483
161.61937195828352,1476
164.04555317109896,1555
166.47106438120693,1746
168.89590579022217,1895
171.320077599839,2088
173.7435800118302,2143
176.16641322804742,2208
178.58857745042144,2285
181.01007288096173,2207
183.43089972175687,2196
185.85105817497413,2330
188.27054844285988,2207
190.6893707277394,2318
193.10752523201643,2332
195.5250121581745,2365
197.9418317087751,2420
200.3579840864594,2321
202.7734694939469,2436
205.18828813403627,2443
207.6024402096051,2435
210.01592592360964,2430
212.42874547908548,2632
214.84089907914665,2464
217.2523869269868,2345
219.66320922587727,2406
222.0733661791695,2572
224.48285799029293,2578
226.8916848627572,2472
229.29984700014882,2604
231.7073446061355,2612
234.11417788446204,2585
236.520347038953,2624
238.92585227351185,2546
241.33069379212054,2613
243.73487179884035,2667
246.1383864978112,2652
248.541238093252,2760
250.9434267894609,2737
253.34495279081432,2734
255.74581630176783,2730
258.1460175268563,2837
260.54555667069314,2890
262.9444339379703,2861
265.3426495334594,2775
267.7402036620107,2749
270.1370965285529,2573
272.53332833809407,2551
274.9288992957214,2489
277.32380960660055,2469
279.718059475976,2283
282.1116491091717,2325
284.5045787115897,2310
286.89684848871195,2340
289.2884586460981,2373
291.67940938938807,2321
294.0697009242996,2278
296.4593334566299,2374
298.84830719225477,2437
301.23662233712923,2411
303.6242790972866,2266
306.01127767884,2277
308.39761828798066,2288
310.78330113097934,2236
313.16832641418534,2148
315.5526943440269,2101
317.9364051270112,2052
320.3194589697242,2070
322.70185607883093,2052
325.0835966610754,2043
327.4646809232805,2058
329.8451090723478,2043
332.2248813152577,2052
334.6039978590701,2066
336.9824589109231,2014
339.36026467803447,2037
341.7374153677,1974
344.113911187295,1893
346.48975234427337,1965
348.8649390461686,2037
351.2394715005918,1924
353.61334991523415,1922
355.9865744978655,1916
358.35914545633375,1918
360.73106299856715,1830
363.10232733257146,1901
365.47293866643247,1948
367.84289720831396,1946
370.2122031664593,1821
372.5808567491905,1888
374.9488581649083,1799
377.31620762209275,1793
379.6829053293021,1781
382.0489514951745,1913
384.4143463284262,1882
386.7790900378528,1783
389.14318283232853,1757
391.50662492080653,1761
393.86941651231916,1786
396.23155781597745,1855
398.5930490409713,1802
400.9538903965696,1807
403.3140820921202,1784
405.6736243370498,1841
408.03251734086336,1730
410.3907613131465,1734
412.74835646356166,1771
415.10530300185144,1747
417.4616011378372,1768
419.81725108141893,1728
422.1722530425758,1758
424.5266072313656,1753
426.880313857925,1756
429.2333731324701,1778
431.58578526529516,1747
433.9375504667738,1739
436.2886689473588,1714
438.63914091758113,1725
440.9889665880513,1749
443.33814616945835,1714
445.68667987257015,1699
448.03456790823395,1650
450.3818104873759,1702
452.72840782100013,1662
455.07436012019105,1699
457.41966759611057,1742
459.7643304600007,1706
462.10834892318155,1691
464.4517231970525,1654
466.79445349309174,1780
469.1365400228566,1766
471.4779829979826,1798
473.81878263018564,1751
476.15893913125876,1691
478.4984527130747,1808
480.8373235875855,1768
483.17555196682144,1851
485.5131380628919,1940
487.8500820879857,1978
490.1863842543697,1991
492.52204477439034,2149
494.8570638604725,2285
497.1914417251204,2547
499.52517858091653,2874
501.85827464052306,3201
504.19073011668036,3418
506.5225452222086,3491
508.85372017000566,3370
511.18425517304956,3368
513.514150444396,3610
515.8434061971808,4124
518.1720226446176,5078
520.4999999999999,5122
522.8273384766991,4928
525.1540382881666,4437
527.480099647932,4066
529.8055227696037,3242
532.1303078668694,2454
534.454455153496,2013
536.777964843328,1910
539.1008371502907,1775
541.4230722883866,1719
543.744670471698,1756
546.0656319143858,1741
548.3859568306899,1739
550.7056454349294,1677
553.0246979415016,1696
555.3431145648834,1738
557.6608955196306,1702
559.978041020377,1664
562.2945512818363,1707
564.6104265188006,1678
566.9256669461412,1677
569.2402727788082,1686
571.5542442318302,1724
573.8675815203156,1713
576.1802848594508,1716
578.4923544645015,1736
580.8037905508126,1699
583.114593333807,1732
585.4247630289875,1695
587.7342998519354,1717
590.0432040183106,1779
592.3514757438526,1718
594.6591152443794,1716
596.9661227357875,1676
599.2724984340531,1696
601.578242555231,1652
603.8833553154542,1693
606.1878369309362,1632
608.4916876179676,1692
610.7949075929192,1667
613.0974970722403,1700
615.3994562724587,1653
617.7007854101818,1687
620.0014847020951,1758
622.3015543649641,1717
624.6009946156324,1679
626.8998056710224,1761
629.1979877481361,1759
631.4955410640538,1698
633.7924658359349,1643
636.0887622810175,1616
638.3844306166192,1700
640.6794710601358,1696
642.9738838290426,1759
645.2676691408932,1716
647.5608272133207,1752
649.853358264037,1689
652.1452625108324,1710
654.4365401715764,1737
656.7271914642178,1652
659.0172166067838,1832
661.3066158173809,1798
663.5953893141935,1756
665.8835373154867,1788
668.1710600396028,1775
670.4579577049639,1779
672.7442305300709,1851
675.0298787335033,1806
677.3149025339197,1780
679.599302150058,1690
681.8830778007342,1778
684.1662297048437,1732
686.4487580813608,1665
688.7306631493387,1750
691.0119451279091,1777
693.2926042362834,1784
695.5726406937516,1726
697.8520547196814,1777
700.1308465335215,1755
702.4090163547982,1722
704.6865644031171,1673
706.9634908981619,1744
709.2397960596965,1702
711.5154801075631,1694
713.7905432616823,1761
716.0649857420548,1789
718.3388077687592,1770
720.612009561953,1724
722.8845913418733,1752
725.1565533288352,1771
727.427895743234,1701
729.6986188055427,1707
731.9687227363137,1713
734.238207756178,1702
736.5070740858458,1682
738.7753219461066,1732
741.0429515578281,1673
743.3099631419569,1672
745.5763569195191,1670
747.8421331116193,1649
750.1072919394409,1737
752.3718336242467,1680
754.6357583873777,1705
756.8990664502545,1758
759.1617580343765,1784
761.423833361321,1731
763.6852926527457,1668
765.9461361303862,1755
768.206364016058,1776
770.4659765316536,1760
772.7249738991469,1792
774.9833563405886,1770
777.2411240781092,1812
779.4982773339183,1748
781.7548163303044,1770
784.010741289634,1791
786.2660524343538,1765
788.5207499869881,1787
790.7748341701416,1805
793.0283052064964,1774
795.2811633188143,1743
797.5334087299362,1802
799.7850416627813,1752
802.0360623403484,1790
804.2864709857143,1743
806.5362678220353,1754
808.7854530725468,1747
811.0340269605625,1770
813.2819897094754,1757
815.5293415427581,1791
817.77608268396,1742
820.0222133567116,1802
822.2677337847211,1806
824.5126441917765,1763
826.7569448017433,1837
829.0006358385675,1714
831.2437175262731,1769
833.4861900889629,1745
835.7280537508192,1746
837.9693087361026,1763
840.2099552691533,1813
842.4499935743896,1756
844.689423876309,1676
846.9282463994886,1727
849.1664613685833,1760
851.4040690083276,1729
853.6410695435349,1740
855.877463199097,1728
858.1132501999847,1795
860.3484307712487,1763
862.5830051380175,1780
864.8169735254988,1775
867.0503361589791,1788
869.2830932638243,1773
871.5152450654786,1797
873.7467917894654,1788
875.9777336613873,1821
878.2080709069252,1777
880.4378037518389,1820
882.666932421968,1837
884.8954571432301,1784
887.1233781416219,1796
889.3506956432192,1806
891.5774098741766,1789
893.803521060728,1828
896.0290294291852,1845
898.2539352059397,1910
900.4782386174619,1834
902.7019398903011,1844
904.925039251085,1912
907.147536926521,1814
909.3694331433943,1894
911.59072812857,1801
913.8114221089921,1868
916.0315153116827,1837
918.2510079637437,1800
920.4699002923547,1801
922.6881925247761,1794
924.905884888345,1757
927.1229776104793,1772
929.3394709186747,1831
931.555365040506,1769
933.7706602036275,1819
935.9853566357709,1818
938.1994545647489,1873
940.4129542184515,1823
942.6258558248488,1861
944.8381596119883,1875
947.0498658079974,1766
949.2609746410825,1861
951.4714863395287,1826
953.6814011316998,1770
955.8907192460387,1815
958.0994409110671,1853
960.3075663553858,1794
962.5150958076741,1753
964.7220294966913,1820
966.928367651274,1839
969.1341105003388,1755
971.3392582728806,1740
973.5438111979742,1780
975.747769504772,1697
977.9511334225061,1718
980.153903180487,1765
982.3560790081052,1756
984.5576611348289,1752
986.7586497902058,1678
988.9590452038618,1710
991.158847605503,1666
993.3580572249133,1727
995.5566742919558,1592
997.7546990365728,1618
999.952131688785,1620
1002.1489724786926,1624
1004.3452216364743,1607
1006.5408793923874,1524
1008.7359459767691,1555
1010.9304216200343,1514
1013.1243065526781,1540
1015.3176010052733,1536
1017.510305208472,1447
1019.7024193930064,1524
1021.8939437896848,1461
1024.0848786293977,1466
1026.2752241431122,1491
1028.4649805618747,1513
1030.6541481168115,1556
1032.842727039127,1563
1035.0307175601051,1515
1037.2181199111074,1455
1039.4049343235752,1465
1041.591161029029,1441
1043.7768002590683,1432
1045.9618522453698,1457
1048.1463172196918,1443
1050.3301954138697,1472
1052.513487059818,1467
1054.69619238953,1455
1056.8783116350783,1494
1059.0598450286152,1422
1061.2407928023704,1479
1063.4211551886528,1525
1065.6009324198508,1458
1067.780124728432,1478
1069.9587323469414,1471
1072.1367555080046,1493
1074.314194444325,1466
1076.4910493886855,1445
1078.667320573947,1457
1080.843008233051,1402
1083.0181125990161,1447
1085.1926339049414,1415
1087.3665723840027,1401
1089.5399282694575,1412
1091.7127017946405,1408
1093.8848931929647,1412
1096.0565026979243,1430
1098.2275305430899,1367
1100.3979769621128,1349
1102.567842188722,1410
1104.737126456726,1375
1106.9058300000124,1350
1109.0739530525475,1383
1111.2414958483764,1374
1113.4084586216231,1357
1115.5748416064907,1361
1117.7406450372605,1387
1119.9058691482942,1381
1122.0705141740304,1429
1124.2345803489884,1405
1126.3980679077658,1447
1128.5609770850388,1385
1130.7233081155623,1338
1132.8850612341707,1421
1135.0462366757774,1393
1137.2068346753745,1368
1139.3668554680326,1369
1141.526299288901,1362
1143.68516637321,1395
1145.8434569562655,1402
1148.001171273455,1333
1150.158309560244,1339
1152.3148720521767,1376
1154.470858984876,1373
1156.626270594044,1390
1158.7811071154629,1350
1160.9353687849912,1368
1163.089055838569,1409
1165.242168512213,1312
1167.3947070420209,1354
1169.5466716641677,1352
1171.6980626149075,1348
1173.8488801305748,1411
1175.9991244475814,1449
1178.1487958024186,1423
1180.2978944316555,1432
1182.4464205719428,1356
1184.5943744600072,1350
1186.7417563326567,1371
1188.8885664267755,1349
1191.0348049793297,1396
1193.1804722273619,1373
1195.325568407995,1385
1197.4700937584303,1361
1199.614048515948,1414
1201.7574329179074,1338
1203.900247201746,1389
1206.042491604982,1400
1208.1841663652099,1346
1210.3252717201053,1386
1212.465807907422,1369
1214.6057751649923,1371
1216.7451737307279,1372
1218.8840038426192,1348
1221.0222657387353,1445
1223.1599596572241,1413
1225.2970858363137,1409
1227.4336445143094,1389
1229.5696359295966,1376
1231.705060320639,1456
1233.8399179259786,1418
1235.9742089842384,1399
1238.107933734118,1435
1240.2410924143974,1388
1242.373685263935,1404
1244.5057125216676,1472
1246.6371744266116,1438
1248.7680712178621,1468
1250.898403134593,1430
1253.028170416058,1408
1255.1573733015875,1423
1257.2860120305932,1471
1259.4140868425648,1446
1261.54159797707,1484
1263.6685456737569,1449
1265.7949301723515,1458
1267.9207517126597,1469
1270.046010534565,1518
1272.1707068780306,1556
1274.2948409830983,1521
1276.4184130898889,1491
1278.541423438603,1513
1280.6638722695184,1445
1282.785759822993,1475
1284.9070863394636,1553
1287.0278520594447,1543
1289.1480572235314,1553
1291.2677020723963,1545
1293.3867868467923,1525
1295.5053117875495,1580
1297.623277135579,1588
1299.740683131868,1590
1301.8575300174857,1600
1303.973818033578,1577
1306.0895474213703,1622
1308.2047184221678,1642
1310.3193312773528,1714
1312.4333862283888,1690
1314.5468835168163,1674
1316.659823384255,1673
1318.7722060724045,1684
1320.8840318230418,1655
1322.9953008780249,1652
1325.1060134792888,1649
1327.2161698688478,1671
1329.3257702887959,1673
1331.4348149813054,1709
1333.5433041886276,1645
1335.6512381530933,1646
1337.7586171171101,1716
1339.8654413231675,1637
1341.9717110138317,1641
1344.0774264317488,1634
1346.1825878196432,1624
1348.2871954203192,1590
1350.3912494766587,1610
1352.4947502316231,1576
1354.5976979282532,1576
1356.7000928096686,1596
1358.8019351190665,1599
1360.9032250997243,1586
1363.0039629949988,1582
1365.1041490483235,1545
1367.2037835032133,1590
1369.3028666032606,1553
1371.401398592137,1548
1373.4993797135926,1573
1375.5968102114575,1566
1377.6936903296396,1555
1379.7900203121262,1590
1381.8858004029835,1635
1383.9810308463561,1544
1386.075711886469,1598
1388.1698437676241,1534
1390.2634267342032,1618
1392.356461030667,1579
1394.4489469015557,1523
1396.5408845914872,1553
1398.6322743451592,1602
1400.7231164073469,1586
1402.813411022907,1633
1404.903158436773,1640
1406.9923588939578,1563
1409.0810126395531,1629
1411.1691199187303,1598
1413.2566809767386,1613
1415.343696058907,1641
1417.4301654106425,1685
1419.5160892774315,1627
1421.6014679048399,1634
1423.6863015385125,1643
1425.7705904241707,1644
1427.8543348076178,1654
1429.9375349347342,1704
1432.0201910514802,1641
1434.102303403894,1744
1436.1838722380944,1660
1438.2648978002767,1683
1440.3453803367174,1726
1442.4253200937692,1746
1444.5047173178677,1809
1446.5835722555234,1822
1448.6618851533285,1800
1450.739656257952,1829
1452.8168858161434,1840
1454.8935740747306,1878
1456.96972128062,1928
1459.045327680797,1855
1461.120393522327,1918
1463.1949190523528,2022
1465.2689045180973,1987
1467.3423501668608,2004
1469.415256246024,2073
1471.4876230030463,2007
1473.559450685465,2058
1475.6307395408976,2228
1477.7014898170391,2138
1479.771701761665,2097
1481.8413756226287,2150
1483.9105116478618,2199
1485.9791100853772,2162
1488.0471711832643,2204
1490.1146951896926,2272
1492.1816823529098,2331
1494.2481329212433,2337
1496.3140471430984,2294
1498.3794252669609,2314
1500.4442675413939,2293
1502.5085742150404,2307
1504.572345536622,2373
1506.6355817549388,2349
1508.6982831188702,2461
1510.7604498773744,2405
1512.8220822794883,2382
1514.8831805743293,2384
1516.9437450110909,2526
1519.003775839048,2509
1521.0632733075522,2495
1523.1222376660367,2523
1525.1806691640113,2528
1527.2385680510652,2439
1529.2959345768668,2511
1531.3527689911643,2591
1533.4090715437833,2666
1535.4648424846291,2561
1537.5200820636855,2646
1539.5747905310159,2621
1541.6289681367616,2710
1543.6826151311434,2756
1545.7357317644614,2778
1547.7883182870937,2727
1549.8403749494987,2785
1551.8919020022113,2851
1553.9428996958477,2918
1555.9933682811015,2887
1558.0433080087469,2986
1560.0927191296346,3079
1562.1416018946961,3036
1564.1899565549415,3148
1566.2377833614592,3156
1568.2850825654164,3231
1570.3318544180606,3173
1572.3780991707158,3113
1574.423817074788,2952
1576.4690083817595,2942
1578.5136733431923,2729
1580.5578122107272,2783
1582.601425236085,2637
1584.6445126710646,2527
1586.6870747675434,2468
1588.7291117774776,2388
1590.7706239529034,2331
1592.8116115459347,2275
1594.8520748087658,2140
1596.8920139936686,2155
1598.9314293529933,2083
1600.9703211391711,2019
1603.008689604711,1957
1605.0465350022005,1896
1607.0838575843068,1933
1609.1206576037753,1838
1611.1569353134305,1756
1613.1926909661765,1715
1615.2279248149953,1736
1617.2626371129481,1662
1619.2968281131757,1736
1621.3304980688963,1645
1623.3636472334088,1659
1625.39627586009,1624
1627.428384202396,1563
1629.459972513861,1566
1631.4910410480993,1545
1633.5215900588028,1591
1635.551619799744,1566
1637.5811305247717,1565
1639.6101224878166,1541
1641.6385959428862,1512
1643.6665511440683,1508
1645.693988345528,1441
1647.7209078015112,1464
1649.7473097663405,1461
1651.7731944944203,1432
1653.7985622402307,1430
1655.823413258333,1492
1657.847747803366,1438
1659.8715661300494,1429
1661.8948684931793,1488
1663.9176551476316,1432
1665.9399263483624,1430
1667.9616823504057,1409
1669.982923408873,1409
1672.0036497789574,1465
1674.0238617159293,1469
1676.043559475138,1412
1678.0627433120121,1436
1680.081413482059,1406
1682.0995702408654,1439
1684.117213844096,1469
1686.134344547495,1369
1688.1509626068864,1390
1690.1670682781705,1435
1692.182661817329,1421
1694.1977434804217,1393
1696.2123135235875,1408
1698.226372203043,1385
1700.2399197750851,1376
1702.2529564960905,1482
1704.2654826225112,1449
1706.277498410882,1410
1708.2890041178139,1409
1710.2999999999988,1385
1712.3104863142066,1392
1714.3204633172854,1366
1716.329931266163,1337
1718.3388904178469,1367
1720.3473410294214,1371
1722.3552833580516,1401
1724.3627176609807,1398
1726.3696441955308,1398
1728.3760632191033,1365
1730.3819749891782,1408
1732.3873797633146,1316
1734.3922777991502,1351
1736.3966693544012,1319
1738.4005546868639,1329
1740.4039340544127,1352
1742.406807715001,1349
1744.4091759266616,1366
1746.4110389475054,1338
1748.4123970357223,1347
1750.413250449582,1324
1752.4135994474318,1367
1754.4134442876993,1339
1756.4127852288902,1339
1758.4116225295893,1374
1760.4099564484595,1285
1762.407787244244,1313
1764.405115175764,1313
1766.4019405019203,1355
1768.3982634816916,1299
1770.3940843741357,1346
1772.3894034383907,1282
1774.3842209336717,1289
1776.378537119274,1276
1778.372352254571,1240
1780.3656665990156,1320
1782.3584804121397,1328
1784.3507939535534,1265
1786.3426074829463,1269
1788.3339212600863,1281
1790.3247355448211,1313
1792.3150505970766,1286
1794.3048666768573,1260
1796.2941840442477,1266
1798.2830029594106,1269
1800.2713236825884,1268
1802.2591464741004,1289
1804.2464715943465,1276
1806.2332993038058,1204
1808.2196298630352,1334
1810.2054635326708,1317
1812.190800573428,1329
1814.175641246101,1285
1816.1599858115628,1275
1818.1438345307652,1319
1820.127187664738,1275
1822.1100454745924,1279
1824.092408221516,1254
1826.0742761667766,1249
1828.055649571721,1275
1830.0365286977735,1241
1832.0169138064398,1281
1833.9968051593014,1261
1835.9762030180214,1303
1837.9551076443408,1239
1839.9335193000788,1246
1841.9114382471344,1274
1843.888864747485,1292
1845.8657990631878,1270
1847.842241456378,1249
1849.8181921892697,1261
1851.7936515241558,1258
1853.7686197234098,1279
1855.7430970494815,1266
1857.7170837649014,1285
1859.6905801322787,1270
1861.6635864143004,1312
1863.6361028737338,1272
1865.608129773424,1312
1867.5796673762961,1272
1869.5507159453537,1277
1871.521275743678,1314
1873.4913470344313,1301
1875.4609300808534,1326
1877.4300251462632,1318
1879.3986324940588,1257
1881.366752387717,1275
1883.3343850907936,1245
1885.3015308669228,1322
1887.268189979819,1280
1889.2343626932739,1333
1891.2000492711595,1265
1893.1652499774254,1261
1895.1299650761011,1294
1897.0941948312952,1332
1899.0579395071945,1355
1901.0211993680641,1292
1902.98397467825,1365
1904.9462657021745,1326
1906.9080727043415,1318
1908.869395949332,1270
1910.8302357018065,1308
1912.790592226504,1345
1914.7504657882428,1279
1916.7098566519212,1344
1918.6687650825133,1328
1920.6271913450764,1270
1922.5851357047422,1357
1924.5425984267245,1240
1926.499579776314,1311
1928.4560800188833,1296
1930.4120994198802,1368
1932.367638244833,1290
1934.32269675935,1296
1936.2772752291175,1320
1938.231373919899,1266
1940.1849930975404,1365
1942.1381330279637,1209
1944.0907939771696,1249
1946.0429762112412,1311
1947.9946799963363,1300
1949.9459055986945,1272
1951.896653284633,1266
1953.8469233205478,1279
1955.7967159729142,1263
1957.7460315082863,1288
1959.6948701932974,1319
1961.6432322946594,1271
1963.5911180791632,1268
1965.5385278136787,1225
1967.4854617651545,1237
1969.4319202006182,1301
1971.377903387176,1266
1973.3234115920136,1256
1975.268445082395,1274
1977.2130041256642,1271
1979.1570889892423,1234
1981.1006999406304,1202
1983.04383724741,1244
1984.986501177238,1184
1986.928691997853,1207
1988.8704099770712,1294
1990.811655382789,1221
1992.7524284829801,1259
1994.692729545698,1274
1996.6325588390755,1246
1998.5719166313224,1247
2000.5108031907307,1206
2002.4492187856677,1240
2004.387163684583,1245
2006.3246381560011,1236
2008.2616424685298,1216
2010.1981768908527,1221
2012.1342416917332,1268
2014.069837140014,1269
2016.0049635046162,1277
2017.9396210545406,1198
2019.8738100588666,1186
2021.8075307867502,1198
2023.740783507431,1209
2025.6735684902228,1242
2027.6058860045214,1205
2029.5377363198004,1220
2031.4691197056118,1247
2033.4000364315875,1247
2035.3304867674374,1218
2037.260470982952,1190
2039.189989347998,1240
2041.1190421325232,1247
2043.047629606554,1238
2044.9757520401945,1173
2046.9034097036288,1197
2048.8306028671195,1219
2050.7573318010086,1249
2052.683596775716,1198
2054.609398061742,1222
2056.5347359296647,1212
2058.4596106501403,1209
2060.384022493906,1201
2062.3079717317764,1186
2064.231458634646,1224
2066.1544834734873,1252
2068.077046519352,1210
2069.99914804337,1150
2071.9207883167524,1193
2073.8419676107865,1253
2075.7626861968406,1218
2077.6829443463607,1245
2079.6027423308715,1225
2081.522080421977,1238
2083.440958891362,1261
2085.359378010786,1200
2087.2773380520907,1245
2089.194839287196,1259
2091.111881988101,1187
2093.0284664268825,1283
2094.9445928756973,1196
2096.86026160678,1249
2098.775472892446,1252
2100.690227005088,1249
2102.604524217178,1253
2104.5183648012676,1207
2106.431749029985,1212
2108.34467717604,1214
2110.2571495122206,1155
2112.169166311393,1232
2114.080727846503,1244
2115.9918343905747,1241
2117.902486216711,1190
2119.8126835980956,1242
2121.722426807987,1169
2123.6317161197285,1187
2125.5405518067364,1235
2127.448934142509,1226
2129.356863400624,1229
2131.264339854737,1220
2133.1713637785815,1216
2135.077935445972,1273
2136.9840551308002,1180
2138.889723107037,1230
2140.7949396487334,1212
2142.699705030018,1238
2144.6040195250994,1271
2146.507883408264,1223
2148.4112969538774,1225
2150.3142604363848,1262
2152.2167741303097,1245
2154.1188383102535,1271
2156.0204532508997,1331
2157.9216192270064,1289
2159.822336513414,1227
2161.7226053850413,1259
2163.622426116884,1187
2165.5217989840185,1201
2167.4207242616,1282
2169.319202224862,1314
2171.2172331491165,1261
2173.1148173097563,1239
2175.0119549822507,1269
2176.90864644215,1193
2178.8048919650823,1274
2180.7006918267534,1278
2182.596046302952,1253
2184.4909556695407,1222
2186.3854202024645,1313
2188.279440177746,1237
2190.173015871487,1298
2192.066147559868,1265
2193.958835519149,1266
2195.851080025667,1244
2197.7428813558417,1260
2199.6342397861667,1222
2201.5251555932186,1251
2203.415629053651,1242
2205.3056604441986,1241
2207.19525004167,1303
2209.084398122958,1275
2210.9731049650327,1248
2212.861370844941,1289
2214.749196039812,1268
2216.636580826851,1247
2218.523525483344,1284
2220.410030286655,1303
2222.296095514226,1261
2224.1817214435805,1288
2226.066908352319,1237
2227.951656518121,1311
2229.835966218746,1311
2231.71983773203,1283
2233.6032713358913,1234
2235.486267308324,1278
2237.3688259274036,1304
2239.2509474712824,1247
2241.132632218193,1229
2243.013880446447,1286
2244.8946924344323,1253
2246.7750684606203,1293
2248.6550088035574,1253
2250.534513741871,1286
2252.413583554265,1311
2254.292218519526,1290
2256.170418916517,1344
2258.0481850241786,1289
2259.925517121534,1253
2261.8024154876825,1242
2263.678880401803,1272
2265.5549121431536,1261
2267.430510991071,1298
2269.305677224971,1273
2271.180411124348,1302
2273.0547129687766,1254
2274.9285830379076,1287
2276.8020216114737,1209
2278.6750289692845,1277
2280.5476053912294,1300
2282.4197511572766,1302
2284.2914665474727,1282
2286.162751841943,1274
2288.0336073208937,1325
2289.904033264608,1373
2291.774029953448,1289
2293.6435976678554,1300
2295.5127366883517,1301
2297.381447295534,1293
2299.2497297700825,1289
2301.1175843927526,1271
2302.9850114443825,1299
2304.852011205885,1186
2306.7185839582553,1225
2308.5847299825664,1206
2310.4504495599676,1167
2312.3157429716925,1185
2314.1806104990483,1207
2316.0450524234247,1200
2317.9090690262888,1145
2319.772660589186,1189
2321.635827393742,1215
2323.498569721661,1113
2325.3608878547248,1137
2327.2227820747967,1199
2329.0842526638157,1220
2330.945299903803,1194
2332.805924076857,1152
2334.6661254651535,1154
2336.525904350951,1156
2338.3852610165827,1156
2340.244195744464,1189
2342.102708817088,1225
2343.9608005170253,1174
2345.8184711269287,1219
2347.675720929526,1201
2349.532550207628,1190
2351.38895924412,1239
2353.24494832197,1207
2355.100517724223,1186
2356.955667734004,1218
2358.810398634514,1182
2360.664710709037,1186
2362.5186042409337,1205
2364.3720795136437,1218
2366.225136810686,1203
2368.0777764156583,1156
2369.929998612237,1189
2371.7818036841777,1251
2373.633191915315,1237
2375.484163589562,1212
2377.3347189909114,1159
2379.184858403434,1155
2381.03458211128,1211
2382.8838903986775,1130
2384.732783549936,1217
2386.5812618494406,1168
2388.4293255816588,1197
2390.2769750311327,1213
2392.1242104824883,1241
2393.971032220427,1248
2395.8174405297295,1223
2397.6634356952563,1246
2399.509018001947,1175
2401.3541877348193,1231
2403.1989451789705,1216
2405.043290619576,1186
2406.8872243418905,1214
2408.730746631247,1220
2410.5738577730594,1248
2412.4165580528183,1190
2414.258847756095,1247
2416.100727168537,1234
2417.9421965758734,1183
2419.783256263912,1216
2421.623906518538,1248
2423.4641476257157,1231
2425.303979871491,1164
2427.143403541984,1269
2428.9824189233977,1262
2430.821026302012,1223
2432.6592259641866,1227
2434.497018196361,1237
2436.33440328505,1252
2438.171381516851,1197
2440.00795317844,1257
2441.844118556569,1260
2443.6798779380724,1213
2445.5152316098606,1225
2447.3501798589255,1251
2449.1847229723357,1279
2451.0188612372403,1224
2452.8525949408663,1254
2454.6859243705203,1193
2456.518849813587,1202
2458.3513715575314,1234
2460.183489889895,1268
2462.015205098301,1206
2463.8465174704493,1218
2465.67742729412,1208
2467.5079348571717,1305
2469.338040447542,1267
2471.1677443532476,1217
2472.9970468623833,1240
2474.825948263123,1235
2476.6544488437207,1218
2478.482548892508,1203
2480.310248697896,1264
2482.137548548374,1254
2483.9644487325118,1220
2485.790949538956,1233
2487.617051256433,1227
2489.44275417375,1258
2491.26805857979,1225
2493.0929647635157,1277
2494.917473013971,1230
2496.741583620276,1211
2498.5652968716304,1295
2500.3886130573137,1303
2502.2115324666834,1243
2504.0340553891765,1236
2505.856182114308,1211
2507.6779129316733,1301
2509.499248130945,1268
2511.3201880018764,1324
2513.140732834298,1274
2514.9608829181198,1273
2516.780638543331,1297
2518.6,1295
2520.418967578273,1356
2522.237541568376,1328
2524.0557222606144,1267
2525.8735099453706,1251
2527.6909049131086,1314
2529.507907454368,1352
2531.32451785977,1284
2533.140736420014,1315
2534.9565634258774,1340
2536.771999168218,1309
2538.5870439379714,1338
2540.4016980261526,1369
2542.2159617238544,1361
2544.02983532225,1376
2545.8433191125914,1354
2547.656413386209,1412
2549.4691184345115,1440
2551.2814345489874,1416
2553.093362021204,1411
2554.904901142808,1370
2556.716052205523,1469
2558.526815501153,1415
2560.3371913215824,1397
2562.147179958771,1453
2563.956781704761,1485
2565.7659968516705,1441
2567.5748256916986,1455
2569.3832685171224,1445
2571.1913256202984,1443
2572.9989972936614,1533
2574.806283829725,1482
2576.613185521084,1486
2578.4197026604074,1534
2580.2258355404483,1530
2582.031584454035,1527
2583.836949694077,1484
2585.6419315535613,1496
2587.4465303255533,1551
2589.2507463032002,1576
2591.0545797797245,1512
2592.8580310484303,1473
2594.6611004026995,1534
2596.463788135992,1525
2598.266094541849,1475
2600.0680199138874,1516
2601.869564545807,1482
2603.670728731383,1532
2605.4715127644704,1508
2607.2719169390048,1558
2609.071941548998,1557
2610.8715868885433,1555
2612.670853251811,1542
2614.469740933052,1462
2616.268250226594,1534
2618.0663814268455,1459
2619.864134828292,1574
2621.6615107255006,1508
2623.458509413115,1571
2625.2551311858597,1498
2627.0513763385347,1437
2628.8472451660223,1453
2630.6427379632833,1511
2632.4378550253564,1496
2634.232596647359,1386
2636.026963124488,1454
2637.8209547520187,1475
2639.6145718253065,1471
2641.407814639785,1407
2643.200683490966,1377
2644.9931786744414,1420
2646.7853004858807,1476
2648.577049221034,1428
2650.3684251757277,1360
2652.1594286458712,1379
2653.9500599274484,1336
2655.740319316525,1367
2657.5302071092437,1351
2659.3197236018286,1397
2661.10886909058,1364
2662.8976438718782,1321
2664.686048242183,1317
2666.4740824980327,1341
2668.2617469360443,1325
2670.0490418529134,1387
2671.8359675454153,1291
2673.622524310403,1312
2675.408712444811,1360
2677.1945322456495,1353
2678.979984010009,1331
2680.76506803506,1295
2682.5497846180497,1317
2684.334134056306,1277
2686.1181166472343,1230
2687.9017326883213,1285
2689.6849824771293,1304
2691.4678663113013,1248
2693.2503844885596,1237
2695.032537306705,1268
2696.8143250636167,1241
2698.5957480572542,1304
2700.3768065856534,1257
2702.1575009469316,1254
2703.937831439283,1265
2705.717798360982,1256
2707.4974020103837,1225
2709.276642685917,1226
2711.055520686095,1209
2712.834036309506,1255
2714.612189854819,1211
2716.389981620782,1227
2718.1674119062204,1205
2719.944481010041,1193
2721.721189231226,1226
2723.4975368688415,1184
2725.273524222027,1129
2727.0491515900053,1227
2728.824419272075,1152
2730.5993275676146,1183
2732.3738767760838,1193
2734.148067197016,1142
2735.921899130031,1203
2737.6953728748194,1190
2739.468488731156,1144
2741.2412469988926,1179
2743.0136479779617,1164
2744.785691968372,1174
2746.5573792702116,1219
2748.3287101836504,1175
2750.099685008934,1170
2751.870304046388,1210
2753.640567596418,1164
2755.4104759595057,1181
2757.1800294362156,1188
2758.949228327187,1197
2760.7180729331412,1156
2762.486563554877,1144
2764.254700493272,1153
2766.022484049284,1157
2767.789914523947,1140
2769.5569922183786,1135
2771.3237174337705,1193
2773.090090471394,1127
2774.8561116326036,1127
2776.6217812188274,1133
2778.3870995315756,1136
2780.1520668724356,1107
2781.9166835430747,1210
2783.6809498452394,1172
2785.444866080754,1165
2787.2084325515225,1113
2788.971649559527,1145
2790.73451740683,1133
2792.4970363955713,1130
2794.2592068279705,1176
2796.0210290063264,1162
2797.7825032330147,1171
2799.543629810493,1127
2801.304409041296,1160
2803.0648412280366,1123
2804.8249266734088,1115
2806.5846656801846,1105
2808.344058551212,1164
2810.1031055894246,1195
2811.8618070978273,1199
2813.6201633795085,1188
2815.378174737636,1163
2817.1358414754536,1143
2818.893163896285,1159
2820.6501423035334,1165
2822.4067770006814,1142
2824.1630682912883,1109
2825.9190164789957,1163
2827.6746218675207,1147
2829.429884760661,1175
2831.184805462294,1125
2832.9393842763743,1171
2834.693621506936,1139
2836.4475174580916,1149
2838.201072434034,1121
2839.954286739034,1120
2841.707160677441,1158
2843.459694553685,1145
2845.2118886722724,1126
2846.96374333779,1102
2848.7152588549034,1097
2850.4664355283567,1147
2852.217273662973,1197
2853.9677735636546,1142
2855.7179355353833,1157
2857.4677598832186,1176
2859.217246912299,1137
2860.9663969278427,1167
2862.715210235146,1088
2864.4636871395846,1151
2866.211827946614,1165
2867.9596329617652,1063
2869.7071024906536,1163
2871.4542368389684,1145
2873.20103631248,1222
2874.947501217038,1170
2876.6936318585695,1122
2878.4394285430812,1145
2880.1848915766604,1186
2881.9300212654707,1180
2883.6748179157553,1121
2885.4192818338374,1139
2887.1634133261173,1096
2888.907212699077,1150
2890.6506802592744,1125
2892.393816313348,1184
2894.1366211680142,1160
2895.8790951300693,1208
2897.621238506388,1143
2899.363051603925,1143
2901.1045347297118,1140
2902.8456881908596,1141
2904.58651229456,1115
2906.327007348081,1142
2908.067173658772,1153
2909.8070115340597,1141
2911.5465212814497,1121
2913.285703208527,1141
2915.0245576229563,1128
2916.7630848324807,1113
2918.5012851449196,1123
2920.2391588681758,1188
2921.976706310227,1180
2923.7139277791334,1109
2925.4508235830313,1095
2927.187394030137,1162
2928.923639428745,1173
2930.6595600872306,1133
2932.395156314046,1139
2934.1304284177218,1144
2935.8653767068713,1132
2937.6000014901815,1126
2939.3343030764227,1112
2941.068281774442,1139
2942.8019378931644,1134
2944.5352717415976,1228
2946.2682836288236,1186
2948.0009738640065,1172
2949.7333427563885,1182
2951.465390615289,1123
2953.1971177501086,1138
2954.9285244703265,1148
2956.6596110855,1147
2958.3903779052657,1141
2960.1208252393385,1141
2961.8509533975125,1131
2963.5807626896617,1113
2965.3102534257378,1131
2967.0394259157715,1128
2968.768280469873,1136
2970.496817398232,1197
2972.2250370111146,1139
2973.952939618869,1170
2975.6805255319196,1131
2977.4077950607707,1110
2979.134748516006,1159
2980.861386208289,1112
2982.587708448359,1100
2984.313715547037,1124
2986.039407815222,1121
2987.764785563891,1123
2989.489849104102,1128
2991.2145987469908,1136
2992.9390348037705,1153
2994.6631575857346,1108
2996.3869674042576,1126
2998.1104645707887,1108
2999.83364939686,1138
3001.5565221940783,1139
3003.2790832741334,1171
3005.0013329487924,1063
3006.7232715298996,1127
3008.4448993293804,1101
3010.166216659239,1074
3011.887223831558,1155
3013.607921158498,1141
3015.3283089522993,1108
3017.0483875252826,1160
3018.7681571898443,1161
3020.4876182584626,1118
3022.2067710436927,1127
3023.9256158581707,1123
3025.644153014609,1141
3027.362382825801,1106
3029.0803056046193,1108
3030.797921664012,1151
3032.5152313170106,1110
3034.2322348767225,1142
3035.9489326563353,1112
3037.665324969115,1097
3039.3814121284063,1138
3041.097194447633,1176
3042.812672240299,1171
3044.5278458199855,1126
3046.2427155003525,1166
3047.9572815951406,1106
3049.671544418167,1117
3051.38550428333,1134
3053.0991615046073,1105
3054.812516396051,1122
3056.5255692717974,1088
3058.2383204460575,1124
3059.9507702331257,1107
3061.662918947372,1144
3063.3747669032446,1133
3065.0863144152736,1075
3066.7975617980674,1144
3068.508509366309,1168
3070.219157434767,1136
3071.9295063182844,1095
3073.639556331785,1105
3075.3493077902704,1102
3077.058761008821,1091
3078.7679163025964,1138
3080.476773986837,1140
3082.1853343768594,1135
3083.89359778806,1124
3085.6015645359153,1127
3087.3092349359786,1106
3089.016609303884,1131
3090.7236879553434,1111
3092.4304712061476,1123
3094.136959372166,1094
3095.843152769349,1120
3097.5490517137237,1098
3099.2546565213966,1149
3100.959967508554,1110
3102.66498499146,1155
3104.3697092864577,1128
3106.0741407099695,1133
3107.778279578498,1114
3109.482126208622,1132
3111.1856809170004,1158
3112.8889440203716,1168
3114.5919158355528,1162
3116.294596679439,1100
3117.996986869006,1107
3119.6990867213062,1135
3121.4008965534726,1177
3123.102416682717,1138
3124.803647426329,1140
3126.5045891016784,1101
3128.205242026213,1154
3129.90560651746,1137
3131.605682893025,1129
3133.3054714705922,1119
3135.0049725679282,1133
3136.7041865028714,1148
3138.4031135933465,1117
3140.101754157353,1132
3141.800108512971,1119
3143.498176978357,1099
3145.1959598717494,1104
3146.8934575114636,1124
3148.5906702158954,1133
3150.2875983035183,1097
3151.9842420928853,1118
3153.680601902627,1150
3155.376678051456,1105
3157.07247085816,1136
3158.767980641609,1109
3160.463207720748,1109
3162.158152414606,1115
3163.8528150422862,1132
3165.5471959229726,1083
3167.2412953759303,1159
3168.9351137204976,1138
3170.628651276098,1143
3172.3219083622307,1148
3174.014885298474,1099
3175.707582404485,1151
3177.4000000000005,1132
3179.092138404835,1139
3180.7839979388846,1173
3182.47557892212,1139
3184.166881674594,1165
3185.8579065164386,1165
3187.5486537678626,1101
3189.2391237491547,1117
3190.9293167806827,1101
3192.6192331828934,1110
3194.3088732763117,1121
3195.998237381542,1172
3197.687325819268,1101
3199.376138910251,1113
3201.064676975334,1080
3202.7529403354347,1078
3204.4409293115523,1106
3206.1286442247647,1126
3207.816085396229,1099
3209.5032531471825,1089
3211.190147798936,1112
3212.8767696728846,1125
3214.5631190905015,1077
3216.2491963733373,1110
3217.9350018430214,1050
3219.6205358212637,1115
3221.305798629851,1094
3222.990790590651,1115
3224.6755120256103,1110
3226.359963256751,1084
3228.0441446061795,1076
3229.7280563960758,1105
3231.411698948703,1151
3233.0950725863995,1130
3234.778177631587,1132
3236.461014406761,1107
3238.1435832345005,1136
3239.8258844374595,1102
3241.507918338374,1078
3243.1896852600576,1110
3244.8711855254023,1039
3246.552419457381,1129
3248.233387379042,1125
3249.914089613516,1104
3251.59452648401,1122
3253.274698313813,1064
3254.95460542629,1076
3256.6342481448855,1068
3258.313626793125,1101
3259.9927416946084,1056
3261.6715931730196,1085
3263.3501815521176,1102
3265.0285071557437,1053
3266.706570307815,1060
3268.3843713323286,1123
3270.0619105533615,1064
3271.739188295068,1090
3273.4162048816834,1096
3275.0929606375184,1084
3276.769455886966,1103
3278.445690954498,1089
3280.1216661646613,1097
3281.797381842087,1155
3283.4728383114807,1086
3285.1480358976296,1032
3286.8229749253996,1063
3288.4976557197333,1126
3290.172078605655,1100
3291.846243908266,1104
3293.5201519527463,1138
3295.193803064357,1100
3296.8671975684374,1128
3298.5403357904024,1074
3300.21321805575,1072
3301.8858446900567,1102
3303.558216018975,1089
3305.23033236824,1132
3306.9021940636603,1088
3308.57380143113,1118
3310.2451547966184,1093
3311.916254486174,1087
3313.5871008259246,1119
3315.2576941420766,1089
3316.9280347609147,1137
3318.5981230088046,1055
3320.2679592121895,1072
3321.9375436975924,1034
3323.606876791612,1104
3325.27595882093,1070
3326.944790112305,1078
3328.6133709925753,1101
3330.2817017886573,1098
3331.949782827547,1111
3333.617614436319,1124
3335.2851969421245,1137
3336.952530672199,1131
3338.619615953853,1082
3340.286453114475,1090
3341.9530424815357,1104
3343.619384382583,1129
3345.2854791452437,1081
3346.951327097224,1095
3348.6169285663073,1072
3350.2822838803577,1112
3351.947393367319,1135
3353.61225735521,1108
3355.2768761721345,1133
3356.9412501462693,1118
3358.605379605873,1097
3360.2692648792827,1110
3361.9329062949146,1112
3363.596304181263,1084
