CollectionTime,9/25/2024 11:13:55 AM
ExposureUsed,3
CalibratedSpectrum
-962.7078968117929,574
-959.9714848408522,609
-957.2358232597828,632
-954.5009119013725,601
-951.7667505983302,616
-949.0333391832855,632
-946.3006774887896,603
-943.5687653473143,618
-940.837602591253,576
-938.1071890529199,576
-935.3775245645503,604
-932.6486089583007,623
-929.9204420662485,635
-927.1930237203925,625
-924.4663537526524,623
-921.7404319948689,633
-919.0152582788041,613
-916.2908324361409,614
-913.5671542984834,600
-910.8442236973568,614
-908.1220404642074,621
-905.4006044304027,583
-902.679915427231,593
-899.959973285902,601
-897.2407778375464,589
-894.5223289132158,603
-891.8046263438832,602
-889.0876699604426,604
-886.3714595937089,602
-883.6559950744183,594
-880.9412762332282,615
-878.2273029007168,621
-875.5140749073835,614
-872.8015920836489,598
-870.0898542598545,568
-867.3788612662631,582
-864.6686129330585,597
-861.9591090903457,624
-859.2503495681506,614
-856.5423341964203,554
-853.8350628050229,602
-851.1285352237478,587
-848.4227512823054,621
-845.7177108103272,615
-843.0134136373656,579
-840.3098595928943,596
-837.6070485063082,635
-834.9049802069229,630
-832.2036545239757,610
-829.5030712866244,599
-826.8032303239481,638
-824.1041314649472,648
-821.4057745385428,628
-818.7081593735775,605
-816.0112857988148,615
-813.3151536429393,607
-810.6197627345566,635
-807.9251129021936,632
-805.2312039742981,625
-802.5380357792392,623
-799.8456081453069,646
-797.1539209007124,621
-794.462973873588,633
-791.772766891987,597
-789.083299783884,666
-786.3945723771743,660
-783.7065844996748,654
-781.0193359791231,633
-778.3328266431781,606
-775.6470563194197,630
-772.9620248353489,614
-770.2777320183878,618
-767.5941776958798,604
-764.9113616950891,633
-762.2292838432011,610
-759.5479439673222,612
-756.8673418944801,599
-754.1874774516235,651
-751.5083504656222,660
-748.8299607632671,633
-746.15230817127,640
-743.475392516264,632
-740.7992136248035,638
-738.1237713233636,628
-735.4490654383407,645
-732.7750957960521,665
-730.1018622227365,652
-727.4293645445534,643
-724.7576025875837,669
-722.0865761778291,646
-719.4162851412126,654
-716.7467293035781,650
-714.0779084906909,679
-711.409822528237,673
-708.7424712418238,639
-706.0758544569796,649
-703.4099719991541,645
-700.7448236937178,669
-698.0804093659622,656
-695.4167288411002,662
-692.7537819442656,705
-690.0915685005134,665
-687.4300883348199,709
-684.7693412720819,706
-682.1093271371178,650
-679.4500457546669,671
-676.7914969493897,711
-674.1336805458676,693
-671.4765963686034,662
-668.8202442420206,659
-666.1646239904642,689
-663.5097354382001,663
-660.8555784094151,659
-658.2021527282176,683
-655.5494582186366,638
-652.8974947046223,698
-650.2462620100463,726
-647.5957599587009,721
-644.9459883742998,706
-642.2969470804776,682
-639.6486359007902,713
-637.0010546587141,720
-634.3542031776476,673
-631.7080812809096,675
-629.0626887917401,680
-626.4180255333008,712
-623.7740913286734,718
-621.1308860008619,720
-618.4884093727904,748
-615.8466612673046,720
-613.2056415071715,700
-610.5653499150785,717
-607.9257863136347,699
-605.28695052537,749
-602.6488423727357,738
-600.0114616781036,696
-597.3748082637674,718
-594.7388819519412,740
-592.1036825647604,722
-589.4692099242818,748
-586.8354638524829,736
-584.2024441712624,747
-581.5701507024403,757
-578.9385832677575,710
-576.3077416888759,767
-573.6776257873787,698
-571.0482353847704,764
-568.4195703024757,731
-565.7916303618415,741
-563.164415384135,773
-560.5379251905453,728
-557.9121596021815,762
-555.2871184400748,713
-552.6628015251767,739
-550.0392086783606,760
-547.4163397204204,769
-544.794194472071,745
-542.1727727539491,776
-539.5520743866118,816
-536.9320991905377,773
-534.3128469861261,756
-531.6943175936979,807
-529.0765108334947,799
-526.4594265256793,879
-523.8430644903358,1002
-521.2274245474689,1119
-518.612506517005,1169
-515.9983102187913,1131
-513.3848354725959,1179
-510.77208209810846,1264
-508.16004991493924,1297
-505.5487387426199,1454
-502.9381484006032,1542
-500.3282787082628,1470
-497.71912948489364,1376
-495.1107005497117,1273
-492.5029917218539,1182
-489.8960028203786,1068
-487.28973366426493,971
-484.68418407241325,920
-482.07935386364494,900
-479.47524285670266,892
-476.87185087025,882
-474.2691777228715,935
-471.66722323307334,965
-469.0659872192821,861
-466.4654694998459,908
-463.86566989303384,895
-461.26658821703614,892
-458.66822428996414,932
-456.07057792985,985
-453.4736489546475,921
-450.877437182231,931
-448.28194243039627,860
-445.68716451686,888
-443.09310325926003,885
-440.49975847515555,875
-437.9071299820263,858
-435.31521759727354,854
-432.72402113821954,878
-430.13354042210767,1005
-427.5437752661022,955
-424.95472548728867,951
-422.36639090267386,919
-419.7787713291855,930
-417.1918665836721,941
-414.60567648290385,991
-412.0202008435715,950
-409.4354394822874,930
-406.8513922155845,938
-404.26805885991723,997
-401.685439231661,1027
-399.103533147112,985
-396.522340422488,912
-393.9418608739278,920
-391.3620943174908,956
-388.7830405691583,955
-386.2046994448317,907
-383.6270707603344,888
-381.05015433141045,840
-378.473949973725,823
-375.8984575028645,721
-373.32367673433623,659
-370.74960748356875,659
-368.1762495659117,659
-365.60360279663576,588
-363.03166699093265,595
-360.4604419639154,557
-357.8899275306178,485
-355.32012350599507,528
-352.7510297049233,507
-350.1826459421999,510
-347.61497203254316,500
-345.04800779059235,469
-342.4817530309082,472
-339.91620756797226,505
-337.35137121618743,514
-334.7872437898774,488
-332.22382510328725,488
-329.66111497058273,529
-327.09911320585127,538
-324.53781962310075,509
-321.9772340362607,506
-319.4173562591816,474
-316.8581861056348,497
-314.2997233893127,527
-311.7419679238294,492
-309.1849195227194,531
-306.62857799943856,531
-304.0729431673641,534
-301.51801483979375,516
-298.963792829947,526
-296.41027695096386,575
-293.85746701590574,589
-291.3053628377552,638
-288.7539642294155,609
-286.2032710037115,624
-283.65328297338897,596
-281.1039999511146,622
-278.5554217494762,586
-276.007548180983,644
-273.4603790580651,703
-270.9139141930734,815
-268.3681533982807,842
-265.8230964858798,702
-263.27874326798565,652
-260.7350935566336,719
-258.1921471637804,724
-255.6499039013039,859
-253.10836358100266,867
-250.56752601459698,670
-248.02739101372765,758
-245.48795838995704,792
-242.94922795476816,813
-240.41119951956557,708
-237.8738728956746,742
-235.33724789434166,900
-232.80132432673452,806
-230.2661020039418,714
-227.73158073697357,894
-225.19776033676033,846
-222.66464061415422,901
-220.1322213799284,850
-217.60050244477725,828
-215.06948361931552,827
-212.53916471408013,930
-210.00954553952818,932
-207.48062590603843,869
-204.9524056239104,822
-202.4248845033651,931
-199.8980623545441,1044
-197.37193898751036,1020
-194.84651421224817,1005
-192.32178783866232,878
-189.79775967657952,891
-187.27442953574644,1050
-184.7517972258321,1093
-182.2298625564256,894
-179.7086253370378,791
-177.18808537710026,968
-174.66824248596583,1267
-172.14909647290835,1323
-169.6306471471229,1298
-167.11289431772548,1076
-164.59583779375328,999
-162.07947738416453,1184
-159.5638128978386,1501
-157.04884414357605,1585
-154.53457093009854,1721
-152.02099306604828,1545
-149.50811035998936,1332
-146.99592262040665,1272
-144.48442965570587,1338
-141.97363127421409,1569
-139.46352728417958,1691
-136.95411749377126,1811
-134.44540171107985,1686
-131.93737974411636,1422
-129.43005140081357,1427
-126.92341648902493,2011
-124.41747481652521,2536
-121.91222619101006,2753
-119.40767042009657,3171
-116.90380731132257,3770
-114.40063667214702,3843
-111.8981583099503,3126
-109.3963720320337,2868
-106.89527764561933,3671
-104.39487495785067,4805
-101.89516377579241,6634
-99.39614390642998,8898
-96.89781515667039,10469
-94.40017733334128,11504
-91.90323024319173,7924
-89.40697369289148,4685
-86.91140748903172,3416
-84.41653143812482,3802
-81.92234534660395,4887
-79.42884902082358,7214
-76.93604226705907,8251
-74.4439248915071,8693
-71.95249670028534,8250
-69.46175749943245,7910
-66.97170709490854,8134
-64.48234529259423,10314
-61.99367189829195,13688
-59.50568671772464,16215
-57.01838955653636,21087
-54.53178022029283,24014
-52.045858514480074,24517
-49.560624244506016,26100
-47.07607721569923,25284
-44.59221723330904,20269
-42.10904410250669,15735
-39.62655762838392,15392
-37.14475761595372,18138
-34.66364387015028,20297
-32.18321619582866,26868
-29.70347439776515,31385
-27.224418280657005,33754
-24.74604764912317,41421
-22.26836230770266,61375
-19.7913620608565,65040
-17.315046712966478,65040
-14.83941606833514,65040
-12.36446993118659,65040
-9.89020810566592,65040
-7.416630395839093,65040
-4.94373660569363,65040
-2.471526539137585,65040
-6.821210263296962E-13,65040
2.47084320796705,65040
4.941003281093458,65040
7.410480415786196,65040
9.879274808531363,65040
12.347386655893956,65040
14.814816154518212,65040
17.28156350112681,65040
19.74762889252179,65040
22.21301252558385,65040
24.67771459727237,19601
27.141735304626195,5270
29.605074844762612,4077
32.06773341487792,3248
34.52971121224755,3060
36.99100843422559,3442
39.45162527824516,3416
41.91156194181792,3590
44.370818622535126,3538
46.82939551806646,3092
49.287292826160524,2999
51.74451074464503,2729
54.201049471426245,2563
56.65690920448981,2894
59.112090141899785,2803
61.56659248179983,2756
64.02041642241159,2473
66.4735621620365,2340
68.92602989905402,2408
71.37781983192338,2554
73.82893215918205,2132
76.27936707944684,1855
78.72912479141326,1754
81.17820549385567,1818
83.62660938562783,1996
86.07433666566146,1807
88.5213875329681,1816
90.96776218663751,2256
93.41346082583925,2191
95.85848364982041,1732
98.30283085790859,1332
100.7465026495089,1374
103.18949922410604,1549
105.63182078126385,1608
108.07346752062438,1668
110.51443964190923,1415
112.95473734491827,1214
115.39436082953114,1213
117.83331029570547,1518
120.27158594347827,1677
122.7091879729652,1658
125.1461165843615,1611
127.58237197794062,1332
130.01795435405518,1265
132.4528639131364,1229
134.88710085569494,1234
137.32066538231982,1444
139.75355769367923,1250
142.1857779905207,1211
144.61732647366978,1187
147.04820334403132,1209
149.47840880258934,1368
151.90794305040674,1176
154.33680628862487,1288
156.76499871846443,1400
159.19252054122433,1460
161.61937195828352,1421
164.04555317109896,1544
166.47106438120693,1719
168.89590579022217,2022
171.320077599839,2051
173.7435800118302,2120
176.16641322804742,2050
178.58857745042144,2209
181.01007288096173,2357
183.43089972175687,2320
185.85105817497413,2332
188.27054844285988,2257
190.6893707277394,2267
193.10752523201643,2206
195.5250121581745,2406
197.9418317087751,2385
200.3579840864594,2226
202.7734694939469,2304
205.18828813403627,2448
207.6024402096051,2526
210.01592592360964,2496
212.42874547908548,2756
214.84089907914665,2467
217.2523869269868,2431
219.66320922587727,2469
222.0733661791695,2574
224.48285799029293,2596
226.8916848627572,2506
229.29984700014882,2506
231.7073446061355,2619
234.11417788446204,2553
236.520347038953,2595
238.92585227351185,2632
241.33069379212054,2577
243.73487179884035,2630
246.1383864978112,2725
248.541238093252,2762
250.9434267894609,2791
253.34495279081432,2759
255.74581630176783,2817
258.1460175268563,2805
260.54555667069314,2906
262.9444339379703,2809
265.3426495334594,2734
267.7402036620107,2799
270.1370965285529,2622
272.53332833809407,2552
274.9288992957214,2443
277.32380960660055,2451
279.718059475976,2372
282.1116491091717,2369
284.5045787115897,2334
286.89684848871195,2303
289.2884586460981,2328
291.67940938938807,2242
294.0697009242996,2328
296.4593334566299,2431
298.84830719225477,2379
301.23662233712923,2313
303.6242790972866,2256
306.01127767884,2185
308.39761828798066,2224
310.78330113097934,2213
313.16832641418534,2137
315.5526943440269,2088
317.9364051270112,2094
320.3194589697242,2086
322.70185607883093,2104
325.0835966610754,2004
327.4646809232805,2023
329.8451090723478,2016
332.2248813152577,2075
334.6039978590701,2111
336.9824589109231,1978
339.36026467803447,2036
341.7374153677,1946
344.113911187295,1973
346.48975234427337,1961
348.8649390461686,1968
351.2394715005918,1928
353.61334991523415,1924
355.9865744978655,1894
358.35914545633375,1911
360.73106299856715,1912
363.10232733257146,1907
365.47293866643247,1889
367.84289720831396,1928
370.2122031664593,1805
372.5808567491905,1861
374.9488581649083,1872
377.31620762209275,1832
379.6829053293021,1838
382.0489514951745,1869
384.4143463284262,1833
386.7790900378528,1853
389.14318283232853,1771
391.50662492080653,1778
393.86941651231916,1815
396.23155781597745,1921
398.5930490409713,1906
400.9538903965696,1895
403.3140820921202,1838
405.6736243370498,1802
408.03251734086336,1790
410.3907613131465,1750
412.74835646356166,1732
415.10530300185144,1873
417.4616011378372,1756
419.81725108141893,1827
422.1722530425758,1824
424.5266072313656,1857
426.880313857925,1784
429.2333731324701,1797
431.58578526529516,1713
433.9375504667738,1709
436.2886689473588,1750
438.63914091758113,1784
440.9889665880513,1795
443.33814616945835,1743
445.68667987257015,1714
448.03456790823395,1700
450.3818104873759,1802
452.72840782100013,1736
455.07436012019105,1744
457.41966759611057,1661
459.7643304600007,1713
462.10834892318155,1712
464.4517231970525,1645
466.79445349309174,1686
469.1365400228566,1737
471.4779829979826,1765
473.81878263018564,1700
476.15893913125876,1711
478.4984527130747,1869
480.8373235875855,1856
483.17555196682144,1824
485.5131380628919,1909
487.8500820879857,1908
490.1863842543697,1971
492.52204477439034,2000
494.8570638604725,2232
497.1914417251204,2432
499.52517858091653,2707
501.85827464052306,2921
504.19073011668036,3205
506.5225452222086,3138
508.85372017000566,3261
511.18425517304956,3210
513.514150444396,3483
515.8434061971808,4164
518.1720226446176,4884
520.4999999999999,4877
522.8273384766991,4733
525.1540382881666,4420
527.480099647932,3901
529.8055227696037,3220
532.1303078668694,2519
534.454455153496,2023
536.777964843328,1882
539.1008371502907,1846
541.4230722883866,1804
543.744670471698,1786
546.0656319143858,1745
548.3859568306899,1804
550.7056454349294,1787
553.0246979415016,1751
555.3431145648834,1670
557.6608955196306,1709
559.978041020377,1714
562.2945512818363,1776
564.6104265188006,1735
566.9256669461412,1773
569.2402727788082,1694
571.5542442318302,1726
573.8675815203156,1742
576.1802848594508,1740
578.4923544645015,1739
580.8037905508126,1720
583.114593333807,1740
585.4247630289875,1756
587.7342998519354,1771
590.0432040183106,1723
592.3514757438526,1777
594.6591152443794,1716
596.9661227357875,1628
599.2724984340531,1747
601.578242555231,1731
603.8833553154542,1785
606.1878369309362,1727
608.4916876179676,1672
610.7949075929192,1672
613.0974970722403,1731
615.3994562724587,1723
617.7007854101818,1806
620.0014847020951,1738
622.3015543649641,1735
624.6009946156324,1716
626.8998056710224,1721
629.1979877481361,1749
631.4955410640538,1779
633.7924658359349,1788
636.0887622810175,1773
638.3844306166192,1743
640.6794710601358,1764
642.9738838290426,1801
645.2676691408932,1803
647.5608272133207,1744
649.853358264037,1803
652.1452625108324,1764
654.4365401715764,1826
656.7271914642178,1740
659.0172166067838,1965
661.3066158173809,1843
663.5953893141935,1764
665.8835373154867,1875
668.1710600396028,1793
670.4579577049639,1828
672.7442305300709,1877
675.0298787335033,1807
677.3149025339197,1763
679.599302150058,1835
681.8830778007342,1807
684.1662297048437,1768
686.4487580813608,1788
688.7306631493387,1794
691.0119451279091,1817
693.2926042362834,1820
695.5726406937516,1810
697.8520547196814,1811
700.1308465335215,1780
702.4090163547982,1839
704.6865644031171,1696
706.9634908981619,1759
709.2397960596965,1784
711.5154801075631,1806
713.7905432616823,1807
716.0649857420548,1834
718.3388077687592,1847
720.612009561953,1826
722.8845913418733,1829
725.1565533288352,1765
727.427895743234,1780
729.6986188055427,1728
731.9687227363137,1755
734.238207756178,1741
736.5070740858458,1768
738.7753219461066,1772
741.0429515578281,1857
743.3099631419569,1819
745.5763569195191,1818
747.8421331116193,1725
750.1072919394409,1826
752.3718336242467,1831
754.6357583873777,1811
756.8990664502545,1783
759.1617580343765,1781
761.423833361321,1778
763.6852926527457,1811
765.9461361303862,1798
768.206364016058,1808
770.4659765316536,1712
772.7249738991469,1860
774.9833563405886,1772
777.2411240781092,1836
779.4982773339183,1819
781.7548163303044,1844
784.010741289634,1849
786.2660524343538,1886
788.5207499869881,1854
790.7748341701416,1851
793.0283052064964,1781
795.2811633188143,1773
797.5334087299362,1860
799.7850416627813,1874
802.0360623403484,1798
804.2864709857143,1850
806.5362678220353,1833
808.7854530725468,1812
811.0340269605625,1870
813.2819897094754,1836
815.5293415427581,1878
817.77608268396,1865
820.0222133567116,1795
822.2677337847211,1824
824.5126441917765,1830
826.7569448017433,1861
829.0006358385675,1856
831.2437175262731,1852
833.4861900889629,1827
835.7280537508192,1842
837.9693087361026,1762
840.2099552691533,1771
842.4499935743896,1857
844.689423876309,1842
846.9282463994886,1824
849.1664613685833,1888
851.4040690083276,1844
853.6410695435349,1910
855.877463199097,1813
858.1132501999847,1849
860.3484307712487,1807
862.5830051380175,1903
864.8169735254988,1885
867.0503361589791,1816
869.2830932638243,1857
871.5152450654786,1831
873.7467917894654,1803
875.9777336613873,1817
878.2080709069252,1837
880.4378037518389,1855
882.666932421968,1779
884.8954571432301,1859
887.1233781416219,1932
889.3506956432192,1912
891.5774098741766,1799
893.803521060728,1850
896.0290294291852,1855
898.2539352059397,1952
900.4782386174619,1896
902.7019398903011,1817
904.925039251085,1883
907.147536926521,1916
909.3694331433943,1841
911.59072812857,1888
913.8114221089921,1825
916.0315153116827,1834
918.2510079637437,1855
920.4699002923547,1881
922.6881925247761,1891
924.905884888345,1807
927.1229776104793,1789
929.3394709186747,1759
931.555365040506,1840
933.7706602036275,1796
935.9853566357709,1897
938.1994545647489,1811
940.4129542184515,1840
942.6258558248488,1842
944.8381596119883,1821
947.0498658079974,1784
949.2609746410825,1894
951.4714863395287,1853
953.6814011316998,1856
955.8907192460387,1883
958.0994409110671,1790
960.3075663553858,1919
962.5150958076741,1903
964.7220294966913,1788
966.928367651274,1822
969.1341105003388,1896
971.3392582728806,1830
973.5438111979742,1776
975.747769504772,1865
977.9511334225061,1812
980.153903180487,1794
982.3560790081052,1780
984.5576611348289,1816
986.7586497902058,1765
988.9590452038618,1764
991.158847605503,1748
993.3580572249133,1704
995.5566742919558,1751
997.7546990365728,1662
999.952131688785,1644
1002.1489724786926,1641
1004.3452216364743,1611
1006.5408793923874,1631
1008.7359459767691,1568
1010.9304216200343,1551
1013.1243065526781,1556
1015.3176010052733,1532
1017.510305208472,1532
1019.7024193930064,1585
1021.8939437896848,1528
1024.0848786293977,1572
1026.2752241431122,1537
1028.4649805618747,1561
1030.6541481168115,1612
1032.842727039127,1585
1035.0307175601051,1550
1037.2181199111074,1560
1039.4049343235752,1488
1041.591161029029,1523
1043.7768002590683,1539
1045.9618522453698,1492
1048.1463172196918,1500
1050.3301954138697,1523
1052.513487059818,1542
1054.69619238953,1517
1056.8783116350783,1551
1059.0598450286152,1479
1061.2407928023704,1453
1063.4211551886528,1484
1065.6009324198508,1507
1067.780124728432,1480
1069.9587323469414,1464
1072.1367555080046,1494
1074.314194444325,1429
1076.4910493886855,1503
1078.667320573947,1489
1080.843008233051,1473
1083.0181125990161,1510
1085.1926339049414,1478
1087.3665723840027,1577
1089.5399282694575,1507
1091.7127017946405,1490
1093.8848931929647,1463
1096.0565026979243,1437
1098.2275305430899,1421
1100.3979769621128,1473
1102.567842188722,1488
1104.737126456726,1445
1106.9058300000124,1474
1109.0739530525475,1405
1111.2414958483764,1474
1113.4084586216231,1478
1115.5748416064907,1402
1117.7406450372605,1464
1119.9058691482942,1409
1122.0705141740304,1428
1124.2345803489884,1472
1126.3980679077658,1467
1128.5609770850388,1404
1130.7233081155623,1494
1132.8850612341707,1444
1135.0462366757774,1434
1137.2068346753745,1391
1139.3668554680326,1389
1141.526299288901,1345
1143.68516637321,1469
1145.8434569562655,1421
1148.001171273455,1430
1150.158309560244,1434
1152.3148720521767,1407
1154.470858984876,1457
1156.626270594044,1480
1158.7811071154629,1467
1160.9353687849912,1446
1163.089055838569,1423
1165.242168512213,1444
1167.3947070420209,1414
1169.5466716641677,1385
1171.6980626149075,1419
1173.8488801305748,1380
1175.9991244475814,1400
1178.1487958024186,1449
1180.2978944316555,1400
1182.4464205719428,1420
1184.5943744600072,1432
1186.7417563326567,1452
1188.8885664267755,1402
1191.0348049793297,1396
1193.1804722273619,1402
1195.325568407995,1466
1197.4700937584303,1411
1199.614048515948,1448
1201.7574329179074,1444
1203.900247201746,1452
1206.042491604982,1398
1208.1841663652099,1472
1210.3252717201053,1408
1212.465807907422,1416
1214.6057751649923,1479
1216.7451737307279,1416
1218.8840038426192,1404
1221.0222657387353,1474
1223.1599596572241,1472
1225.2970858363137,1481
1227.4336445143094,1493
1229.5696359295966,1458
1231.705060320639,1442
1233.8399179259786,1470
1235.9742089842384,1508
1238.107933734118,1471
1240.2410924143974,1447
1242.373685263935,1489
1244.5057125216676,1511
1246.6371744266116,1492
1248.7680712178621,1471
1250.898403134593,1489
1253.028170416058,1543
1255.1573733015875,1521
1257.2860120305932,1528
1259.4140868425648,1494
1261.54159797707,1494
1263.6685456737569,1521
1265.7949301723515,1507
1267.9207517126597,1514
1270.046010534565,1628
1272.1707068780306,1585
1274.2948409830983,1613
1276.4184130898889,1511
1278.541423438603,1642
1280.6638722695184,1623
1282.785759822993,1570
1284.9070863394636,1597
1287.0278520594447,1591
1289.1480572235314,1590
1291.2677020723963,1628
1293.3867868467923,1644
1295.5053117875495,1675
1297.623277135579,1625
1299.740683131868,1614
1301.8575300174857,1684
1303.973818033578,1669
1306.0895474213703,1712
1308.2047184221678,1689
1310.3193312773528,1690
1312.4333862283888,1713
1314.5468835168163,1634
1316.659823384255,1687
1318.7722060724045,1735
1320.8840318230418,1732
1322.9953008780249,1789
1325.1060134792888,1768
1327.2161698688478,1728
1329.3257702887959,1737
1331.4348149813054,1751
1333.5433041886276,1729
1335.6512381530933,1774
1337.7586171171101,1715
1339.8654413231675,1723
1341.9717110138317,1703
1344.0774264317488,1708
1346.1825878196432,1728
1348.2871954203192,1736
1350.3912494766587,1688
1352.4947502316231,1645
1354.5976979282532,1647
1356.7000928096686,1646
1358.8019351190665,1695
1360.9032250997243,1663
1363.0039629949988,1622
1365.1041490483235,1634
1367.2037835032133,1668
1369.3028666032606,1641
1371.401398592137,1618
1373.4993797135926,1650
1375.5968102114575,1658
1377.6936903296396,1573
1379.7900203121262,1592
1381.8858004029835,1617
1383.9810308463561,1655
1386.075711886469,1667
1388.1698437676241,1690
1390.2634267342032,1670
1392.356461030667,1648
1394.4489469015557,1624
1396.5408845914872,1672
1398.6322743451592,1718
1400.7231164073469,1627
1402.813411022907,1663
1404.903158436773,1675
1406.9923588939578,1751
1409.0810126395531,1644
1411.1691199187303,1720
1413.2566809767386,1730
1415.343696058907,1700
1417.4301654106425,1676
1419.5160892774315,1680
1421.6014679048399,1750
1423.6863015385125,1715
1425.7705904241707,1757
1427.8543348076178,1721
1429.9375349347342,1760
1432.0201910514802,1770
1434.102303403894,1793
1436.1838722380944,1859
1438.2648978002767,1841
1440.3453803367174,1837
1442.4253200937692,1850
1444.5047173178677,1808
1446.5835722555234,1889
1448.6618851533285,1868
1450.739656257952,1901
1452.8168858161434,1962
1454.8935740747306,2007
1456.96972128062,2022
1459.045327680797,2038
1461.120393522327,2050
1463.1949190523528,2028
1465.2689045180973,2116
1467.3423501668608,2098
1469.415256246024,2181
1471.4876230030463,2145
1473.559450685465,2170
1475.6307395408976,2187
1477.7014898170391,2293
1479.771701761665,2317
1481.8413756226287,2301
1483.9105116478618,2327
1485.9791100853772,2416
1488.0471711832643,2323
1490.1146951896926,2404
1492.1816823529098,2321
1494.2481329212433,2430
1496.3140471430984,2432
1498.3794252669609,2378
1500.4442675413939,2482
1502.5085742150404,2503
1504.572345536622,2473
1506.6355817549388,2632
1508.6982831188702,2583
1510.7604498773744,2569
1512.8220822794883,2622
1514.8831805743293,2623
1516.9437450110909,2554
1519.003775839048,2645
1521.0632733075522,2625
1523.1222376660367,2627
1525.1806691640113,2721
1527.2385680510652,2663
1529.2959345768668,2701
1531.3527689911643,2825
1533.4090715437833,2671
1535.4648424846291,2799
1537.5200820636855,2923
1539.5747905310159,2884
1541.6289681367616,2930
1543.6826151311434,2911
1545.7357317644614,2896
1547.7883182870937,3027
1549.8403749494987,2957
1551.8919020022113,3134
1553.9428996958477,3066
1555.9933682811015,3196
1558.0433080087469,3257
1560.0927191296346,3263
1562.1416018946961,3343
1564.1899565549415,3216
1566.2377833614592,3393
1568.2850825654164,3328
1570.3318544180606,3428
1572.3780991707158,3232
1574.423817074788,3125
1576.4690083817595,3128
1578.5136733431923,3071
1580.5578122107272,2939
1582.601425236085,2781
1584.6445126710646,2710
1586.6870747675434,2588
1588.7291117774776,2554
1590.7706239529034,2491
1592.8116115459347,2420
1594.8520748087658,2309
1596.8920139936686,2219
1598.9314293529933,2148
1600.9703211391711,2053
1603.008689604711,2102
1605.0465350022005,2013
1607.0838575843068,1977
1609.1206576037753,1947
1611.1569353134305,1879
1613.1926909661765,1865
1615.2279248149953,1899
1617.2626371129481,1753
1619.2968281131757,1809
1621.3304980688963,1697
1623.3636472334088,1734
1625.39627586009,1699
1627.428384202396,1633
1629.459972513861,1648
1631.4910410480993,1632
1633.5215900588028,1683
1635.551619799744,1623
1637.5811305247717,1619
1639.6101224878166,1643
1641.6385959428862,1599
1643.6665511440683,1533
1645.693988345528,1544
1647.7209078015112,1551
1649.7473097663405,1533
1651.7731944944203,1558
1653.7985622402307,1501
1655.823413258333,1540
1657.847747803366,1482
1659.8715661300494,1518
1661.8948684931793,1532
1663.9176551476316,1515
1665.9399263483624,1497
1667.9616823504057,1474
1669.982923408873,1565
1672.0036497789574,1489
1674.0238617159293,1523
1676.043559475138,1442
1678.0627433120121,1548
1680.081413482059,1483
1682.0995702408654,1508
1684.117213844096,1455
1686.134344547495,1474
1688.1509626068864,1456
1690.1670682781705,1520
1692.182661817329,1511
1694.1977434804217,1458
1696.2123135235875,1528
1698.226372203043,1491
1700.2399197750851,1532
1702.2529564960905,1501
1704.2654826225112,1583
1706.277498410882,1512
1708.2890041178139,1429
1710.2999999999988,1459
1712.3104863142066,1415
1714.3204633172854,1468
1716.329931266163,1414
1718.3388904178469,1431
1720.3473410294214,1444
1722.3552833580516,1420
1724.3627176609807,1507
1726.3696441955308,1456
1728.3760632191033,1511
1730.3819749891782,1481
1732.3873797633146,1468
1734.3922777991502,1417
1736.3966693544012,1435
1738.4005546868639,1440
1740.4039340544127,1411
1742.406807715001,1474
1744.4091759266616,1420
1746.4110389475054,1420
1748.4123970357223,1463
1750.413250449582,1350
1752.4135994474318,1397
1754.4134442876993,1388
1756.4127852288902,1398
1758.4116225295893,1406
1760.4099564484595,1399
1762.407787244244,1423
1764.405115175764,1441
1766.4019405019203,1443
1768.3982634816916,1398
1770.3940843741357,1333
1772.3894034383907,1358
1774.3842209336717,1390
1776.378537119274,1332
1778.372352254571,1341
1780.3656665990156,1401
1782.3584804121397,1419
1784.3507939535534,1364
1786.3426074829463,1383
1788.3339212600863,1372
1790.3247355448211,1414
1792.3150505970766,1338
1794.3048666768573,1357
1796.2941840442477,1353
1798.2830029594106,1355
1800.2713236825884,1350
1802.2591464741004,1375
1804.2464715943465,1305
1806.2332993038058,1375
1808.2196298630352,1379
1810.2054635326708,1381
1812.190800573428,1354
1814.175641246101,1405
1816.1599858115628,1334
1818.1438345307652,1325
1820.127187664738,1304
1822.1100454745924,1290
1824.092408221516,1373
1826.0742761667766,1312
1828.055649571721,1305
1830.0365286977735,1349
1832.0169138064398,1316
1833.9968051593014,1377
1835.9762030180214,1383
1837.9551076443408,1393
1839.9335193000788,1355
1841.9114382471344,1320
1843.888864747485,1367
1845.8657990631878,1315
1847.842241456378,1347
1849.8181921892697,1364
1851.7936515241558,1354
1853.7686197234098,1338
1855.7430970494815,1324
1857.7170837649014,1321
1859.6905801322787,1308
1861.6635864143004,1363
1863.6361028737338,1283
1865.608129773424,1263
1867.5796673762961,1354
1869.5507159453537,1341
1871.521275743678,1405
1873.4913470344313,1347
1875.4609300808534,1399
1877.4300251462632,1303
1879.3986324940588,1393
1881.366752387717,1370
1883.3343850907936,1361
1885.3015308669228,1354
1887.268189979819,1341
1889.2343626932739,1387
1891.2000492711595,1342
1893.1652499774254,1410
1895.1299650761011,1396
1897.0941948312952,1408
1899.0579395071945,1370
1901.0211993680641,1400
1902.98397467825,1367
1904.9462657021745,1394
1906.9080727043415,1390
1908.869395949332,1407
1910.8302357018065,1347
1912.790592226504,1380
1914.7504657882428,1349
1916.7098566519212,1380
1918.6687650825133,1402
1920.6271913450764,1402
1922.5851357047422,1325
1924.5425984267245,1372
1926.499579776314,1408
1928.4560800188833,1357
1930.4120994198802,1317
1932.367638244833,1421
1934.32269675935,1406
1936.2772752291175,1366
1938.231373919899,1358
1940.1849930975404,1389
1942.1381330279637,1358
1944.0907939771696,1429
1946.0429762112412,1359
1947.9946799963363,1320
1949.9459055986945,1318
1951.896653284633,1372
1953.8469233205478,1373
1955.7967159729142,1353
1957.7460315082863,1350
1959.6948701932974,1373
1961.6432322946594,1322
1963.5911180791632,1329
1965.5385278136787,1344
1967.4854617651545,1334
1969.4319202006182,1369
1971.377903387176,1333
1973.3234115920136,1367
1975.268445082395,1355
1977.2130041256642,1318
1979.1570889892423,1328
1981.1006999406304,1375
1983.04383724741,1356
1984.986501177238,1309
1986.928691997853,1310
1988.8704099770712,1313
1990.811655382789,1314
1992.7524284829801,1349
1994.692729545698,1310
1996.6325588390755,1313
1998.5719166313224,1372
2000.5108031907307,1332
2002.4492187856677,1351
2004.387163684583,1315
2006.3246381560011,1380
2008.2616424685298,1375
2010.1981768908527,1319
2012.1342416917332,1322
2014.069837140014,1249
2016.0049635046162,1255
2017.9396210545406,1303
2019.8738100588666,1291
2021.8075307867502,1363
2023.740783507431,1288
2025.6735684902228,1287
2027.6058860045214,1301
2029.5377363198004,1290
2031.4691197056118,1288
2033.4000364315875,1317
2035.3304867674374,1325
2037.260470982952,1287
2039.189989347998,1255
2041.1190421325232,1285
2043.047629606554,1312
2044.9757520401945,1252
2046.9034097036288,1329
2048.8306028671195,1293
2050.7573318010086,1290
2052.683596775716,1304
2054.609398061742,1288
2056.5347359296647,1293
2058.4596106501403,1304
2060.384022493906,1350
2062.3079717317764,1330
2064.231458634646,1318
2066.1544834734873,1240
2068.077046519352,1361
2069.99914804337,1278
2071.9207883167524,1356
2073.8419676107865,1281
2075.7626861968406,1319
2077.6829443463607,1304
2079.6027423308715,1291
2081.522080421977,1310
2083.440958891362,1301
2085.359378010786,1326
2087.2773380520907,1263
2089.194839287196,1272
2091.111881988101,1315
2093.0284664268825,1314
2094.9445928756973,1257
2096.86026160678,1315
2098.775472892446,1312
2100.690227005088,1297
2102.604524217178,1273
2104.5183648012676,1297
2106.431749029985,1312
2108.34467717604,1313
2110.2571495122206,1324
2112.169166311393,1320
2114.080727846503,1343
2115.9918343905747,1274
2117.902486216711,1281
2119.8126835980956,1340
2121.722426807987,1354
2123.6317161197285,1294
2125.5405518067364,1282
2127.448934142509,1301
2129.356863400624,1349
2131.264339854737,1369
2133.1713637785815,1348
2135.077935445972,1279
2136.9840551308002,1348
2138.889723107037,1322
2140.7949396487334,1289
2142.699705030018,1307
2144.6040195250994,1351
2146.507883408264,1350
2148.4112969538774,1363
2150.3142604363848,1372
2152.2167741303097,1342
2154.1188383102535,1343
2156.0204532508997,1310
2157.9216192270064,1363
2159.822336513414,1342
2161.7226053850413,1314
2163.622426116884,1354
2165.5217989840185,1308
2167.4207242616,1332
2169.319202224862,1351
2171.2172331491165,1309
2173.1148173097563,1367
2175.0119549822507,1297
2176.90864644215,1336
2178.8048919650823,1368
2180.7006918267534,1309
2182.596046302952,1284
2184.4909556695407,1316
2186.3854202024645,1309
2188.279440177746,1342
2190.173015871487,1325
2192.066147559868,1315
2193.958835519149,1312
2195.851080025667,1339
2197.7428813558417,1320
2199.6342397861667,1327
2201.5251555932186,1321
2203.415629053651,1328
2205.3056604441986,1364
2207.19525004167,1372
2209.084398122958,1341
2210.9731049650327,1306
2212.861370844941,1322
2214.749196039812,1365
2216.636580826851,1359
2218.523525483344,1408
2220.410030286655,1375
2222.296095514226,1365
2224.1817214435805,1350
2226.066908352319,1357
2227.951656518121,1321
2229.835966218746,1314
2231.71983773203,1434
2233.6032713358913,1368
2235.486267308324,1361
2237.3688259274036,1381
2239.2509474712824,1360
2241.132632218193,1370
2243.013880446447,1306
2244.8946924344323,1327
2246.7750684606203,1362
2248.6550088035574,1324
2250.534513741871,1329
2252.413583554265,1320
2254.292218519526,1350
2256.170418916517,1362
2258.0481850241786,1344
2259.925517121534,1315
2261.8024154876825,1330
2263.678880401803,1311
2265.5549121431536,1322
2267.430510991071,1307
2269.305677224971,1373
2271.180411124348,1386
2273.0547129687766,1337
2274.9285830379076,1255
2276.8020216114737,1366
2278.6750289692845,1355
2280.5476053912294,1361
2282.4197511572766,1358
2284.2914665474727,1359
2286.162751841943,1340
2288.0336073208937,1411
2289.904033264608,1287
2291.774029953448,1386
2293.6435976678554,1338
2295.5127366883517,1355
2297.381447295534,1366
2299.2497297700825,1310
2301.1175843927526,1338
2302.9850114443825,1259
2304.852011205885,1317
2306.7185839582553,1258
2308.5847299825664,1280
2310.4504495599676,1258
2312.3157429716925,1276
2314.1806104990483,1285
2316.0450524234247,1229
2317.9090690262888,1257
2319.772660589186,1255
2321.635827393742,1201
2323.498569721661,1271
2325.3608878547248,1277
2327.2227820747967,1260
2329.0842526638157,1280
2330.945299903803,1259
2332.805924076857,1257
2334.6661254651535,1241
2336.525904350951,1239
2338.3852610165827,1236
2340.244195744464,1206
2342.102708817088,1256
2343.9608005170253,1243
2345.8184711269287,1326
2347.675720929526,1267
2349.532550207628,1242
2351.38895924412,1279
2353.24494832197,1259
2355.100517724223,1266
2356.955667734004,1272
2358.810398634514,1233
2360.664710709037,1330
2362.5186042409337,1304
2364.3720795136437,1284
2366.225136810686,1313
2368.0777764156583,1337
2369.929998612237,1275
2371.7818036841777,1280
2373.633191915315,1265
2375.484163589562,1242
2377.3347189909114,1299
2379.184858403434,1250
2381.03458211128,1320
2382.8838903986775,1281
2384.732783549936,1295
2386.5812618494406,1309
2388.4293255816588,1287
2390.2769750311327,1301
2392.1242104824883,1312
2393.971032220427,1246
2395.8174405297295,1277
2397.6634356952563,1293
2399.509018001947,1302
2401.3541877348193,1223
2403.1989451789705,1278
2405.043290619576,1290
2406.8872243418905,1259
2408.730746631247,1294
2410.5738577730594,1275
2412.4165580528183,1314
2414.258847756095,1262
2416.100727168537,1324
2417.9421965758734,1274
2419.783256263912,1310
2421.623906518538,1326
2423.4641476257157,1255
2425.303979871491,1341
2427.143403541984,1265
2428.9824189233977,1351
2430.821026302012,1288
2432.6592259641866,1292
2434.497018196361,1277
2436.33440328505,1332
2438.171381516851,1335
2440.00795317844,1298
2441.844118556569,1345
2443.6798779380724,1345
2445.5152316098606,1305
2447.3501798589255,1304
2449.1847229723357,1317
2451.0188612372403,1309
2452.8525949408663,1314
2454.6859243705203,1276
2456.518849813587,1344
2458.3513715575314,1297
2460.183489889895,1307
2462.015205098301,1276
2463.8465174704493,1343
2465.67742729412,1336
2467.5079348571717,1360
2469.338040447542,1326
2471.1677443532476,1319
2472.9970468623833,1334
2474.825948263123,1299
2476.6544488437207,1326
2478.482548892508,1308
2480.310248697896,1329
2482.137548548374,1363
2483.9644487325118,1320
2485.790949538956,1292
2487.617051256433,1330
2489.44275417375,1297
2491.26805857979,1304
2493.0929647635157,1352
2494.917473013971,1346
2496.741583620276,1397
2498.5652968716304,1329
2500.3886130573137,1351
2502.2115324666834,1358
2504.0340553891765,1324
2505.856182114308,1358
2507.6779129316733,1361
2509.499248130945,1327
2511.3201880018764,1344
2513.140732834298,1384
2514.9608829181198,1418
2516.780638543331,1399
2518.6,1344
2520.418967578273,1385
2522.237541568376,1410
2524.0557222606144,1379
2525.8735099453706,1345
2527.6909049131086,1383
2529.507907454368,1394
2531.32451785977,1402
2533.140736420014,1461
2534.9565634258774,1457
2536.771999168218,1401
2538.5870439379714,1476
2540.4016980261526,1446
2542.2159617238544,1479
2544.02983532225,1412
2545.8433191125914,1461
2547.656413386209,1477
2549.4691184345115,1481
2551.2814345489874,1511
2553.093362021204,1538
2554.904901142808,1543
2556.716052205523,1554
2558.526815501153,1453
2560.3371913215824,1572
2562.147179958771,1540
2563.956781704761,1656
2565.7659968516705,1602
2567.5748256916986,1595
2569.3832685171224,1616
2571.1913256202984,1638
2572.9989972936614,1627
2574.806283829725,1564
2576.613185521084,1644
2578.4197026604074,1586
2580.2258355404483,1606
2582.031584454035,1597
2583.836949694077,1643
2585.6419315535613,1554
2587.4465303255533,1605
2589.2507463032002,1619
2591.0545797797245,1613
2592.8580310484303,1704
2594.6611004026995,1653
2596.463788135992,1608
2598.266094541849,1651
2600.0680199138874,1577
2601.869564545807,1641
2603.670728731383,1629
2605.4715127644704,1604
2607.2719169390048,1630
2609.071941548998,1648
2610.8715868885433,1610
2612.670853251811,1573
2614.469740933052,1624
2616.268250226594,1583
2618.0663814268455,1624
2619.864134828292,1644
2621.6615107255006,1601
2623.458509413115,1645
2625.2551311858597,1615
2627.0513763385347,1555
2628.8472451660223,1651
2630.6427379632833,1593
2632.4378550253564,1593
2634.232596647359,1651
2636.026963124488,1570
2637.8209547520187,1503
2639.6145718253065,1573
2641.407814639785,1533
2643.200683490966,1549
2644.9931786744414,1539
2646.7853004858807,1545
2648.577049221034,1478
2650.3684251757277,1480
2652.1594286458712,1490
2653.9500599274484,1525
2655.740319316525,1454
2657.5302071092437,1517
2659.3197236018286,1527
2661.10886909058,1442
2662.8976438718782,1502
2664.686048242183,1467
2666.4740824980327,1463
2668.2617469360443,1466
2670.0490418529134,1444
2671.8359675454153,1372
2673.622524310403,1371
2675.408712444811,1375
2677.1945322456495,1383
2678.979984010009,1390
2680.76506803506,1378
2682.5497846180497,1375
2684.334134056306,1339
2686.1181166472343,1384
2687.9017326883213,1385
2689.6849824771293,1344
2691.4678663113013,1400
2693.2503844885596,1365
2695.032537306705,1347
2696.8143250636167,1405
2698.5957480572542,1358
2700.3768065856534,1284
2702.1575009469316,1336
2703.937831439283,1296
2705.717798360982,1356
2707.4974020103837,1311
2709.276642685917,1344
2711.055520686095,1295
2712.834036309506,1296
2714.612189854819,1321
2716.389981620782,1261
2718.1674119062204,1302
2719.944481010041,1325
2721.721189231226,1290
2723.4975368688415,1308
2725.273524222027,1258
2727.0491515900053,1215
2728.824419272075,1233
2730.5993275676146,1262
2732.3738767760838,1271
2734.148067197016,1248
2735.921899130031,1310
2737.6953728748194,1308
2739.468488731156,1233
2741.2412469988926,1238
2743.0136479779617,1282
2744.785691968372,1225
2746.5573792702116,1258
2748.3287101836504,1276
2750.099685008934,1288
2751.870304046388,1250
2753.640567596418,1264
2755.4104759595057,1221
2757.1800294362156,1236
2758.949228327187,1196
2760.7180729331412,1252
2762.486563554877,1230
2764.254700493272,1236
2766.022484049284,1222
2767.789914523947,1238
2769.5569922183786,1233
2771.3237174337705,1194
2773.090090471394,1242
2774.8561116326036,1238
2776.6217812188274,1218
2778.3870995315756,1217
2780.1520668724356,1255
2781.9166835430747,1220
2783.6809498452394,1223
2785.444866080754,1247
2787.2084325515225,1227
2788.971649559527,1223
2790.73451740683,1237
2792.4970363955713,1197
2794.2592068279705,1261
2796.0210290063264,1238
2797.7825032330147,1193
2799.543629810493,1224
2801.304409041296,1232
2803.0648412280366,1234
2804.8249266734088,1204
2806.5846656801846,1177
2808.344058551212,1207
2810.1031055894246,1271
2811.8618070978273,1257
2813.6201633795085,1214
2815.378174737636,1176
2817.1358414754536,1204
2818.893163896285,1259
2820.6501423035334,1274
2822.4067770006814,1255
2824.1630682912883,1244
2825.9190164789957,1246
2827.6746218675207,1246
2829.429884760661,1265
2831.184805462294,1211
2832.9393842763743,1250
2834.693621506936,1246
2836.4475174580916,1216
2838.201072434034,1234
2839.954286739034,1212
2841.707160677441,1240
2843.459694553685,1256
2845.2118886722724,1135
2846.96374333779,1191
2848.7152588549034,1201
2850.4664355283567,1201
2852.217273662973,1225
2853.9677735636546,1229
2855.7179355353833,1232
2857.4677598832186,1231
2859.217246912299,1203
2860.9663969278427,1173
2862.715210235146,1157
2864.4636871395846,1218
2866.211827946614,1184
2867.9596329617652,1232
2869.7071024906536,1197
2871.4542368389684,1205
2873.20103631248,1234
2874.947501217038,1203
2876.6936318585695,1210
2878.4394285430812,1172
2880.1848915766604,1214
2881.9300212654707,1198
2883.6748179157553,1242
2885.4192818338374,1255
2887.1634133261173,1175
2888.907212699077,1226
2890.6506802592744,1230
2892.393816313348,1228
2894.1366211680142,1248
2895.8790951300693,1199
2897.621238506388,1206
2899.363051603925,1194
2901.1045347297118,1212
2902.8456881908596,1234
2904.58651229456,1206
2906.327007348081,1209
2908.067173658772,1207
2909.8070115340597,1185
2911.5465212814497,1171
2913.285703208527,1207
2915.0245576229563,1186
2916.7630848324807,1240
2918.5012851449196,1183
2920.2391588681758,1209
2921.976706310227,1248
2923.7139277791334,1187
2925.4508235830313,1183
2927.187394030137,1208
2928.923639428745,1217
2930.6595600872306,1196
2932.395156314046,1186
2934.1304284177218,1247
2935.8653767068713,1264
2937.6000014901815,1204
2939.3343030764227,1280
2941.068281774442,1238
2942.8019378931644,1192
2944.5352717415976,1214
2946.2682836288236,1263
2948.0009738640065,1248
2949.7333427563885,1251
2951.465390615289,1253
2953.1971177501086,1249
2954.9285244703265,1207
2956.6596110855,1194
2958.3903779052657,1184
2960.1208252393385,1204
2961.8509533975125,1178
2963.5807626896617,1117
2965.3102534257378,1187
2967.0394259157715,1142
2968.768280469873,1203
2970.496817398232,1181
2972.2250370111146,1208
2973.952939618869,1238
2975.6805255319196,1190
2977.4077950607707,1255
2979.134748516006,1204
2980.861386208289,1209
2982.587708448359,1217
2984.313715547037,1251
2986.039407815222,1206
2987.764785563891,1190
2989.489849104102,1214
2991.2145987469908,1221
2992.9390348037705,1188
2994.6631575857346,1188
2996.3869674042576,1208
2998.1104645707887,1211
2999.83364939686,1192
3001.5565221940783,1172
3003.2790832741334,1185
3005.0013329487924,1220
3006.7232715298996,1191
3008.4448993293804,1193
3010.166216659239,1207
3011.887223831558,1177
3013.607921158498,1199
3015.3283089522993,1170
3017.0483875252826,1199
3018.7681571898443,1164
3020.4876182584626,1208
3022.2067710436927,1187
3023.9256158581707,1146
3025.644153014609,1195
3027.362382825801,1171
3029.0803056046193,1167
3030.797921664012,1191
3032.5152313170106,1155
3034.2322348767225,1217
3035.9489326563353,1160
3037.665324969115,1139
3039.3814121284063,1184
3041.097194447633,1188
3042.812672240299,1228
3044.5278458199855,1212
3046.2427155003525,1182
3047.9572815951406,1205
3049.671544418167,1182
3051.38550428333,1166
3053.0991615046073,1190
3054.812516396051,1241
3056.5255692717974,1199
3058.2383204460575,1144
3059.9507702331257,1222
3061.662918947372,1201
3063.3747669032446,1159
3065.0863144152736,1212
3066.7975617980674,1210
3068.508509366309,1215
3070.219157434767,1145
3071.9295063182844,1187
3073.639556331785,1226
3075.3493077902704,1193
3077.058761008821,1209
3078.7679163025964,1184
3080.476773986837,1169
3082.1853343768594,1155
3083.89359778806,1222
3085.6015645359153,1173
3087.3092349359786,1136
3089.016609303884,1216
3090.7236879553434,1174
3092.4304712061476,1212
3094.136959372166,1203
3095.843152769349,1163
3097.5490517137237,1119
3099.2546565213966,1157
3100.959967508554,1171
3102.66498499146,1232
3104.3697092864577,1188
3106.0741407099695,1186
3107.778279578498,1153
3109.482126208622,1147
3111.1856809170004,1215
3112.8889440203716,1164
3114.5919158355528,1231
3116.294596679439,1235
3117.996986869006,1192
3119.6990867213062,1210
3121.4008965534726,1158
3123.102416682717,1187
3124.803647426329,1204
3126.5045891016784,1156
3128.205242026213,1194
3129.90560651746,1192
3131.605682893025,1181
3133.3054714705922,1197
3135.0049725679282,1244
3136.7041865028714,1261
3138.4031135933465,1229
3140.101754157353,1107
3141.800108512971,1218
3143.498176978357,1146
3145.1959598717494,1162
3146.8934575114636,1180
3148.5906702158954,1196
3150.2875983035183,1188
3151.9842420928853,1219
3153.680601902627,1196
3155.376678051456,1159
3157.07247085816,1231
3158.767980641609,1207
3160.463207720748,1166
3162.158152414606,1154
3163.8528150422862,1178
3165.5471959229726,1190
3167.2412953759303,1190
3168.9351137204976,1193
3170.628651276098,1174
3172.3219083622307,1196
3174.014885298474,1199
3175.707582404485,1198
3177.4000000000005,1140
3179.092138404835,1186
3180.7839979388846,1185
3182.47557892212,1206
3184.166881674594,1118
3185.8579065164386,1170
3187.5486537678626,1170
3189.2391237491547,1200
3190.9293167806827,1195
3192.6192331828934,1177
3194.3088732763117,1148
3195.998237381542,1153
3197.687325819268,1208
3199.376138910251,1171
3201.064676975334,1162
3202.7529403354347,1181
3204.4409293115523,1195
3206.1286442247647,1188
3207.816085396229,1151
3209.5032531471825,1190
3211.190147798936,1163
3212.8767696728846,1122
3214.5631190905015,1143
3216.2491963733373,1141
3217.9350018430214,1130
3219.6205358212637,1096
3221.305798629851,1086
3222.990790590651,1110
3224.6755120256103,1152
3226.359963256751,1157
3228.0441446061795,1091
3229.7280563960758,1164
3231.411698948703,1129
3233.0950725863995,1148
3234.778177631587,1112
3236.461014406761,1166
3238.1435832345005,1143
3239.8258844374595,1185
3241.507918338374,1104
3243.1896852600576,1143
3244.8711855254023,1148
3246.552419457381,1130
3248.233387379042,1167
3249.914089613516,1186
3251.59452648401,1221
3253.274698313813,1165
3254.95460542629,1178
3256.6342481448855,1146
3258.313626793125,1144
3259.9927416946084,1137
3261.6715931730196,1184
3263.3501815521176,1147
3265.0285071557437,1137
3266.706570307815,1153
3268.3843713323286,1191
3270.0619105533615,1111
3271.739188295068,1185
3273.4162048816834,1175
3275.0929606375184,1105
3276.769455886966,1147
3278.445690954498,1168
3280.1216661646613,1164
3281.797381842087,1146
3283.4728383114807,1147
3285.1480358976296,1130
3286.8229749253996,1118
3288.4976557197333,1140
3290.172078605655,1159
3291.846243908266,1183
3293.5201519527463,1157
3295.193803064357,1212
3296.8671975684374,1146
3298.5403357904024,1191
3300.21321805575,1150
3301.8858446900567,1120
3303.558216018975,1099
3305.23033236824,1158
3306.9021940636603,1121
3308.57380143113,1180
3310.2451547966184,1186
3311.916254486174,1173
3313.5871008259246,1181
3315.2576941420766,1126
3316.9280347609147,1128
3318.5981230088046,1140
3320.2679592121895,1119
3321.9375436975924,1117
3323.606876791612,1144
3325.27595882093,1115
3326.944790112305,1143
3328.6133709925753,1148
3330.2817017886573,1101
3331.949782827547,1096
3333.617614436319,1124
3335.2851969421245,1125
3336.952530672199,1165
3338.619615953853,1160
3340.286453114475,1130
3341.9530424815357,1123
3343.619384382583,1117
3345.2854791452437,1126
3346.951327097224,1153
3348.6169285663073,1200
3350.2822838803577,1147
3351.947393367319,1191
3353.61225735521,1115
3355.2768761721345,1168
3356.9412501462693,1135
3358.605379605873,1124
3360.2692648792827,1170
3361.9329062949146,1134
3363.596304181263,1094
