CollectionTime,7/3/2024 2:33:59 PM
ExposureUsed,3
CalibratedSpectrum
-962.7078968117929,425
-959.9714848408522,452
-957.2358232597828,467
-954.5009119013725,456
-951.7667505983302,449
-949.0333391832855,442
-946.3006774887896,434
-943.5687653473143,438
-940.837602591253,442
-938.1071890529199,425
-935.3775245645503,460
-932.6486089583007,426
-929.9204420662485,459
-927.1930237203925,440
-924.4663537526524,443
-921.7404319948689,456
-919.0152582788041,459
-916.2908324361409,500
-913.5671542984834,453
-910.8442236973568,446
-908.1220404642074,456
-905.4006044304027,462
-902.679915427231,453
-899.959973285902,469
-897.2407778375464,440
-894.5223289132158,453
-891.8046263438832,449
-889.0876699604426,472
-886.3714595937089,453
-883.6559950744183,452
-880.9412762332282,459
-878.2273029007168,463
-875.5140749073835,449
-872.8015920836489,450
-870.0898542598545,464
-867.3788612662631,453
-864.6686129330585,448
-861.9591090903457,439
-859.2503495681506,478
-856.5423341964203,443
-853.8350628050229,449
-851.1285352237478,454
-848.4227512823054,441
-845.7177108103272,439
-843.0134136373656,456
-840.3098595928943,448
-837.6070485063082,472
-834.9049802069229,470
-832.2036545239757,491
-829.5030712866244,512
-826.8032303239481,476
-824.1041314649472,452
-821.4057745385428,452
-818.7081593735775,464
-816.0112857988148,461
-813.3151536429393,453
-810.6197627345566,455
-807.9251129021936,466
-805.2312039742981,459
-802.5380357792392,458
-799.8456081453069,485
-797.1539209007124,467
-794.462973873588,487
-791.772766891987,505
-789.083299783884,494
-786.3945723771743,485
-783.7065844996748,470
-781.0193359791231,495
-778.3328266431781,478
-775.6470563194197,485
-772.9620248353489,466
-770.2777320183878,464
-767.5941776958798,475
-764.9113616950891,469
-762.2292838432011,487
-759.5479439673222,481
-756.8673418944801,479
-754.1874774516235,500
-751.5083504656222,495
-748.8299607632671,487
-746.15230817127,469
-743.475392516264,476
-740.7992136248035,488
-738.1237713233636,464
-735.4490654383407,475
-732.7750957960521,463
-730.1018622227365,479
-727.4293645445534,477
-724.7576025875837,475
-722.0865761778291,484
-719.4162851412126,501
-716.7467293035781,489
-714.0779084906909,502
-711.409822528237,506
-708.7424712418238,486
-706.0758544569796,493
-703.4099719991541,504
-700.7448236937178,503
-698.0804093659622,492
-695.4167288411002,492
-692.7537819442656,484
-690.0915685005134,502
-687.4300883348199,508
-684.7693412720819,501
-682.1093271371178,526
-679.4500457546669,501
-676.7914969493897,516
-674.1336805458676,507
-671.4765963686034,495
-668.8202442420206,515
-666.1646239904642,501
-663.5097354382001,510
-660.8555784094151,495
-658.2021527282176,500
-655.5494582186366,509
-652.8974947046223,511
-650.2462620100463,553
-647.5957599587009,515
-644.9459883742998,519
-642.2969470804776,524
-639.6486359007902,539
-637.0010546587141,524
-634.3542031776476,525
-631.7080812809096,510
-629.0626887917401,535
-626.4180255333008,527
-623.7740913286734,518
-621.1308860008619,520
-618.4884093727904,538
-615.8466612673046,548
-613.2056415071715,546
-610.5653499150785,526
-607.9257863136347,533
-605.28695052537,553
-602.6488423727357,531
-600.0114616781036,525
-597.3748082637674,552
-594.7388819519412,521
-592.1036825647604,551
-589.4692099242818,567
-586.8354638524829,549
-584.2024441712624,557
-581.5701507024403,555
-578.9385832677575,591
-576.3077416888759,563
-573.6776257873787,556
-571.0482353847704,535
-568.4195703024757,546
-565.7916303618415,560
-563.164415384135,560
-560.5379251905453,544
-557.9121596021815,600
-555.2871184400748,590
-552.6628015251767,591
-550.0392086783606,558
-547.4163397204204,565
-544.794194472071,560
-542.1727727539491,583
-539.5520743866118,577
-536.9320991905377,606
-534.3128469861261,614
-531.6943175936979,639
-529.0765108334947,659
-526.4594265256793,670
-523.8430644903358,738
-521.2274245474689,847
-518.612506517005,885
-515.9983102187913,874
-513.3848354725959,871
-510.77208209810846,948
-508.16004991493924,1043
-505.5487387426199,1117
-502.9381484006032,1135
-500.3282787082628,1035
-497.71912948489364,920
-495.1107005497117,838
-492.5029917218539,752
-489.8960028203786,713
-487.28973366426493,688
-484.68418407241325,684
-482.07935386364494,662
-479.47524285670266,670
-476.87185087025,677
-474.2691777228715,722
-471.66722323307334,692
-469.0659872192821,677
-466.4654694998459,678
-463.86566989303384,662
-461.26658821703614,647
-458.66822428996414,608
-456.07057792985,662
-453.4736489546475,655
-450.877437182231,712
-448.28194243039627,656
-445.68716451686,665
-443.09310325926003,675
-440.49975847515555,675
-437.9071299820263,669
-435.31521759727354,670
-432.72402113821954,686
-430.13354042210767,701
-427.5437752661022,701
-424.95472548728867,690
-422.36639090267386,700
-419.7787713291855,707
-417.1918665836721,792
-414.60567648290385,786
-412.0202008435715,711
-409.4354394822874,754
-406.8513922155845,712
-404.26805885991723,709
-401.685439231661,725
-399.103533147112,735
-396.522340422488,726
-393.9418608739278,717
-391.3620943174908,719
-388.7830405691583,717
-386.2046994448317,666
-383.6270707603344,672
-381.05015433141045,632
-378.473949973725,617
-375.8984575028645,590
-373.32367673433623,550
-370.74960748356875,549
-368.1762495659117,565
-365.60360279663576,522
-363.03166699093265,479
-360.4604419639154,460
-357.8899275306178,459
-355.32012350599507,464
-352.7510297049233,445
-350.1826459421999,435
-347.61497203254316,429
-345.04800779059235,438
-342.4817530309082,453
-339.91620756797226,435
-337.35137121618743,426
-334.7872437898774,452
-332.22382510328725,500
-329.66111497058273,456
-327.09911320585127,457
-324.53781962310075,473
-321.9772340362607,451
-319.4173562591816,425
-316.8581861056348,430
-314.2997233893127,442
-311.7419679238294,441
-309.1849195227194,457
-306.62857799943856,469
-304.0729431673641,491
-301.51801483979375,506
-298.963792829947,488
-296.41027695096386,481
-293.85746701590574,468
-291.3053628377552,507
-288.7539642294155,525
-286.2032710037115,481
-283.65328297338897,496
-281.1039999511146,526
-278.5554217494762,548
-276.007548180983,522
-273.4603790580651,559
-270.9139141930734,519
-268.3681533982807,486
-265.8230964858798,521
-263.27874326798565,503
-260.7350935566336,505
-258.1921471637804,524
-255.6499039013039,527
-253.10836358100266,533
-250.56752601459698,526
-248.02739101372765,543
-245.48795838995704,545
-242.94922795476816,520
-240.41119951956557,546
-237.8738728956746,601
-235.33724789434166,600
-232.80132432673452,557
-230.2661020039418,553
-227.73158073697357,595
-225.19776033676033,626
-222.66464061415422,654
-220.1322213799284,608
-217.60050244477725,572
-215.06948361931552,539
-212.53916471408013,598
-210.00954553952818,684
-207.48062590603843,637
-204.9524056239104,577
-202.4248845033651,640
-199.8980623545441,666
-197.37193898751036,644
-194.84651421224817,651
-192.32178783866232,657
-189.79775967657952,659
-187.27442953574644,671
-184.7517972258321,675
-182.2298625564256,653
-179.7086253370378,615
-177.18808537710026,584
-174.66824248596583,674
-172.14909647290835,739
-169.6306471471229,765
-167.11289431772548,727
-164.59583779375328,736
-162.07947738416453,706
-159.5638128978386,768
-157.04884414357605,855
-154.53457093009854,983
-152.02099306604828,892
-149.50811035998936,709
-146.99592262040665,735
-144.48442965570587,840
-141.97363127421409,1013
-139.46352728417958,1106
-136.95411749377126,1117
-134.44540171107985,933
-131.93737974411636,756
-129.43005140081357,904
-126.92341648902493,1074
-124.41747481652521,1219
-121.91222619101006,1682
-119.40767042009657,2366
-116.90380731132257,2563
-114.40063667214702,2173
-111.8981583099503,1691
-109.3963720320337,1201
-106.89527764561933,1161
-104.39487495785067,1305
-101.89516377579241,1709
-99.39614390642998,2086
-96.89781515667039,2134
-94.40017733334128,2132
-91.90323024319173,2682
-89.40697369289148,3809
-86.91140748903172,4811
-84.41653143812482,4463
-81.92234534660395,2962
-79.42884902082358,2254
-76.93604226705907,3633
-74.4439248915071,5875
-71.95249670028534,8462
-69.46175749943245,9489
-66.97170709490854,8985
-64.48234529259423,8418
-61.99367189829195,8578
-59.50568671772464,8970
-57.01838955653636,8971
-54.53178022029283,8754
-52.045858514480074,9925
-49.560624244506016,10353
-47.07607721569923,10269
-44.59221723330904,9961
-42.10904410250669,10539
-39.62655762838392,9717
-37.14475761595372,8282
-34.66364387015028,7258
-32.18321619582866,6973
-29.70347439776515,7563
-27.224418280657005,8558
-24.74604764912317,9546
-22.26836230770266,12608
-19.7913620608565,23241
-17.315046712966478,44851
-14.83941606833514,64199
-12.36446993118659,65042
-9.89020810566592,65042
-7.416630395839093,65042
-4.94373660569363,65042
-2.471526539137585,65042
-6.821210263296962E-13,65042
2.47084320796705,65042
4.941003281093458,65042
7.410480415786196,65042
9.879274808531363,65042
12.347386655893956,65042
14.814816154518212,65042
17.28156350112681,65042
19.74762889252179,65042
22.21301252558385,65042
24.67771459727237,19781
27.141735304626195,3543
29.605074844762612,2274
32.06773341487792,1908
34.52971121224755,1810
36.99100843422559,1597
39.45162527824516,1543
41.91156194181792,1504
44.370818622535126,1319
46.82939551806646,1244
49.287292826160524,1246
51.74451074464503,1310
54.201049471426245,1230
56.65690920448981,1189
59.112090141899785,1315
61.56659248179983,1099
64.02041642241159,1132
66.4735621620365,1101
68.92602989905402,947
71.37781983192338,911
73.82893215918205,977
76.27936707944684,1219
78.72912479141326,1193
81.17820549385567,1184
83.62660938562783,1098
86.07433666566146,996
88.5213875329681,953
90.96776218663751,902
93.41346082583925,870
95.85848364982041,901
98.30283085790859,1027
100.7465026495089,1093
103.18949922410604,973
105.63182078126385,914
108.07346752062438,884
110.51443964190923,846
112.95473734491827,843
115.39436082953114,977
117.83331029570547,855
120.27158594347827,798
122.7091879729652,887
125.1461165843615,860
127.58237197794062,743
130.01795435405518,859
132.4528639131364,792
134.88710085569494,803
137.32066538231982,790
139.75355769367923,814
142.1857779905207,727
144.61732647366978,714
147.04820334403132,788
149.47840880258934,836
151.90794305040674,803
154.33680628862487,838
156.76499871846443,925
159.19252054122433,1063
161.61937195828352,1150
164.04555317109896,1230
166.47106438120693,1303
168.89590579022217,1320
171.320077599839,1388
173.7435800118302,1314
176.16641322804742,1437
178.58857745042144,1515
181.01007288096173,1597
183.43089972175687,1698
185.85105817497413,1629
188.27054844285988,1651
190.6893707277394,1597
193.10752523201643,1663
195.5250121581745,1602
197.9418317087751,1643
200.3579840864594,1726
202.7734694939469,1788
205.18828813403627,1728
207.6024402096051,1778
210.01592592360964,1912
212.42874547908548,1869
214.84089907914665,1770
217.2523869269868,1818
219.66320922587727,1790
222.0733661791695,1900
224.48285799029293,1812
226.8916848627572,1811
229.29984700014882,1893
231.7073446061355,1865
234.11417788446204,1841
236.520347038953,1775
238.92585227351185,1827
241.33069379212054,1894
243.73487179884035,1841
246.1383864978112,1840
248.541238093252,1941
250.9434267894609,1838
253.34495279081432,1861
255.74581630176783,1886
258.1460175268563,1924
260.54555667069314,1905
262.9444339379703,1900
265.3426495334594,1817
267.7402036620107,1902
270.1370965285529,1838
272.53332833809407,1854
274.9288992957214,1850
277.32380960660055,1791
279.718059475976,1711
282.1116491091717,1797
284.5045787115897,1866
286.89684848871195,1786
289.2884586460981,1799
291.67940938938807,1864
294.0697009242996,1853
296.4593334566299,1785
298.84830719225477,1888
301.23662233712923,1804
303.6242790972866,1810
306.01127767884,1720
308.39761828798066,1727
310.78330113097934,1755
313.16832641418534,1635
315.5526943440269,1745
317.9364051270112,1729
320.3194589697242,1733
322.70185607883093,1668
325.0835966610754,1661
327.4646809232805,1685
329.8451090723478,1705
332.2248813152577,1648
334.6039978590701,1604
336.9824589109231,1608
339.36026467803447,1598
341.7374153677,1598
344.113911187295,1658
346.48975234427337,1635
348.8649390461686,1649
351.2394715005918,1649
353.61334991523415,1647
355.9865744978655,1585
358.35914545633375,1605
360.73106299856715,1585
363.10232733257146,1620
365.47293866643247,1604
367.84289720831396,1559
370.2122031664593,1523
372.5808567491905,1545
374.9488581649083,1552
377.31620762209275,1559
379.6829053293021,1535
382.0489514951745,1531
384.4143463284262,1513
386.7790900378528,1500
389.14318283232853,1478
391.50662492080653,1542
393.86941651231916,1523
396.23155781597745,1496
398.5930490409713,1527
400.9538903965696,1537
403.3140820921202,1484
405.6736243370498,1470
408.03251734086336,1473
410.3907613131465,1501
412.74835646356166,1427
415.10530300185144,1479
417.4616011378372,1461
419.81725108141893,1424
422.1722530425758,1492
424.5266072313656,1535
426.880313857925,1480
429.2333731324701,1483
431.58578526529516,1439
433.9375504667738,1480
436.2886689473588,1498
438.63914091758113,1455
440.9889665880513,1463
443.33814616945835,1432
445.68667987257015,1428
448.03456790823395,1379
450.3818104873759,1438
452.72840782100013,1462
455.07436012019105,1430
457.41966759611057,1471
459.7643304600007,1507
462.10834892318155,1447
464.4517231970525,1415
466.79445349309174,1365
469.1365400228566,1478
471.4779829979826,1446
473.81878263018564,1446
476.15893913125876,1403
478.4984527130747,1456
480.8373235875855,1412
483.17555196682144,1457
485.5131380628919,1533
487.8500820879857,1534
490.1863842543697,1548
492.52204477439034,1624
494.8570638604725,1706
497.1914417251204,1770
499.52517858091653,1939
501.85827464052306,2110
504.19073011668036,2419
506.5225452222086,2599
508.85372017000566,2580
511.18425517304956,2762
513.514150444396,2801
515.8434061971808,3288
518.1720226446176,3918
520.4999999999999,4190
522.8273384766991,3957
525.1540382881666,3553
527.480099647932,3125
529.8055227696037,2546
532.1303078668694,2018
534.454455153496,1751
536.777964843328,1662
539.1008371502907,1597
541.4230722883866,1466
543.744670471698,1528
546.0656319143858,1535
548.3859568306899,1502
550.7056454349294,1468
553.0246979415016,1515
555.3431145648834,1523
557.6608955196306,1456
559.978041020377,1426
562.2945512818363,1469
564.6104265188006,1492
566.9256669461412,1400
569.2402727788082,1496
571.5542442318302,1483
573.8675815203156,1472
576.1802848594508,1511
578.4923544645015,1465
580.8037905508126,1451
583.114593333807,1437
585.4247630289875,1512
587.7342998519354,1377
590.0432040183106,1384
592.3514757438526,1440
594.6591152443794,1454
596.9661227357875,1478
599.2724984340531,1429
601.578242555231,1547
603.8833553154542,1437
606.1878369309362,1498
608.4916876179676,1478
610.7949075929192,1494
613.0974970722403,1424
615.3994562724587,1461
617.7007854101818,1434
620.0014847020951,1514
622.3015543649641,1457
624.6009946156324,1478
626.8998056710224,1483
629.1979877481361,1428
631.4955410640538,1483
633.7924658359349,1483
636.0887622810175,1507
638.3844306166192,1530
640.6794710601358,1448
642.9738838290426,1468
645.2676691408932,1511
647.5608272133207,1505
649.853358264037,1492
652.1452625108324,1477
654.4365401715764,1466
656.7271914642178,1523
659.0172166067838,1525
661.3066158173809,1452
663.5953893141935,1480
665.8835373154867,1439
668.1710600396028,1518
670.4579577049639,1508
672.7442305300709,1521
675.0298787335033,1540
677.3149025339197,1511
679.599302150058,1532
681.8830778007342,1516
684.1662297048437,1516
686.4487580813608,1565
688.7306631493387,1571
691.0119451279091,1534
693.2926042362834,1531
695.5726406937516,1517
697.8520547196814,1514
700.1308465335215,1453
702.4090163547982,1481
704.6865644031171,1518
706.9634908981619,1495
709.2397960596965,1456
711.5154801075631,1551
713.7905432616823,1518
716.0649857420548,1458
718.3388077687592,1496
720.612009561953,1498
722.8845913418733,1550
725.1565533288352,1559
727.427895743234,1492
729.6986188055427,1495
731.9687227363137,1497
734.238207756178,1463
736.5070740858458,1526
738.7753219461066,1556
741.0429515578281,1498
743.3099631419569,1477
745.5763569195191,1449
747.8421331116193,1531
750.1072919394409,1525
752.3718336242467,1496
754.6357583873777,1560
756.8990664502545,1482
759.1617580343765,1507
761.423833361321,1476
763.6852926527457,1547
765.9461361303862,1476
768.206364016058,1552
770.4659765316536,1561
772.7249738991469,1533
774.9833563405886,1579
777.2411240781092,1522
779.4982773339183,1540
781.7548163303044,1522
784.010741289634,1524
786.2660524343538,1628
788.5207499869881,1537
790.7748341701416,1560
793.0283052064964,1513
795.2811633188143,1547
797.5334087299362,1539
799.7850416627813,1514
802.0360623403484,1612
804.2864709857143,1533
806.5362678220353,1559
808.7854530725468,1471
811.0340269605625,1515
813.2819897094754,1476
815.5293415427581,1539
817.77608268396,1579
820.0222133567116,1518
822.2677337847211,1551
824.5126441917765,1512
826.7569448017433,1539
829.0006358385675,1498
831.2437175262731,1533
833.4861900889629,1588
835.7280537508192,1572
837.9693087361026,1511
840.2099552691533,1523
842.4499935743896,1544
844.689423876309,1446
846.9282463994886,1581
849.1664613685833,1609
851.4040690083276,1515
853.6410695435349,1521
855.877463199097,1506
858.1132501999847,1543
860.3484307712487,1451
862.5830051380175,1473
864.8169735254988,1509
867.0503361589791,1584
869.2830932638243,1614
871.5152450654786,1620
873.7467917894654,1664
875.9777336613873,1587
878.2080709069252,1496
880.4378037518389,1537
882.666932421968,1519
884.8954571432301,1573
887.1233781416219,1558
889.3506956432192,1599
891.5774098741766,1426
893.803521060728,1523
896.0290294291852,1533
898.2539352059397,1521
900.4782386174619,1464
902.7019398903011,1503
904.925039251085,1465
907.147536926521,1487
909.3694331433943,1526
911.59072812857,1478
913.8114221089921,1511
916.0315153116827,1520
918.2510079637437,1510
920.4699002923547,1467
922.6881925247761,1488
924.905884888345,1435
927.1229776104793,1452
929.3394709186747,1489
931.555365040506,1470
933.7706602036275,1459
935.9853566357709,1503
938.1994545647489,1473
940.4129542184515,1479
942.6258558248488,1501
944.8381596119883,1479
947.0498658079974,1530
949.2609746410825,1521
951.4714863395287,1498
953.6814011316998,1523
955.8907192460387,1477
958.0994409110671,1410
960.3075663553858,1491
962.5150958076741,1439
964.7220294966913,1452
966.928367651274,1435
969.1341105003388,1426
971.3392582728806,1475
973.5438111979742,1417
975.747769504772,1427
977.9511334225061,1424
980.153903180487,1461
982.3560790081052,1494
984.5576611348289,1433
986.7586497902058,1401
988.9590452038618,1448
991.158847605503,1447
993.3580572249133,1397
995.5566742919558,1406
997.7546990365728,1362
999.952131688785,1362
1002.1489724786926,1322
1004.3452216364743,1371
1006.5408793923874,1303
1008.7359459767691,1309
1010.9304216200343,1276
1013.1243065526781,1307
1015.3176010052733,1322
1017.510305208472,1296
1019.7024193930064,1246
1021.8939437896848,1284
1024.0848786293977,1266
1026.2752241431122,1302
1028.4649805618747,1272
1030.6541481168115,1278
1032.842727039127,1192
1035.0307175601051,1200
1037.2181199111074,1228
1039.4049343235752,1244
1041.591161029029,1222
1043.7768002590683,1165
1045.9618522453698,1175
1048.1463172196918,1229
1050.3301954138697,1181
1052.513487059818,1247
1054.69619238953,1190
1056.8783116350783,1178
1059.0598450286152,1158
1061.2407928023704,1189
1063.4211551886528,1261
1065.6009324198508,1232
1067.780124728432,1237
1069.9587323469414,1224
1072.1367555080046,1220
1074.314194444325,1239
1076.4910493886855,1232
1078.667320573947,1194
1080.843008233051,1258
1083.0181125990161,1165
1085.1926339049414,1147
1087.3665723840027,1127
1089.5399282694575,1159
1091.7127017946405,1129
1093.8848931929647,1227
1096.0565026979243,1138
1098.2275305430899,1110
1100.3979769621128,1154
1102.567842188722,1160
1104.737126456726,1124
1106.9058300000124,1157
1109.0739530525475,1149
1111.2414958483764,1105
1113.4084586216231,1197
1115.5748416064907,1180
1117.7406450372605,1156
1119.9058691482942,1113
1122.0705141740304,1171
1124.2345803489884,1143
1126.3980679077658,1165
1128.5609770850388,1143
1130.7233081155623,1156
1132.8850612341707,1165
1135.0462366757774,1157
1137.2068346753745,1140
1139.3668554680326,1132
1141.526299288901,1113
1143.68516637321,1153
1145.8434569562655,1154
1148.001171273455,1143
1150.158309560244,1065
1152.3148720521767,1122
1154.470858984876,1117
1156.626270594044,1079
1158.7811071154629,1130
1160.9353687849912,1105
1163.089055838569,1117
1165.242168512213,1152
1167.3947070420209,1127
1169.5466716641677,1138
1171.6980626149075,1107
1173.8488801305748,1115
1175.9991244475814,1098
1178.1487958024186,1054
1180.2978944316555,1133
1182.4464205719428,1133
1184.5943744600072,1157
1186.7417563326567,1128
1188.8885664267755,1134
1191.0348049793297,1140
1193.1804722273619,1144
1195.325568407995,1073
1197.4700937584303,1110
1199.614048515948,1103
1201.7574329179074,1144
1203.900247201746,1132
1206.042491604982,1168
1208.1841663652099,1094
1210.3252717201053,1113
1212.465807907422,1151
1214.6057751649923,1164
1216.7451737307279,1131
1218.8840038426192,1169
1221.0222657387353,1158
1223.1599596572241,1145
1225.2970858363137,1085
1227.4336445143094,1153
1229.5696359295966,1147
1231.705060320639,1134
1233.8399179259786,1095
1235.9742089842384,1126
1238.107933734118,1138
1240.2410924143974,1153
1242.373685263935,1181
1244.5057125216676,1144
1246.6371744266116,1120
1248.7680712178621,1153
1250.898403134593,1152
1253.028170416058,1184
1255.1573733015875,1200
1257.2860120305932,1170
1259.4140868425648,1131
1261.54159797707,1187
1263.6685456737569,1156
1265.7949301723515,1136
1267.9207517126597,1173
1270.046010534565,1147
1272.1707068780306,1230
1274.2948409830983,1197
1276.4184130898889,1178
1278.541423438603,1152
1280.6638722695184,1185
1282.785759822993,1190
1284.9070863394636,1205
1287.0278520594447,1223
1289.1480572235314,1204
1291.2677020723963,1217
1293.3867868467923,1228
1295.5053117875495,1236
1297.623277135579,1234
1299.740683131868,1254
1301.8575300174857,1261
1303.973818033578,1255
1306.0895474213703,1240
1308.2047184221678,1298
1310.3193312773528,1295
1312.4333862283888,1328
1314.5468835168163,1292
1316.659823384255,1322
1318.7722060724045,1318
1320.8840318230418,1353
1322.9953008780249,1299
1325.1060134792888,1298
1327.2161698688478,1338
1329.3257702887959,1315
1331.4348149813054,1285
1333.5433041886276,1353
1335.6512381530933,1323
1337.7586171171101,1254
1339.8654413231675,1251
1341.9717110138317,1302
1344.0774264317488,1272
1346.1825878196432,1332
1348.2871954203192,1298
1350.3912494766587,1239
1352.4947502316231,1310
1354.5976979282532,1308
1356.7000928096686,1274
1358.8019351190665,1239
1360.9032250997243,1249
1363.0039629949988,1282
1365.1041490483235,1322
1367.2037835032133,1246
1369.3028666032606,1219
1371.401398592137,1248
1373.4993797135926,1196
1375.5968102114575,1236
1377.6936903296396,1236
1379.7900203121262,1259
1381.8858004029835,1216
1383.9810308463561,1252
1386.075711886469,1267
1388.1698437676241,1253
1390.2634267342032,1241
1392.356461030667,1151
1394.4489469015557,1224
1396.5408845914872,1219
1398.6322743451592,1193
1400.7231164073469,1318
1402.813411022907,1190
1404.903158436773,1232
1406.9923588939578,1251
1409.0810126395531,1225
1411.1691199187303,1220
1413.2566809767386,1242
1415.343696058907,1241
1417.4301654106425,1227
1419.5160892774315,1229
1421.6014679048399,1286
1423.6863015385125,1201
1425.7705904241707,1238
1427.8543348076178,1227
1429.9375349347342,1227
1432.0201910514802,1223
1434.102303403894,1228
1436.1838722380944,1277
1438.2648978002767,1263
1440.3453803367174,1273
1442.4253200937692,1301
1444.5047173178677,1238
1446.5835722555234,1272
1448.6618851533285,1276
1450.739656257952,1279
1452.8168858161434,1259
1454.8935740747306,1249
1456.96972128062,1310
1459.045327680797,1335
1461.120393522327,1273
1463.1949190523528,1261
1465.2689045180973,1301
1467.3423501668608,1243
1469.415256246024,1314
1471.4876230030463,1350
1473.559450685465,1315
1475.6307395408976,1320
1477.7014898170391,1374
1479.771701761665,1357
1481.8413756226287,1370
1483.9105116478618,1359
1485.9791100853772,1358
1488.0471711832643,1422
1490.1146951896926,1382
1492.1816823529098,1458
1494.2481329212433,1367
1496.3140471430984,1412
1498.3794252669609,1348
1500.4442675413939,1342
1502.5085742150404,1372
1504.572345536622,1384
1506.6355817549388,1401
1508.6982831188702,1400
1510.7604498773744,1414
1512.8220822794883,1433
1514.8831805743293,1378
1516.9437450110909,1443
1519.003775839048,1397
1521.0632733075522,1486
1523.1222376660367,1431
1525.1806691640113,1438
1527.2385680510652,1478
1529.2959345768668,1466
1531.3527689911643,1476
1533.4090715437833,1500
1535.4648424846291,1523
1537.5200820636855,1521
1539.5747905310159,1514
1541.6289681367616,1542
1543.6826151311434,1555
1545.7357317644614,1618
1547.7883182870937,1558
1549.8403749494987,1599
1551.8919020022113,1562
1553.9428996958477,1672
1555.9933682811015,1611
1558.0433080087469,1695
1560.0927191296346,1674
1562.1416018946961,1739
1564.1899565549415,1695
1566.2377833614592,1709
1568.2850825654164,1695
1570.3318544180606,1662
1572.3780991707158,1686
1574.423817074788,1718
1576.4690083817595,1669
1578.5136733431923,1627
1580.5578122107272,1566
1582.601425236085,1614
1584.6445126710646,1597
1586.6870747675434,1556
1588.7291117774776,1543
1590.7706239529034,1490
1592.8116115459347,1487
1594.8520748087658,1532
1596.8920139936686,1446
1598.9314293529933,1431
1600.9703211391711,1409
1603.008689604711,1396
1605.0465350022005,1375
1607.0838575843068,1297
1609.1206576037753,1408
1611.1569353134305,1374
1613.1926909661765,1334
1615.2279248149953,1325
1617.2626371129481,1286
1619.2968281131757,1302
1621.3304980688963,1334
1623.3636472334088,1286
1625.39627586009,1240
1627.428384202396,1235
1629.459972513861,1216
1631.4910410480993,1202
1633.5215900588028,1215
1635.551619799744,1210
1637.5811305247717,1210
1639.6101224878166,1191
1641.6385959428862,1189
1643.6665511440683,1278
1645.693988345528,1197
1647.7209078015112,1152
1649.7473097663405,1251
1651.7731944944203,1198
1653.7985622402307,1141
1655.823413258333,1144
1657.847747803366,1149
1659.8715661300494,1191
1661.8948684931793,1153
1663.9176551476316,1195
1665.9399263483624,1195
1667.9616823504057,1129
1669.982923408873,1207
1672.0036497789574,1212
1674.0238617159293,1175
1676.043559475138,1149
1678.0627433120121,1131
1680.081413482059,1162
1682.0995702408654,1129
1684.117213844096,1209
1686.134344547495,1165
1688.1509626068864,1136
1690.1670682781705,1183
1692.182661817329,1151
1694.1977434804217,1108
1696.2123135235875,1135
1698.226372203043,1165
1700.2399197750851,1206
1702.2529564960905,1219
1704.2654826225112,1178
1706.277498410882,1147
1708.2890041178139,1133
1710.2999999999988,1184
1712.3104863142066,1147
1714.3204633172854,1163
1716.329931266163,1167
1718.3388904178469,1156
1720.3473410294214,1143
1722.3552833580516,1140
1724.3627176609807,1209
1726.3696441955308,1169
1728.3760632191033,1174
1730.3819749891782,1186
1732.3873797633146,1161
1734.3922777991502,1123
1736.3966693544012,1140
1738.4005546868639,1134
1740.4039340544127,1150
1742.406807715001,1094
1744.4091759266616,1150
1746.4110389475054,1147
1748.4123970357223,1118
1750.413250449582,1178
1752.4135994474318,1119
1754.4134442876993,1120
1756.4127852288902,1158
1758.4116225295893,1194
1760.4099564484595,1193
1762.407787244244,1138
1764.405115175764,1168
1766.4019405019203,1113
1768.3982634816916,1165
1770.3940843741357,1159
1772.3894034383907,1114
1774.3842209336717,1145
1776.378537119274,1134
1778.372352254571,1140
1780.3656665990156,1141
1782.3584804121397,1182
1784.3507939535534,1131
1786.3426074829463,1118
1788.3339212600863,1083
1790.3247355448211,1166
1792.3150505970766,1098
1794.3048666768573,1152
1796.2941840442477,1129
1798.2830029594106,1143
1800.2713236825884,1091
1802.2591464741004,1141
1804.2464715943465,1134
1806.2332993038058,1102
1808.2196298630352,1146
1810.2054635326708,1105
1812.190800573428,1164
1814.175641246101,1151
1816.1599858115628,1137
1818.1438345307652,1158
1820.127187664738,1145
1822.1100454745924,1146
1824.092408221516,1152
1826.0742761667766,1125
1828.055649571721,1151
1830.0365286977735,1167
1832.0169138064398,1110
1833.9968051593014,1129
1835.9762030180214,1150
1837.9551076443408,1122
1839.9335193000788,1151
1841.9114382471344,1153
1843.888864747485,1118
1845.8657990631878,1106
1847.842241456378,1129
1849.8181921892697,1158
1851.7936515241558,1091
1853.7686197234098,1107
1855.7430970494815,1160
1857.7170837649014,1111
1859.6905801322787,1101
1861.6635864143004,1133
1863.6361028737338,1116
1865.608129773424,1102
1867.5796673762961,1139
1869.5507159453537,1130
1871.521275743678,1092
1873.4913470344313,1119
1875.4609300808534,1119
1877.4300251462632,1126
1879.3986324940588,1121
1881.366752387717,1152
1883.3343850907936,1151
1885.3015308669228,1171
1887.268189979819,1170
1889.2343626932739,1142
1891.2000492711595,1142
1893.1652499774254,1158
1895.1299650761011,1145
1897.0941948312952,1149
1899.0579395071945,1150
1901.0211993680641,1154
1902.98397467825,1161
1904.9462657021745,1136
1906.9080727043415,1120
1908.869395949332,1137
1910.8302357018065,1154
1912.790592226504,1137
1914.7504657882428,1103
1916.7098566519212,1126
1918.6687650825133,1109
1920.6271913450764,1076
1922.5851357047422,1161
1924.5425984267245,1118
1926.499579776314,1121
1928.4560800188833,1194
1930.4120994198802,1129
1932.367638244833,1152
1934.32269675935,1145
1936.2772752291175,1170
1938.231373919899,1163
1940.1849930975404,1152
1942.1381330279637,1190
1944.0907939771696,1150
1946.0429762112412,1121
1947.9946799963363,1141
1949.9459055986945,1122
1951.896653284633,1149
1953.8469233205478,1132
1955.7967159729142,1105
1957.7460315082863,1078
1959.6948701932974,1086
1961.6432322946594,1081
1963.5911180791632,1116
1965.5385278136787,1176
1967.4854617651545,1128
1969.4319202006182,1159
1971.377903387176,1105
1973.3234115920136,1098
1975.268445082395,1126
1977.2130041256642,1144
1979.1570889892423,1051
1981.1006999406304,1144
1983.04383724741,1106
1984.986501177238,1125
1986.928691997853,1160
1988.8704099770712,1172
1990.811655382789,1105
1992.7524284829801,1121
1994.692729545698,1111
1996.6325588390755,1098
1998.5719166313224,1096
2000.5108031907307,1119
2002.4492187856677,1175
2004.387163684583,1188
2006.3246381560011,1161
2008.2616424685298,1129
2010.1981768908527,1070
2012.1342416917332,1120
2014.069837140014,1122
2016.0049635046162,1120
2017.9396210545406,1077
2019.8738100588666,1128
2021.8075307867502,1128
2023.740783507431,1112
2025.6735684902228,1108
2027.6058860045214,1105
2029.5377363198004,1146
2031.4691197056118,1150
2033.4000364315875,1139
2035.3304867674374,1119
2037.260470982952,1111
2039.189989347998,1125
2041.1190421325232,1068
2043.047629606554,1159
2044.9757520401945,1142
2046.9034097036288,1078
2048.8306028671195,1108
2050.7573318010086,1114
2052.683596775716,1124
2054.609398061742,1129
2056.5347359296647,1082
2058.4596106501403,1133
2060.384022493906,1117
2062.3079717317764,1182
2064.231458634646,1112
2066.1544834734873,1093
2068.077046519352,1128
2069.99914804337,1086
2071.9207883167524,1079
2073.8419676107865,1116
2075.7626861968406,1089
2077.6829443463607,1118
2079.6027423308715,1107
2081.522080421977,1086
2083.440958891362,1104
2085.359378010786,1084
2087.2773380520907,1120
2089.194839287196,1138
2091.111881988101,1122
2093.0284664268825,1074
2094.9445928756973,1122
2096.86026160678,1108
2098.775472892446,1108
2100.690227005088,1135
2102.604524217178,1131
2104.5183648012676,1090
2106.431749029985,1138
2108.34467717604,1147
2110.2571495122206,1125
2112.169166311393,1157
2114.080727846503,1147
2115.9918343905747,1045
2117.902486216711,1096
2119.8126835980956,1102
2121.722426807987,1076
2123.6317161197285,1097
2125.5405518067364,1152
2127.448934142509,1149
2129.356863400624,1148
2131.264339854737,1107
2133.1713637785815,1086
2135.077935445972,1105
2136.9840551308002,1130
2138.889723107037,1114
2140.7949396487334,1139
2142.699705030018,1129
2144.6040195250994,1130
2146.507883408264,1109
2148.4112969538774,1083
2150.3142604363848,1072
2152.2167741303097,1112
2154.1188383102535,1114
2156.0204532508997,1070
2157.9216192270064,1115
2159.822336513414,1110
2161.7226053850413,1159
2163.622426116884,1101
2165.5217989840185,1151
2167.4207242616,1122
2169.319202224862,1133
2171.2172331491165,1167
2173.1148173097563,1123
2175.0119549822507,1174
2176.90864644215,1096
2178.8048919650823,1133
2180.7006918267534,1118
2182.596046302952,1111
2184.4909556695407,1101
2186.3854202024645,1130
2188.279440177746,1143
2190.173015871487,1172
2192.066147559868,1111
2193.958835519149,1155
2195.851080025667,1148
2197.7428813558417,1096
2199.6342397861667,1163
2201.5251555932186,1179
2203.415629053651,1156
2205.3056604441986,1146
2207.19525004167,1183
2209.084398122958,1153
2210.9731049650327,1100
2212.861370844941,1180
2214.749196039812,1166
2216.636580826851,1139
2218.523525483344,1143
2220.410030286655,1169
2222.296095514226,1093
2224.1817214435805,1165
2226.066908352319,1197
2227.951656518121,1185
2229.835966218746,1201
2231.71983773203,1158
2233.6032713358913,1186
2235.486267308324,1218
2237.3688259274036,1149
2239.2509474712824,1137
2241.132632218193,1164
2243.013880446447,1177
2244.8946924344323,1194
2246.7750684606203,1171
2248.6550088035574,1212
2250.534513741871,1211
2252.413583554265,1174
2254.292218519526,1187
2256.170418916517,1164
2258.0481850241786,1161
2259.925517121534,1155
2261.8024154876825,1142
2263.678880401803,1083
2265.5549121431536,1197
2267.430510991071,1162
2269.305677224971,1177
2271.180411124348,1152
2273.0547129687766,1102
2274.9285830379076,1147
2276.8020216114737,1164
2278.6750289692845,1153
2280.5476053912294,1135
2282.4197511572766,1149
2284.2914665474727,1158
2286.162751841943,1148
2288.0336073208937,1150
2289.904033264608,1228
2291.774029953448,1200
2293.6435976678554,1213
2295.5127366883517,1153
2297.381447295534,1133
2299.2497297700825,1123
2301.1175843927526,1066
2302.9850114443825,1086
2304.852011205885,1054
2306.7185839582553,1042
2308.5847299825664,1077
2310.4504495599676,1035
2312.3157429716925,1045
2314.1806104990483,1041
2316.0450524234247,1044
2317.9090690262888,1048
2319.772660589186,1054
2321.635827393742,1009
2323.498569721661,1044
2325.3608878547248,1067
2327.2227820747967,992
2329.0842526638157,1015
2330.945299903803,1046
2332.805924076857,1046
2334.6661254651535,1013
2336.525904350951,971
2338.3852610165827,1037
2340.244195744464,1022
2342.102708817088,1074
2343.9608005170253,1043
2345.8184711269287,1056
2347.675720929526,1053
2349.532550207628,1014
2351.38895924412,1032
2353.24494832197,1038
2355.100517724223,1013
2356.955667734004,1028
2358.810398634514,1062
2360.664710709037,1009
2362.5186042409337,1046
2364.3720795136437,1057
2366.225136810686,1058
2368.0777764156583,1012
2369.929998612237,1034
2371.7818036841777,1015
2373.633191915315,971
2375.484163589562,1064
2377.3347189909114,1016
2379.184858403434,1027
2381.03458211128,1047
2382.8838903986775,1009
2384.732783549936,1072
2386.5812618494406,1023
2388.4293255816588,1045
2390.2769750311327,1030
2392.1242104824883,1048
2393.971032220427,1056
2395.8174405297295,1056
2397.6634356952563,1005
2399.509018001947,1049
2401.3541877348193,1094
2403.1989451789705,1018
2405.043290619576,1092
2406.8872243418905,1021
2408.730746631247,1060
2410.5738577730594,1078
2412.4165580528183,1056
2414.258847756095,1037
2416.100727168537,1029
2417.9421965758734,1082
2419.783256263912,1064
2421.623906518538,1051
2423.4641476257157,1005
2425.303979871491,1057
2427.143403541984,1080
2428.9824189233977,1112
2430.821026302012,1082
2432.6592259641866,1132
2434.497018196361,1090
2436.33440328505,1076
2438.171381516851,1094
2440.00795317844,1099
2441.844118556569,1081
2443.6798779380724,1060
2445.5152316098606,1090
2447.3501798589255,1083
2449.1847229723357,1093
2451.0188612372403,1080
2452.8525949408663,1053
2454.6859243705203,1039
2456.518849813587,1089
2458.3513715575314,1076
2460.183489889895,1035
2462.015205098301,1056
2463.8465174704493,1037
2465.67742729412,1088
2467.5079348571717,1054
2469.338040447542,1069
2471.1677443532476,1028
2472.9970468623833,1040
2474.825948263123,1074
2476.6544488437207,1035
2478.482548892508,1075
2480.310248697896,1118
2482.137548548374,1090
2483.9644487325118,1051
2485.790949538956,1085
2487.617051256433,1109
2489.44275417375,1065
2491.26805857979,1109
2493.0929647635157,1103
2494.917473013971,1072
2496.741583620276,1074
2498.5652968716304,1069
2500.3886130573137,1084
2502.2115324666834,1074
2504.0340553891765,1084
2505.856182114308,1073
2507.6779129316733,1101
2509.499248130945,1079
2511.3201880018764,1091
2513.140732834298,1086
2514.9608829181198,1060
2516.780638543331,1041
2518.6,1098
2520.418967578273,1073
2522.237541568376,1128
2524.0557222606144,1087
2525.8735099453706,1055
2527.6909049131086,1050
2529.507907454368,1086
2531.32451785977,1101
2533.140736420014,1121
2534.9565634258774,1042
2536.771999168218,1112
2538.5870439379714,1100
2540.4016980261526,1122
2542.2159617238544,1101
2544.02983532225,1121
2545.8433191125914,1138
2547.656413386209,1127
2549.4691184345115,1120
2551.2814345489874,1075
2553.093362021204,1100
2554.904901142808,1074
2556.716052205523,1102
2558.526815501153,1098
2560.3371913215824,1101
2562.147179958771,1150
2563.956781704761,1113
2565.7659968516705,1165
2567.5748256916986,1160
2569.3832685171224,1101
2571.1913256202984,1100
2572.9989972936614,1108
2574.806283829725,1083
2576.613185521084,1155
2578.4197026604074,1164
2580.2258355404483,1116
2582.031584454035,1112
2583.836949694077,1182
2585.6419315535613,1147
2587.4465303255533,1138
2589.2507463032002,1136
2591.0545797797245,1128
2592.8580310484303,1165
2594.6611004026995,1117
2596.463788135992,1150
2598.266094541849,1125
2600.0680199138874,1133
2601.869564545807,1135
2603.670728731383,1156
2605.4715127644704,1203
2607.2719169390048,1138
2609.071941548998,1118
2610.8715868885433,1106
2612.670853251811,1135
2614.469740933052,1172
2616.268250226594,1138
2618.0663814268455,1102
2619.864134828292,1121
2621.6615107255006,1148
2623.458509413115,1156
2625.2551311858597,1142
2627.0513763385347,1120
2628.8472451660223,1165
2630.6427379632833,1130
2632.4378550253564,1155
2634.232596647359,1152
2636.026963124488,1142
2637.8209547520187,1086
2639.6145718253065,1159
2641.407814639785,1094
2643.200683490966,1147
2644.9931786744414,1187
2646.7853004858807,1134
2648.577049221034,1091
2650.3684251757277,1125
2652.1594286458712,1104
2653.9500599274484,1146
2655.740319316525,1118
2657.5302071092437,1083
2659.3197236018286,1073
2661.10886909058,1094
2662.8976438718782,1124
2664.686048242183,1092
2666.4740824980327,1113
2668.2617469360443,1102
2670.0490418529134,1097
2671.8359675454153,1091
2673.622524310403,1138
2675.408712444811,1093
2677.1945322456495,1076
2678.979984010009,1042
2680.76506803506,1111
2682.5497846180497,1107
2684.334134056306,1089
2686.1181166472343,1058
2687.9017326883213,1114
2689.6849824771293,1033
2691.4678663113013,1050
2693.2503844885596,1077
2695.032537306705,1063
2696.8143250636167,1028
2698.5957480572542,1015
2700.3768065856534,1061
2702.1575009469316,1026
2703.937831439283,1081
2705.717798360982,1056
2707.4974020103837,1082
2709.276642685917,1075
2711.055520686095,1052
2712.834036309506,1026
2714.612189854819,1103
2716.389981620782,1056
2718.1674119062204,1054
2719.944481010041,1072
2721.721189231226,1016
2723.4975368688415,1078
2725.273524222027,1009
2727.0491515900053,1045
2728.824419272075,1046
2730.5993275676146,1076
2732.3738767760838,1051
2734.148067197016,1056
2735.921899130031,1044
2737.6953728748194,1056
2739.468488731156,1089
2741.2412469988926,1065
2743.0136479779617,1041
2744.785691968372,1012
2746.5573792702116,1001
2748.3287101836504,1034
2750.099685008934,1032
2751.870304046388,1010
2753.640567596418,1065
2755.4104759595057,1036
2757.1800294362156,1002
2758.949228327187,1052
2760.7180729331412,1029
2762.486563554877,1043
2764.254700493272,971
2766.022484049284,1048
2767.789914523947,1054
2769.5569922183786,1036
2771.3237174337705,1053
2773.090090471394,1044
2774.8561116326036,1015
2776.6217812188274,1018
2778.3870995315756,1044
2780.1520668724356,1038
2781.9166835430747,1039
2783.6809498452394,1046
2785.444866080754,1038
2787.2084325515225,1060
2788.971649559527,1009
2790.73451740683,1081
2792.4970363955713,1041
2794.2592068279705,995
2796.0210290063264,1025
2797.7825032330147,1051
2799.543629810493,1047
2801.304409041296,1009
2803.0648412280366,1023
2804.8249266734088,1031
2806.5846656801846,1062
2808.344058551212,1025
2810.1031055894246,1044
2811.8618070978273,1032
2813.6201633795085,1036
2815.378174737636,1083
2817.1358414754536,1043
2818.893163896285,1017
2820.6501423035334,1019
2822.4067770006814,1060
2824.1630682912883,1082
2825.9190164789957,1059
2827.6746218675207,949
2829.429884760661,1060
2831.184805462294,1007
2832.9393842763743,1120
2834.693621506936,1043
2836.4475174580916,1091
2838.201072434034,1052
2839.954286739034,1084
2841.707160677441,1041
2843.459694553685,1008
2845.2118886722724,1037
2846.96374333779,1050
2848.7152588549034,1030
2850.4664355283567,1047
2852.217273662973,1032
2853.9677735636546,1008
2855.7179355353833,1036
2857.4677598832186,1054
2859.217246912299,1031
2860.9663969278427,1042
2862.715210235146,1041
2864.4636871395846,985
2866.211827946614,1054
2867.9596329617652,1050
2869.7071024906536,1080
2871.4542368389684,1031
2873.20103631248,1050
2874.947501217038,1002
2876.6936318585695,1031
2878.4394285430812,1053
2880.1848915766604,1090
2881.9300212654707,1058
2883.6748179157553,1027
2885.4192818338374,1038
2887.1634133261173,1033
2888.907212699077,1054
2890.6506802592744,1062
2892.393816313348,1058
2894.1366211680142,1071
2895.8790951300693,1061
2897.621238506388,1058
2899.363051603925,1027
2901.1045347297118,1084
2902.8456881908596,1037
2904.58651229456,1082
2906.327007348081,1037
2908.067173658772,1083
2909.8070115340597,1059
2911.5465212814497,1012
2913.285703208527,1043
2915.0245576229563,1065
2916.7630848324807,1034
2918.5012851449196,1013
2920.2391588681758,1059
2921.976706310227,1062
2923.7139277791334,1050
2925.4508235830313,1053
2927.187394030137,1058
2928.923639428745,1002
2930.6595600872306,993
2932.395156314046,1054
2934.1304284177218,1096
2935.8653767068713,1085
2937.6000014901815,1050
2939.3343030764227,1056
2941.068281774442,1049
2942.8019378931644,1016
2944.5352717415976,989
2946.2682836288236,1070
2948.0009738640065,1040
2949.7333427563885,1073
2951.465390615289,1070
2953.1971177501086,1080
2954.9285244703265,1028
2956.6596110855,1061
2958.3903779052657,1050
2960.1208252393385,1028
2961.8509533975125,1020
2963.5807626896617,1014
2965.3102534257378,1031
2967.0394259157715,1085
2968.768280469873,1037
2970.496817398232,991
2972.2250370111146,1021
2973.952939618869,1055
2975.6805255319196,1016
2977.4077950607707,1010
2979.134748516006,1074
2980.861386208289,1006
2982.587708448359,1006
2984.313715547037,1017
2986.039407815222,1027
2987.764785563891,1036
2989.489849104102,1001
2991.2145987469908,1044
2992.9390348037705,988
2994.6631575857346,1006
2996.3869674042576,1055
2998.1104645707887,1005
2999.83364939686,1054
3001.5565221940783,1013
3003.2790832741334,1021
3005.0013329487924,1027
3006.7232715298996,989
3008.4448993293804,1029
3010.166216659239,1057
3011.887223831558,1015
3013.607921158498,1029
3015.3283089522993,1012
3017.0483875252826,1044
3018.7681571898443,1061
3020.4876182584626,1042
3022.2067710436927,1062
3023.9256158581707,1048
3025.644153014609,995
3027.362382825801,1048
3029.0803056046193,1027
3030.797921664012,1035
3032.5152313170106,1017
3034.2322348767225,993
3035.9489326563353,1039
3037.665324969115,1022
3039.3814121284063,994
3041.097194447633,962
3042.812672240299,1012
3044.5278458199855,1010
3046.2427155003525,973
3047.9572815951406,1012
3049.671544418167,970
3051.38550428333,1022
3053.0991615046073,1031
3054.812516396051,1010
3056.5255692717974,1013
3058.2383204460575,988
3059.9507702331257,993
3061.662918947372,1027
3063.3747669032446,1000
3065.0863144152736,1015
3066.7975617980674,1013
3068.508509366309,1015
3070.219157434767,984
3071.9295063182844,1006
3073.639556331785,1037
3075.3493077902704,1036
3077.058761008821,1045
3078.7679163025964,983
3080.476773986837,1008
3082.1853343768594,1049
3083.89359778806,1006
3085.6015645359153,1030
3087.3092349359786,1037
3089.016609303884,1002
3090.7236879553434,986
3092.4304712061476,972
3094.136959372166,1045
3095.843152769349,1060
3097.5490517137237,1032
3099.2546565213966,1052
3100.959967508554,1028
3102.66498499146,1041
3104.3697092864577,1017
3106.0741407099695,1021
3107.778279578498,965
3109.482126208622,1000
3111.1856809170004,1039
3112.8889440203716,1017
3114.5919158355528,1009
3116.294596679439,1034
3117.996986869006,975
3119.6990867213062,1031
3121.4008965534726,1016
3123.102416682717,971
3124.803647426329,1029
3126.5045891016784,1028
3128.205242026213,1060
3129.90560651746,1000
3131.605682893025,1033
3133.3054714705922,990
3135.0049725679282,1081
3136.7041865028714,1033
3138.4031135933465,1057
3140.101754157353,993
3141.800108512971,939
3143.498176978357,1036
3145.1959598717494,997
3146.8934575114636,989
3148.5906702158954,1012
3150.2875983035183,995
3151.9842420928853,999
3153.680601902627,1110
3155.376678051456,986
3157.07247085816,986
3158.767980641609,1026
3160.463207720748,1036
3162.158152414606,1019
3163.8528150422862,1048
3165.5471959229726,1013
3167.2412953759303,1000
3168.9351137204976,1040
3170.628651276098,1038
3172.3219083622307,987
3174.014885298474,1048
3175.707582404485,1061
3177.4000000000005,1039
3179.092138404835,1014
3180.7839979388846,1017
3182.47557892212,1014
3184.166881674594,1072
3185.8579065164386,1024
3187.5486537678626,1079
3189.2391237491547,1008
3190.9293167806827,998
3192.6192331828934,1006
3194.3088732763117,1012
3195.998237381542,1017
3197.687325819268,1026
3199.376138910251,1010
3201.064676975334,1017
3202.7529403354347,993
3204.4409293115523,1002
3206.1286442247647,968
3207.816085396229,1050
3209.5032531471825,1018
3211.190147798936,1008
3212.8767696728846,1063
3214.5631190905015,1036
3216.2491963733373,1021
3217.9350018430214,962
3219.6205358212637,1029
3221.305798629851,1005
3222.990790590651,1010
3224.6755120256103,984
3226.359963256751,1005
3228.0441446061795,960
3229.7280563960758,1023
3231.411698948703,1010
3233.0950725863995,1005
3234.778177631587,1018
3236.461014406761,1034
3238.1435832345005,1026
3239.8258844374595,1048
3241.507918338374,1014
3243.1896852600576,1025
3244.8711855254023,1037
3246.552419457381,961
3248.233387379042,1022
3249.914089613516,988
3251.59452648401,978
3253.274698313813,1035
3254.95460542629,1005
3256.6342481448855,1050
3258.313626793125,988
3259.9927416946084,1010
3261.6715931730196,1037
3263.3501815521176,1011
3265.0285071557437,978
3266.706570307815,1005
3268.3843713323286,1003
3270.0619105533615,952
3271.739188295068,943
3273.4162048816834,1052
3275.0929606375184,1032
3276.769455886966,1041
3278.445690954498,1022
3280.1216661646613,1048
3281.797381842087,1051
3283.4728383114807,1024
3285.1480358976296,1016
3286.8229749253996,1010
3288.4976557197333,999
3290.172078605655,1009
3291.846243908266,989
3293.5201519527463,1003
3295.193803064357,989
3296.8671975684374,983
3298.5403357904024,929
3300.21321805575,965
3301.8858446900567,1033
3303.558216018975,1005
3305.23033236824,980
3306.9021940636603,1043
3308.57380143113,1008
3310.2451547966184,1008
3311.916254486174,1028
3313.5871008259246,1004
3315.2576941420766,1046
3316.9280347609147,983
3318.5981230088046,1020
3320.2679592121895,1050
3321.9375436975924,994
3323.606876791612,995
3325.27595882093,1019
3326.944790112305,1011
3328.6133709925753,986
3330.2817017886573,1021
3331.949782827547,1020
3333.617614436319,996
3335.2851969421245,1043
3336.952530672199,1056
3338.619615953853,995
3340.286453114475,1027
3341.9530424815357,1015
3343.619384382583,1010
3345.2854791452437,990
3346.951327097224,996
3348.6169285663073,1004
3350.2822838803577,1043
3351.947393367319,1038
3353.61225735521,1033
3355.2768761721345,972
3356.9412501462693,1020
3358.605379605873,985
3360.2692648792827,1045
3361.9329062949146,1007
3363.596304181263,1046
