CollectionTime,7/3/2024 2:33:10 PM
ExposureUsed,3
CalibratedSpectrum
-962.7078968117929,424
-959.9714848408522,481
-957.2358232597828,461
-954.5009119013725,447
-951.7667505983302,448
-949.0333391832855,456
-946.3006774887896,451
-943.5687653473143,445
-940.837602591253,461
-938.1071890529199,474
-935.3775245645503,445
-932.6486089583007,439
-929.9204420662485,466
-927.1930237203925,493
-924.4663537526524,481
-921.7404319948689,442
-919.0152582788041,453
-916.2908324361409,495
-913.5671542984834,487
-910.8442236973568,457
-908.1220404642074,456
-905.4006044304027,441
-902.679915427231,456
-899.959973285902,461
-897.2407778375464,459
-894.5223289132158,444
-891.8046263438832,467
-889.0876699604426,463
-886.3714595937089,451
-883.6559950744183,448
-880.9412762332282,461
-878.2273029007168,442
-875.5140749073835,456
-872.8015920836489,439
-870.0898542598545,448
-867.3788612662631,446
-864.6686129330585,453
-861.9591090903457,438
-859.2503495681506,466
-856.5423341964203,459
-853.8350628050229,451
-851.1285352237478,432
-848.4227512823054,446
-845.7177108103272,497
-843.0134136373656,483
-840.3098595928943,452
-837.6070485063082,501
-834.9049802069229,456
-832.2036545239757,505
-829.5030712866244,476
-826.8032303239481,482
-824.1041314649472,482
-821.4057745385428,472
-818.7081593735775,472
-816.0112857988148,453
-813.3151536429393,468
-810.6197627345566,464
-807.9251129021936,492
-805.2312039742981,489
-802.5380357792392,472
-799.8456081453069,472
-797.1539209007124,485
-794.462973873588,461
-791.772766891987,475
-789.083299783884,493
-786.3945723771743,477
-783.7065844996748,454
-781.0193359791231,461
-778.3328266431781,459
-775.6470563194197,462
-772.9620248353489,461
-770.2777320183878,499
-767.5941776958798,483
-764.9113616950891,495
-762.2292838432011,476
-759.5479439673222,451
-756.8673418944801,468
-754.1874774516235,462
-751.5083504656222,475
-748.8299607632671,491
-746.15230817127,483
-743.475392516264,489
-740.7992136248035,472
-738.1237713233636,463
-735.4490654383407,466
-732.7750957960521,506
-730.1018622227365,506
-727.4293645445534,479
-724.7576025875837,477
-722.0865761778291,483
-719.4162851412126,488
-716.7467293035781,484
-714.0779084906909,492
-711.409822528237,515
-708.7424712418238,520
-706.0758544569796,518
-703.4099719991541,501
-700.7448236937178,532
-698.0804093659622,516
-695.4167288411002,499
-692.7537819442656,501
-690.0915685005134,528
-687.4300883348199,507
-684.7693412720819,495
-682.1093271371178,499
-679.4500457546669,489
-676.7914969493897,498
-674.1336805458676,503
-671.4765963686034,503
-668.8202442420206,524
-666.1646239904642,552
-663.5097354382001,509
-660.8555784094151,481
-658.2021527282176,509
-655.5494582186366,507
-652.8974947046223,516
-650.2462620100463,535
-647.5957599587009,542
-644.9459883742998,532
-642.2969470804776,559
-639.6486359007902,553
-637.0010546587141,543
-634.3542031776476,536
-631.7080812809096,499
-629.0626887917401,508
-626.4180255333008,504
-623.7740913286734,528
-621.1308860008619,541
-618.4884093727904,561
-615.8466612673046,542
-613.2056415071715,533
-610.5653499150785,544
-607.9257863136347,575
-605.28695052537,568
-602.6488423727357,535
-600.0114616781036,534
-597.3748082637674,541
-594.7388819519412,532
-592.1036825647604,524
-589.4692099242818,573
-586.8354638524829,566
-584.2024441712624,590
-581.5701507024403,586
-578.9385832677575,594
-576.3077416888759,613
-573.6776257873787,599
-571.0482353847704,588
-568.4195703024757,591
-565.7916303618415,588
-563.164415384135,564
-560.5379251905453,578
-557.9121596021815,578
-555.2871184400748,594
-552.6628015251767,546
-550.0392086783606,586
-547.4163397204204,586
-544.794194472071,603
-542.1727727539491,574
-539.5520743866118,582
-536.9320991905377,599
-534.3128469861261,622
-531.6943175936979,634
-529.0765108334947,650
-526.4594265256793,666
-523.8430644903358,830
-521.2274245474689,863
-518.612506517005,919
-515.9983102187913,925
-513.3848354725959,941
-510.77208209810846,1041
-508.16004991493924,1203
-505.5487387426199,1214
-502.9381484006032,1185
-500.3282787082628,1126
-497.71912948489364,1042
-495.1107005497117,909
-492.5029917218539,773
-489.8960028203786,737
-487.28973366426493,700
-484.68418407241325,708
-482.07935386364494,687
-479.47524285670266,637
-476.87185087025,666
-474.2691777228715,695
-471.66722323307334,667
-469.0659872192821,714
-466.4654694998459,694
-463.86566989303384,696
-461.26658821703614,698
-458.66822428996414,702
-456.07057792985,696
-453.4736489546475,686
-450.877437182231,707
-448.28194243039627,692
-445.68716451686,682
-443.09310325926003,702
-440.49975847515555,683
-437.9071299820263,652
-435.31521759727354,688
-432.72402113821954,710
-430.13354042210767,742
-427.5437752661022,736
-424.95472548728867,728
-422.36639090267386,771
-419.7787713291855,749
-417.1918665836721,741
-414.60567648290385,743
-412.0202008435715,743
-409.4354394822874,793
-406.8513922155845,771
-404.26805885991723,797
-401.685439231661,810
-399.103533147112,739
-396.522340422488,746
-393.9418608739278,751
-391.3620943174908,775
-388.7830405691583,742
-386.2046994448317,718
-383.6270707603344,715
-381.05015433141045,679
-378.473949973725,645
-375.8984575028645,619
-373.32367673433623,578
-370.74960748356875,603
-368.1762495659117,634
-365.60360279663576,512
-363.03166699093265,501
-360.4604419639154,499
-357.8899275306178,489
-355.32012350599507,470
-352.7510297049233,447
-350.1826459421999,459
-347.61497203254316,448
-345.04800779059235,445
-342.4817530309082,468
-339.91620756797226,458
-337.35137121618743,461
-334.7872437898774,469
-332.22382510328725,495
-329.66111497058273,480
-327.09911320585127,480
-324.53781962310075,476
-321.9772340362607,487
-319.4173562591816,470
-316.8581861056348,477
-314.2997233893127,472
-311.7419679238294,479
-309.1849195227194,469
-306.62857799943856,480
-304.0729431673641,507
-301.51801483979375,496
-298.963792829947,497
-296.41027695096386,490
-293.85746701590574,507
-291.3053628377552,505
-288.7539642294155,544
-286.2032710037115,529
-283.65328297338897,536
-281.1039999511146,574
-278.5554217494762,549
-276.007548180983,514
-273.4603790580651,552
-270.9139141930734,547
-268.3681533982807,528
-265.8230964858798,528
-263.27874326798565,539
-260.7350935566336,565
-258.1921471637804,612
-255.6499039013039,620
-253.10836358100266,567
-250.56752601459698,550
-248.02739101372765,621
-245.48795838995704,649
-242.94922795476816,552
-240.41119951956557,551
-237.8738728956746,626
-235.33724789434166,630
-232.80132432673452,586
-230.2661020039418,607
-227.73158073697357,628
-225.19776033676033,632
-222.66464061415422,769
-220.1322213799284,673
-217.60050244477725,627
-215.06948361931552,667
-212.53916471408013,711
-210.00954553952818,731
-207.48062590603843,666
-204.9524056239104,656
-202.4248845033651,774
-199.8980623545441,788
-197.37193898751036,764
-194.84651421224817,694
-192.32178783866232,638
-189.79775967657952,659
-187.27442953574644,733
-184.7517972258321,761
-182.2298625564256,717
-179.7086253370378,650
-177.18808537710026,658
-174.66824248596583,732
-172.14909647290835,836
-169.6306471471229,830
-167.11289431772548,763
-164.59583779375328,794
-162.07947738416453,884
-159.5638128978386,982
-157.04884414357605,1088
-154.53457093009854,1165
-152.02099306604828,1024
-149.50811035998936,877
-146.99592262040665,926
-144.48442965570587,983
-141.97363127421409,1264
-139.46352728417958,1434
-136.95411749377126,1406
-134.44540171107985,1203
-131.93737974411636,959
-129.43005140081357,1021
-126.92341648902493,1212
-124.41747481652521,1478
-121.91222619101006,2070
-119.40767042009657,2667
-116.90380731132257,2918
-114.40063667214702,2525
-111.8981583099503,1749
-109.3963720320337,1286
-106.89527764561933,1167
-104.39487495785067,1313
-101.89516377579241,2080
-99.39614390642998,2695
-96.89781515667039,2395
-94.40017733334128,2317
-91.90323024319173,3023
-89.40697369289148,4938
-86.91140748903172,6732
-84.41653143812482,5273
-81.92234534660395,3080
-79.42884902082358,2570
-76.93604226705907,5248
-74.4439248915071,9312
-71.95249670028534,12225
-69.46175749943245,12734
-66.97170709490854,10790
-64.48234529259423,9631
-61.99367189829195,10202
-59.50568671772464,10485
-57.01838955653636,11002
-54.53178022029283,10541
-52.045858514480074,9787
-49.560624244506016,9140
-47.07607721569923,8991
-44.59221723330904,8704
-42.10904410250669,9753
-39.62655762838392,9920
-37.14475761595372,9422
-34.66364387015028,10172
-32.18321619582866,10389
-29.70347439776515,10504
-27.224418280657005,12443
-24.74604764912317,13986
-22.26836230770266,18881
-19.7913620608565,35058
-17.315046712966478,65041
-14.83941606833514,65041
-12.36446993118659,65041
-9.89020810566592,65041
-7.416630395839093,65041
-4.94373660569363,65041
-2.471526539137585,65041
-6.821210263296962E-13,65041
2.47084320796705,65041
4.941003281093458,65041
7.410480415786196,65041
9.879274808531363,65041
12.347386655893956,65041
14.814816154518212,65041
17.28156350112681,65041
19.74762889252179,65041
22.21301252558385,65041
24.67771459727237,20394
27.141735304626195,3648
29.605074844762612,2548
32.06773341487792,2148
34.52971121224755,1873
36.99100843422559,1756
39.45162527824516,1630
41.91156194181792,1534
44.370818622535126,1374
46.82939551806646,1468
49.287292826160524,1642
51.74451074464503,1842
54.201049471426245,1804
56.65690920448981,1445
59.112090141899785,1420
61.56659248179983,1419
64.02041642241159,1251
66.4735621620365,1182
68.92602989905402,1107
71.37781983192338,1158
73.82893215918205,1138
76.27936707944684,1106
78.72912479141326,1195
81.17820549385567,1145
83.62660938562783,1181
86.07433666566146,1209
88.5213875329681,1024
90.96776218663751,925
93.41346082583925,900
95.85848364982041,887
98.30283085790859,983
100.7465026495089,1108
103.18949922410604,1163
105.63182078126385,1111
108.07346752062438,1058
110.51443964190923,965
112.95473734491827,917
115.39436082953114,906
117.83331029570547,894
120.27158594347827,953
122.7091879729652,985
125.1461165843615,956
127.58237197794062,821
130.01795435405518,815
132.4528639131364,872
134.88710085569494,934
137.32066538231982,946
139.75355769367923,823
142.1857779905207,932
144.61732647366978,838
147.04820334403132,816
149.47840880258934,797
151.90794305040674,802
154.33680628862487,954
156.76499871846443,1139
159.19252054122433,1155
161.61937195828352,1258
164.04555317109896,1266
166.47106438120693,1276
168.89590579022217,1277
171.320077599839,1444
173.7435800118302,1525
176.16641322804742,1541
178.58857745042144,1562
181.01007288096173,1640
183.43089972175687,1714
185.85105817497413,1708
188.27054844285988,1703
190.6893707277394,1761
193.10752523201643,1731
195.5250121581745,1734
197.9418317087751,1737
200.3579840864594,1856
202.7734694939469,1862
205.18828813403627,1932
207.6024402096051,1929
210.01592592360964,1912
212.42874547908548,1860
214.84089907914665,1916
217.2523869269868,1884
219.66320922587727,1862
222.0733661791695,1938
224.48285799029293,1967
226.8916848627572,1863
229.29984700014882,1898
231.7073446061355,1865
234.11417788446204,1896
236.520347038953,1889
238.92585227351185,1894
241.33069379212054,1892
243.73487179884035,1914
246.1383864978112,2064
248.541238093252,1969
250.9434267894609,1896
253.34495279081432,1938
255.74581630176783,1942
258.1460175268563,1938
260.54555667069314,1985
262.9444339379703,1876
265.3426495334594,1933
267.7402036620107,1964
270.1370965285529,1973
272.53332833809407,1861
274.9288992957214,1876
277.32380960660055,1900
279.718059475976,1884
282.1116491091717,1881
284.5045787115897,1914
286.89684848871195,1857
289.2884586460981,1846
291.67940938938807,1824
294.0697009242996,1851
296.4593334566299,1918
298.84830719225477,1922
301.23662233712923,1900
303.6242790972866,1933
306.01127767884,1872
308.39761828798066,1830
310.78330113097934,1803
313.16832641418534,1797
315.5526943440269,1817
317.9364051270112,1826
320.3194589697242,1773
322.70185607883093,1815
325.0835966610754,1791
327.4646809232805,1743
329.8451090723478,1689
332.2248813152577,1672
334.6039978590701,1672
336.9824589109231,1730
339.36026467803447,1668
341.7374153677,1717
344.113911187295,1614
346.48975234427337,1673
348.8649390461686,1654
351.2394715005918,1721
353.61334991523415,1698
355.9865744978655,1659
358.35914545633375,1681
360.73106299856715,1642
363.10232733257146,1656
365.47293866643247,1630
367.84289720831396,1651
370.2122031664593,1593
372.5808567491905,1638
374.9488581649083,1581
377.31620762209275,1649
379.6829053293021,1613
382.0489514951745,1489
384.4143463284262,1636
386.7790900378528,1517
389.14318283232853,1580
391.50662492080653,1542
393.86941651231916,1619
396.23155781597745,1536
398.5930490409713,1528
400.9538903965696,1605
403.3140820921202,1616
405.6736243370498,1623
408.03251734086336,1538
410.3907613131465,1526
412.74835646356166,1523
415.10530300185144,1568
417.4616011378372,1515
419.81725108141893,1502
422.1722530425758,1531
424.5266072313656,1530
426.880313857925,1459
429.2333731324701,1541
431.58578526529516,1496
433.9375504667738,1445
436.2886689473588,1474
438.63914091758113,1567
440.9889665880513,1483
443.33814616945835,1489
445.68667987257015,1452
448.03456790823395,1501
450.3818104873759,1487
452.72840782100013,1446
455.07436012019105,1453
457.41966759611057,1430
459.7643304600007,1469
462.10834892318155,1442
464.4517231970525,1467
466.79445349309174,1469
469.1365400228566,1464
471.4779829979826,1474
473.81878263018564,1479
476.15893913125876,1476
478.4984527130747,1486
480.8373235875855,1567
483.17555196682144,1518
485.5131380628919,1573
487.8500820879857,1602
490.1863842543697,1644
492.52204477439034,1741
494.8570638604725,1795
497.1914417251204,1851
499.52517858091653,2047
501.85827464052306,2332
504.19073011668036,2665
506.5225452222086,2862
508.85372017000566,2978
511.18425517304956,3061
513.514150444396,3039
515.8434061971808,3555
518.1720226446176,4343
520.4999999999999,4376
522.8273384766991,4047
525.1540382881666,3594
527.480099647932,3169
529.8055227696037,2659
532.1303078668694,2044
534.454455153496,1809
536.777964843328,1711
539.1008371502907,1655
541.4230722883866,1553
543.744670471698,1566
546.0656319143858,1636
548.3859568306899,1579
550.7056454349294,1534
553.0246979415016,1562
555.3431145648834,1653
557.6608955196306,1581
559.978041020377,1495
562.2945512818363,1467
564.6104265188006,1470
566.9256669461412,1467
569.2402727788082,1493
571.5542442318302,1587
573.8675815203156,1465
576.1802848594508,1455
578.4923544645015,1527
580.8037905508126,1581
583.114593333807,1519
585.4247630289875,1562
587.7342998519354,1571
590.0432040183106,1532
592.3514757438526,1499
594.6591152443794,1481
596.9661227357875,1533
599.2724984340531,1582
601.578242555231,1496
603.8833553154542,1614
606.1878369309362,1536
608.4916876179676,1500
610.7949075929192,1530
613.0974970722403,1512
615.3994562724587,1495
617.7007854101818,1560
620.0014847020951,1491
622.3015543649641,1495
624.6009946156324,1549
626.8998056710224,1561
629.1979877481361,1460
631.4955410640538,1512
633.7924658359349,1505
636.0887622810175,1567
638.3844306166192,1512
640.6794710601358,1546
642.9738838290426,1540
645.2676691408932,1543
647.5608272133207,1518
649.853358264037,1550
652.1452625108324,1565
654.4365401715764,1586
656.7271914642178,1526
659.0172166067838,1576
661.3066158173809,1548
663.5953893141935,1510
665.8835373154867,1604
668.1710600396028,1500
670.4579577049639,1529
672.7442305300709,1576
675.0298787335033,1525
677.3149025339197,1510
679.599302150058,1545
681.8830778007342,1588
684.1662297048437,1541
686.4487580813608,1550
688.7306631493387,1570
691.0119451279091,1524
693.2926042362834,1562
695.5726406937516,1504
697.8520547196814,1580
700.1308465335215,1543
702.4090163547982,1619
704.6865644031171,1607
706.9634908981619,1558
709.2397960596965,1542
711.5154801075631,1512
713.7905432616823,1512
716.0649857420548,1504
718.3388077687592,1583
720.612009561953,1530
722.8845913418733,1484
725.1565533288352,1620
727.427895743234,1550
729.6986188055427,1484
731.9687227363137,1555
734.238207756178,1534
736.5070740858458,1479
738.7753219461066,1572
741.0429515578281,1522
743.3099631419569,1542
745.5763569195191,1587
747.8421331116193,1472
750.1072919394409,1583
752.3718336242467,1580
754.6357583873777,1529
756.8990664502545,1525
759.1617580343765,1522
761.423833361321,1547
763.6852926527457,1581
765.9461361303862,1588
768.206364016058,1554
770.4659765316536,1536
772.7249738991469,1525
774.9833563405886,1596
777.2411240781092,1580
779.4982773339183,1556
781.7548163303044,1544
784.010741289634,1556
786.2660524343538,1594
788.5207499869881,1641
790.7748341701416,1641
793.0283052064964,1654
795.2811633188143,1609
797.5334087299362,1585
799.7850416627813,1578
802.0360623403484,1567
804.2864709857143,1614
806.5362678220353,1656
808.7854530725468,1554
811.0340269605625,1557
813.2819897094754,1623
815.5293415427581,1607
817.77608268396,1590
820.0222133567116,1609
822.2677337847211,1615
824.5126441917765,1616
826.7569448017433,1591
829.0006358385675,1582
831.2437175262731,1569
833.4861900889629,1544
835.7280537508192,1547
837.9693087361026,1499
840.2099552691533,1515
842.4499935743896,1538
844.689423876309,1573
846.9282463994886,1528
849.1664613685833,1577
851.4040690083276,1629
853.6410695435349,1597
855.877463199097,1562
858.1132501999847,1578
860.3484307712487,1614
862.5830051380175,1513
864.8169735254988,1662
867.0503361589791,1634
869.2830932638243,1569
871.5152450654786,1551
873.7467917894654,1570
875.9777336613873,1538
878.2080709069252,1529
880.4378037518389,1624
882.666932421968,1633
884.8954571432301,1587
887.1233781416219,1585
889.3506956432192,1603
891.5774098741766,1594
893.803521060728,1633
896.0290294291852,1528
898.2539352059397,1570
900.4782386174619,1565
902.7019398903011,1574
904.925039251085,1545
907.147536926521,1545
909.3694331433943,1585
911.59072812857,1576
913.8114221089921,1561
916.0315153116827,1459
918.2510079637437,1506
920.4699002923547,1552
922.6881925247761,1548
924.905884888345,1524
927.1229776104793,1527
929.3394709186747,1540
931.555365040506,1552
933.7706602036275,1525
935.9853566357709,1483
938.1994545647489,1581
940.4129542184515,1510
942.6258558248488,1576
944.8381596119883,1513
947.0498658079974,1486
949.2609746410825,1514
951.4714863395287,1530
953.6814011316998,1545
955.8907192460387,1461
958.0994409110671,1586
960.3075663553858,1491
962.5150958076741,1561
964.7220294966913,1574
966.928367651274,1510
969.1341105003388,1476
971.3392582728806,1505
973.5438111979742,1483
975.747769504772,1485
977.9511334225061,1449
980.153903180487,1500
982.3560790081052,1489
984.5576611348289,1513
986.7586497902058,1476
988.9590452038618,1436
991.158847605503,1409
993.3580572249133,1379
995.5566742919558,1432
997.7546990365728,1370
999.952131688785,1428
1002.1489724786926,1376
1004.3452216364743,1385
1006.5408793923874,1382
1008.7359459767691,1337
1010.9304216200343,1312
1013.1243065526781,1301
1015.3176010052733,1286
1017.510305208472,1305
1019.7024193930064,1335
1021.8939437896848,1276
1024.0848786293977,1340
1026.2752241431122,1323
1028.4649805618747,1256
1030.6541481168115,1344
1032.842727039127,1270
1035.0307175601051,1313
1037.2181199111074,1292
1039.4049343235752,1267
1041.591161029029,1262
1043.7768002590683,1225
1045.9618522453698,1247
1048.1463172196918,1250
1050.3301954138697,1224
1052.513487059818,1241
1054.69619238953,1177
1056.8783116350783,1239
1059.0598450286152,1262
1061.2407928023704,1226
1063.4211551886528,1273
1065.6009324198508,1235
1067.780124728432,1239
1069.9587323469414,1240
1072.1367555080046,1221
1074.314194444325,1231
1076.4910493886855,1248
1078.667320573947,1207
1080.843008233051,1187
1083.0181125990161,1225
1085.1926339049414,1173
1087.3665723840027,1207
1089.5399282694575,1202
1091.7127017946405,1158
1093.8848931929647,1151
1096.0565026979243,1174
1098.2275305430899,1178
1100.3979769621128,1145
1102.567842188722,1180
1104.737126456726,1216
1106.9058300000124,1156
1109.0739530525475,1183
1111.2414958483764,1199
1113.4084586216231,1195
1115.5748416064907,1154
1117.7406450372605,1165
1119.9058691482942,1154
1122.0705141740304,1173
1124.2345803489884,1202
1126.3980679077658,1210
1128.5609770850388,1147
1130.7233081155623,1115
1132.8850612341707,1108
1135.0462366757774,1114
1137.2068346753745,1171
1139.3668554680326,1184
1141.526299288901,1112
1143.68516637321,1186
1145.8434569562655,1158
1148.001171273455,1166
1150.158309560244,1139
1152.3148720521767,1167
1154.470858984876,1114
1156.626270594044,1133
1158.7811071154629,1152
1160.9353687849912,1112
1163.089055838569,1141
1165.242168512213,1080
1167.3947070420209,1137
1169.5466716641677,1178
1171.6980626149075,1132
1173.8488801305748,1170
1175.9991244475814,1157
1178.1487958024186,1104
1180.2978944316555,1125
1182.4464205719428,1122
1184.5943744600072,1132
1186.7417563326567,1148
1188.8885664267755,1141
1191.0348049793297,1067
1193.1804722273619,1151
1195.325568407995,1105
1197.4700937584303,1096
1199.614048515948,1164
1201.7574329179074,1173
1203.900247201746,1113
1206.042491604982,1135
1208.1841663652099,1143
1210.3252717201053,1123
1212.465807907422,1163
1214.6057751649923,1173
1216.7451737307279,1138
1218.8840038426192,1176
1221.0222657387353,1147
1223.1599596572241,1162
1225.2970858363137,1153
1227.4336445143094,1148
1229.5696359295966,1151
1231.705060320639,1097
1233.8399179259786,1146
1235.9742089842384,1147
1238.107933734118,1153
1240.2410924143974,1161
1242.373685263935,1203
1244.5057125216676,1187
1246.6371744266116,1100
1248.7680712178621,1127
1250.898403134593,1196
1253.028170416058,1154
1255.1573733015875,1210
1257.2860120305932,1138
1259.4140868425648,1177
1261.54159797707,1157
1263.6685456737569,1177
1265.7949301723515,1188
1267.9207517126597,1185
1270.046010534565,1241
1272.1707068780306,1187
1274.2948409830983,1192
1276.4184130898889,1198
1278.541423438603,1183
1280.6638722695184,1222
1282.785759822993,1234
1284.9070863394636,1173
1287.0278520594447,1233
1289.1480572235314,1243
1291.2677020723963,1201
1293.3867868467923,1234
1295.5053117875495,1255
1297.623277135579,1223
1299.740683131868,1268
1301.8575300174857,1297
1303.973818033578,1281
1306.0895474213703,1265
1308.2047184221678,1308
1310.3193312773528,1304
1312.4333862283888,1210
1314.5468835168163,1325
1316.659823384255,1263
1318.7722060724045,1282
1320.8840318230418,1316
1322.9953008780249,1306
1325.1060134792888,1294
1327.2161698688478,1303
1329.3257702887959,1369
1331.4348149813054,1265
1333.5433041886276,1309
1335.6512381530933,1357
1337.7586171171101,1268
1339.8654413231675,1296
1341.9717110138317,1249
1344.0774264317488,1324
1346.1825878196432,1312
1348.2871954203192,1248
1350.3912494766587,1282
1352.4947502316231,1280
1354.5976979282532,1266
1356.7000928096686,1261
1358.8019351190665,1291
1360.9032250997243,1236
1363.0039629949988,1265
1365.1041490483235,1254
1367.2037835032133,1238
1369.3028666032606,1225
1371.401398592137,1283
1373.4993797135926,1252
1375.5968102114575,1214
1377.6936903296396,1205
1379.7900203121262,1194
1381.8858004029835,1291
1383.9810308463561,1193
1386.075711886469,1226
1388.1698437676241,1220
1390.2634267342032,1181
1392.356461030667,1227
1394.4489469015557,1180
1396.5408845914872,1272
1398.6322743451592,1234
1400.7231164073469,1217
1402.813411022907,1288
1404.903158436773,1227
1406.9923588939578,1194
1409.0810126395531,1268
1411.1691199187303,1240
1413.2566809767386,1217
1415.343696058907,1208
1417.4301654106425,1222
1419.5160892774315,1197
1421.6014679048399,1223
1423.6863015385125,1245
1425.7705904241707,1179
1427.8543348076178,1205
1429.9375349347342,1229
1432.0201910514802,1234
1434.102303403894,1249
1436.1838722380944,1262
1438.2648978002767,1248
1440.3453803367174,1242
1442.4253200937692,1192
1444.5047173178677,1220
1446.5835722555234,1171
1448.6618851533285,1260
1450.739656257952,1219
1452.8168858161434,1196
1454.8935740747306,1275
1456.96972128062,1281
1459.045327680797,1295
1461.120393522327,1309
1463.1949190523528,1238
1465.2689045180973,1228
1467.3423501668608,1288
1469.415256246024,1291
1471.4876230030463,1300
1473.559450685465,1283
1475.6307395408976,1279
1477.7014898170391,1290
1479.771701761665,1281
1481.8413756226287,1308
1483.9105116478618,1267
1485.9791100853772,1273
1488.0471711832643,1283
1490.1146951896926,1310
1492.1816823529098,1352
1494.2481329212433,1381
1496.3140471430984,1313
1498.3794252669609,1337
1500.4442675413939,1352
1502.5085742150404,1392
1504.572345536622,1341
1506.6355817549388,1336
1508.6982831188702,1418
1510.7604498773744,1374
1512.8220822794883,1320
1514.8831805743293,1378
1516.9437450110909,1392
1519.003775839048,1347
1521.0632733075522,1353
1523.1222376660367,1386
1525.1806691640113,1385
1527.2385680510652,1380
1529.2959345768668,1421
1531.3527689911643,1416
1533.4090715437833,1442
1535.4648424846291,1455
1537.5200820636855,1480
1539.5747905310159,1432
1541.6289681367616,1466
1543.6826151311434,1466
1545.7357317644614,1444
1547.7883182870937,1514
1549.8403749494987,1500
1551.8919020022113,1509
1553.9428996958477,1639
1555.9933682811015,1568
1558.0433080087469,1568
1560.0927191296346,1553
1562.1416018946961,1652
1564.1899565549415,1657
1566.2377833614592,1708
1568.2850825654164,1641
1570.3318544180606,1665
1572.3780991707158,1630
1574.423817074788,1589
1576.4690083817595,1649
1578.5136733431923,1624
1580.5578122107272,1618
1582.601425236085,1602
1584.6445126710646,1552
1586.6870747675434,1522
1588.7291117774776,1525
1590.7706239529034,1439
1592.8116115459347,1416
1594.8520748087658,1426
1596.8920139936686,1439
1598.9314293529933,1416
1600.9703211391711,1367
1603.008689604711,1349
1605.0465350022005,1356
1607.0838575843068,1397
1609.1206576037753,1327
1611.1569353134305,1346
1613.1926909661765,1292
1615.2279248149953,1297
1617.2626371129481,1287
1619.2968281131757,1297
1621.3304980688963,1303
1623.3636472334088,1231
1625.39627586009,1261
1627.428384202396,1255
1629.459972513861,1207
1631.4910410480993,1224
1633.5215900588028,1206
1635.551619799744,1191
1637.5811305247717,1186
1639.6101224878166,1211
1641.6385959428862,1174
1643.6665511440683,1181
1645.693988345528,1224
1647.7209078015112,1191
1649.7473097663405,1131
1651.7731944944203,1142
1653.7985622402307,1117
1655.823413258333,1132
1657.847747803366,1236
1659.8715661300494,1213
1661.8948684931793,1162
1663.9176551476316,1208
1665.9399263483624,1170
1667.9616823504057,1145
1669.982923408873,1206
1672.0036497789574,1144
1674.0238617159293,1155
1676.043559475138,1166
1678.0627433120121,1170
1680.081413482059,1139
1682.0995702408654,1136
1684.117213844096,1148
1686.134344547495,1161
1688.1509626068864,1138
1690.1670682781705,1200
1692.182661817329,1119
1694.1977434804217,1200
1696.2123135235875,1186
1698.226372203043,1104
1700.2399197750851,1132
1702.2529564960905,1145
1704.2654826225112,1154
1706.277498410882,1206
1708.2890041178139,1148
1710.2999999999988,1161
1712.3104863142066,1149
1714.3204633172854,1171
1716.329931266163,1176
1718.3388904178469,1172
1720.3473410294214,1116
1722.3552833580516,1155
1724.3627176609807,1147
1726.3696441955308,1169
1728.3760632191033,1152
1730.3819749891782,1159
1732.3873797633146,1178
1734.3922777991502,1148
1736.3966693544012,1123
1738.4005546868639,1122
1740.4039340544127,1103
1742.406807715001,1163
1744.4091759266616,1154
1746.4110389475054,1138
1748.4123970357223,1129
1750.413250449582,1126
1752.4135994474318,1136
1754.4134442876993,1179
1756.4127852288902,1118
1758.4116225295893,1132
1760.4099564484595,1135
1762.407787244244,1142
1764.405115175764,1153
1766.4019405019203,1147
1768.3982634816916,1149
1770.3940843741357,1106
1772.3894034383907,1135
1774.3842209336717,1170
1776.378537119274,1157
1778.372352254571,1179
1780.3656665990156,1114
1782.3584804121397,1092
1784.3507939535534,1166
1786.3426074829463,1189
1788.3339212600863,1135
1790.3247355448211,1127
1792.3150505970766,1157
1794.3048666768573,1152
1796.2941840442477,1118
1798.2830029594106,1147
1800.2713236825884,1150
1802.2591464741004,1127
1804.2464715943465,1146
1806.2332993038058,1175
1808.2196298630352,1126
1810.2054635326708,1139
1812.190800573428,1110
1814.175641246101,1164
1816.1599858115628,1162
1818.1438345307652,1163
1820.127187664738,1137
1822.1100454745924,1152
1824.092408221516,1159
1826.0742761667766,1172
1828.055649571721,1106
1830.0365286977735,1131
1832.0169138064398,1135
1833.9968051593014,1146
1835.9762030180214,1087
1837.9551076443408,1159
1839.9335193000788,1132
1841.9114382471344,1111
1843.888864747485,1195
1845.8657990631878,1094
1847.842241456378,1147
1849.8181921892697,1196
1851.7936515241558,1155
1853.7686197234098,1162
1855.7430970494815,1113
1857.7170837649014,1138
1859.6905801322787,1140
1861.6635864143004,1173
1863.6361028737338,1151
1865.608129773424,1091
1867.5796673762961,1107
1869.5507159453537,1118
1871.521275743678,1132
1873.4913470344313,1130
1875.4609300808534,1095
1877.4300251462632,1094
1879.3986324940588,1137
1881.366752387717,1131
1883.3343850907936,1138
1885.3015308669228,1208
1887.268189979819,1134
1889.2343626932739,1154
1891.2000492711595,1122
1893.1652499774254,1107
1895.1299650761011,1145
1897.0941948312952,1132
1899.0579395071945,1158
1901.0211993680641,1195
1902.98397467825,1177
1904.9462657021745,1178
1906.9080727043415,1152
1908.869395949332,1112
1910.8302357018065,1162
1912.790592226504,1197
1914.7504657882428,1123
1916.7098566519212,1168
1918.6687650825133,1155
1920.6271913450764,1161
1922.5851357047422,1197
1924.5425984267245,1169
1926.499579776314,1182
1928.4560800188833,1195
1930.4120994198802,1161
1932.367638244833,1176
1934.32269675935,1208
1936.2772752291175,1171
1938.231373919899,1178
1940.1849930975404,1181
1942.1381330279637,1120
1944.0907939771696,1163
1946.0429762112412,1138
1947.9946799963363,1186
1949.9459055986945,1130
1951.896653284633,1153
1953.8469233205478,1213
1955.7967159729142,1165
1957.7460315082863,1120
1959.6948701932974,1135
1961.6432322946594,1216
1963.5911180791632,1170
1965.5385278136787,1115
1967.4854617651545,1216
1969.4319202006182,1167
1971.377903387176,1146
1973.3234115920136,1210
1975.268445082395,1132
1977.2130041256642,1146
1979.1570889892423,1184
1981.1006999406304,1177
1983.04383724741,1209
1984.986501177238,1134
1986.928691997853,1181
1988.8704099770712,1135
1990.811655382789,1137
1992.7524284829801,1150
1994.692729545698,1127
1996.6325588390755,1124
1998.5719166313224,1104
2000.5108031907307,1088
2002.4492187856677,1133
2004.387163684583,1156
2006.3246381560011,1165
2008.2616424685298,1153
2010.1981768908527,1138
2012.1342416917332,1145
2014.069837140014,1149
2016.0049635046162,1154
2017.9396210545406,1190
2019.8738100588666,1150
2021.8075307867502,1148
2023.740783507431,1157
2025.6735684902228,1124
2027.6058860045214,1113
2029.5377363198004,1189
2031.4691197056118,1163
2033.4000364315875,1147
2035.3304867674374,1143
2037.260470982952,1169
2039.189989347998,1163
2041.1190421325232,1203
2043.047629606554,1097
2044.9757520401945,1146
2046.9034097036288,1170
2048.8306028671195,1143
2050.7573318010086,1115
2052.683596775716,1143
2054.609398061742,1083
2056.5347359296647,1126
2058.4596106501403,1117
2060.384022493906,1135
2062.3079717317764,1139
2064.231458634646,1086
2066.1544834734873,1118
2068.077046519352,1169
2069.99914804337,1135
2071.9207883167524,1123
2073.8419676107865,1128
2075.7626861968406,1141
2077.6829443463607,1176
2079.6027423308715,1157
2081.522080421977,1110
2083.440958891362,1144
2085.359378010786,1149
2087.2773380520907,1163
2089.194839287196,1129
2091.111881988101,1144
2093.0284664268825,1165
2094.9445928756973,1133
2096.86026160678,1155
2098.775472892446,1116
2100.690227005088,1150
2102.604524217178,1117
2104.5183648012676,1119
2106.431749029985,1154
2108.34467717604,1161
2110.2571495122206,1150
2112.169166311393,1164
2114.080727846503,1141
2115.9918343905747,1091
2117.902486216711,1141
2119.8126835980956,1158
2121.722426807987,1127
2123.6317161197285,1100
2125.5405518067364,1114
2127.448934142509,1160
2129.356863400624,1147
2131.264339854737,1146
2133.1713637785815,1170
2135.077935445972,1133
2136.9840551308002,1124
2138.889723107037,1158
2140.7949396487334,1126
2142.699705030018,1140
2144.6040195250994,1143
2146.507883408264,1166
2148.4112969538774,1101
2150.3142604363848,1167
2152.2167741303097,1148
2154.1188383102535,1129
2156.0204532508997,1141
2157.9216192270064,1150
2159.822336513414,1158
2161.7226053850413,1166
2163.622426116884,1144
2165.5217989840185,1178
2167.4207242616,1182
2169.319202224862,1168
2171.2172331491165,1139
2173.1148173097563,1163
2175.0119549822507,1137
2176.90864644215,1154
2178.8048919650823,1164
2180.7006918267534,1143
2182.596046302952,1128
2184.4909556695407,1173
2186.3854202024645,1171
2188.279440177746,1166
2190.173015871487,1182
2192.066147559868,1177
2193.958835519149,1177
2195.851080025667,1175
2197.7428813558417,1157
2199.6342397861667,1192
2201.5251555932186,1138
2203.415629053651,1171
2205.3056604441986,1159
2207.19525004167,1149
2209.084398122958,1222
2210.9731049650327,1186
2212.861370844941,1193
2214.749196039812,1174
2216.636580826851,1224
2218.523525483344,1161
2220.410030286655,1228
2222.296095514226,1227
2224.1817214435805,1217
2226.066908352319,1167
2227.951656518121,1213
2229.835966218746,1189
2231.71983773203,1221
2233.6032713358913,1236
2235.486267308324,1232
2237.3688259274036,1163
2239.2509474712824,1160
2241.132632218193,1173
2243.013880446447,1212
2244.8946924344323,1197
2246.7750684606203,1222
2248.6550088035574,1185
2250.534513741871,1192
2252.413583554265,1185
2254.292218519526,1203
2256.170418916517,1228
2258.0481850241786,1182
2259.925517121534,1157
2261.8024154876825,1156
2263.678880401803,1206
2265.5549121431536,1220
2267.430510991071,1216
2269.305677224971,1174
2271.180411124348,1183
2273.0547129687766,1166
2274.9285830379076,1183
2276.8020216114737,1196
2278.6750289692845,1137
2280.5476053912294,1148
2282.4197511572766,1169
2284.2914665474727,1174
2286.162751841943,1202
2288.0336073208937,1226
2289.904033264608,1249
2291.774029953448,1226
2293.6435976678554,1161
2295.5127366883517,1224
2297.381447295534,1185
2299.2497297700825,1138
2301.1175843927526,1150
2302.9850114443825,1118
2304.852011205885,1094
2306.7185839582553,1068
2308.5847299825664,1093
2310.4504495599676,1064
2312.3157429716925,1108
2314.1806104990483,1097
2316.0450524234247,1083
2317.9090690262888,1088
2319.772660589186,1036
2321.635827393742,1013
2323.498569721661,1076
2325.3608878547248,1063
2327.2227820747967,1084
2329.0842526638157,1106
2330.945299903803,1067
2332.805924076857,1057
2334.6661254651535,1064
2336.525904350951,1106
2338.3852610165827,1051
2340.244195744464,1044
2342.102708817088,1027
2343.9608005170253,1030
2345.8184711269287,1052
2347.675720929526,1055
2349.532550207628,1063
2351.38895924412,1062
2353.24494832197,1035
2355.100517724223,1074
2356.955667734004,1034
2358.810398634514,1069
2360.664710709037,1061
2362.5186042409337,1127
2364.3720795136437,1085
2366.225136810686,1104
2368.0777764156583,1065
2369.929998612237,1076
2371.7818036841777,1056
2373.633191915315,1060
2375.484163589562,1056
2377.3347189909114,1063
2379.184858403434,1069
2381.03458211128,1048
2382.8838903986775,1062
2384.732783549936,1076
2386.5812618494406,1049
2388.4293255816588,1097
2390.2769750311327,1051
2392.1242104824883,1040
2393.971032220427,1106
2395.8174405297295,1077
2397.6634356952563,1061
2399.509018001947,1092
2401.3541877348193,1052
2403.1989451789705,1088
2405.043290619576,1073
2406.8872243418905,1097
2408.730746631247,1096
2410.5738577730594,1040
2412.4165580528183,1073
2414.258847756095,1091
2416.100727168537,1105
2417.9421965758734,1068
2419.783256263912,1071
2421.623906518538,1076
2423.4641476257157,1113
2425.303979871491,1100
2427.143403541984,1071
2428.9824189233977,1081
2430.821026302012,1122
2432.6592259641866,1133
2434.497018196361,1102
2436.33440328505,1125
2438.171381516851,1126
2440.00795317844,1068
2441.844118556569,1107
2443.6798779380724,1121
2445.5152316098606,1064
2447.3501798589255,1096
2449.1847229723357,1075
2451.0188612372403,1084
2452.8525949408663,1142
2454.6859243705203,1067
2456.518849813587,1096
2458.3513715575314,1102
2460.183489889895,1053
2462.015205098301,1053
2463.8465174704493,1080
2465.67742729412,1072
2467.5079348571717,1132
2469.338040447542,1074
2471.1677443532476,1087
2472.9970468623833,1067
2474.825948263123,1099
2476.6544488437207,1101
2478.482548892508,1065
2480.310248697896,1030
2482.137548548374,1055
2483.9644487325118,1069
2485.790949538956,1091
2487.617051256433,1141
2489.44275417375,1048
2491.26805857979,1053
2493.0929647635157,1072
2494.917473013971,1071
2496.741583620276,1056
2498.5652968716304,1058
2500.3886130573137,1076
2502.2115324666834,1105
2504.0340553891765,1059
2505.856182114308,1087
2507.6779129316733,1095
2509.499248130945,1093
2511.3201880018764,1050
2513.140732834298,1107
2514.9608829181198,1105
2516.780638543331,1057
2518.6,1056
2520.418967578273,1054
2522.237541568376,1117
2524.0557222606144,1095
2525.8735099453706,1091
2527.6909049131086,1103
2529.507907454368,1063
2531.32451785977,1117
2533.140736420014,1130
2534.9565634258774,1113
2536.771999168218,1059
2538.5870439379714,1066
2540.4016980261526,1135
2542.2159617238544,1091
2544.02983532225,1132
2545.8433191125914,1089
2547.656413386209,1168
2549.4691184345115,1118
2551.2814345489874,1144
2553.093362021204,1142
2554.904901142808,1136
2556.716052205523,1173
2558.526815501153,1086
2560.3371913215824,1145
2562.147179958771,1148
2563.956781704761,1113
2565.7659968516705,1148
2567.5748256916986,1164
2569.3832685171224,1107
2571.1913256202984,1167
2572.9989972936614,1119
2574.806283829725,1137
2576.613185521084,1095
2578.4197026604074,1140
2580.2258355404483,1129
2582.031584454035,1111
2583.836949694077,1111
2585.6419315535613,1161
2587.4465303255533,1052
2589.2507463032002,1178
2591.0545797797245,1101
2592.8580310484303,1113
2594.6611004026995,1161
2596.463788135992,1099
2598.266094541849,1089
2600.0680199138874,1137
2601.869564545807,1165
2603.670728731383,1136
2605.4715127644704,1130
2607.2719169390048,1123
2609.071941548998,1158
2610.8715868885433,1141
2612.670853251811,1133
2614.469740933052,1141
2616.268250226594,1125
2618.0663814268455,1122
2619.864134828292,1149
2621.6615107255006,1118
2623.458509413115,1097
2625.2551311858597,1111
2627.0513763385347,1172
2628.8472451660223,1148
2630.6427379632833,1108
2632.4378550253564,1167
2634.232596647359,1070
2636.026963124488,1112
2637.8209547520187,1101
2639.6145718253065,1114
2641.407814639785,1100
2643.200683490966,1113
2644.9931786744414,1114
2646.7853004858807,1106
2648.577049221034,1145
2650.3684251757277,1071
2652.1594286458712,1097
2653.9500599274484,1161
2655.740319316525,1148
2657.5302071092437,1141
2659.3197236018286,1067
2661.10886909058,1186
2662.8976438718782,1153
2664.686048242183,1133
2666.4740824980327,1087
2668.2617469360443,1107
2670.0490418529134,1116
2671.8359675454153,1041
2673.622524310403,1071
2675.408712444811,1072
2677.1945322456495,1123
2678.979984010009,1135
2680.76506803506,1095
2682.5497846180497,1112
2684.334134056306,1092
2686.1181166472343,1095
2687.9017326883213,1141
2689.6849824771293,1088
2691.4678663113013,1096
2693.2503844885596,1119
2695.032537306705,1075
2696.8143250636167,1070
2698.5957480572542,1092
2700.3768065856534,1123
2702.1575009469316,1073
2703.937831439283,1034
2705.717798360982,1038
2707.4974020103837,1086
2709.276642685917,1039
2711.055520686095,1067
2712.834036309506,1066
2714.612189854819,1074
2716.389981620782,1097
2718.1674119062204,1089
2719.944481010041,1059
2721.721189231226,1066
2723.4975368688415,1068
2725.273524222027,1070
2727.0491515900053,1035
2728.824419272075,1059
2730.5993275676146,1029
2732.3738767760838,1096
2734.148067197016,1077
2735.921899130031,1079
2737.6953728748194,1025
2739.468488731156,1065
2741.2412469988926,1026
2743.0136479779617,1065
2744.785691968372,1030
2746.5573792702116,1083
2748.3287101836504,1058
2750.099685008934,1054
2751.870304046388,1066
2753.640567596418,1109
2755.4104759595057,1062
2757.1800294362156,1054
2758.949228327187,1041
2760.7180729331412,1017
2762.486563554877,1004
2764.254700493272,1001
2766.022484049284,1061
2767.789914523947,1059
2769.5569922183786,1060
2771.3237174337705,1058
2773.090090471394,1069
2774.8561116326036,1050
2776.6217812188274,1065
2778.3870995315756,1064
2780.1520668724356,1016
2781.9166835430747,1074
2783.6809498452394,1013
2785.444866080754,1080
2787.2084325515225,1107
2788.971649559527,1062
2790.73451740683,1027
2792.4970363955713,1017
2794.2592068279705,1030
2796.0210290063264,1052
2797.7825032330147,1072
2799.543629810493,1019
2801.304409041296,1063
2803.0648412280366,1048
2804.8249266734088,1032
2806.5846656801846,1067
2808.344058551212,1042
2810.1031055894246,1078
2811.8618070978273,1056
2813.6201633795085,1072
2815.378174737636,1007
2817.1358414754536,1075
2818.893163896285,1076
2820.6501423035334,1075
2822.4067770006814,1079
2824.1630682912883,1003
2825.9190164789957,1023
2827.6746218675207,1010
2829.429884760661,1059
2831.184805462294,1084
2832.9393842763743,1093
2834.693621506936,1067
2836.4475174580916,1092
2838.201072434034,1097
2839.954286739034,1049
2841.707160677441,1045
2843.459694553685,1058
2845.2118886722724,1074
2846.96374333779,1048
2848.7152588549034,1064
2850.4664355283567,1027
2852.217273662973,1049
2853.9677735636546,1060
2855.7179355353833,1069
2857.4677598832186,1069
2859.217246912299,1112
2860.9663969278427,1041
2862.715210235146,1051
2864.4636871395846,1053
2866.211827946614,1095
2867.9596329617652,1094
2869.7071024906536,1070
2871.4542368389684,1085
2873.20103631248,1061
2874.947501217038,1086
2876.6936318585695,1099
2878.4394285430812,1117
2880.1848915766604,1086
2881.9300212654707,1101
2883.6748179157553,1094
2885.4192818338374,1073
2887.1634133261173,1105
2888.907212699077,1054
2890.6506802592744,1091
2892.393816313348,1065
2894.1366211680142,1061
2895.8790951300693,1049
2897.621238506388,1070
2899.363051603925,1098
2901.1045347297118,1073
2902.8456881908596,1079
2904.58651229456,1053
2906.327007348081,1078
2908.067173658772,1050
2909.8070115340597,1045
2911.5465212814497,1057
2913.285703208527,1059
2915.0245576229563,1017
2916.7630848324807,1007
2918.5012851449196,1069
2920.2391588681758,1051
2921.976706310227,1041
2923.7139277791334,1034
2925.4508235830313,1029
2927.187394030137,1040
2928.923639428745,1022
2930.6595600872306,1077
2932.395156314046,1039
2934.1304284177218,1144
2935.8653767068713,1042
2937.6000014901815,1032
2939.3343030764227,1065
2941.068281774442,1073
2942.8019378931644,1082
2944.5352717415976,1059
2946.2682836288236,1087
2948.0009738640065,1101
2949.7333427563885,1077
2951.465390615289,1039
2953.1971177501086,1071
2954.9285244703265,1093
2956.6596110855,1031
2958.3903779052657,1056
2960.1208252393385,1093
2961.8509533975125,1045
2963.5807626896617,1061
2965.3102534257378,1050
2967.0394259157715,1053
2968.768280469873,1063
2970.496817398232,1062
2972.2250370111146,1020
2973.952939618869,1079
2975.6805255319196,1054
2977.4077950607707,1058
2979.134748516006,1036
2980.861386208289,1112
2982.587708448359,1083
2984.313715547037,1086
2986.039407815222,1056
2987.764785563891,1059
2989.489849104102,1030
2991.2145987469908,1055
2992.9390348037705,1043
2994.6631575857346,1065
2996.3869674042576,1051
2998.1104645707887,1049
2999.83364939686,1025
3001.5565221940783,1036
3003.2790832741334,1076
3005.0013329487924,1025
3006.7232715298996,1029
3008.4448993293804,1073
3010.166216659239,1076
3011.887223831558,991
3013.607921158498,1032
3015.3283089522993,1001
3017.0483875252826,1024
3018.7681571898443,1074
3020.4876182584626,1045
3022.2067710436927,1065
3023.9256158581707,1064
3025.644153014609,1060
3027.362382825801,1031
3029.0803056046193,979
3030.797921664012,1029
3032.5152313170106,1048
3034.2322348767225,1039
3035.9489326563353,1053
3037.665324969115,1038
3039.3814121284063,1074
3041.097194447633,1052
3042.812672240299,1049
3044.5278458199855,1041
3046.2427155003525,1053
3047.9572815951406,1041
3049.671544418167,1093
3051.38550428333,1027
3053.0991615046073,1041
3054.812516396051,1006
3056.5255692717974,1005
3058.2383204460575,1025
3059.9507702331257,1063
3061.662918947372,1016
3063.3747669032446,1029
3065.0863144152736,1043
3066.7975617980674,1051
3068.508509366309,1054
3070.219157434767,1068
3071.9295063182844,1032
3073.639556331785,1018
3075.3493077902704,1068
3077.058761008821,1024
3078.7679163025964,1047
3080.476773986837,1050
3082.1853343768594,1013
3083.89359778806,1010
3085.6015645359153,1015
3087.3092349359786,1035
3089.016609303884,1009
3090.7236879553434,1034
3092.4304712061476,1056
3094.136959372166,1056
3095.843152769349,1081
3097.5490517137237,1039
3099.2546565213966,1012
3100.959967508554,1058
3102.66498499146,1142
3104.3697092864577,1090
3106.0741407099695,1025
3107.778279578498,1021
3109.482126208622,1010
3111.1856809170004,1059
3112.8889440203716,1004
3114.5919158355528,1049
3116.294596679439,1027
3117.996986869006,993
3119.6990867213062,1078
3121.4008965534726,1048
3123.102416682717,1045
3124.803647426329,1021
3126.5045891016784,1059
3128.205242026213,1074
3129.90560651746,1009
3131.605682893025,1053
3133.3054714705922,1045
3135.0049725679282,1063
3136.7041865028714,1028
3138.4031135933465,1059
3140.101754157353,1049
3141.800108512971,1019
3143.498176978357,1018
3145.1959598717494,1086
3146.8934575114636,1028
3148.5906702158954,1026
3150.2875983035183,1006
3151.9842420928853,1047
3153.680601902627,1016
3155.376678051456,1025
3157.07247085816,1021
3158.767980641609,1025
3160.463207720748,1013
3162.158152414606,1029
3163.8528150422862,1004
3165.5471959229726,1061
3167.2412953759303,1049
3168.9351137204976,1099
3170.628651276098,1077
3172.3219083622307,1051
3174.014885298474,1029
3175.707582404485,1045
3177.4000000000005,1006
3179.092138404835,1017
3180.7839979388846,1101
3182.47557892212,1072
3184.166881674594,1052
3185.8579065164386,1066
3187.5486537678626,1042
3189.2391237491547,1040
3190.9293167806827,1075
3192.6192331828934,997
3194.3088732763117,1063
3195.998237381542,1015
3197.687325819268,1028
3199.376138910251,1026
3201.064676975334,1053
3202.7529403354347,1067
3204.4409293115523,1056
3206.1286442247647,1006
3207.816085396229,1071
3209.5032531471825,1016
3211.190147798936,1010
3212.8767696728846,996
3214.5631190905015,1016
3216.2491963733373,1015
3217.9350018430214,1023
3219.6205358212637,1046
3221.305798629851,999
3222.990790590651,1004
3224.6755120256103,987
3226.359963256751,1061
3228.0441446061795,1004
3229.7280563960758,1003
3231.411698948703,1068
3233.0950725863995,1019
3234.778177631587,1044
3236.461014406761,1004
3238.1435832345005,1076
3239.8258844374595,1027
3241.507918338374,989
3243.1896852600576,1034
3244.8711855254023,1030
3246.552419457381,972
3248.233387379042,1014
3249.914089613516,1024
3251.59452648401,1048
3253.274698313813,1047
3254.95460542629,1066
3256.6342481448855,1077
3258.313626793125,1061
3259.9927416946084,1003
3261.6715931730196,1011
3263.3501815521176,1024
3265.0285071557437,988
3266.706570307815,1015
3268.3843713323286,1028
3270.0619105533615,1013
3271.739188295068,1035
3273.4162048816834,978
3275.0929606375184,1000
3276.769455886966,1009
3278.445690954498,1023
3280.1216661646613,1045
3281.797381842087,1075
3283.4728383114807,1050
3285.1480358976296,1015
3286.8229749253996,1009
3288.4976557197333,1003
3290.172078605655,1002
3291.846243908266,993
3293.5201519527463,1013
3295.193803064357,1026
3296.8671975684374,992
3298.5403357904024,1008
3300.21321805575,999
3301.8858446900567,972
3303.558216018975,1039
3305.23033236824,1073
3306.9021940636603,1052
3308.57380143113,1049
3310.2451547966184,1036
3311.916254486174,1056
3313.5871008259246,1037
3315.2576941420766,1081
3316.9280347609147,1048
3318.5981230088046,1017
3320.2679592121895,1007
3321.9375436975924,1039
3323.606876791612,1001
3325.27595882093,1013
3326.944790112305,1009
3328.6133709925753,991
3330.2817017886573,987
3331.949782827547,1081
3333.617614436319,1049
3335.2851969421245,1068
3336.952530672199,1065
3338.619615953853,1018
3340.286453114475,1020
3341.9530424815357,1016
3343.619384382583,1085
3345.2854791452437,1042
3346.951327097224,994
3348.6169285663073,1060
3350.2822838803577,1025
3351.947393367319,1024
3353.61225735521,1089
3355.2768761721345,1063
3356.9412501462693,1033
3358.605379605873,1002
3360.2692648792827,1041
3361.9329062949146,1020
3363.596304181263,1026
