CollectionTime,7/9/2024 11:12:06 AM
ExposureUsed,3
CalibratedSpectrum
-962.7078968117929,624
-959.9714848408522,653
-957.2358232597828,639
-954.5009119013725,663
-951.7667505983302,637
-949.0333391832855,617
-946.3006774887896,672
-943.5687653473143,644
-940.837602591253,654
-938.1071890529199,649
-935.3775245645503,666
-932.6486089583007,655
-929.9204420662485,668
-927.1930237203925,688
-924.4663537526524,622
-921.7404319948689,672
-919.0152582788041,658
-916.2908324361409,728
-913.5671542984834,679
-910.8442236973568,671
-908.1220404642074,694
-905.4006044304027,680
-902.679915427231,664
-899.959973285902,667
-897.2407778375464,678
-894.5223289132158,681
-891.8046263438832,662
-889.0876699604426,653
-886.3714595937089,679
-883.6559950744183,683
-880.9412762332282,662
-878.2273029007168,662
-875.5140749073835,639
-872.8015920836489,651
-870.0898542598545,668
-867.3788612662631,599
-864.6686129330585,639
-861.9591090903457,649
-859.2503495681506,655
-856.5423341964203,662
-853.8350628050229,647
-851.1285352237478,658
-848.4227512823054,627
-845.7177108103272,679
-843.0134136373656,659
-840.3098595928943,648
-837.6070485063082,682
-834.9049802069229,700
-832.2036545239757,694
-829.5030712866244,686
-826.8032303239481,685
-824.1041314649472,668
-821.4057745385428,697
-818.7081593735775,698
-816.0112857988148,665
-813.3151536429393,704
-810.6197627345566,703
-807.9251129021936,643
-805.2312039742981,695
-802.5380357792392,693
-799.8456081453069,666
-797.1539209007124,679
-794.462973873588,691
-791.772766891987,699
-789.083299783884,666
-786.3945723771743,696
-783.7065844996748,677
-781.0193359791231,673
-778.3328266431781,688
-775.6470563194197,708
-772.9620248353489,647
-770.2777320183878,662
-767.5941776958798,687
-764.9113616950891,671
-762.2292838432011,694
-759.5479439673222,678
-756.8673418944801,676
-754.1874774516235,687
-751.5083504656222,694
-748.8299607632671,715
-746.15230817127,698
-743.475392516264,681
-740.7992136248035,683
-738.1237713233636,685
-735.4490654383407,689
-732.7750957960521,738
-730.1018622227365,696
-727.4293645445534,703
-724.7576025875837,703
-722.0865761778291,703
-719.4162851412126,691
-716.7467293035781,735
-714.0779084906909,750
-711.409822528237,753
-708.7424712418238,747
-706.0758544569796,717
-703.4099719991541,749
-700.7448236937178,731
-698.0804093659622,732
-695.4167288411002,758
-692.7537819442656,767
-690.0915685005134,743
-687.4300883348199,694
-684.7693412720819,759
-682.1093271371178,779
-679.4500457546669,775
-676.7914969493897,760
-674.1336805458676,738
-671.4765963686034,752
-668.8202442420206,767
-666.1646239904642,798
-663.5097354382001,784
-660.8555784094151,748
-658.2021527282176,804
-655.5494582186366,774
-652.8974947046223,777
-650.2462620100463,787
-647.5957599587009,781
-644.9459883742998,826
-642.2969470804776,818
-639.6486359007902,811
-637.0010546587141,834
-634.3542031776476,789
-631.7080812809096,802
-629.0626887917401,828
-626.4180255333008,815
-623.7740913286734,804
-621.1308860008619,816
-618.4884093727904,788
-615.8466612673046,818
-613.2056415071715,842
-610.5653499150785,836
-607.9257863136347,814
-605.28695052537,820
-602.6488423727357,841
-600.0114616781036,796
-597.3748082637674,800
-594.7388819519412,798
-592.1036825647604,851
-589.4692099242818,843
-586.8354638524829,844
-584.2024441712624,818
-581.5701507024403,830
-578.9385832677575,780
-576.3077416888759,848
-573.6776257873787,815
-571.0482353847704,825
-568.4195703024757,887
-565.7916303618415,917
-563.164415384135,838
-560.5379251905453,845
-557.9121596021815,856
-555.2871184400748,887
-552.6628015251767,849
-550.0392086783606,865
-547.4163397204204,859
-544.794194472071,863
-542.1727727539491,886
-539.5520743866118,916
-536.9320991905377,911
-534.3128469861261,979
-531.6943175936979,928
-529.0765108334947,975
-526.4594265256793,1007
-523.8430644903358,1145
-521.2274245474689,1291
-518.612506517005,1341
-515.9983102187913,1223
-513.3848354725959,1292
-510.77208209810846,1296
-508.16004991493924,1325
-505.5487387426199,1516
-502.9381484006032,1676
-500.3282787082628,1726
-497.71912948489364,1814
-495.1107005497117,1713
-492.5029917218539,1691
-489.8960028203786,1420
-487.28973366426493,1270
-484.68418407241325,1212
-482.07935386364494,1176
-479.47524285670266,1141
-476.87185087025,1119
-474.2691777228715,1111
-471.66722323307334,1039
-469.0659872192821,1090
-466.4654694998459,1102
-463.86566989303384,1127
-461.26658821703614,1088
-458.66822428996414,1066
-456.07057792985,1044
-453.4736489546475,1099
-450.877437182231,1071
-448.28194243039627,1028
-445.68716451686,999
-443.09310325926003,1060
-440.49975847515555,1065
-437.9071299820263,1016
-435.31521759727354,1011
-432.72402113821954,1070
-430.13354042210767,1121
-427.5437752661022,1098
-424.95472548728867,1103
-422.36639090267386,1068
-419.7787713291855,1133
-417.1918665836721,1154
-414.60567648290385,1158
-412.0202008435715,1143
-409.4354394822874,1164
-406.8513922155845,1242
-404.26805885991723,1221
-401.685439231661,1190
-399.103533147112,1143
-396.522340422488,1136
-393.9418608739278,1081
-391.3620943174908,1117
-388.7830405691583,1109
-386.2046994448317,1013
-383.6270707603344,1041
-381.05015433141045,985
-378.473949973725,852
-375.8984575028645,857
-373.32367673433623,793
-370.74960748356875,739
-368.1762495659117,664
-365.60360279663576,632
-363.03166699093265,615
-360.4604419639154,579
-357.8899275306178,522
-355.32012350599507,542
-352.7510297049233,506
-350.1826459421999,493
-347.61497203254316,491
-345.04800779059235,517
-342.4817530309082,542
-339.91620756797226,497
-337.35137121618743,499
-334.7872437898774,534
-332.22382510328725,531
-329.66111497058273,525
-327.09911320585127,517
-324.53781962310075,572
-321.9772340362607,577
-319.4173562591816,584
-316.8581861056348,533
-314.2997233893127,514
-311.7419679238294,520
-309.1849195227194,516
-306.62857799943856,525
-304.0729431673641,542
-301.51801483979375,525
-298.963792829947,528
-296.41027695096386,557
-293.85746701590574,580
-291.3053628377552,568
-288.7539642294155,576
-286.2032710037115,583
-283.65328297338897,566
-281.1039999511146,665
-278.5554217494762,685
-276.007548180983,612
-273.4603790580651,604
-270.9139141930734,567
-268.3681533982807,597
-265.8230964858798,619
-263.27874326798565,623
-260.7350935566336,644
-258.1921471637804,594
-255.6499039013039,636
-253.10836358100266,612
-250.56752601459698,573
-248.02739101372765,655
-245.48795838995704,625
-242.94922795476816,633
-240.41119951956557,610
-237.8738728956746,681
-235.33724789434166,744
-232.80132432673452,682
-230.2661020039418,645
-227.73158073697357,656
-225.19776033676033,790
-222.66464061415422,821
-220.1322213799284,785
-217.60050244477725,753
-215.06948361931552,681
-212.53916471408013,743
-210.00954553952818,820
-207.48062590603843,723
-204.9524056239104,743
-202.4248845033651,820
-199.8980623545441,896
-197.37193898751036,832
-194.84651421224817,821
-192.32178783866232,830
-189.79775967657952,872
-187.27442953574644,879
-184.7517972258321,892
-182.2298625564256,904
-179.7086253370378,945
-177.18808537710026,809
-174.66824248596583,826
-172.14909647290835,993
-169.6306471471229,1008
-167.11289431772548,1023
-164.59583779375328,919
-162.07947738416453,880
-159.5638128978386,1037
-157.04884414357605,1188
-154.53457093009854,1308
-152.02099306604828,1128
-149.50811035998936,923
-146.99592262040665,922
-144.48442965570587,1108
-141.97363127421409,1294
-139.46352728417958,1394
-136.95411749377126,1489
-134.44540171107985,1345
-131.93737974411636,1091
-129.43005140081357,1206
-126.92341648902493,1590
-124.41747481652521,1993
-121.91222619101006,2310
-119.40767042009657,2911
-116.90380731132257,3470
-114.40063667214702,3311
-111.8981583099503,2373
-109.3963720320337,1835
-106.89527764561933,1996
-104.39487495785067,2597
-101.89516377579241,3470
-99.39614390642998,4246
-96.89781515667039,4516
-94.40017733334128,4407
-91.90323024319173,4913
-89.40697369289148,6198
-86.91140748903172,7960
-84.41653143812482,6778
-81.92234534660395,4244
-79.42884902082358,2972
-76.93604226705907,4995
-74.4439248915071,9493
-71.95249670028534,13453
-69.46175749943245,15545
-66.97170709490854,14024
-64.48234529259423,12096
-61.99367189829195,11385
-59.50568671772464,10598
-57.01838955653636,9442
-54.53178022029283,9787
-52.045858514480074,11991
-49.560624244506016,14608
-47.07607721569923,15384
-44.59221723330904,14823
-42.10904410250669,13017
-39.62655762838392,11406
-37.14475761595372,10656
-34.66364387015028,10274
-32.18321619582866,10850
-29.70347439776515,10477
-27.224418280657005,11489
-24.74604764912317,13032
-22.26836230770266,18626
-19.7913620608565,35879
-17.315046712966478,65039
-14.83941606833514,65039
-12.36446993118659,65039
-9.89020810566592,65039
-7.416630395839093,65039
-4.94373660569363,65039
-2.471526539137585,65039
-6.821210263296962E-13,65039
2.47084320796705,65039
4.941003281093458,65039
7.410480415786196,65039
9.879274808531363,65039
12.347386655893956,65039
14.814816154518212,65039
17.28156350112681,65039
19.74762889252179,65039
22.21301252558385,65039
24.67771459727237,21069
27.141735304626195,4339
29.605074844762612,2753
32.06773341487792,2306
34.52971121224755,2246
36.99100843422559,2200
39.45162527824516,1989
41.91156194181792,1904
44.370818622535126,1616
46.82939551806646,1388
49.287292826160524,1602
51.74451074464503,1784
54.201049471426245,1801
56.65690920448981,1674
59.112090141899785,1507
61.56659248179983,1250
64.02041642241159,1159
66.4735621620365,1237
68.92602989905402,1128
71.37781983192338,1135
73.82893215918205,1176
76.27936707944684,1254
78.72912479141326,1236
81.17820549385567,1266
83.62660938562783,1392
86.07433666566146,1378
88.5213875329681,1053
90.96776218663751,1017
93.41346082583925,1191
95.85848364982041,1168
98.30283085790859,1061
100.7465026495089,1140
103.18949922410604,1205
105.63182078126385,1201
108.07346752062438,1268
110.51443964190923,1075
112.95473734491827,923
115.39436082953114,1041
117.83331029570547,1027
120.27158594347827,1078
122.7091879729652,995
125.1461165843615,1002
127.58237197794062,862
130.01795435405518,904
132.4528639131364,957
134.88710085569494,1019
137.32066538231982,1025
139.75355769367923,960
142.1857779905207,932
144.61732647366978,951
147.04820334403132,919
149.47840880258934,977
151.90794305040674,1009
154.33680628862487,1131
156.76499871846443,1305
159.19252054122433,1471
161.61937195828352,1679
164.04555317109896,1789
166.47106438120693,2015
168.89590579022217,2222
171.320077599839,2388
173.7435800118302,2520
176.16641322804742,2710
178.58857745042144,2921
181.01007288096173,3036
183.43089972175687,3035
185.85105817497413,2938
188.27054844285988,2903
190.6893707277394,2954
193.10752523201643,2947
195.5250121581745,3043
197.9418317087751,3063
200.3579840864594,3120
202.7734694939469,3146
205.18828813403627,3302
207.6024402096051,3296
210.01592592360964,3309
212.42874547908548,3193
214.84089907914665,3254
217.2523869269868,3160
219.66320922587727,3188
222.0733661791695,3173
224.48285799029293,3177
226.8916848627572,3205
229.29984700014882,3151
231.7073446061355,3083
234.11417788446204,3134
236.520347038953,3177
238.92585227351185,3200
241.33069379212054,3255
243.73487179884035,3293
246.1383864978112,3425
248.541238093252,3373
250.9434267894609,3343
253.34495279081432,3212
255.74581630176783,3181
258.1460175268563,3212
260.54555667069314,3317
262.9444339379703,3207
265.3426495334594,3207
267.7402036620107,3265
270.1370965285529,3192
272.53332833809407,3077
274.9288992957214,2995
277.32380960660055,2966
279.718059475976,3101
282.1116491091717,2986
284.5045787115897,3075
286.89684848871195,2988
289.2884586460981,2988
291.67940938938807,3074
294.0697009242996,3088
296.4593334566299,2971
298.84830719225477,3024
301.23662233712923,2925
303.6242790972866,2974
306.01127767884,2918
308.39761828798066,2830
310.78330113097934,2749
313.16832641418534,2831
315.5526943440269,2769
317.9364051270112,2757
320.3194589697242,2732
322.70185607883093,2788
325.0835966610754,2727
327.4646809232805,2682
329.8451090723478,2656
332.2248813152577,2627
334.6039978590701,2666
336.9824589109231,2587
339.36026467803447,2642
341.7374153677,2624
344.113911187295,2616
346.48975234427337,2596
348.8649390461686,2615
351.2394715005918,2549
353.61334991523415,2598
355.9865744978655,2551
358.35914545633375,2487
360.73106299856715,2535
363.10232733257146,2608
365.47293866643247,2499
367.84289720831396,2542
370.2122031664593,2466
372.5808567491905,2545
374.9488581649083,2471
377.31620762209275,2484
379.6829053293021,2415
382.0489514951745,2395
384.4143463284262,2403
386.7790900378528,2416
389.14318283232853,2384
391.50662492080653,2366
393.86941651231916,2509
396.23155781597745,2457
398.5930490409713,2340
400.9538903965696,2447
403.3140820921202,2449
405.6736243370498,2376
408.03251734086336,2366
410.3907613131465,2453
412.74835646356166,2364
415.10530300185144,2420
417.4616011378372,2337
419.81725108141893,2309
422.1722530425758,2416
424.5266072313656,2334
426.880313857925,2411
429.2333731324701,2405
431.58578526529516,2359
433.9375504667738,2342
436.2886689473588,2373
438.63914091758113,2262
440.9889665880513,2243
443.33814616945835,2273
445.68667987257015,2282
448.03456790823395,2301
450.3818104873759,2203
452.72840782100013,2249
455.07436012019105,2277
457.41966759611057,2284
459.7643304600007,2287
462.10834892318155,2329
464.4517231970525,2301
466.79445349309174,2300
469.1365400228566,2331
471.4779829979826,2336
473.81878263018564,2399
476.15893913125876,2395
478.4984527130747,2354
480.8373235875855,2397
483.17555196682144,2532
485.5131380628919,2522
487.8500820879857,2740
490.1863842543697,2838
492.52204477439034,3070
494.8570638604725,3411
497.1914417251204,3644
499.52517858091653,3950
501.85827464052306,3975
504.19073011668036,3864
506.5225452222086,3829
508.85372017000566,3650
511.18425517304956,3584
513.514150444396,3816
515.8434061971808,4840
518.1720226446176,6034
520.4999999999999,6201
522.8273384766991,5872
525.1540382881666,5336
527.480099647932,4686
529.8055227696037,3812
532.1303078668694,3163
534.454455153496,2802
536.777964843328,2638
539.1008371502907,2543
541.4230722883866,2534
543.744670471698,2437
546.0656319143858,2474
548.3859568306899,2430
550.7056454349294,2404
553.0246979415016,2425
555.3431145648834,2394
557.6608955196306,2377
559.978041020377,2362
562.2945512818363,2369
564.6104265188006,2455
566.9256669461412,2423
569.2402727788082,2373
571.5542442318302,2422
573.8675815203156,2455
576.1802848594508,2503
578.4923544645015,2536
580.8037905508126,2397
583.114593333807,2495
585.4247630289875,2506
587.7342998519354,2438
590.0432040183106,2471
592.3514757438526,2475
594.6591152443794,2567
596.9661227357875,2472
599.2724984340531,2563
601.578242555231,2563
603.8833553154542,2475
606.1878369309362,2450
608.4916876179676,2451
610.7949075929192,2463
613.0974970722403,2443
615.3994562724587,2395
617.7007854101818,2452
620.0014847020951,2413
622.3015543649641,2351
624.6009946156324,2359
626.8998056710224,2403
629.1979877481361,2372
631.4955410640538,2342
633.7924658359349,2397
636.0887622810175,2462
638.3844306166192,2400
640.6794710601358,2497
642.9738838290426,2445
645.2676691408932,2392
647.5608272133207,2498
649.853358264037,2423
652.1452625108324,2451
654.4365401715764,2389
656.7271914642178,2460
659.0172166067838,2516
661.3066158173809,2403
663.5953893141935,2469
665.8835373154867,2418
668.1710600396028,2403
670.4579577049639,2454
672.7442305300709,2437
675.0298787335033,2446
677.3149025339197,2389
679.599302150058,2384
681.8830778007342,2337
684.1662297048437,2437
686.4487580813608,2453
688.7306631493387,2412
691.0119451279091,2437
693.2926042362834,2412
695.5726406937516,2407
697.8520547196814,2466
700.1308465335215,2391
702.4090163547982,2439
704.6865644031171,2450
706.9634908981619,2381
709.2397960596965,2349
711.5154801075631,2403
713.7905432616823,2431
716.0649857420548,2481
718.3388077687592,2436
720.612009561953,2407
722.8845913418733,2435
725.1565533288352,2452
727.427895743234,2421
729.6986188055427,2448
731.9687227363137,2414
734.238207756178,2374
736.5070740858458,2421
738.7753219461066,2430
741.0429515578281,2345
743.3099631419569,2292
745.5763569195191,2391
747.8421331116193,2389
750.1072919394409,2387
752.3718336242467,2403
754.6357583873777,2403
756.8990664502545,2375
759.1617580343765,2401
761.423833361321,2400
763.6852926527457,2420
765.9461361303862,2364
768.206364016058,2515
770.4659765316536,2405
772.7249738991469,2470
774.9833563405886,2477
777.2411240781092,2569
779.4982773339183,2392
781.7548163303044,2419
784.010741289634,2447
786.2660524343538,2518
788.5207499869881,2453
790.7748341701416,2392
793.0283052064964,2514
795.2811633188143,2423
797.5334087299362,2429
799.7850416627813,2471
802.0360623403484,2525
804.2864709857143,2491
806.5362678220353,2445
808.7854530725468,2413
811.0340269605625,2505
813.2819897094754,2381
815.5293415427581,2468
817.77608268396,2432
820.0222133567116,2488
822.2677337847211,2474
824.5126441917765,2470
826.7569448017433,2428
829.0006358385675,2444
831.2437175262731,2423
833.4861900889629,2476
835.7280537508192,2498
837.9693087361026,2462
840.2099552691533,2474
842.4499935743896,2468
844.689423876309,2517
846.9282463994886,2470
849.1664613685833,2442
851.4040690083276,2458
853.6410695435349,2501
855.877463199097,2523
858.1132501999847,2484
860.3484307712487,2522
862.5830051380175,2450
864.8169735254988,2478
867.0503361589791,2460
869.2830932638243,2521
871.5152450654786,2514
873.7467917894654,2537
875.9777336613873,2531
878.2080709069252,2502
880.4378037518389,2560
882.666932421968,2513
884.8954571432301,2523
887.1233781416219,2580
889.3506956432192,2579
891.5774098741766,2554
893.803521060728,2555
896.0290294291852,2606
898.2539352059397,2571
900.4782386174619,2609
902.7019398903011,2588
904.925039251085,2562
907.147536926521,2590
909.3694331433943,2465
911.59072812857,2510
913.8114221089921,2573
916.0315153116827,2490
918.2510079637437,2424
920.4699002923547,2416
922.6881925247761,2437
924.905884888345,2420
927.1229776104793,2428
929.3394709186747,2541
931.555365040506,2520
933.7706602036275,2441
935.9853566357709,2435
938.1994545647489,2457
940.4129542184515,2542
942.6258558248488,2502
944.8381596119883,2476
947.0498658079974,2414
949.2609746410825,2458
951.4714863395287,2407
953.6814011316998,2389
955.8907192460387,2406
958.0994409110671,2415
960.3075663553858,2335
962.5150958076741,2387
964.7220294966913,2399
966.928367651274,2437
969.1341105003388,2327
971.3392582728806,2309
973.5438111979742,2353
975.747769504772,2398
977.9511334225061,2261
980.153903180487,2275
982.3560790081052,2305
984.5576611348289,2276
986.7586497902058,2336
988.9590452038618,2326
991.158847605503,2279
993.3580572249133,2331
995.5566742919558,2260
997.7546990365728,2231
999.952131688785,2182
1002.1489724786926,2260
1004.3452216364743,2143
1006.5408793923874,2040
1008.7359459767691,2091
1010.9304216200343,2064
1013.1243065526781,2050
1015.3176010052733,2077
1017.510305208472,2035
1019.7024193930064,1993
1021.8939437896848,2010
1024.0848786293977,2050
1026.2752241431122,2010
1028.4649805618747,2114
1030.6541481168115,2058
1032.842727039127,2034
1035.0307175601051,2032
1037.2181199111074,1983
1039.4049343235752,2039
1041.591161029029,2040
1043.7768002590683,2015
1045.9618522453698,1984
1048.1463172196918,2036
1050.3301954138697,1979
1052.513487059818,1999
1054.69619238953,2054
1056.8783116350783,2052
1059.0598450286152,1992
1061.2407928023704,1987
1063.4211551886528,1959
1065.6009324198508,2014
1067.780124728432,1973
1069.9587323469414,2060
1072.1367555080046,2034
1074.314194444325,2011
1076.4910493886855,2084
1078.667320573947,1996
1080.843008233051,1951
1083.0181125990161,1910
1085.1926339049414,1925
1087.3665723840027,1931
1089.5399282694575,1931
1091.7127017946405,1903
1093.8848931929647,1962
1096.0565026979243,1859
1098.2275305430899,1905
1100.3979769621128,1852
1102.567842188722,1950
1104.737126456726,1902
1106.9058300000124,1865
1109.0739530525475,1883
1111.2414958483764,1816
1113.4084586216231,1876
1115.5748416064907,1896
1117.7406450372605,1973
1119.9058691482942,1812
1122.0705141740304,1810
1124.2345803489884,1854
1126.3980679077658,1894
1128.5609770850388,1945
1130.7233081155623,1834
1132.8850612341707,1873
1135.0462366757774,1884
1137.2068346753745,1801
1139.3668554680326,1874
1141.526299288901,1829
1143.68516637321,1860
1145.8434569562655,1868
1148.001171273455,1884
1150.158309560244,1886
1152.3148720521767,1870
1154.470858984876,1802
1156.626270594044,1838
1158.7811071154629,1846
1160.9353687849912,1843
1163.089055838569,1833
1165.242168512213,1803
1167.3947070420209,1807
1169.5466716641677,1801
1171.6980626149075,1838
1173.8488801305748,1796
1175.9991244475814,1791
1178.1487958024186,1863
1180.2978944316555,1782
1182.4464205719428,1876
1184.5943744600072,1788
1186.7417563326567,1847
1188.8885664267755,1756
1191.0348049793297,1807
1193.1804722273619,1883
1195.325568407995,1798
1197.4700937584303,1872
1199.614048515948,1785
1201.7574329179074,1867
1203.900247201746,1866
1206.042491604982,1926
1208.1841663652099,1712
1210.3252717201053,1827
1212.465807907422,1879
1214.6057751649923,1847
1216.7451737307279,1871
1218.8840038426192,1837
1221.0222657387353,1840
1223.1599596572241,1802
1225.2970858363137,1847
1227.4336445143094,1896
1229.5696359295966,1887
1231.705060320639,1837
1233.8399179259786,1974
1235.9742089842384,1914
1238.107933734118,1917
1240.2410924143974,1844
1242.373685263935,1914
1244.5057125216676,1898
1246.6371744266116,1864
1248.7680712178621,1880
1250.898403134593,1858
1253.028170416058,1845
1255.1573733015875,1882
1257.2860120305932,1844
1259.4140868425648,1925
1261.54159797707,1924
1263.6685456737569,1912
1265.7949301723515,1884
1267.9207517126597,1964
1270.046010534565,1900
1272.1707068780306,1931
1274.2948409830983,1889
1276.4184130898889,1944
1278.541423438603,1963
1280.6638722695184,1892
1282.785759822993,1930
1284.9070863394636,1995
1287.0278520594447,1981
1289.1480572235314,1920
1291.2677020723963,2016
1293.3867868467923,2028
1295.5053117875495,1943
1297.623277135579,2025
1299.740683131868,2039
1301.8575300174857,2031
1303.973818033578,2043
1306.0895474213703,1991
1308.2047184221678,2048
1310.3193312773528,2067
1312.4333862283888,2066
1314.5468835168163,2073
1316.659823384255,1983
1318.7722060724045,2021
1320.8840318230418,1957
1322.9953008780249,2052
1325.1060134792888,1980
1327.2161698688478,2019
1329.3257702887959,2069
1331.4348149813054,2034
1333.5433041886276,2050
1335.6512381530933,2068
1337.7586171171101,2102
1339.8654413231675,2007
1341.9717110138317,2004
1344.0774264317488,2044
1346.1825878196432,1942
1348.2871954203192,1997
1350.3912494766587,2043
1352.4947502316231,1998
1354.5976979282532,2011
1356.7000928096686,1988
1358.8019351190665,2024
1360.9032250997243,1976
1363.0039629949988,1991
1365.1041490483235,2030
1367.2037835032133,1996
1369.3028666032606,2051
1371.401398592137,2000
1373.4993797135926,2006
1375.5968102114575,2060
1377.6936903296396,2003
1379.7900203121262,2056
1381.8858004029835,1994
1383.9810308463561,2013
1386.075711886469,2031
1388.1698437676241,2022
1390.2634267342032,2077
1392.356461030667,2103
1394.4489469015557,2102
1396.5408845914872,2101
1398.6322743451592,2133
1400.7231164073469,2059
1402.813411022907,2114
1404.903158436773,2094
1406.9923588939578,2081
1409.0810126395531,2027
1411.1691199187303,2107
1413.2566809767386,2160
1415.343696058907,2092
1417.4301654106425,2278
1419.5160892774315,2223
1421.6014679048399,2276
1423.6863015385125,2171
1425.7705904241707,2161
1427.8543348076178,2226
1429.9375349347342,2254
1432.0201910514802,2225
1434.102303403894,2274
1436.1838722380944,2256
1438.2648978002767,2211
1440.3453803367174,2288
1442.4253200937692,2295
1444.5047173178677,2286
1446.5835722555234,2297
1448.6618851533285,2355
1450.739656257952,2375
1452.8168858161434,2374
1454.8935740747306,2492
1456.96972128062,2527
1459.045327680797,2563
1461.120393522327,2458
1463.1949190523528,2540
1465.2689045180973,2596
1467.3423501668608,2726
1469.415256246024,2705
1471.4876230030463,2733
1473.559450685465,2649
1475.6307395408976,2763
1477.7014898170391,2809
1479.771701761665,2837
1481.8413756226287,2939
1483.9105116478618,2970
1485.9791100853772,2927
1488.0471711832643,2934
1490.1146951896926,3055
1492.1816823529098,3068
1494.2481329212433,3074
1496.3140471430984,3173
1498.3794252669609,3160
1500.4442675413939,3127
1502.5085742150404,3135
1504.572345536622,3275
1506.6355817549388,3282
1508.6982831188702,3302
1510.7604498773744,3365
1512.8220822794883,3422
1514.8831805743293,3428
1516.9437450110909,3586
1519.003775839048,3575
1521.0632733075522,3579
1523.1222376660367,3580
1525.1806691640113,3653
1527.2385680510652,3672
1529.2959345768668,3752
1531.3527689911643,3895
1533.4090715437833,3875
1535.4648424846291,3979
1537.5200820636855,4093
1539.5747905310159,4160
1541.6289681367616,4080
1543.6826151311434,4183
1545.7357317644614,4320
1547.7883182870937,4279
1549.8403749494987,4390
1551.8919020022113,4392
1553.9428996958477,4535
1555.9933682811015,4779
1558.0433080087469,4669
1560.0927191296346,4669
1562.1416018946961,4837
1564.1899565549415,4850
1566.2377833614592,4807
1568.2850825654164,4705
1570.3318544180606,4566
1572.3780991707158,4424
1574.423817074788,4166
1576.4690083817595,4020
1578.5136733431923,3836
1580.5578122107272,3700
1582.601425236085,3570
1584.6445126710646,3477
1586.6870747675434,3203
1588.7291117774776,3138
1590.7706239529034,3041
1592.8116115459347,2963
1594.8520748087658,2778
1596.8920139936686,2653
1598.9314293529933,2657
1600.9703211391711,2574
1603.008689604711,2568
1605.0465350022005,2494
1607.0838575843068,2375
1609.1206576037753,2381
1611.1569353134305,2390
1613.1926909661765,2349
1615.2279248149953,2262
1617.2626371129481,2236
1619.2968281131757,2182
1621.3304980688963,2199
1623.3636472334088,2144
1625.39627586009,2198
1627.428384202396,2277
1629.459972513861,2183
1631.4910410480993,2131
1633.5215900588028,2055
1635.551619799744,2055
1637.5811305247717,2115
1639.6101224878166,2130
1641.6385959428862,2052
1643.6665511440683,1962
1645.693988345528,1999
1647.7209078015112,1993
1649.7473097663405,2049
1651.7731944944203,1984
1653.7985622402307,2027
1655.823413258333,2043
1657.847747803366,2001
1659.8715661300494,1954
1661.8948684931793,2022
1663.9176551476316,1978
1665.9399263483624,2046
1667.9616823504057,1986
1669.982923408873,1960
1672.0036497789574,1920
1674.0238617159293,1958
1676.043559475138,1888
1678.0627433120121,2009
1680.081413482059,2029
1682.0995702408654,2008
1684.117213844096,1988
1686.134344547495,2028
1688.1509626068864,1974
1690.1670682781705,1973
1692.182661817329,2016
1694.1977434804217,1990
1696.2123135235875,2055
1698.226372203043,2032
1700.2399197750851,1933
1702.2529564960905,1980
1704.2654826225112,1962
1706.277498410882,1990
1708.2890041178139,1956
1710.2999999999988,2009
1712.3104863142066,1988
1714.3204633172854,2009
1716.329931266163,1959
1718.3388904178469,1874
1720.3473410294214,1964
1722.3552833580516,1955
1724.3627176609807,2002
1726.3696441955308,1942
1728.3760632191033,1862
1730.3819749891782,1952
1732.3873797633146,1917
1734.3922777991502,1953
1736.3966693544012,1971
1738.4005546868639,1958
1740.4039340544127,1906
1742.406807715001,1925
1744.4091759266616,1926
1746.4110389475054,1900
1748.4123970357223,1894
1750.413250449582,1907
1752.4135994474318,1927
1754.4134442876993,1873
1756.4127852288902,1844
1758.4116225295893,1862
1760.4099564484595,1893
1762.407787244244,1886
1764.405115175764,1888
1766.4019405019203,1896
1768.3982634816916,1875
1770.3940843741357,1889
1772.3894034383907,1793
1774.3842209336717,1810
1776.378537119274,1811
1778.372352254571,1798
1780.3656665990156,1834
1782.3584804121397,1866
1784.3507939535534,1879
1786.3426074829463,1795
1788.3339212600863,1867
1790.3247355448211,1773
1792.3150505970766,1801
1794.3048666768573,1858
1796.2941840442477,1813
1798.2830029594106,1858
1800.2713236825884,1887
1802.2591464741004,1867
1804.2464715943465,1863
1806.2332993038058,1827
1808.2196298630352,1851
1810.2054635326708,1849
1812.190800573428,1893
1814.175641246101,1884
1816.1599858115628,1868
1818.1438345307652,1902
1820.127187664738,1818
1822.1100454745924,1802
1824.092408221516,1880
1826.0742761667766,1867
1828.055649571721,1813
1830.0365286977735,1764
1832.0169138064398,1784
1833.9968051593014,1819
1835.9762030180214,1841
1837.9551076443408,1841
1839.9335193000788,1804
1841.9114382471344,1853
1843.888864747485,1775
1845.8657990631878,1833
1847.842241456378,1839
1849.8181921892697,1829
1851.7936515241558,1799
1853.7686197234098,1772
1855.7430970494815,1804
1857.7170837649014,1785
1859.6905801322787,1817
1861.6635864143004,1840
1863.6361028737338,1840
1865.608129773424,1815
1867.5796673762961,1800
1869.5507159453537,1803
1871.521275743678,1793
1873.4913470344313,1766
1875.4609300808534,1798
1877.4300251462632,1817
1879.3986324940588,1806
1881.366752387717,1796
1883.3343850907936,1822
1885.3015308669228,1842
1887.268189979819,1822
1889.2343626932739,1791
1891.2000492711595,1825
1893.1652499774254,1873
1895.1299650761011,1768
1897.0941948312952,1845
1899.0579395071945,1799
1901.0211993680641,1823
1902.98397467825,1851
1904.9462657021745,1831
1906.9080727043415,1837
1908.869395949332,1811
1910.8302357018065,1810
1912.790592226504,1886
1914.7504657882428,1810
1916.7098566519212,1781
1918.6687650825133,1873
1920.6271913450764,1911
1922.5851357047422,1738
1924.5425984267245,1767
1926.499579776314,1850
1928.4560800188833,1854
1930.4120994198802,1808
1932.367638244833,1796
1934.32269675935,1840
1936.2772752291175,1790
1938.231373919899,1799
1940.1849930975404,1766
1942.1381330279637,1811
1944.0907939771696,1863
1946.0429762112412,1832
1947.9946799963363,1777
1949.9459055986945,1833
1951.896653284633,1746
1953.8469233205478,1853
1955.7967159729142,1872
1957.7460315082863,1781
1959.6948701932974,1782
1961.6432322946594,1793
1963.5911180791632,1810
1965.5385278136787,1786
1967.4854617651545,1803
1969.4319202006182,1816
1971.377903387176,1842
1973.3234115920136,1740
1975.268445082395,1722
1977.2130041256642,1806
1979.1570889892423,1777
1981.1006999406304,1793
1983.04383724741,1794
1984.986501177238,1826
1986.928691997853,1829
1988.8704099770712,1698
1990.811655382789,1811
1992.7524284829801,1788
1994.692729545698,1713
1996.6325588390755,1760
1998.5719166313224,1707
2000.5108031907307,1765
2002.4492187856677,1796
2004.387163684583,1774
2006.3246381560011,1820
2008.2616424685298,1762
2010.1981768908527,1727
2012.1342416917332,1788
2014.069837140014,1743
2016.0049635046162,1796
2017.9396210545406,1766
2019.8738100588666,1719
2021.8075307867502,1747
2023.740783507431,1745
2025.6735684902228,1786
2027.6058860045214,1768
2029.5377363198004,1779
2031.4691197056118,1700
2033.4000364315875,1742
2035.3304867674374,1825
2037.260470982952,1754
2039.189989347998,1780
2041.1190421325232,1764
2043.047629606554,1703
2044.9757520401945,1729
2046.9034097036288,1736
2048.8306028671195,1774
2050.7573318010086,1750
2052.683596775716,1644
2054.609398061742,1701
2056.5347359296647,1713
2058.4596106501403,1668
2060.384022493906,1735
2062.3079717317764,1770
2064.231458634646,1693
2066.1544834734873,1673
2068.077046519352,1763
2069.99914804337,1661
2071.9207883167524,1732
2073.8419676107865,1754
2075.7626861968406,1775
2077.6829443463607,1775
2079.6027423308715,1787
2081.522080421977,1695
2083.440958891362,1770
2085.359378010786,1752
2087.2773380520907,1792
2089.194839287196,1717
2091.111881988101,1744
2093.0284664268825,1779
2094.9445928756973,1740
2096.86026160678,1780
2098.775472892446,1732
2100.690227005088,1712
2102.604524217178,1784
2104.5183648012676,1753
2106.431749029985,1811
2108.34467717604,1795
2110.2571495122206,1737
2112.169166311393,1799
2114.080727846503,1727
2115.9918343905747,1795
2117.902486216711,1787
2119.8126835980956,1811
2121.722426807987,1706
2123.6317161197285,1731
2125.5405518067364,1792
2127.448934142509,1846
2129.356863400624,1749
2131.264339854737,1853
2133.1713637785815,1783
2135.077935445972,1800
2136.9840551308002,1733
2138.889723107037,1869
2140.7949396487334,1823
2142.699705030018,1805
2144.6040195250994,1808
2146.507883408264,1775
2148.4112969538774,1770
2150.3142604363848,1846
2152.2167741303097,1852
2154.1188383102535,1883
2156.0204532508997,1827
2157.9216192270064,1841
2159.822336513414,1824
2161.7226053850413,1829
2163.622426116884,1829
2165.5217989840185,1880
2167.4207242616,1835
2169.319202224862,1810
2171.2172331491165,1814
2173.1148173097563,1858
2175.0119549822507,1936
2176.90864644215,1889
2178.8048919650823,1907
2180.7006918267534,1864
2182.596046302952,1927
2184.4909556695407,1890
2186.3854202024645,1874
2188.279440177746,1914
2190.173015871487,1899
2192.066147559868,1857
2193.958835519149,1893
2195.851080025667,1874
2197.7428813558417,1943
2199.6342397861667,1897
2201.5251555932186,1911
2203.415629053651,1851
2205.3056604441986,1940
2207.19525004167,1920
2209.084398122958,1981
2210.9731049650327,1889
2212.861370844941,1933
2214.749196039812,1972
2216.636580826851,1995
2218.523525483344,2002
2220.410030286655,1992
2222.296095514226,1931
2224.1817214435805,1958
2226.066908352319,1940
2227.951656518121,1966
2229.835966218746,1914
2231.71983773203,1959
2233.6032713358913,2022
2235.486267308324,1936
2237.3688259274036,1960
2239.2509474712824,1960
2241.132632218193,1999
2243.013880446447,1997
2244.8946924344323,2028
2246.7750684606203,1958
2248.6550088035574,1970
2250.534513741871,2015
2252.413583554265,1956
2254.292218519526,1927
2256.170418916517,1874
2258.0481850241786,1959
2259.925517121534,1908
2261.8024154876825,1954
2263.678880401803,1958
2265.5549121431536,1937
2267.430510991071,1932
2269.305677224971,2016
2271.180411124348,1931
2273.0547129687766,1969
2274.9285830379076,1927
2276.8020216114737,1912
2278.6750289692845,1920
2280.5476053912294,1984
2282.4197511572766,1983
2284.2914665474727,2032
2286.162751841943,2009
2288.0336073208937,2011
2289.904033264608,2011
2291.774029953448,1988
2293.6435976678554,2005
2295.5127366883517,1901
2297.381447295534,1896
2299.2497297700825,1926
2301.1175843927526,1791
2302.9850114443825,1734
2304.852011205885,1747
2306.7185839582553,1669
2308.5847299825664,1729
2310.4504495599676,1683
2312.3157429716925,1649
2314.1806104990483,1699
2316.0450524234247,1623
2317.9090690262888,1638
2319.772660589186,1578
2321.635827393742,1624
2323.498569721661,1628
2325.3608878547248,1642
2327.2227820747967,1562
2329.0842526638157,1621
2330.945299903803,1655
2332.805924076857,1611
2334.6661254651535,1627
2336.525904350951,1623
2338.3852610165827,1569
2340.244195744464,1649
2342.102708817088,1641
2343.9608005170253,1579
2345.8184711269287,1565
2347.675720929526,1660
2349.532550207628,1612
2351.38895924412,1662
2353.24494832197,1639
2355.100517724223,1681
2356.955667734004,1656
2358.810398634514,1672
2360.664710709037,1662
2362.5186042409337,1623
2364.3720795136437,1626
2366.225136810686,1611
2368.0777764156583,1636
2369.929998612237,1595
2371.7818036841777,1674
2373.633191915315,1620
2375.484163589562,1666
2377.3347189909114,1667
2379.184858403434,1619
2381.03458211128,1578
2382.8838903986775,1591
2384.732783549936,1651
2386.5812618494406,1613
2388.4293255816588,1715
2390.2769750311327,1739
2392.1242104824883,1666
2393.971032220427,1641
2395.8174405297295,1687
2397.6634356952563,1640
2399.509018001947,1654
2401.3541877348193,1696
2403.1989451789705,1661
2405.043290619576,1663
2406.8872243418905,1680
2408.730746631247,1655
2410.5738577730594,1705
2412.4165580528183,1664
2414.258847756095,1649
2416.100727168537,1737
2417.9421965758734,1717
2419.783256263912,1734
2421.623906518538,1668
2423.4641476257157,1651
2425.303979871491,1649
2427.143403541984,1659
2428.9824189233977,1717
2430.821026302012,1685
2432.6592259641866,1689
2434.497018196361,1752
2436.33440328505,1706
2438.171381516851,1688
2440.00795317844,1688
2441.844118556569,1662
2443.6798779380724,1664
2445.5152316098606,1739
2447.3501798589255,1690
2449.1847229723357,1741
2451.0188612372403,1724
2452.8525949408663,1704
2454.6859243705203,1679
2456.518849813587,1631
2458.3513715575314,1689
2460.183489889895,1750
2462.015205098301,1676
2463.8465174704493,1629
2465.67742729412,1666
2467.5079348571717,1735
2469.338040447542,1699
2471.1677443532476,1723
2472.9970468623833,1769
2474.825948263123,1673
2476.6544488437207,1750
2478.482548892508,1700
2480.310248697896,1713
2482.137548548374,1657
2483.9644487325118,1672
2485.790949538956,1619
2487.617051256433,1699
2489.44275417375,1651
2491.26805857979,1751
2493.0929647635157,1689
2494.917473013971,1697
2496.741583620276,1782
2498.5652968716304,1736
2500.3886130573137,1713
2502.2115324666834,1669
2504.0340553891765,1708
2505.856182114308,1700
2507.6779129316733,1764
2509.499248130945,1727
2511.3201880018764,1730
2513.140732834298,1736
2514.9608829181198,1710
2516.780638543331,1737
2518.6,1746
2520.418967578273,1782
2522.237541568376,1785
2524.0557222606144,1727
2525.8735099453706,1712
2527.6909049131086,1715
2529.507907454368,1757
2531.32451785977,1777
2533.140736420014,1744
2534.9565634258774,1769
2536.771999168218,1763
2538.5870439379714,1820
2540.4016980261526,1883
2542.2159617238544,1835
2544.02983532225,1848
2545.8433191125914,1882
2547.656413386209,1859
2549.4691184345115,1894
2551.2814345489874,1911
2553.093362021204,1980
2554.904901142808,1901
2556.716052205523,1890
2558.526815501153,1939
2560.3371913215824,1829
2562.147179958771,1917
2563.956781704761,1891
2565.7659968516705,1909
2567.5748256916986,1918
2569.3832685171224,1965
2571.1913256202984,1967
2572.9989972936614,2013
2574.806283829725,1970
2576.613185521084,1987
2578.4197026604074,2001
2580.2258355404483,2016
2582.031584454035,1922
2583.836949694077,2014
2585.6419315535613,2070
2587.4465303255533,2052
2589.2507463032002,2027
2591.0545797797245,2103
2592.8580310484303,2038
2594.6611004026995,2061
2596.463788135992,2036
2598.266094541849,2111
2600.0680199138874,2063
2601.869564545807,2099
2603.670728731383,2140
2605.4715127644704,2047
2607.2719169390048,2065
2609.071941548998,2104
2610.8715868885433,2113
2612.670853251811,2111
2614.469740933052,2170
2616.268250226594,2069
2618.0663814268455,2145
2619.864134828292,2073
2621.6615107255006,2123
2623.458509413115,2106
2625.2551311858597,2099
2627.0513763385347,2062
2628.8472451660223,2033
2630.6427379632833,2070
2632.4378550253564,2085
2634.232596647359,2032
2636.026963124488,2057
2637.8209547520187,2064
2639.6145718253065,1973
2641.407814639785,1998
2643.200683490966,1978
2644.9931786744414,2009
2646.7853004858807,1959
2648.577049221034,1936
2650.3684251757277,1942
2652.1594286458712,2012
2653.9500599274484,1859
2655.740319316525,1844
2657.5302071092437,1950
2659.3197236018286,1897
2661.10886909058,1851
2662.8976438718782,1795
2664.686048242183,1897
2666.4740824980327,1885
2668.2617469360443,1930
2670.0490418529134,1851
2671.8359675454153,1789
2673.622524310403,1854
2675.408712444811,1844
2677.1945322456495,1830
2678.979984010009,1740
2680.76506803506,1752
2682.5497846180497,1801
2684.334134056306,1731
2686.1181166472343,1762
2687.9017326883213,1783
2689.6849824771293,1702
2691.4678663113013,1782
2693.2503844885596,1753
2695.032537306705,1729
2696.8143250636167,1750
2698.5957480572542,1750
2700.3768065856534,1726
2702.1575009469316,1681
2703.937831439283,1673
2705.717798360982,1611
2707.4974020103837,1715
2709.276642685917,1743
2711.055520686095,1686
2712.834036309506,1673
2714.612189854819,1675
2716.389981620782,1646
2718.1674119062204,1687
2719.944481010041,1664
2721.721189231226,1699
2723.4975368688415,1721
2725.273524222027,1675
2727.0491515900053,1644
2728.824419272075,1679
2730.5993275676146,1683
2732.3738767760838,1682
2734.148067197016,1630
2735.921899130031,1696
2737.6953728748194,1654
2739.468488731156,1646
2741.2412469988926,1627
2743.0136479779617,1663
2744.785691968372,1655
2746.5573792702116,1649
2748.3287101836504,1647
2750.099685008934,1573
2751.870304046388,1581
2753.640567596418,1670
2755.4104759595057,1665
2757.1800294362156,1611
2758.949228327187,1661
2760.7180729331412,1646
2762.486563554877,1614
2764.254700493272,1603
2766.022484049284,1653
2767.789914523947,1617
2769.5569922183786,1629
2771.3237174337705,1569
2773.090090471394,1593
2774.8561116326036,1627
2776.6217812188274,1636
2778.3870995315756,1637
2780.1520668724356,1650
2781.9166835430747,1630
2783.6809498452394,1684
2785.444866080754,1688
2787.2084325515225,1644
2788.971649559527,1579
2790.73451740683,1643
2792.4970363955713,1698
2794.2592068279705,1634
2796.0210290063264,1704
2797.7825032330147,1599
2799.543629810493,1593
2801.304409041296,1597
2803.0648412280366,1674
2804.8249266734088,1635
2806.5846656801846,1666
2808.344058551212,1648
2810.1031055894246,1721
2811.8618070978273,1614
2813.6201633795085,1613
2815.378174737636,1603
2817.1358414754536,1647
2818.893163896285,1660
2820.6501423035334,1633
2822.4067770006814,1659
2824.1630682912883,1653
2825.9190164789957,1629
2827.6746218675207,1623
2829.429884760661,1647
2831.184805462294,1701
2832.9393842763743,1613
2834.693621506936,1720
2836.4475174580916,1601
2838.201072434034,1668
2839.954286739034,1635
2841.707160677441,1602
2843.459694553685,1653
2845.2118886722724,1559
2846.96374333779,1610
2848.7152588549034,1671
2850.4664355283567,1591
2852.217273662973,1648
2853.9677735636546,1753
2855.7179355353833,1630
2857.4677598832186,1672
2859.217246912299,1637
2860.9663969278427,1683
2862.715210235146,1641
2864.4636871395846,1618
2866.211827946614,1593
2867.9596329617652,1642
2869.7071024906536,1601
2871.4542368389684,1619
2873.20103631248,1583
2874.947501217038,1612
2876.6936318585695,1549
2878.4394285430812,1611
2880.1848915766604,1673
2881.9300212654707,1604
2883.6748179157553,1689
2885.4192818338374,1644
2887.1634133261173,1706
2888.907212699077,1648
2890.6506802592744,1658
2892.393816313348,1621
2894.1366211680142,1637
2895.8790951300693,1638
2897.621238506388,1635
2899.363051603925,1650
2901.1045347297118,1587
2902.8456881908596,1603
2904.58651229456,1626
2906.327007348081,1592
2908.067173658772,1595
2909.8070115340597,1643
2911.5465212814497,1591
2913.285703208527,1638
2915.0245576229563,1579
2916.7630848324807,1634
2918.5012851449196,1624
2920.2391588681758,1638
2921.976706310227,1621
2923.7139277791334,1645
2925.4508235830313,1636
2927.187394030137,1640
2928.923639428745,1676
2930.6595600872306,1650
2932.395156314046,1618
2934.1304284177218,1656
2935.8653767068713,1681
2937.6000014901815,1645
2939.3343030764227,1669
2941.068281774442,1715
2942.8019378931644,1651
2944.5352717415976,1616
2946.2682836288236,1627
2948.0009738640065,1600
2949.7333427563885,1620
2951.465390615289,1593
2953.1971177501086,1645
2954.9285244703265,1634
2956.6596110855,1703
2958.3903779052657,1661
2960.1208252393385,1643
2961.8509533975125,1636
2963.5807626896617,1633
2965.3102534257378,1596
2967.0394259157715,1607
2968.768280469873,1638
2970.496817398232,1681
2972.2250370111146,1587
2973.952939618869,1650
2975.6805255319196,1574
2977.4077950607707,1649
2979.134748516006,1683
2980.861386208289,1695
2982.587708448359,1629
2984.313715547037,1622
2986.039407815222,1626
2987.764785563891,1608
2989.489849104102,1606
2991.2145987469908,1563
2992.9390348037705,1617
2994.6631575857346,1683
2996.3869674042576,1646
2998.1104645707887,1651
2999.83364939686,1575
3001.5565221940783,1702
3003.2790832741334,1607
3005.0013329487924,1604
3006.7232715298996,1607
3008.4448993293804,1539
3010.166216659239,1625
3011.887223831558,1696
3013.607921158498,1598
3015.3283089522993,1650
3017.0483875252826,1580
3018.7681571898443,1550
3020.4876182584626,1610
3022.2067710436927,1627
3023.9256158581707,1640
3025.644153014609,1639
3027.362382825801,1664
3029.0803056046193,1648
3030.797921664012,1621
3032.5152313170106,1618
3034.2322348767225,1641
3035.9489326563353,1643
3037.665324969115,1601
3039.3814121284063,1623
3041.097194447633,1646
3042.812672240299,1638
3044.5278458199855,1644
3046.2427155003525,1632
3047.9572815951406,1648
3049.671544418167,1651
3051.38550428333,1619
3053.0991615046073,1611
3054.812516396051,1685
3056.5255692717974,1638
3058.2383204460575,1629
3059.9507702331257,1635
3061.662918947372,1679
3063.3747669032446,1640
3065.0863144152736,1573
3066.7975617980674,1581
3068.508509366309,1616
3070.219157434767,1602
3071.9295063182844,1571
3073.639556331785,1617
3075.3493077902704,1611
3077.058761008821,1634
3078.7679163025964,1600
3080.476773986837,1619
3082.1853343768594,1598
3083.89359778806,1665
3085.6015645359153,1643
3087.3092349359786,1707
3089.016609303884,1676
3090.7236879553434,1671
3092.4304712061476,1629
3094.136959372166,1684
3095.843152769349,1616
3097.5490517137237,1647
3099.2546565213966,1636
3100.959967508554,1572
3102.66498499146,1640
3104.3697092864577,1645
3106.0741407099695,1668
3107.778279578498,1626
3109.482126208622,1667
3111.1856809170004,1658
3112.8889440203716,1595
3114.5919158355528,1677
3116.294596679439,1686
3117.996986869006,1657
3119.6990867213062,1612
3121.4008965534726,1650
3123.102416682717,1700
3124.803647426329,1683
3126.5045891016784,1614
3128.205242026213,1695
3129.90560651746,1711
3131.605682893025,1655
3133.3054714705922,1613
3135.0049725679282,1661
3136.7041865028714,1698
3138.4031135933465,1656
3140.101754157353,1656
3141.800108512971,1668
3143.498176978357,1686
3145.1959598717494,1707
3146.8934575114636,1620
3148.5906702158954,1711
3150.2875983035183,1631
3151.9842420928853,1641
3153.680601902627,1635
3155.376678051456,1633
3157.07247085816,1591
3158.767980641609,1654
3160.463207720748,1689
3162.158152414606,1667
3163.8528150422862,1612
3165.5471959229726,1616
3167.2412953759303,1662
3168.9351137204976,1645
3170.628651276098,1649
3172.3219083622307,1606
3174.014885298474,1557
3175.707582404485,1660
3177.4000000000005,1639
3179.092138404835,1655
3180.7839979388846,1616
3182.47557892212,1659
3184.166881674594,1597
3185.8579065164386,1683
3187.5486537678626,1687
3189.2391237491547,1691
3190.9293167806827,1739
3192.6192331828934,1640
3194.3088732763117,1617
3195.998237381542,1642
3197.687325819268,1637
3199.376138910251,1662
3201.064676975334,1637
3202.7529403354347,1594
3204.4409293115523,1651
3206.1286442247647,1643
3207.816085396229,1634
3209.5032531471825,1617
3211.190147798936,1614
3212.8767696728846,1656
3214.5631190905015,1572
3216.2491963733373,1548
3217.9350018430214,1547
3219.6205358212637,1588
3221.305798629851,1587
3222.990790590651,1551
3224.6755120256103,1571
3226.359963256751,1610
3228.0441446061795,1658
3229.7280563960758,1598
3231.411698948703,1588
3233.0950725863995,1563
3234.778177631587,1590
3236.461014406761,1639
3238.1435832345005,1600
3239.8258844374595,1639
3241.507918338374,1569
3243.1896852600576,1582
3244.8711855254023,1588
3246.552419457381,1667
3248.233387379042,1636
3249.914089613516,1724
3251.59452648401,1648
3253.274698313813,1713
3254.95460542629,1582
3256.6342481448855,1575
3258.313626793125,1619
3259.9927416946084,1624
3261.6715931730196,1617
3263.3501815521176,1585
3265.0285071557437,1578
3266.706570307815,1504
3268.3843713323286,1593
3270.0619105533615,1487
3271.739188295068,1615
3273.4162048816834,1622
3275.0929606375184,1642
3276.769455886966,1625
3278.445690954498,1622
3280.1216661646613,1665
3281.797381842087,1576
3283.4728383114807,1553
3285.1480358976296,1551
3286.8229749253996,1587
3288.4976557197333,1586
3290.172078605655,1588
3291.846243908266,1651
3293.5201519527463,1572
3295.193803064357,1582
3296.8671975684374,1558
3298.5403357904024,1537
3300.21321805575,1558
3301.8858446900567,1579
3303.558216018975,1609
3305.23033236824,1596
3306.9021940636603,1600
3308.57380143113,1646
3310.2451547966184,1599
3311.916254486174,1590
3313.5871008259246,1679
3315.2576941420766,1559
3316.9280347609147,1598
3318.5981230088046,1620
3320.2679592121895,1543
3321.9375436975924,1589
3323.606876791612,1505
3325.27595882093,1580
3326.944790112305,1627
3328.6133709925753,1575
3330.2817017886573,1600
3331.949782827547,1567
3333.617614436319,1581
3335.2851969421245,1579
3336.952530672199,1605
3338.619615953853,1658
3340.286453114475,1578
3341.9530424815357,1603
3343.619384382583,1616
3345.2854791452437,1636
3346.951327097224,1621
3348.6169285663073,1597
3350.2822838803577,1642
3351.947393367319,1655
3353.61225735521,1596
3355.2768761721345,1614
3356.9412501462693,1633
3358.605379605873,1636
3360.2692648792827,1624
3361.9329062949146,1654
3363.596304181263,1543
