CollectionTime,7/9/2024 11:13:25 AM
ExposureUsed,3
CalibratedSpectrum
-962.7078968117929,745
-959.9714848408522,796
-957.2358232597828,834
-954.5009119013725,822
-951.7667505983302,809
-949.0333391832855,786
-946.3006774887896,833
-943.5687653473143,838
-940.837602591253,831
-938.1071890529199,828
-935.3775245645503,808
-932.6486089583007,788
-929.9204420662485,807
-927.1930237203925,807
-924.4663537526524,795
-921.7404319948689,846
-919.0152582788041,862
-916.2908324361409,865
-913.5671542984834,881
-910.8442236973568,843
-908.1220404642074,792
-905.4006044304027,844
-902.679915427231,826
-899.959973285902,826
-897.2407778375464,825
-894.5223289132158,823
-891.8046263438832,816
-889.0876699604426,784
-886.3714595937089,833
-883.6559950744183,816
-880.9412762332282,838
-878.2273029007168,865
-875.5140749073835,828
-872.8015920836489,847
-870.0898542598545,847
-867.3788612662631,862
-864.6686129330585,840
-861.9591090903457,870
-859.2503495681506,854
-856.5423341964203,857
-853.8350628050229,859
-851.1285352237478,828
-848.4227512823054,829
-845.7177108103272,856
-843.0134136373656,839
-840.3098595928943,859
-837.6070485063082,885
-834.9049802069229,878
-832.2036545239757,902
-829.5030712866244,877
-826.8032303239481,884
-824.1041314649472,830
-821.4057745385428,886
-818.7081593735775,863
-816.0112857988148,909
-813.3151536429393,882
-810.6197627345566,861
-807.9251129021936,845
-805.2312039742981,894
-802.5380357792392,886
-799.8456081453069,845
-797.1539209007124,897
-794.462973873588,840
-791.772766891987,919
-789.083299783884,916
-786.3945723771743,897
-783.7065844996748,891
-781.0193359791231,854
-778.3328266431781,900
-775.6470563194197,891
-772.9620248353489,919
-770.2777320183878,894
-767.5941776958798,895
-764.9113616950891,903
-762.2292838432011,915
-759.5479439673222,907
-756.8673418944801,921
-754.1874774516235,918
-751.5083504656222,900
-748.8299607632671,921
-746.15230817127,931
-743.475392516264,900
-740.7992136248035,876
-738.1237713233636,912
-735.4490654383407,917
-732.7750957960521,946
-730.1018622227365,961
-727.4293645445534,928
-724.7576025875837,914
-722.0865761778291,917
-719.4162851412126,956
-716.7467293035781,942
-714.0779084906909,970
-711.409822528237,972
-708.7424712418238,950
-706.0758544569796,1026
-703.4099719991541,998
-700.7448236937178,993
-698.0804093659622,1028
-695.4167288411002,986
-692.7537819442656,969
-690.0915685005134,937
-687.4300883348199,943
-684.7693412720819,957
-682.1093271371178,969
-679.4500457546669,1008
-676.7914969493897,1014
-674.1336805458676,993
-671.4765963686034,1014
-668.8202442420206,974
-666.1646239904642,1021
-663.5097354382001,975
-660.8555784094151,1019
-658.2021527282176,1000
-655.5494582186366,983
-652.8974947046223,1028
-650.2462620100463,1014
-647.5957599587009,1033
-644.9459883742998,982
-642.2969470804776,1072
-639.6486359007902,1057
-637.0010546587141,1015
-634.3542031776476,1021
-631.7080812809096,1042
-629.0626887917401,970
-626.4180255333008,1056
-623.7740913286734,1005
-621.1308860008619,1089
-618.4884093727904,1070
-615.8466612673046,1101
-613.2056415071715,1076
-610.5653499150785,1078
-607.9257863136347,1084
-605.28695052537,1038
-602.6488423727357,992
-600.0114616781036,1016
-597.3748082637674,1015
-594.7388819519412,1071
-592.1036825647604,1104
-589.4692099242818,1081
-586.8354638524829,1135
-584.2024441712624,1101
-581.5701507024403,1104
-578.9385832677575,1119
-576.3077416888759,1129
-573.6776257873787,1118
-571.0482353847704,1116
-568.4195703024757,1103
-565.7916303618415,1099
-563.164415384135,1099
-560.5379251905453,1086
-557.9121596021815,1089
-555.2871184400748,1072
-552.6628015251767,1055
-550.0392086783606,1086
-547.4163397204204,1106
-544.794194472071,1139
-542.1727727539491,1135
-539.5520743866118,1138
-536.9320991905377,1136
-534.3128469861261,1157
-531.6943175936979,1194
-529.0765108334947,1242
-526.4594265256793,1288
-523.8430644903358,1393
-521.2274245474689,1519
-518.612506517005,1578
-515.9983102187913,1583
-513.3848354725959,1516
-510.77208209810846,1481
-508.16004991493924,1625
-505.5487387426199,1710
-502.9381484006032,1898
-500.3282787082628,1908
-497.71912948489364,1943
-495.1107005497117,1849
-492.5029917218539,1803
-489.8960028203786,1632
-487.28973366426493,1519
-484.68418407241325,1503
-482.07935386364494,1385
-479.47524285670266,1426
-476.87185087025,1364
-474.2691777228715,1392
-471.66722323307334,1391
-469.0659872192821,1308
-466.4654694998459,1377
-463.86566989303384,1325
-461.26658821703614,1359
-458.66822428996414,1330
-456.07057792985,1348
-453.4736489546475,1287
-450.877437182231,1340
-448.28194243039627,1307
-445.68716451686,1351
-443.09310325926003,1320
-440.49975847515555,1278
-437.9071299820263,1342
-435.31521759727354,1293
-432.72402113821954,1329
-430.13354042210767,1355
-427.5437752661022,1395
-424.95472548728867,1326
-422.36639090267386,1323
-419.7787713291855,1363
-417.1918665836721,1521
-414.60567648290385,1479
-412.0202008435715,1437
-409.4354394822874,1432
-406.8513922155845,1531
-404.26805885991723,1430
-401.685439231661,1423
-399.103533147112,1476
-396.522340422488,1466
-393.9418608739278,1395
-391.3620943174908,1372
-388.7830405691583,1317
-386.2046994448317,1263
-383.6270707603344,1259
-381.05015433141045,1205
-378.473949973725,1076
-375.8984575028645,947
-373.32367673433623,885
-370.74960748356875,796
-368.1762495659117,763
-365.60360279663576,687
-363.03166699093265,638
-360.4604419639154,600
-357.8899275306178,571
-355.32012350599507,562
-352.7510297049233,536
-350.1826459421999,491
-347.61497203254316,500
-345.04800779059235,494
-342.4817530309082,525
-339.91620756797226,499
-337.35137121618743,510
-334.7872437898774,500
-332.22382510328725,543
-329.66111497058273,524
-327.09911320585127,519
-324.53781962310075,575
-321.9772340362607,596
-319.4173562591816,547
-316.8581861056348,566
-314.2997233893127,501
-311.7419679238294,532
-309.1849195227194,552
-306.62857799943856,569
-304.0729431673641,596
-301.51801483979375,623
-298.963792829947,583
-296.41027695096386,619
-293.85746701590574,628
-291.3053628377552,618
-288.7539642294155,661
-286.2032710037115,600
-283.65328297338897,637
-281.1039999511146,745
-278.5554217494762,693
-276.007548180983,629
-273.4603790580651,648
-270.9139141930734,668
-268.3681533982807,689
-265.8230964858798,720
-263.27874326798565,683
-260.7350935566336,717
-258.1921471637804,775
-255.6499039013039,762
-253.10836358100266,767
-250.56752601459698,680
-248.02739101372765,673
-245.48795838995704,767
-242.94922795476816,740
-240.41119951956557,771
-237.8738728956746,779
-235.33724789434166,879
-232.80132432673452,766
-230.2661020039418,769
-227.73158073697357,818
-225.19776033676033,858
-222.66464061415422,847
-220.1322213799284,806
-217.60050244477725,721
-215.06948361931552,759
-212.53916471408013,840
-210.00954553952818,881
-207.48062590603843,761
-204.9524056239104,749
-202.4248845033651,879
-199.8980623545441,931
-197.37193898751036,900
-194.84651421224817,857
-192.32178783866232,883
-189.79775967657952,973
-187.27442953574644,1069
-184.7517972258321,1043
-182.2298625564256,916
-179.7086253370378,844
-177.18808537710026,887
-174.66824248596583,1022
-172.14909647290835,1213
-169.6306471471229,1138
-167.11289431772548,1061
-164.59583779375328,968
-162.07947738416453,1113
-159.5638128978386,1303
-157.04884414357605,1594
-154.53457093009854,1979
-152.02099306604828,1678
-149.50811035998936,1150
-146.99592262040665,1100
-144.48442965570587,1353
-141.97363127421409,1462
-139.46352728417958,1678
-136.95411749377126,1940
-134.44540171107985,1803
-131.93737974411636,1290
-129.43005140081357,1486
-126.92341648902493,2101
-124.41747481652521,2347
-121.91222619101006,2915
-119.40767042009657,3912
-116.90380731132257,4283
-114.40063667214702,3980
-111.8981583099503,3637
-109.3963720320337,4254
-106.89527764561933,5586
-104.39487495785067,5860
-101.89516377579241,5635
-99.39614390642998,6316
-96.89781515667039,7683
-94.40017733334128,7650
-91.90323024319173,6859
-89.40697369289148,6300
-86.91140748903172,7163
-84.41653143812482,7977
-81.92234534660395,6897
-79.42884902082358,5572
-76.93604226705907,5858
-74.4439248915071,8403
-71.95249670028534,12521
-69.46175749943245,13190
-66.97170709490854,13139
-64.48234529259423,11412
-61.99367189829195,11085
-59.50568671772464,9681
-57.01838955653636,8366
-54.53178022029283,8386
-52.045858514480074,9179
-49.560624244506016,10750
-47.07607721569923,11660
-44.59221723330904,10763
-42.10904410250669,11083
-39.62655762838392,11252
-37.14475761595372,10579
-34.66364387015028,12003
-32.18321619582866,13535
-29.70347439776515,13882
-27.224418280657005,16384
-24.74604764912317,17676
-22.26836230770266,25179
-19.7913620608565,48476
-17.315046712966478,65040
-14.83941606833514,65040
-12.36446993118659,65040
-9.89020810566592,65040
-7.416630395839093,65040
-4.94373660569363,65040
-2.471526539137585,65040
-6.821210263296962E-13,65040
2.47084320796705,65040
4.941003281093458,65040
7.410480415786196,65040
9.879274808531363,65040
12.347386655893956,65040
14.814816154518212,65040
17.28156350112681,65040
19.74762889252179,65040
22.21301252558385,65040
24.67771459727237,21511
27.141735304626195,5038
29.605074844762612,3678
32.06773341487792,3219
34.52971121224755,3244
36.99100843422559,2882
39.45162527824516,2255
41.91156194181792,2192
44.370818622535126,1889
46.82939551806646,1963
49.287292826160524,1867
51.74451074464503,1708
54.201049471426245,1565
56.65690920448981,1703
59.112090141899785,1660
61.56659248179983,1451
64.02041642241159,1465
66.4735621620365,1552
68.92602989905402,1522
71.37781983192338,1309
73.82893215918205,1395
76.27936707944684,1524
78.72912479141326,1434
81.17820549385567,1653
83.62660938562783,1721
86.07433666566146,1354
88.5213875329681,1051
90.96776218663751,1090
93.41346082583925,1246
95.85848364982041,1483
98.30283085790859,1484
100.7465026495089,1638
103.18949922410604,1577
105.63182078126385,1360
108.07346752062438,1414
110.51443964190923,1220
112.95473734491827,1235
115.39436082953114,1281
117.83331029570547,1243
120.27158594347827,1121
122.7091879729652,1131
125.1461165843615,1184
127.58237197794062,1189
130.01795435405518,1224
132.4528639131364,1329
134.88710085569494,1295
137.32066538231982,1157
139.75355769367923,1070
142.1857779905207,1010
144.61732647366978,1088
147.04820334403132,1203
149.47840880258934,1208
151.90794305040674,1232
154.33680628862487,1237
156.76499871846443,1397
159.19252054122433,1689
161.61937195828352,1898
164.04555317109896,1955
166.47106438120693,2290
168.89590579022217,2401
171.320077599839,2725
173.7435800118302,2757
176.16641322804742,2943
178.58857745042144,3250
181.01007288096173,3378
183.43089972175687,3425
185.85105817497413,3334
188.27054844285988,3304
190.6893707277394,3296
193.10752523201643,3358
195.5250121581745,3512
197.9418317087751,3762
200.3579840864594,3631
202.7734694939469,3737
205.18828813403627,3659
207.6024402096051,3796
210.01592592360964,3905
212.42874547908548,3846
214.84089907914665,3797
217.2523869269868,3894
219.66320922587727,3749
222.0733661791695,3711
224.48285799029293,3591
226.8916848627572,3635
229.29984700014882,3753
231.7073446061355,3776
234.11417788446204,3742
236.520347038953,3865
238.92585227351185,3700
241.33069379212054,3658
243.73487179884035,3748
246.1383864978112,3830
248.541238093252,3793
250.9434267894609,3883
253.34495279081432,3818
255.74581630176783,3880
258.1460175268563,3718
260.54555667069314,3878
262.9444339379703,3700
265.3426495334594,3788
267.7402036620107,3737
270.1370965285529,3612
272.53332833809407,3504
274.9288992957214,3524
277.32380960660055,3405
279.718059475976,3530
282.1116491091717,3599
284.5045787115897,3532
286.89684848871195,3493
289.2884586460981,3570
291.67940938938807,3630
294.0697009242996,3554
296.4593334566299,3648
298.84830719225477,3475
301.23662233712923,3502
303.6242790972866,3511
306.01127767884,3389
308.39761828798066,3381
310.78330113097934,3406
313.16832641418534,3328
315.5526943440269,3335
317.9364051270112,3304
320.3194589697242,3411
322.70185607883093,3337
325.0835966610754,3188
327.4646809232805,3117
329.8451090723478,3143
332.2248813152577,3208
334.6039978590701,3173
336.9824589109231,3188
339.36026467803447,3147
341.7374153677,3080
344.113911187295,3169
346.48975234427337,3127
348.8649390461686,3111
351.2394715005918,3072
353.61334991523415,3214
355.9865744978655,3158
358.35914545633375,3245
360.73106299856715,3084
363.10232733257146,3118
365.47293866643247,3107
367.84289720831396,3187
370.2122031664593,3058
372.5808567491905,3078
374.9488581649083,3063
377.31620762209275,3149
379.6829053293021,3042
382.0489514951745,3062
384.4143463284262,3036
386.7790900378528,2918
389.14318283232853,2949
391.50662492080653,3025
393.86941651231916,3103
396.23155781597745,3030
398.5930490409713,3086
400.9538903965696,3097
403.3140820921202,3091
405.6736243370498,3011
408.03251734086336,3007
410.3907613131465,2888
412.74835646356166,3014
415.10530300185144,3028
417.4616011378372,2966
419.81725108141893,3001
422.1722530425758,3020
424.5266072313656,3064
426.880313857925,3008
429.2333731324701,2978
431.58578526529516,2987
433.9375504667738,3054
436.2886689473588,3003
438.63914091758113,3008
440.9889665880513,2967
443.33814616945835,2911
445.68667987257015,2867
448.03456790823395,2853
450.3818104873759,2935
452.72840782100013,2977
455.07436012019105,3001
457.41966759611057,3005
459.7643304600007,2871
462.10834892318155,3001
464.4517231970525,2929
466.79445349309174,3030
469.1365400228566,3064
471.4779829979826,2963
473.81878263018564,3048
476.15893913125876,2960
478.4984527130747,2991
480.8373235875855,2969
483.17555196682144,3114
485.5131380628919,3297
487.8500820879857,3335
490.1863842543697,3465
492.52204477439034,3632
494.8570638604725,3940
497.1914417251204,4080
499.52517858091653,4414
501.85827464052306,4463
504.19073011668036,4423
506.5225452222086,4234
508.85372017000566,4093
511.18425517304956,4166
513.514150444396,4377
515.8434061971808,5323
518.1720226446176,6405
520.4999999999999,6736
522.8273384766991,6306
525.1540382881666,5740
527.480099647932,5117
529.8055227696037,4359
532.1303078668694,3578
534.454455153496,3250
536.777964843328,3229
539.1008371502907,3120
541.4230722883866,3048
543.744670471698,3039
546.0656319143858,3047
548.3859568306899,3019
550.7056454349294,2888
553.0246979415016,3073
555.3431145648834,2938
557.6608955196306,2880
559.978041020377,2916
562.2945512818363,2997
564.6104265188006,3030
566.9256669461412,3007
569.2402727788082,3048
571.5542442318302,3023
573.8675815203156,3073
576.1802848594508,3052
578.4923544645015,2940
580.8037905508126,3086
583.114593333807,3027
585.4247630289875,3013
587.7342998519354,3056
590.0432040183106,3003
592.3514757438526,3065
594.6591152443794,3083
596.9661227357875,3119
599.2724984340531,3104
601.578242555231,3032
603.8833553154542,3171
606.1878369309362,3093
608.4916876179676,3044
610.7949075929192,3069
613.0974970722403,3031
615.3994562724587,3069
617.7007854101818,3041
620.0014847020951,3081
622.3015543649641,3060
624.6009946156324,3069
626.8998056710224,3103
629.1979877481361,3000
631.4955410640538,3121
633.7924658359349,3135
636.0887622810175,3029
638.3844306166192,2989
640.6794710601358,2997
642.9738838290426,3131
645.2676691408932,3094
647.5608272133207,3151
649.853358264037,3154
652.1452625108324,3160
654.4365401715764,3229
656.7271914642178,3092
659.0172166067838,3229
661.3066158173809,3112
663.5953893141935,3155
665.8835373154867,3282
668.1710600396028,3079
670.4579577049639,3127
672.7442305300709,3187
675.0298787335033,3172
677.3149025339197,3105
679.599302150058,3082
681.8830778007342,3183
684.1662297048437,3158
686.4487580813608,3160
688.7306631493387,3114
691.0119451279091,3223
693.2926042362834,3217
695.5726406937516,3137
697.8520547196814,3080
700.1308465335215,3189
702.4090163547982,3084
704.6865644031171,3106
706.9634908981619,3088
709.2397960596965,3176
711.5154801075631,3150
713.7905432616823,3126
716.0649857420548,3199
718.3388077687592,3066
720.612009561953,3163
722.8845913418733,3170
725.1565533288352,3239
727.427895743234,3122
729.6986188055427,3151
731.9687227363137,3125
734.238207756178,3246
736.5070740858458,3238
738.7753219461066,3197
741.0429515578281,3198
743.3099631419569,3213
745.5763569195191,3183
747.8421331116193,3233
750.1072919394409,3213
752.3718336242467,3170
754.6357583873777,3197
756.8990664502545,3181
759.1617580343765,3206
761.423833361321,3140
763.6852926527457,3165
765.9461361303862,3179
768.206364016058,3127
770.4659765316536,3094
772.7249738991469,3303
774.9833563405886,3326
777.2411240781092,3263
779.4982773339183,3161
781.7548163303044,3240
784.010741289634,3411
786.2660524343538,3323
788.5207499869881,3365
790.7748341701416,3233
793.0283052064964,3253
795.2811633188143,3243
797.5334087299362,3273
799.7850416627813,3256
802.0360623403484,3252
804.2864709857143,3283
806.5362678220353,3291
808.7854530725468,3283
811.0340269605625,3230
813.2819897094754,3346
815.5293415427581,3320
817.77608268396,3268
820.0222133567116,3277
822.2677337847211,3305
824.5126441917765,3270
826.7569448017433,3314
829.0006358385675,3302
831.2437175262731,3207
833.4861900889629,3356
835.7280537508192,3387
837.9693087361026,3278
840.2099552691533,3262
842.4499935743896,3405
844.689423876309,3346
846.9282463994886,3254
849.1664613685833,3277
851.4040690083276,3324
853.6410695435349,3296
855.877463199097,3362
858.1132501999847,3271
860.3484307712487,3228
862.5830051380175,3265
864.8169735254988,3390
867.0503361589791,3375
869.2830932638243,3331
871.5152450654786,3367
873.7467917894654,3397
875.9777336613873,3314
878.2080709069252,3438
880.4378037518389,3343
882.666932421968,3345
884.8954571432301,3366
887.1233781416219,3458
889.3506956432192,3430
891.5774098741766,3439
893.803521060728,3462
896.0290294291852,3406
898.2539352059397,3416
900.4782386174619,3372
902.7019398903011,3323
904.925039251085,3387
907.147536926521,3471
909.3694331433943,3314
911.59072812857,3354
913.8114221089921,3400
916.0315153116827,3379
918.2510079637437,3292
920.4699002923547,3318
922.6881925247761,3291
924.905884888345,3348
927.1229776104793,3322
929.3394709186747,3332
931.555365040506,3383
933.7706602036275,3304
935.9853566357709,3309
938.1994545647489,3375
940.4129542184515,3337
942.6258558248488,3340
944.8381596119883,3308
947.0498658079974,3289
949.2609746410825,3298
951.4714863395287,3305
953.6814011316998,3333
955.8907192460387,3327
958.0994409110671,3203
960.3075663553858,3353
962.5150958076741,3250
964.7220294966913,3308
966.928367651274,3278
969.1341105003388,3301
971.3392582728806,3220
973.5438111979742,3294
975.747769504772,3258
977.9511334225061,3260
980.153903180487,3332
982.3560790081052,3343
984.5576611348289,3248
986.7586497902058,3278
988.9590452038618,3278
991.158847605503,3161
993.3580572249133,3274
995.5566742919558,3241
997.7546990365728,3106
999.952131688785,3084
1002.1489724786926,3066
1004.3452216364743,3080
1006.5408793923874,3072
1008.7359459767691,3002
1010.9304216200343,3036
1013.1243065526781,2961
1015.3176010052733,2964
1017.510305208472,3025
1019.7024193930064,2954
1021.8939437896848,3030
1024.0848786293977,2993
1026.2752241431122,2954
1028.4649805618747,2973
1030.6541481168115,2952
1032.842727039127,2943
1035.0307175601051,2901
1037.2181199111074,2917
1039.4049343235752,2911
1041.591161029029,2960
1043.7768002590683,2965
1045.9618522453698,2955
1048.1463172196918,2955
1050.3301954138697,2964
1052.513487059818,3061
1054.69619238953,2982
1056.8783116350783,2954
1059.0598450286152,2950
1061.2407928023704,3004
1063.4211551886528,2942
1065.6009324198508,2950
1067.780124728432,2958
1069.9587323469414,2874
1072.1367555080046,3000
1074.314194444325,2960
1076.4910493886855,2993
1078.667320573947,2918
1080.843008233051,2999
1083.0181125990161,2851
1085.1926339049414,2990
1087.3665723840027,2932
1089.5399282694575,2799
1091.7127017946405,2842
1093.8848931929647,2920
1096.0565026979243,2889
1098.2275305430899,2967
1100.3979769621128,2867
1102.567842188722,2817
1104.737126456726,2892
1106.9058300000124,2869
1109.0739530525475,2889
1111.2414958483764,2949
1113.4084586216231,2830
1115.5748416064907,2863
1117.7406450372605,2897
1119.9058691482942,2828
1122.0705141740304,2757
1124.2345803489884,2854
1126.3980679077658,2925
1128.5609770850388,2868
1130.7233081155623,2891
1132.8850612341707,2903
1135.0462366757774,2799
1137.2068346753745,2899
1139.3668554680326,2864
1141.526299288901,2913
1143.68516637321,2826
1145.8434569562655,2835
1148.001171273455,2872
1150.158309560244,2827
1152.3148720521767,2903
1154.470858984876,2754
1156.626270594044,2788
1158.7811071154629,2799
1160.9353687849912,2866
1163.089055838569,2876
1165.242168512213,2891
1167.3947070420209,2846
1169.5466716641677,2891
1171.6980626149075,2872
1173.8488801305748,2807
1175.9991244475814,2710
1178.1487958024186,2784
1180.2978944316555,2829
1182.4464205719428,2814
1184.5943744600072,2717
1186.7417563326567,2796
1188.8885664267755,2852
1191.0348049793297,2799
1193.1804722273619,2755
1195.325568407995,2819
1197.4700937584303,2851
1199.614048515948,2861
1201.7574329179074,2859
1203.900247201746,2822
1206.042491604982,2828
1208.1841663652099,2815
1210.3252717201053,2870
1212.465807907422,2846
1214.6057751649923,2863
1216.7451737307279,2919
1218.8840038426192,2873
1221.0222657387353,2822
1223.1599596572241,2948
1225.2970858363137,2845
1227.4336445143094,2907
1229.5696359295966,2912
1231.705060320639,2894
1233.8399179259786,2943
1235.9742089842384,2898
1238.107933734118,2879
1240.2410924143974,2956
1242.373685263935,2917
1244.5057125216676,2949
1246.6371744266116,2998
1248.7680712178621,2931
1250.898403134593,2860
1253.028170416058,2936
1255.1573733015875,2963
1257.2860120305932,2937
1259.4140868425648,2925
1261.54159797707,3000
1263.6685456737569,2982
1265.7949301723515,2983
1267.9207517126597,2996
1270.046010534565,2985
1272.1707068780306,3042
1274.2948409830983,2995
1276.4184130898889,2968
1278.541423438603,2978
1280.6638722695184,2892
1282.785759822993,3048
1284.9070863394636,2973
1287.0278520594447,3011
1289.1480572235314,3051
1291.2677020723963,2994
1293.3867868467923,2969
1295.5053117875495,3037
1297.623277135579,3138
1299.740683131868,3076
1301.8575300174857,3107
1303.973818033578,3117
1306.0895474213703,3168
1308.2047184221678,3088
1310.3193312773528,3220
1312.4333862283888,3110
1314.5468835168163,3186
1316.659823384255,3144
1318.7722060724045,3052
1320.8840318230418,3101
1322.9953008780249,3150
1325.1060134792888,3067
1327.2161698688478,3187
1329.3257702887959,3181
1331.4348149813054,3060
1333.5433041886276,3137
1335.6512381530933,3124
1337.7586171171101,3129
1339.8654413231675,3164
1341.9717110138317,3110
1344.0774264317488,3128
1346.1825878196432,3082
1348.2871954203192,3125
1350.3912494766587,3102
1352.4947502316231,3067
1354.5976979282532,3065
1356.7000928096686,3190
1358.8019351190665,3073
1360.9032250997243,3106
1363.0039629949988,3076
1365.1041490483235,3162
1367.2037835032133,3139
1369.3028666032606,3111
1371.401398592137,3164
1373.4993797135926,3093
1375.5968102114575,3003
1377.6936903296396,3125
1379.7900203121262,3178
1381.8858004029835,3151
1383.9810308463561,3124
1386.075711886469,3254
1388.1698437676241,3190
1390.2634267342032,3079
1392.356461030667,3148
1394.4489469015557,3234
1396.5408845914872,3222
1398.6322743451592,3167
1400.7231164073469,3236
1402.813411022907,3230
1404.903158436773,3171
1406.9923588939578,3224
1409.0810126395531,3193
1411.1691199187303,3247
1413.2566809767386,3317
1415.343696058907,3281
1417.4301654106425,3377
1419.5160892774315,3193
1421.6014679048399,3201
1423.6863015385125,3175
1425.7705904241707,3242
1427.8543348076178,3354
1429.9375349347342,3213
1432.0201910514802,3294
1434.102303403894,3364
1436.1838722380944,3260
1438.2648978002767,3364
1440.3453803367174,3350
1442.4253200937692,3396
1444.5047173178677,3415
1446.5835722555234,3409
1448.6618851533285,3503
1450.739656257952,3473
1452.8168858161434,3329
1454.8935740747306,3463
1456.96972128062,3507
1459.045327680797,3568
1461.120393522327,3443
1463.1949190523528,3664
1465.2689045180973,3735
1467.3423501668608,3747
1469.415256246024,3766
1471.4876230030463,3731
1473.559450685465,3750
1475.6307395408976,3809
1477.7014898170391,3832
1479.771701761665,3963
1481.8413756226287,3976
1483.9105116478618,3870
1485.9791100853772,3889
1488.0471711832643,3931
1490.1146951896926,3975
1492.1816823529098,4185
1494.2481329212433,4126
1496.3140471430984,4128
1498.3794252669609,4232
1500.4442675413939,4220
1502.5085742150404,4299
1504.572345536622,4293
1506.6355817549388,4447
1508.6982831188702,4389
1510.7604498773744,4373
1512.8220822794883,4440
1514.8831805743293,4577
1516.9437450110909,4471
1519.003775839048,4648
1521.0632733075522,4642
1523.1222376660367,4701
1525.1806691640113,4866
1527.2385680510652,4848
1529.2959345768668,5011
1531.3527689911643,4934
1533.4090715437833,4983
1535.4648424846291,5197
1537.5200820636855,5047
1539.5747905310159,5285
1541.6289681367616,5272
1543.6826151311434,5288
1545.7357317644614,5384
1547.7883182870937,5485
1549.8403749494987,5471
1551.8919020022113,5485
1553.9428996958477,5589
1555.9933682811015,5617
1558.0433080087469,5925
1560.0927191296346,5916
1562.1416018946961,5829
1564.1899565549415,5808
1566.2377833614592,5789
1568.2850825654164,5731
1570.3318544180606,5623
1572.3780991707158,5394
1574.423817074788,5282
1576.4690083817595,5097
1578.5136733431923,4987
1580.5578122107272,4724
1582.601425236085,4445
1584.6445126710646,4407
1586.6870747675434,4285
1588.7291117774776,4169
1590.7706239529034,4148
1592.8116115459347,3991
1594.8520748087658,3913
1596.8920139936686,3758
1598.9314293529933,3732
1600.9703211391711,3581
1603.008689604711,3599
1605.0465350022005,3680
1607.0838575843068,3435
1609.1206576037753,3509
1611.1569353134305,3534
1613.1926909661765,3495
1615.2279248149953,3382
1617.2626371129481,3413
1619.2968281131757,3369
1621.3304980688963,3336
1623.3636472334088,3323
1625.39627586009,3301
1627.428384202396,3328
1629.459972513861,3307
1631.4910410480993,3208
1633.5215900588028,3264
1635.551619799744,3203
1637.5811305247717,3200
1639.6101224878166,3097
1641.6385959428862,3196
1643.6665511440683,3161
1645.693988345528,3133
1647.7209078015112,3199
1649.7473097663405,3200
1651.7731944944203,3138
1653.7985622402307,3153
1655.823413258333,3135
1657.847747803366,3026
1659.8715661300494,3054
1661.8948684931793,3064
1663.9176551476316,3043
1665.9399263483624,3117
1667.9616823504057,3160
1669.982923408873,3181
1672.0036497789574,3052
1674.0238617159293,3116
1676.043559475138,3021
1678.0627433120121,3113
1680.081413482059,3131
1682.0995702408654,3071
1684.117213844096,3058
1686.134344547495,3108
1688.1509626068864,3086
1690.1670682781705,3154
1692.182661817329,3061
1694.1977434804217,3042
1696.2123135235875,3087
1698.226372203043,3094
1700.2399197750851,3112
1702.2529564960905,3084
1704.2654826225112,3057
1706.277498410882,3184
1708.2890041178139,3074
1710.2999999999988,3100
1712.3104863142066,3040
1714.3204633172854,3174
1716.329931266163,3101
1718.3388904178469,3105
1720.3473410294214,3011
1722.3552833580516,3108
1724.3627176609807,3047
1726.3696441955308,3095
1728.3760632191033,3010
1730.3819749891782,3078
1732.3873797633146,3024
1734.3922777991502,3079
1736.3966693544012,3055
1738.4005546868639,3091
1740.4039340544127,3070
1742.406807715001,3070
1744.4091759266616,2996
1746.4110389475054,3070
1748.4123970357223,3091
1750.413250449582,2968
1752.4135994474318,2971
1754.4134442876993,3000
1756.4127852288902,2996
1758.4116225295893,2967
1760.4099564484595,2965
1762.407787244244,3062
1764.405115175764,3042
1766.4019405019203,2998
1768.3982634816916,3006
1770.3940843741357,3029
1772.3894034383907,2924
1774.3842209336717,2891
1776.378537119274,3048
1778.372352254571,3046
1780.3656665990156,2864
1782.3584804121397,2961
1784.3507939535534,3062
1786.3426074829463,3004
1788.3339212600863,2895
1790.3247355448211,3071
1792.3150505970766,2949
1794.3048666768573,3018
1796.2941840442477,2954
1798.2830029594106,2991
1800.2713236825884,2947
1802.2591464741004,2978
1804.2464715943465,3051
1806.2332993038058,3032
1808.2196298630352,2995
1810.2054635326708,3003
1812.190800573428,2922
1814.175641246101,3080
1816.1599858115628,3061
1818.1438345307652,3031
1820.127187664738,2963
1822.1100454745924,3015
1824.092408221516,3017
1826.0742761667766,2944
1828.055649571721,3046
1830.0365286977735,2961
1832.0169138064398,3022
1833.9968051593014,2961
1835.9762030180214,3053
1837.9551076443408,3061
1839.9335193000788,2964
1841.9114382471344,2983
1843.888864747485,2964
1845.8657990631878,3039
1847.842241456378,2872
1849.8181921892697,2948
1851.7936515241558,2989
1853.7686197234098,3057
1855.7430970494815,3037
1857.7170837649014,3029
1859.6905801322787,3063
1861.6635864143004,3021
1863.6361028737338,2989
1865.608129773424,3031
1867.5796673762961,2943
1869.5507159453537,2953
1871.521275743678,2967
1873.4913470344313,3006
1875.4609300808534,2977
1877.4300251462632,3027
1879.3986324940588,2999
1881.366752387717,2980
1883.3343850907936,2933
1885.3015308669228,3083
1887.268189979819,3068
1889.2343626932739,2983
1891.2000492711595,3015
1893.1652499774254,3075
1895.1299650761011,3121
1897.0941948312952,3101
1899.0579395071945,3021
1901.0211993680641,2983
1902.98397467825,3063
1904.9462657021745,3124
1906.9080727043415,3125
1908.869395949332,3025
1910.8302357018065,3050
1912.790592226504,2935
1914.7504657882428,3012
1916.7098566519212,2907
1918.6687650825133,3013
1920.6271913450764,3005
1922.5851357047422,3000
1924.5425984267245,2996
1926.499579776314,2985
1928.4560800188833,3089
1930.4120994198802,2986
1932.367638244833,3090
1934.32269675935,3081
1936.2772752291175,3049
1938.231373919899,3009
1940.1849930975404,3104
1942.1381330279637,2986
1944.0907939771696,3085
1946.0429762112412,2999
1947.9946799963363,3042
1949.9459055986945,3060
1951.896653284633,3108
1953.8469233205478,3085
1955.7967159729142,3065
1957.7460315082863,3003
1959.6948701932974,3023
1961.6432322946594,3083
1963.5911180791632,3033
1965.5385278136787,3047
1967.4854617651545,2941
1969.4319202006182,3049
1971.377903387176,3014
1973.3234115920136,3096
1975.268445082395,3043
1977.2130041256642,3085
1979.1570889892423,3099
1981.1006999406304,3008
1983.04383724741,2995
1984.986501177238,3055
1986.928691997853,3033
1988.8704099770712,3003
1990.811655382789,2985
1992.7524284829801,3007
1994.692729545698,2990
1996.6325588390755,3050
1998.5719166313224,2973
2000.5108031907307,3005
2002.4492187856677,3068
2004.387163684583,3095
2006.3246381560011,2991
2008.2616424685298,3025
2010.1981768908527,3003
2012.1342416917332,3039
2014.069837140014,3046
2016.0049635046162,3057
2017.9396210545406,3017
2019.8738100588666,3068
2021.8075307867502,3027
2023.740783507431,2977
2025.6735684902228,2919
2027.6058860045214,3071
2029.5377363198004,3040
2031.4691197056118,3039
2033.4000364315875,3025
2035.3304867674374,3049
2037.260470982952,3018
2039.189989347998,2985
2041.1190421325232,3099
2043.047629606554,2997
2044.9757520401945,3070
2046.9034097036288,3033
2048.8306028671195,3095
2050.7573318010086,3047
2052.683596775716,2975
2054.609398061742,3110
2056.5347359296647,3053
2058.4596106501403,3061
2060.384022493906,3076
2062.3079717317764,2992
2064.231458634646,3054
2066.1544834734873,3069
2068.077046519352,3031
2069.99914804337,2989
2071.9207883167524,2951
2073.8419676107865,3004
2075.7626861968406,3027
2077.6829443463607,3100
2079.6027423308715,3024
2081.522080421977,3080
2083.440958891362,3034
2085.359378010786,3045
2087.2773380520907,3118
2089.194839287196,2995
2091.111881988101,3148
2093.0284664268825,3140
2094.9445928756973,3004
2096.86026160678,3062
2098.775472892446,3021
2100.690227005088,3014
2102.604524217178,3081
2104.5183648012676,3130
2106.431749029985,3156
2108.34467717604,3076
2110.2571495122206,3094
2112.169166311393,3099
2114.080727846503,3043
2115.9918343905747,3072
2117.902486216711,3095
2119.8126835980956,3141
2121.722426807987,3129
2123.6317161197285,3077
2125.5405518067364,3064
2127.448934142509,3102
2129.356863400624,3121
2131.264339854737,3151
2133.1713637785815,3138
2135.077935445972,3113
2136.9840551308002,3140
2138.889723107037,3151
2140.7949396487334,3084
2142.699705030018,3155
2144.6040195250994,3120
2146.507883408264,3168
2148.4112969538774,3143
2150.3142604363848,3113
2152.2167741303097,3186
2154.1188383102535,3143
2156.0204532508997,3271
2157.9216192270064,3179
2159.822336513414,3139
2161.7226053850413,3146
2163.622426116884,3079
2165.5217989840185,3194
2167.4207242616,3136
2169.319202224862,3132
2171.2172331491165,3219
2173.1148173097563,3186
2175.0119549822507,3230
2176.90864644215,3262
2178.8048919650823,3170
2180.7006918267534,3212
2182.596046302952,3265
2184.4909556695407,3287
2186.3854202024645,3223
2188.279440177746,3294
2190.173015871487,3214
2192.066147559868,3169
2193.958835519149,3266
2195.851080025667,3347
2197.7428813558417,3212
2199.6342397861667,3200
2201.5251555932186,3295
2203.415629053651,3313
2205.3056604441986,3326
2207.19525004167,3334
2209.084398122958,3372
2210.9731049650327,3357
2212.861370844941,3269
2214.749196039812,3329
2216.636580826851,3345
2218.523525483344,3259
2220.410030286655,3303
2222.296095514226,3265
2224.1817214435805,3242
2226.066908352319,3262
2227.951656518121,3348
2229.835966218746,3324
2231.71983773203,3358
2233.6032713358913,3305
2235.486267308324,3303
2237.3688259274036,3297
2239.2509474712824,3361
2241.132632218193,3407
2243.013880446447,3275
2244.8946924344323,3309
2246.7750684606203,3328
2248.6550088035574,3229
2250.534513741871,3334
2252.413583554265,3324
2254.292218519526,3333
2256.170418916517,3304
2258.0481850241786,3286
2259.925517121534,3357
2261.8024154876825,3207
2263.678880401803,3289
2265.5549121431536,3305
2267.430510991071,3387
2269.305677224971,3251
2271.180411124348,3227
2273.0547129687766,3186
2274.9285830379076,3233
2276.8020216114737,3266
2278.6750289692845,3247
2280.5476053912294,3252
2282.4197511572766,3309
2284.2914665474727,3316
2286.162751841943,3372
2288.0336073208937,3409
2289.904033264608,3504
2291.774029953448,3389
2293.6435976678554,3365
2295.5127366883517,3422
2297.381447295534,3294
2299.2497297700825,3153
2301.1175843927526,3304
2302.9850114443825,3195
2304.852011205885,3198
2306.7185839582553,3108
2308.5847299825664,3082
2310.4504495599676,3002
2312.3157429716925,3053
2314.1806104990483,3133
2316.0450524234247,3032
2317.9090690262888,3099
2319.772660589186,2981
2321.635827393742,3064
2323.498569721661,3071
2325.3608878547248,3028
2327.2227820747967,3039
2329.0842526638157,3110
2330.945299903803,3053
2332.805924076857,3081
2334.6661254651535,3041
2336.525904350951,2906
2338.3852610165827,3002
2340.244195744464,3044
2342.102708817088,3004
2343.9608005170253,3045
2345.8184711269287,3063
2347.675720929526,3076
2349.532550207628,3101
2351.38895924412,3102
2353.24494832197,2949
2355.100517724223,3057
2356.955667734004,3129
2358.810398634514,3061
2360.664710709037,3124
2362.5186042409337,3003
2364.3720795136437,3043
2366.225136810686,3023
2368.0777764156583,3016
2369.929998612237,3053
2371.7818036841777,2991
2373.633191915315,3069
2375.484163589562,3048
2377.3347189909114,3098
2379.184858403434,3185
2381.03458211128,3098
2382.8838903986775,3166
2384.732783549936,3097
2386.5812618494406,3118
2388.4293255816588,2982
2390.2769750311327,3085
2392.1242104824883,3139
2393.971032220427,3188
2395.8174405297295,3102
2397.6634356952563,3100
2399.509018001947,3017
2401.3541877348193,3114
2403.1989451789705,3132
2405.043290619576,3140
2406.8872243418905,3185
2408.730746631247,3087
2410.5738577730594,3066
2412.4165580528183,3086
2414.258847756095,3094
2416.100727168537,3183
2417.9421965758734,3148
2419.783256263912,3182
2421.623906518538,3215
2423.4641476257157,3056
2425.303979871491,3126
2427.143403541984,3134
2428.9824189233977,3145
2430.821026302012,3151
2432.6592259641866,3104
2434.497018196361,3076
2436.33440328505,3183
2438.171381516851,3079
2440.00795317844,3203
2441.844118556569,3226
2443.6798779380724,3122
2445.5152316098606,3169
2447.3501798589255,3071
2449.1847229723357,3199
2451.0188612372403,3181
2452.8525949408663,3171
2454.6859243705203,3096
2456.518849813587,3211
2458.3513715575314,3125
2460.183489889895,3240
2462.015205098301,3113
2463.8465174704493,3082
2465.67742729412,3200
2467.5079348571717,3202
2469.338040447542,3191
2471.1677443532476,3132
2472.9970468623833,3275
2474.825948263123,3167
2476.6544488437207,3216
2478.482548892508,3146
2480.310248697896,3188
2482.137548548374,3136
2483.9644487325118,3149
2485.790949538956,3082
2487.617051256433,3232
2489.44275417375,3249
2491.26805857979,3180
2493.0929647635157,3233
2494.917473013971,3197
2496.741583620276,3123
2498.5652968716304,3160
2500.3886130573137,3295
2502.2115324666834,3211
2504.0340553891765,3264
2505.856182114308,3329
2507.6779129316733,3204
2509.499248130945,3336
2511.3201880018764,3250
2513.140732834298,3156
2514.9608829181198,3198
2516.780638543331,3240
2518.6,3140
2520.418967578273,3246
2522.237541568376,3192
2524.0557222606144,3218
2525.8735099453706,3238
2527.6909049131086,3229
2529.507907454368,3305
2531.32451785977,3358
2533.140736420014,3247
2534.9565634258774,3222
2536.771999168218,3287
2538.5870439379714,3314
2540.4016980261526,3350
2542.2159617238544,3357
2544.02983532225,3304
2545.8433191125914,3358
2547.656413386209,3391
2549.4691184345115,3394
2551.2814345489874,3355
2553.093362021204,3281
2554.904901142808,3420
2556.716052205523,3386
2558.526815501153,3357
2560.3371913215824,3338
2562.147179958771,3286
2563.956781704761,3327
2565.7659968516705,3372
2567.5748256916986,3409
2569.3832685171224,3417
2571.1913256202984,3387
2572.9989972936614,3491
2574.806283829725,3413
2576.613185521084,3499
2578.4197026604074,3486
2580.2258355404483,3527
2582.031584454035,3506
2583.836949694077,3440
2585.6419315535613,3488
2587.4465303255533,3556
2589.2507463032002,3416
2591.0545797797245,3515
2592.8580310484303,3495
2594.6611004026995,3579
2596.463788135992,3696
2598.266094541849,3580
2600.0680199138874,3593
2601.869564545807,3523
2603.670728731383,3582
2605.4715127644704,3532
2607.2719169390048,3484
2609.071941548998,3509
2610.8715868885433,3555
2612.670853251811,3716
2614.469740933052,3589
2616.268250226594,3587
2618.0663814268455,3640
2619.864134828292,3489
2621.6615107255006,3468
2623.458509413115,3603
2625.2551311858597,3571
2627.0513763385347,3485
2628.8472451660223,3605
2630.6427379632833,3507
2632.4378550253564,3523
2634.232596647359,3500
2636.026963124488,3521
2637.8209547520187,3496
2639.6145718253065,3415
2641.407814639785,3495
2643.200683490966,3453
2644.9931786744414,3507
2646.7853004858807,3482
2648.577049221034,3545
2650.3684251757277,3349
2652.1594286458712,3472
2653.9500599274484,3389
2655.740319316525,3368
2657.5302071092437,3284
2659.3197236018286,3320
2661.10886909058,3242
2662.8976438718782,3282
2664.686048242183,3403
2666.4740824980327,3338
2668.2617469360443,3425
2670.0490418529134,3401
2671.8359675454153,3321
2673.622524310403,3415
2675.408712444811,3327
2677.1945322456495,3206
2678.979984010009,3333
2680.76506803506,3308
2682.5497846180497,3251
2684.334134056306,3184
2686.1181166472343,3189
2687.9017326883213,3145
2689.6849824771293,3210
2691.4678663113013,3293
2693.2503844885596,3192
2695.032537306705,3228
2696.8143250636167,3308
2698.5957480572542,3312
2700.3768065856534,3208
2702.1575009469316,3123
2703.937831439283,3173
2705.717798360982,3159
2707.4974020103837,3109
2709.276642685917,3193
2711.055520686095,3169
2712.834036309506,3111
2714.612189854819,3138
2716.389981620782,3125
2718.1674119062204,3161
2719.944481010041,3103
2721.721189231226,3158
2723.4975368688415,3191
2725.273524222027,3055
2727.0491515900053,3264
2728.824419272075,3155
2730.5993275676146,3185
2732.3738767760838,3134
2734.148067197016,3175
2735.921899130031,3090
2737.6953728748194,3129
2739.468488731156,3152
2741.2412469988926,3200
2743.0136479779617,3138
2744.785691968372,3279
2746.5573792702116,3178
2748.3287101836504,3088
2750.099685008934,3131
2751.870304046388,3061
2753.640567596418,3199
2755.4104759595057,3185
2757.1800294362156,3096
2758.949228327187,3157
2760.7180729331412,3080
2762.486563554877,3121
2764.254700493272,3149
2766.022484049284,3160
2767.789914523947,3118
2769.5569922183786,3116
2771.3237174337705,3111
2773.090090471394,3207
2774.8561116326036,3173
2776.6217812188274,3209
2778.3870995315756,3119
2780.1520668724356,3130
2781.9166835430747,3157
2783.6809498452394,3139
2785.444866080754,3128
2787.2084325515225,3226
2788.971649559527,3167
2790.73451740683,3135
2792.4970363955713,3152
2794.2592068279705,3179
2796.0210290063264,3167
2797.7825032330147,3190
2799.543629810493,3191
2801.304409041296,3164
2803.0648412280366,3141
2804.8249266734088,3159
2806.5846656801846,3164
2808.344058551212,3191
2810.1031055894246,3246
2811.8618070978273,3256
2813.6201633795085,3081
2815.378174737636,3181
2817.1358414754536,3108
2818.893163896285,3209
2820.6501423035334,3192
2822.4067770006814,3160
2824.1630682912883,3237
2825.9190164789957,3287
2827.6746218675207,3181
2829.429884760661,3176
2831.184805462294,3193
2832.9393842763743,3207
2834.693621506936,3249
2836.4475174580916,3319
2838.201072434034,3244
2839.954286739034,3214
2841.707160677441,3201
2843.459694553685,3263
2845.2118886722724,3185
2846.96374333779,3140
2848.7152588549034,3176
2850.4664355283567,3152
2852.217273662973,3222
2853.9677735636546,3204
2855.7179355353833,3202
2857.4677598832186,3179
2859.217246912299,3182
2860.9663969278427,3226
2862.715210235146,3260
2864.4636871395846,3150
2866.211827946614,3270
2867.9596329617652,3125
2869.7071024906536,3170
2871.4542368389684,3244
2873.20103631248,3175
2874.947501217038,3222
2876.6936318585695,3231
2878.4394285430812,3165
2880.1848915766604,3105
2881.9300212654707,3260
2883.6748179157553,3188
2885.4192818338374,3133
2887.1634133261173,3115
2888.907212699077,3179
2890.6506802592744,3260
2892.393816313348,3275
2894.1366211680142,3288
2895.8790951300693,3189
2897.621238506388,3205
2899.363051603925,3180
2901.1045347297118,3229
2902.8456881908596,3279
2904.58651229456,3190
2906.327007348081,3113
2908.067173658772,3171
2909.8070115340597,3133
2911.5465212814497,3170
2913.285703208527,3166
2915.0245576229563,3164
2916.7630848324807,3154
2918.5012851449196,3173
2920.2391588681758,3196
2921.976706310227,3135
2923.7139277791334,3176
2925.4508235830313,3195
2927.187394030137,3249
2928.923639428745,3188
2930.6595600872306,3193
2932.395156314046,3268
2934.1304284177218,3203
2935.8653767068713,3173
2937.6000014901815,3214
2939.3343030764227,3214
2941.068281774442,3219
2942.8019378931644,3167
2944.5352717415976,3281
2946.2682836288236,3257
2948.0009738640065,3200
2949.7333427563885,3210
2951.465390615289,3256
2953.1971177501086,3309
2954.9285244703265,3159
2956.6596110855,3239
2958.3903779052657,3232
2960.1208252393385,3189
2961.8509533975125,3259
2963.5807626896617,3249
2965.3102534257378,3174
2967.0394259157715,3123
2968.768280469873,3246
2970.496817398232,3258
2972.2250370111146,3217
2973.952939618869,3256
2975.6805255319196,3313
2977.4077950607707,3254
2979.134748516006,3302
2980.861386208289,3198
2982.587708448359,3310
2984.313715547037,3315
2986.039407815222,3297
2987.764785563891,3244
2989.489849104102,3233
2991.2145987469908,3192
2992.9390348037705,3220
2994.6631575857346,3341
2996.3869674042576,3183
2998.1104645707887,3194
2999.83364939686,3214
3001.5565221940783,3163
3003.2790832741334,3170
3005.0013329487924,3164
3006.7232715298996,3239
3008.4448993293804,3213
3010.166216659239,3303
3011.887223831558,3252
3013.607921158498,3231
3015.3283089522993,3251
3017.0483875252826,3219
3018.7681571898443,3256
3020.4876182584626,3247
3022.2067710436927,3272
3023.9256158581707,3287
3025.644153014609,3235
3027.362382825801,3288
3029.0803056046193,3249
3030.797921664012,3303
3032.5152313170106,3343
3034.2322348767225,3165
3035.9489326563353,3234
3037.665324969115,3279
3039.3814121284063,3239
3041.097194447633,3194
3042.812672240299,3301
3044.5278458199855,3141
3046.2427155003525,3249
3047.9572815951406,3214
3049.671544418167,3220
3051.38550428333,3200
3053.0991615046073,3269
3054.812516396051,3263
3056.5255692717974,3164
3058.2383204460575,3303
3059.9507702331257,3290
3061.662918947372,3297
3063.3747669032446,3331
3065.0863144152736,3324
3066.7975617980674,3325
3068.508509366309,3321
3070.219157434767,3324
3071.9295063182844,3380
3073.639556331785,3318
3075.3493077902704,3240
3077.058761008821,3285
3078.7679163025964,3280
3080.476773986837,3303
3082.1853343768594,3335
3083.89359778806,3330
3085.6015645359153,3411
3087.3092349359786,3330
3089.016609303884,3314
3090.7236879553434,3240
3092.4304712061476,3304
3094.136959372166,3439
3095.843152769349,3362
3097.5490517137237,3323
3099.2546565213966,3359
3100.959967508554,3456
3102.66498499146,3359
3104.3697092864577,3344
3106.0741407099695,3357
3107.778279578498,3256
3109.482126208622,3314
3111.1856809170004,3339
3112.8889440203716,3299
3114.5919158355528,3313
3116.294596679439,3389
3117.996986869006,3398
3119.6990867213062,3436
3121.4008965534726,3471
3123.102416682717,3400
3124.803647426329,3465
3126.5045891016784,3365
3128.205242026213,3428
3129.90560651746,3384
3131.605682893025,3468
3133.3054714705922,3461
3135.0049725679282,3494
3136.7041865028714,3420
3138.4031135933465,3407
3140.101754157353,3385
3141.800108512971,3547
3143.498176978357,3448
3145.1959598717494,3398
3146.8934575114636,3304
3148.5906702158954,3279
3150.2875983035183,3413
3151.9842420928853,3433
3153.680601902627,3419
3155.376678051456,3301
3157.07247085816,3336
3158.767980641609,3331
3160.463207720748,3248
3162.158152414606,3373
3163.8528150422862,3375
3165.5471959229726,3353
3167.2412953759303,3368
3168.9351137204976,3281
3170.628651276098,3449
3172.3219083622307,3434
3174.014885298474,3382
3175.707582404485,3352
3177.4000000000005,3378
3179.092138404835,3432
3180.7839979388846,3419
3182.47557892212,3439
3184.166881674594,3404
3185.8579065164386,3404
3187.5486537678626,3459
3189.2391237491547,3422
3190.9293167806827,3327
3192.6192331828934,3432
3194.3088732763117,3390
3195.998237381542,3455
3197.687325819268,3396
3199.376138910251,3265
3201.064676975334,3362
3202.7529403354347,3453
3204.4409293115523,3435
3206.1286442247647,3342
3207.816085396229,3314
3209.5032531471825,3353
3211.190147798936,3346
3212.8767696728846,3272
3214.5631190905015,3338
3216.2491963733373,3283
3217.9350018430214,3362
3219.6205358212637,3346
3221.305798629851,3286
3222.990790590651,3231
3224.6755120256103,3225
3226.359963256751,3243
3228.0441446061795,3355
3229.7280563960758,3364
3231.411698948703,3344
3233.0950725863995,3381
3234.778177631587,3191
3236.461014406761,3330
3238.1435832345005,3393
3239.8258844374595,3332
3241.507918338374,3404
3243.1896852600576,3367
3244.8711855254023,3396
3246.552419457381,3408
3248.233387379042,3398
3249.914089613516,3365
3251.59452648401,3353
3253.274698313813,3279
3254.95460542629,3376
3256.6342481448855,3458
3258.313626793125,3259
3259.9927416946084,3380
3261.6715931730196,3266
3263.3501815521176,3374
3265.0285071557437,3295
3266.706570307815,3305
3268.3843713323286,3231
3270.0619105533615,3351
3271.739188295068,3255
3273.4162048816834,3406
3275.0929606375184,3441
3276.769455886966,3364
3278.445690954498,3399
3280.1216661646613,3427
3281.797381842087,3431
3283.4728383114807,3410
3285.1480358976296,3321
3286.8229749253996,3312
3288.4976557197333,3407
3290.172078605655,3393
3291.846243908266,3334
3293.5201519527463,3191
3295.193803064357,3248
3296.8671975684374,3273
3298.5403357904024,3250
3300.21321805575,3327
3301.8858446900567,3417
3303.558216018975,3388
3305.23033236824,3449
3306.9021940636603,3400
3308.57380143113,3396
3310.2451547966184,3402
3311.916254486174,3394
3313.5871008259246,3348
3315.2576941420766,3342
3316.9280347609147,3452
3318.5981230088046,3354
3320.2679592121895,3340
3321.9375436975924,3315
3323.606876791612,3350
3325.27595882093,3358
3326.944790112305,3383
3328.6133709925753,3375
3330.2817017886573,3349
3331.949782827547,3389
3333.617614436319,3359
3335.2851969421245,3302
3336.952530672199,3430
3338.619615953853,3430
3340.286453114475,3452
3341.9530424815357,3393
3343.619384382583,3364
3345.2854791452437,3283
3346.951327097224,3373
3348.6169285663073,3407
3350.2822838803577,3364
3351.947393367319,3485
3353.61225735521,3401
3355.2768761721345,3402
3356.9412501462693,3481
3358.605379605873,3390
3360.2692648792827,3365
3361.9329062949146,3480
3363.596304181263,3422
