CollectionTime,7/9/2024 11:11:59 AM
ExposureUsed,3
CalibratedSpectrum
-962.7078968117929,591
-959.9714848408522,613
-957.2358232597828,645
-954.5009119013725,605
-951.7667505983302,672
-949.0333391832855,607
-946.3006774887896,676
-943.5687653473143,638
-940.837602591253,609
-938.1071890529199,648
-935.3775245645503,647
-932.6486089583007,648
-929.9204420662485,652
-927.1930237203925,629
-924.4663537526524,636
-921.7404319948689,654
-919.0152582788041,630
-916.2908324361409,708
-913.5671542984834,664
-910.8442236973568,612
-908.1220404642074,648
-905.4006044304027,658
-902.679915427231,644
-899.959973285902,610
-897.2407778375464,623
-894.5223289132158,615
-891.8046263438832,634
-889.0876699604426,601
-886.3714595937089,651
-883.6559950744183,630
-880.9412762332282,627
-878.2273029007168,632
-875.5140749073835,627
-872.8015920836489,617
-870.0898542598545,614
-867.3788612662631,617
-864.6686129330585,659
-861.9591090903457,660
-859.2503495681506,610
-856.5423341964203,628
-853.8350628050229,641
-851.1285352237478,616
-848.4227512823054,628
-845.7177108103272,628
-843.0134136373656,633
-840.3098595928943,644
-837.6070485063082,668
-834.9049802069229,653
-832.2036545239757,656
-829.5030712866244,626
-826.8032303239481,627
-824.1041314649472,654
-821.4057745385428,632
-818.7081593735775,684
-816.0112857988148,650
-813.3151536429393,673
-810.6197627345566,651
-807.9251129021936,626
-805.2312039742981,664
-802.5380357792392,656
-799.8456081453069,656
-797.1539209007124,651
-794.462973873588,661
-791.772766891987,679
-789.083299783884,638
-786.3945723771743,673
-783.7065844996748,637
-781.0193359791231,630
-778.3328266431781,657
-775.6470563194197,648
-772.9620248353489,617
-770.2777320183878,640
-767.5941776958798,658
-764.9113616950891,671
-762.2292838432011,676
-759.5479439673222,636
-756.8673418944801,642
-754.1874774516235,658
-751.5083504656222,659
-748.8299607632671,686
-746.15230817127,662
-743.475392516264,672
-740.7992136248035,680
-738.1237713233636,686
-735.4490654383407,674
-732.7750957960521,686
-730.1018622227365,655
-727.4293645445534,687
-724.7576025875837,696
-722.0865761778291,670
-719.4162851412126,696
-716.7467293035781,725
-714.0779084906909,698
-711.409822528237,720
-708.7424712418238,710
-706.0758544569796,679
-703.4099719991541,689
-700.7448236937178,709
-698.0804093659622,714
-695.4167288411002,705
-692.7537819442656,709
-690.0915685005134,736
-687.4300883348199,692
-684.7693412720819,715
-682.1093271371178,707
-679.4500457546669,727
-676.7914969493897,740
-674.1336805458676,717
-671.4765963686034,735
-668.8202442420206,754
-666.1646239904642,724
-663.5097354382001,751
-660.8555784094151,746
-658.2021527282176,740
-655.5494582186366,769
-652.8974947046223,749
-650.2462620100463,728
-647.5957599587009,769
-644.9459883742998,764
-642.2969470804776,793
-639.6486359007902,798
-637.0010546587141,794
-634.3542031776476,778
-631.7080812809096,743
-629.0626887917401,709
-626.4180255333008,784
-623.7740913286734,786
-621.1308860008619,776
-618.4884093727904,779
-615.8466612673046,770
-613.2056415071715,779
-610.5653499150785,790
-607.9257863136347,792
-605.28695052537,759
-602.6488423727357,771
-600.0114616781036,742
-597.3748082637674,777
-594.7388819519412,768
-592.1036825647604,781
-589.4692099242818,849
-586.8354638524829,836
-584.2024441712624,763
-581.5701507024403,786
-578.9385832677575,788
-576.3077416888759,820
-573.6776257873787,830
-571.0482353847704,792
-568.4195703024757,804
-565.7916303618415,852
-563.164415384135,830
-560.5379251905453,813
-557.9121596021815,838
-555.2871184400748,830
-552.6628015251767,807
-550.0392086783606,800
-547.4163397204204,852
-544.794194472071,844
-542.1727727539491,808
-539.5520743866118,848
-536.9320991905377,859
-534.3128469861261,896
-531.6943175936979,890
-529.0765108334947,919
-526.4594265256793,998
-523.8430644903358,1120
-521.2274245474689,1167
-518.612506517005,1275
-515.9983102187913,1258
-513.3848354725959,1209
-510.77208209810846,1225
-508.16004991493924,1308
-505.5487387426199,1441
-502.9381484006032,1638
-500.3282787082628,1669
-497.71912948489364,1793
-495.1107005497117,1635
-492.5029917218539,1516
-489.8960028203786,1394
-487.28973366426493,1310
-484.68418407241325,1249
-482.07935386364494,1166
-479.47524285670266,1078
-476.87185087025,1096
-474.2691777228715,1074
-471.66722323307334,1059
-469.0659872192821,1015
-466.4654694998459,1036
-463.86566989303384,1059
-461.26658821703614,1091
-458.66822428996414,1069
-456.07057792985,1073
-453.4736489546475,992
-450.877437182231,1025
-448.28194243039627,1033
-445.68716451686,972
-443.09310325926003,981
-440.49975847515555,1019
-437.9071299820263,1025
-435.31521759727354,1002
-432.72402113821954,1062
-430.13354042210767,1151
-427.5437752661022,1032
-424.95472548728867,1018
-422.36639090267386,1059
-419.7787713291855,1089
-417.1918665836721,1089
-414.60567648290385,1126
-412.0202008435715,1137
-409.4354394822874,1152
-406.8513922155845,1188
-404.26805885991723,1112
-401.685439231661,1167
-399.103533147112,1105
-396.522340422488,1076
-393.9418608739278,1099
-391.3620943174908,1083
-388.7830405691583,1083
-386.2046994448317,994
-383.6270707603344,1045
-381.05015433141045,920
-378.473949973725,863
-375.8984575028645,784
-373.32367673433623,795
-370.74960748356875,789
-368.1762495659117,686
-365.60360279663576,612
-363.03166699093265,617
-360.4604419639154,557
-357.8899275306178,546
-355.32012350599507,545
-352.7510297049233,493
-350.1826459421999,500
-347.61497203254316,487
-345.04800779059235,506
-342.4817530309082,510
-339.91620756797226,499
-337.35137121618743,501
-334.7872437898774,547
-332.22382510328725,540
-329.66111497058273,488
-327.09911320585127,507
-324.53781962310075,552
-321.9772340362607,548
-319.4173562591816,542
-316.8581861056348,503
-314.2997233893127,500
-311.7419679238294,497
-309.1849195227194,490
-306.62857799943856,515
-304.0729431673641,563
-301.51801483979375,573
-298.963792829947,563
-296.41027695096386,554
-293.85746701590574,575
-291.3053628377552,605
-288.7539642294155,578
-286.2032710037115,560
-283.65328297338897,596
-281.1039999511146,684
-278.5554217494762,676
-276.007548180983,608
-273.4603790580651,600
-270.9139141930734,618
-268.3681533982807,615
-265.8230964858798,657
-263.27874326798565,621
-260.7350935566336,595
-258.1921471637804,649
-255.6499039013039,654
-253.10836358100266,631
-250.56752601459698,606
-248.02739101372765,629
-245.48795838995704,647
-242.94922795476816,632
-240.41119951956557,660
-237.8738728956746,722
-235.33724789434166,735
-232.80132432673452,701
-230.2661020039418,679
-227.73158073697357,687
-225.19776033676033,776
-222.66464061415422,829
-220.1322213799284,759
-217.60050244477725,691
-215.06948361931552,685
-212.53916471408013,717
-210.00954553952818,783
-207.48062590603843,693
-204.9524056239104,744
-202.4248845033651,847
-199.8980623545441,861
-197.37193898751036,790
-194.84651421224817,782
-192.32178783866232,822
-189.79775967657952,823
-187.27442953574644,903
-184.7517972258321,879
-182.2298625564256,817
-179.7086253370378,928
-177.18808537710026,873
-174.66824248596583,869
-172.14909647290835,904
-169.6306471471229,945
-167.11289431772548,903
-164.59583779375328,881
-162.07947738416453,895
-159.5638128978386,1016
-157.04884414357605,1325
-154.53457093009854,1481
-152.02099306604828,1273
-149.50811035998936,947
-146.99592262040665,913
-144.48442965570587,1039
-141.97363127421409,1183
-139.46352728417958,1382
-136.95411749377126,1632
-134.44540171107985,1480
-131.93737974411636,1160
-129.43005140081357,1211
-126.92341648902493,1722
-124.41747481652521,1980
-121.91222619101006,2264
-119.40767042009657,2748
-116.90380731132257,3273
-114.40063667214702,3091
-111.8981583099503,2333
-109.3963720320337,1822
-106.89527764561933,1998
-104.39487495785067,2651
-101.89516377579241,3596
-99.39614390642998,4352
-96.89781515667039,4779
-94.40017733334128,4722
-91.90323024319173,4986
-89.40697369289148,6610
-86.91140748903172,7650
-84.41653143812482,6449
-81.92234534660395,4240
-79.42884902082358,3203
-76.93604226705907,5451
-74.4439248915071,9712
-71.95249670028534,13874
-69.46175749943245,15314
-66.97170709490854,14369
-64.48234529259423,12187
-61.99367189829195,11433
-59.50568671772464,10645
-57.01838955653636,9640
-54.53178022029283,9608
-52.045858514480074,12095
-49.560624244506016,15097
-47.07607721569923,15724
-44.59221723330904,14186
-42.10904410250669,12835
-39.62655762838392,12148
-37.14475761595372,11604
-34.66364387015028,12411
-32.18321619582866,13435
-29.70347439776515,13972
-27.224418280657005,14679
-24.74604764912317,14723
-22.26836230770266,20124
-19.7913620608565,37085
-17.315046712966478,65040
-14.83941606833514,65040
-12.36446993118659,65040
-9.89020810566592,65040
-7.416630395839093,65040
-4.94373660569363,65040
-2.471526539137585,65040
-6.821210263296962E-13,65040
2.47084320796705,65040
4.941003281093458,65040
7.410480415786196,65040
9.879274808531363,65040
12.347386655893956,65040
14.814816154518212,65040
17.28156350112681,65040
19.74762889252179,65040
22.21301252558385,65040
24.67771459727237,21089
27.141735304626195,4528
29.605074844762612,2776
32.06773341487792,2513
34.52971121224755,2550
36.99100843422559,2268
39.45162527824516,1969
41.91156194181792,2097
44.370818622535126,1873
46.82939551806646,1583
49.287292826160524,1547
51.74451074464503,1484
54.201049471426245,1613
56.65690920448981,1582
59.112090141899785,1336
61.56659248179983,1251
64.02041642241159,1300
66.4735621620365,1335
68.92602989905402,1244
71.37781983192338,1210
73.82893215918205,1233
76.27936707944684,1307
78.72912479141326,1265
81.17820549385567,1216
83.62660938562783,1318
86.07433666566146,1257
88.5213875329681,1025
90.96776218663751,1065
93.41346082583925,1113
95.85848364982041,1131
98.30283085790859,1058
100.7465026495089,1337
103.18949922410604,1271
105.63182078126385,1247
108.07346752062438,1198
110.51443964190923,1026
112.95473734491827,1058
115.39436082953114,1076
117.83331029570547,1001
120.27158594347827,992
122.7091879729652,1078
125.1461165843615,1023
127.58237197794062,971
130.01795435405518,1028
132.4528639131364,1084
134.88710085569494,1005
137.32066538231982,919
139.75355769367923,949
142.1857779905207,956
144.61732647366978,1022
147.04820334403132,940
149.47840880258934,985
151.90794305040674,1097
154.33680628862487,1161
156.76499871846443,1320
159.19252054122433,1492
161.61937195828352,1667
164.04555317109896,1816
166.47106438120693,2034
168.89590579022217,2183
171.320077599839,2358
173.7435800118302,2456
176.16641322804742,2592
178.58857745042144,2843
181.01007288096173,3098
183.43089972175687,3029
185.85105817497413,3005
188.27054844285988,2956
190.6893707277394,2865
193.10752523201643,2988
195.5250121581745,3048
197.9418317087751,3034
200.3579840864594,3016
202.7734694939469,3158
205.18828813403627,3113
207.6024402096051,3204
210.01592592360964,3275
212.42874547908548,3291
214.84089907914665,3282
217.2523869269868,3270
219.66320922587727,3199
222.0733661791695,3169
224.48285799029293,3089
226.8916848627572,3047
229.29984700014882,3088
231.7073446061355,3333
234.11417788446204,3165
236.520347038953,3190
238.92585227351185,3160
241.33069379212054,3257
243.73487179884035,3335
246.1383864978112,3310
248.541238093252,3303
250.9434267894609,3190
253.34495279081432,3319
255.74581630176783,3321
258.1460175268563,3180
260.54555667069314,3190
262.9444339379703,3301
265.3426495334594,3165
267.7402036620107,3252
270.1370965285529,3180
272.53332833809407,2986
274.9288992957214,2872
277.32380960660055,3020
279.718059475976,3004
282.1116491091717,2980
284.5045787115897,2960
286.89684848871195,2966
289.2884586460981,3079
291.67940938938807,3053
294.0697009242996,2987
296.4593334566299,3025
298.84830719225477,2996
301.23662233712923,3051
303.6242790972866,2970
306.01127767884,2906
308.39761828798066,2811
310.78330113097934,2812
313.16832641418534,2851
315.5526943440269,2863
317.9364051270112,2753
320.3194589697242,2799
322.70185607883093,2627
325.0835966610754,2674
327.4646809232805,2756
329.8451090723478,2687
332.2248813152577,2698
334.6039978590701,2663
336.9824589109231,2665
339.36026467803447,2621
341.7374153677,2550
344.113911187295,2513
346.48975234427337,2524
348.8649390461686,2565
351.2394715005918,2605
353.61334991523415,2580
355.9865744978655,2487
358.35914545633375,2461
360.73106299856715,2570
363.10232733257146,2530
365.47293866643247,2529
367.84289720831396,2498
370.2122031664593,2499
372.5808567491905,2568
374.9488581649083,2522
377.31620762209275,2457
379.6829053293021,2387
382.0489514951745,2461
384.4143463284262,2394
386.7790900378528,2342
389.14318283232853,2264
391.50662492080653,2378
393.86941651231916,2461
396.23155781597745,2378
398.5930490409713,2405
400.9538903965696,2408
403.3140820921202,2425
405.6736243370498,2475
408.03251734086336,2339
410.3907613131465,2373
412.74835646356166,2340
415.10530300185144,2361
417.4616011378372,2308
419.81725108141893,2337
422.1722530425758,2370
424.5266072313656,2382
426.880313857925,2344
429.2333731324701,2302
431.58578526529516,2352
433.9375504667738,2324
436.2886689473588,2217
438.63914091758113,2246
440.9889665880513,2346
443.33814616945835,2275
445.68667987257015,2296
448.03456790823395,2273
450.3818104873759,2223
452.72840782100013,2281
455.07436012019105,2227
457.41966759611057,2251
459.7643304600007,2302
462.10834892318155,2252
464.4517231970525,2287
466.79445349309174,2274
469.1365400228566,2325
471.4779829979826,2309
473.81878263018564,2285
476.15893913125876,2400
478.4984527130747,2386
480.8373235875855,2506
483.17555196682144,2495
485.5131380628919,2597
487.8500820879857,2672
490.1863842543697,2959
492.52204477439034,3152
494.8570638604725,3343
497.1914417251204,3594
499.52517858091653,3881
501.85827464052306,3865
504.19073011668036,3898
506.5225452222086,3814
508.85372017000566,3593
511.18425517304956,3509
513.514150444396,3738
515.8434061971808,4771
518.1720226446176,5926
520.4999999999999,6148
522.8273384766991,5738
525.1540382881666,5208
527.480099647932,4552
529.8055227696037,3924
532.1303078668694,3216
534.454455153496,2728
536.777964843328,2649
539.1008371502907,2490
541.4230722883866,2547
543.744670471698,2488
546.0656319143858,2444
548.3859568306899,2438
550.7056454349294,2446
553.0246979415016,2507
555.3431145648834,2351
557.6608955196306,2351
559.978041020377,2322
562.2945512818363,2349
564.6104265188006,2395
566.9256669461412,2495
569.2402727788082,2369
571.5542442318302,2427
573.8675815203156,2396
576.1802848594508,2413
578.4923544645015,2430
580.8037905508126,2405
583.114593333807,2540
585.4247630289875,2369
587.7342998519354,2406
590.0432040183106,2461
592.3514757438526,2511
594.6591152443794,2409
596.9661227357875,2465
599.2724984340531,2413
601.578242555231,2390
603.8833553154542,2451
606.1878369309362,2423
608.4916876179676,2366
610.7949075929192,2327
613.0974970722403,2310
615.3994562724587,2411
617.7007854101818,2319
620.0014847020951,2311
622.3015543649641,2357
624.6009946156324,2328
626.8998056710224,2399
629.1979877481361,2434
631.4955410640538,2363
633.7924658359349,2440
636.0887622810175,2341
638.3844306166192,2360
640.6794710601358,2381
642.9738838290426,2421
645.2676691408932,2434
647.5608272133207,2329
649.853358264037,2348
652.1452625108324,2429
654.4365401715764,2382
656.7271914642178,2491
659.0172166067838,2522
661.3066158173809,2400
663.5953893141935,2411
665.8835373154867,2399
668.1710600396028,2419
670.4579577049639,2361
672.7442305300709,2363
675.0298787335033,2282
677.3149025339197,2348
679.599302150058,2392
681.8830778007342,2344
684.1662297048437,2366
686.4487580813608,2364
688.7306631493387,2429
691.0119451279091,2404
693.2926042362834,2365
695.5726406937516,2429
697.8520547196814,2416
700.1308465335215,2339
702.4090163547982,2373
704.6865644031171,2415
706.9634908981619,2358
709.2397960596965,2420
711.5154801075631,2303
713.7905432616823,2426
716.0649857420548,2381
718.3388077687592,2467
720.612009561953,2404
722.8845913418733,2403
725.1565533288352,2332
727.427895743234,2444
729.6986188055427,2356
731.9687227363137,2445
734.238207756178,2401
736.5070740858458,2344
738.7753219461066,2273
741.0429515578281,2394
743.3099631419569,2459
745.5763569195191,2480
747.8421331116193,2369
750.1072919394409,2377
752.3718336242467,2380
754.6357583873777,2441
756.8990664502545,2380
759.1617580343765,2371
761.423833361321,2403
763.6852926527457,2496
765.9461361303862,2447
768.206364016058,2497
770.4659765316536,2353
772.7249738991469,2382
774.9833563405886,2440
777.2411240781092,2439
779.4982773339183,2449
781.7548163303044,2434
784.010741289634,2365
786.2660524343538,2488
788.5207499869881,2429
790.7748341701416,2523
793.0283052064964,2399
795.2811633188143,2404
797.5334087299362,2435
799.7850416627813,2493
802.0360623403484,2525
804.2864709857143,2418
806.5362678220353,2457
808.7854530725468,2535
811.0340269605625,2494
813.2819897094754,2481
815.5293415427581,2445
817.77608268396,2505
820.0222133567116,2384
822.2677337847211,2448
824.5126441917765,2494
826.7569448017433,2424
829.0006358385675,2401
831.2437175262731,2431
833.4861900889629,2378
835.7280537508192,2450
837.9693087361026,2419
840.2099552691533,2470
842.4499935743896,2504
844.689423876309,2405
846.9282463994886,2577
849.1664613685833,2544
851.4040690083276,2486
853.6410695435349,2437
855.877463199097,2469
858.1132501999847,2428
860.3484307712487,2465
862.5830051380175,2500
864.8169735254988,2519
867.0503361589791,2567
869.2830932638243,2443
871.5152450654786,2449
873.7467917894654,2459
875.9777336613873,2529
878.2080709069252,2470
880.4378037518389,2501
882.666932421968,2528
884.8954571432301,2540
887.1233781416219,2640
889.3506956432192,2642
891.5774098741766,2507
893.803521060728,2536
896.0290294291852,2625
898.2539352059397,2574
900.4782386174619,2529
902.7019398903011,2507
904.925039251085,2591
907.147536926521,2514
909.3694331433943,2489
911.59072812857,2482
913.8114221089921,2468
916.0315153116827,2491
918.2510079637437,2443
920.4699002923547,2510
922.6881925247761,2436
924.905884888345,2459
927.1229776104793,2451
929.3394709186747,2430
931.555365040506,2458
933.7706602036275,2507
935.9853566357709,2451
938.1994545647489,2450
940.4129542184515,2464
942.6258558248488,2440
944.8381596119883,2412
947.0498658079974,2474
949.2609746410825,2440
951.4714863395287,2347
953.6814011316998,2411
955.8907192460387,2405
958.0994409110671,2352
960.3075663553858,2457
962.5150958076741,2332
964.7220294966913,2421
966.928367651274,2429
969.1341105003388,2335
971.3392582728806,2364
973.5438111979742,2376
975.747769504772,2420
977.9511334225061,2295
980.153903180487,2301
982.3560790081052,2288
984.5576611348289,2354
986.7586497902058,2283
988.9590452038618,2305
991.158847605503,2253
993.3580572249133,2234
995.5566742919558,2291
997.7546990365728,2161
999.952131688785,2103
1002.1489724786926,2160
1004.3452216364743,2134
1006.5408793923874,2106
1008.7359459767691,2151
1010.9304216200343,2074
1013.1243065526781,2074
1015.3176010052733,2075
1017.510305208472,2063
1019.7024193930064,2033
1021.8939437896848,2085
1024.0848786293977,2105
1026.2752241431122,2161
1028.4649805618747,2058
1030.6541481168115,2038
1032.842727039127,2003
1035.0307175601051,2028
1037.2181199111074,1970
1039.4049343235752,1995
1041.591161029029,2006
1043.7768002590683,1964
1045.9618522453698,1862
1048.1463172196918,1914
1050.3301954138697,2012
1052.513487059818,1994
1054.69619238953,1958
1056.8783116350783,1945
1059.0598450286152,2041
1061.2407928023704,2023
1063.4211551886528,1975
1065.6009324198508,1956
1067.780124728432,1926
1069.9587323469414,1923
1072.1367555080046,1982
1074.314194444325,2065
1076.4910493886855,1994
1078.667320573947,1935
1080.843008233051,1884
1083.0181125990161,1954
1085.1926339049414,1936
1087.3665723840027,1869
1089.5399282694575,1912
1091.7127017946405,1906
1093.8848931929647,1900
1096.0565026979243,1884
1098.2275305430899,1812
1100.3979769621128,1872
1102.567842188722,1856
1104.737126456726,1860
1106.9058300000124,1890
1109.0739530525475,1925
1111.2414958483764,1923
1113.4084586216231,1848
1115.5748416064907,1892
1117.7406450372605,1921
1119.9058691482942,1842
1122.0705141740304,1847
1124.2345803489884,1906
1126.3980679077658,1920
1128.5609770850388,1870
1130.7233081155623,1883
1132.8850612341707,1951
1135.0462366757774,1931
1137.2068346753745,1871
1139.3668554680326,1811
1141.526299288901,1850
1143.68516637321,1834
1145.8434569562655,1895
1148.001171273455,1864
1150.158309560244,1863
1152.3148720521767,1854
1154.470858984876,1837
1156.626270594044,1836
1158.7811071154629,1828
1160.9353687849912,1864
1163.089055838569,1798
1165.242168512213,1814
1167.3947070420209,1785
1169.5466716641677,1804
1171.6980626149075,1859
1173.8488801305748,1731
1175.9991244475814,1794
1178.1487958024186,1829
1180.2978944316555,1753
1182.4464205719428,1795
1184.5943744600072,1806
1186.7417563326567,1843
1188.8885664267755,1800
1191.0348049793297,1811
1193.1804722273619,1790
1195.325568407995,1872
1197.4700937584303,1845
1199.614048515948,1868
1201.7574329179074,1795
1203.900247201746,1900
1206.042491604982,1848
1208.1841663652099,1771
1210.3252717201053,1830
1212.465807907422,1778
1214.6057751649923,1814
1216.7451737307279,1890
1218.8840038426192,1818
1221.0222657387353,1820
1223.1599596572241,1858
1225.2970858363137,1853
1227.4336445143094,1899
1229.5696359295966,1884
1231.705060320639,1815
1233.8399179259786,1823
1235.9742089842384,1889
1238.107933734118,1861
1240.2410924143974,1954
1242.373685263935,1858
1244.5057125216676,1899
1246.6371744266116,1857
1248.7680712178621,1821
1250.898403134593,1863
1253.028170416058,1903
1255.1573733015875,1918
1257.2860120305932,1919
1259.4140868425648,1813
1261.54159797707,1873
1263.6685456737569,1932
1265.7949301723515,1929
1267.9207517126597,1995
1270.046010534565,1872
1272.1707068780306,1912
1274.2948409830983,1901
1276.4184130898889,1985
1278.541423438603,1998
1280.6638722695184,1965
1282.785759822993,1978
1284.9070863394636,1909
1287.0278520594447,1904
1289.1480572235314,2002
1291.2677020723963,2028
1293.3867868467923,1979
1295.5053117875495,1981
1297.623277135579,1969
1299.740683131868,2054
1301.8575300174857,2069
1303.973818033578,2039
1306.0895474213703,2063
1308.2047184221678,2027
1310.3193312773528,2018
1312.4333862283888,2066
1314.5468835168163,1935
1316.659823384255,2023
1318.7722060724045,2020
1320.8840318230418,1965
1322.9953008780249,2028
1325.1060134792888,2049
1327.2161698688478,2048
1329.3257702887959,1977
1331.4348149813054,2037
1333.5433041886276,2003
1335.6512381530933,1994
1337.7586171171101,1998
1339.8654413231675,2013
1341.9717110138317,2034
1344.0774264317488,2023
1346.1825878196432,1988
1348.2871954203192,1926
1350.3912494766587,2061
1352.4947502316231,1974
1354.5976979282532,2048
1356.7000928096686,1957
1358.8019351190665,1971
1360.9032250997243,1992
1363.0039629949988,2023
1365.1041490483235,1970
1367.2037835032133,1938
1369.3028666032606,2050
1371.401398592137,2025
1373.4993797135926,2032
1375.5968102114575,2008
1377.6936903296396,2102
1379.7900203121262,2024
1381.8858004029835,2072
1383.9810308463561,2020
1386.075711886469,2022
1388.1698437676241,2008
1390.2634267342032,2045
1392.356461030667,2062
1394.4489469015557,2057
1396.5408845914872,2154
1398.6322743451592,2096
1400.7231164073469,2092
1402.813411022907,2125
1404.903158436773,2128
1406.9923588939578,2113
1409.0810126395531,2124
1411.1691199187303,2154
1413.2566809767386,2112
1415.343696058907,2170
1417.4301654106425,2195
1419.5160892774315,2201
1421.6014679048399,2235
1423.6863015385125,2155
1425.7705904241707,2199
1427.8543348076178,2203
1429.9375349347342,2177
1432.0201910514802,2198
1434.102303403894,2197
1436.1838722380944,2310
1438.2648978002767,2324
1440.3453803367174,2243
1442.4253200937692,2244
1444.5047173178677,2375
1446.5835722555234,2435
1448.6618851533285,2464
1450.739656257952,2426
1452.8168858161434,2381
1454.8935740747306,2435
1456.96972128062,2464
1459.045327680797,2479
1461.120393522327,2534
1463.1949190523528,2550
1465.2689045180973,2602
1467.3423501668608,2635
1469.415256246024,2632
1471.4876230030463,2644
1473.559450685465,2669
1475.6307395408976,2702
1477.7014898170391,2915
1479.771701761665,2743
1481.8413756226287,2808
1483.9105116478618,2856
1485.9791100853772,2981
1488.0471711832643,2929
1490.1146951896926,2990
1492.1816823529098,3028
1494.2481329212433,3135
1496.3140471430984,3073
1498.3794252669609,3167
1500.4442675413939,3138
1502.5085742150404,3201
1504.572345536622,3287
1506.6355817549388,3230
1508.6982831188702,3336
1510.7604498773744,3290
1512.8220822794883,3382
1514.8831805743293,3413
1516.9437450110909,3441
1519.003775839048,3543
1521.0632733075522,3614
1523.1222376660367,3684
1525.1806691640113,3602
1527.2385680510652,3748
1529.2959345768668,3699
1531.3527689911643,3855
1533.4090715437833,4067
1535.4648424846291,3995
1537.5200820636855,3990
1539.5747905310159,4145
1541.6289681367616,4123
1543.6826151311434,4117
1545.7357317644614,4241
1547.7883182870937,4327
1549.8403749494987,4327
1551.8919020022113,4488
1553.9428996958477,4512
1555.9933682811015,4636
1558.0433080087469,4657
1560.0927191296346,4701
1562.1416018946961,4679
1564.1899565549415,4736
1566.2377833614592,4655
1568.2850825654164,4634
1570.3318544180606,4520
1572.3780991707158,4361
1574.423817074788,4156
1576.4690083817595,4035
1578.5136733431923,3838
1580.5578122107272,3635
1582.601425236085,3516
1584.6445126710646,3346
1586.6870747675434,3229
1588.7291117774776,3098
1590.7706239529034,2971
1592.8116115459347,2796
1594.8520748087658,2815
1596.8920139936686,2673
1598.9314293529933,2557
1600.9703211391711,2636
1603.008689604711,2472
1605.0465350022005,2426
1607.0838575843068,2327
1609.1206576037753,2286
1611.1569353134305,2326
1613.1926909661765,2280
1615.2279248149953,2221
1617.2626371129481,2196
1619.2968281131757,2204
1621.3304980688963,2202
1623.3636472334088,2131
1625.39627586009,2107
1627.428384202396,2082
1629.459972513861,2122
1631.4910410480993,2044
1633.5215900588028,2073
1635.551619799744,2079
1637.5811305247717,2038
1639.6101224878166,2053
1641.6385959428862,2072
1643.6665511440683,1995
1645.693988345528,1986
1647.7209078015112,1955
1649.7473097663405,1935
1651.7731944944203,1994
1653.7985622402307,1921
1655.823413258333,1984
1657.847747803366,1981
1659.8715661300494,2025
1661.8948684931793,1936
1663.9176551476316,1932
1665.9399263483624,1980
1667.9616823504057,2005
1669.982923408873,1924
1672.0036497789574,1964
1674.0238617159293,1925
1676.043559475138,1889
1678.0627433120121,1946
1680.081413482059,1943
1682.0995702408654,1940
1684.117213844096,1915
1686.134344547495,1893
1688.1509626068864,1926
1690.1670682781705,1912
1692.182661817329,1936
1694.1977434804217,1893
1696.2123135235875,1960
1698.226372203043,1946
1700.2399197750851,1970
1702.2529564960905,1949
1704.2654826225112,1940
1706.277498410882,1903
1708.2890041178139,1895
1710.2999999999988,1952
1712.3104863142066,1904
1714.3204633172854,1932
1716.329931266163,1857
1718.3388904178469,1869
1720.3473410294214,1911
1722.3552833580516,1925
1724.3627176609807,1922
1726.3696441955308,1876
1728.3760632191033,1928
1730.3819749891782,1892
1732.3873797633146,1874
1734.3922777991502,1870
1736.3966693544012,1881
1738.4005546868639,1877
1740.4039340544127,1892
1742.406807715001,1863
1744.4091759266616,1849
1746.4110389475054,1864
1748.4123970357223,1868
1750.413250449582,1849
1752.4135994474318,1869
1754.4134442876993,1796
1756.4127852288902,1817
1758.4116225295893,1873
1760.4099564484595,1781
1762.407787244244,1831
1764.405115175764,1817
1766.4019405019203,1841
1768.3982634816916,1857
1770.3940843741357,1814
1772.3894034383907,1818
1774.3842209336717,1836
1776.378537119274,1784
1778.372352254571,1829
1780.3656665990156,1845
1782.3584804121397,1795
1784.3507939535534,1844
1786.3426074829463,1800
1788.3339212600863,1813
1790.3247355448211,1809
1792.3150505970766,1882
1794.3048666768573,1792
1796.2941840442477,1780
1798.2830029594106,1845
1800.2713236825884,1802
1802.2591464741004,1795
1804.2464715943465,1777
1806.2332993038058,1771
1808.2196298630352,1858
1810.2054635326708,1796
1812.190800573428,1816
1814.175641246101,1862
1816.1599858115628,1854
1818.1438345307652,1763
1820.127187664738,1813
1822.1100454745924,1806
1824.092408221516,1839
1826.0742761667766,1755
1828.055649571721,1858
1830.0365286977735,1799
1832.0169138064398,1804
1833.9968051593014,1796
1835.9762030180214,1836
1837.9551076443408,1761
1839.9335193000788,1815
1841.9114382471344,1775
1843.888864747485,1783
1845.8657990631878,1782
1847.842241456378,1774
1849.8181921892697,1798
1851.7936515241558,1719
1853.7686197234098,1760
1855.7430970494815,1797
1857.7170837649014,1772
1859.6905801322787,1742
1861.6635864143004,1814
1863.6361028737338,1799
1865.608129773424,1770
1867.5796673762961,1754
1869.5507159453537,1773
1871.521275743678,1810
1873.4913470344313,1763
1875.4609300808534,1734
1877.4300251462632,1776
1879.3986324940588,1692
1881.366752387717,1796
1883.3343850907936,1806
1885.3015308669228,1740
1887.268189979819,1780
1889.2343626932739,1837
1891.2000492711595,1830
1893.1652499774254,1796
1895.1299650761011,1836
1897.0941948312952,1812
1899.0579395071945,1820
1901.0211993680641,1812
1902.98397467825,1776
1904.9462657021745,1868
1906.9080727043415,1743
1908.869395949332,1770
1910.8302357018065,1814
1912.790592226504,1821
1914.7504657882428,1819
1916.7098566519212,1737
1918.6687650825133,1777
1920.6271913450764,1751
1922.5851357047422,1747
1924.5425984267245,1766
1926.499579776314,1758
1928.4560800188833,1796
1930.4120994198802,1794
1932.367638244833,1814
1934.32269675935,1798
1936.2772752291175,1781
1938.231373919899,1750
1940.1849930975404,1814
1942.1381330279637,1843
1944.0907939771696,1766
1946.0429762112412,1676
1947.9946799963363,1747
1949.9459055986945,1792
1951.896653284633,1717
1953.8469233205478,1748
1955.7967159729142,1762
1957.7460315082863,1800
1959.6948701932974,1809
1961.6432322946594,1762
1963.5911180791632,1779
1965.5385278136787,1822
1967.4854617651545,1772
1969.4319202006182,1767
1971.377903387176,1807
1973.3234115920136,1727
1975.268445082395,1732
1977.2130041256642,1740
1979.1570889892423,1796
1981.1006999406304,1783
1983.04383724741,1761
1984.986501177238,1770
1986.928691997853,1732
1988.8704099770712,1706
1990.811655382789,1828
1992.7524284829801,1827
1994.692729545698,1761
1996.6325588390755,1763
1998.5719166313224,1707
2000.5108031907307,1781
2002.4492187856677,1729
2004.387163684583,1708
2006.3246381560011,1777
2008.2616424685298,1794
2010.1981768908527,1726
2012.1342416917332,1765
2014.069837140014,1750
2016.0049635046162,1736
2017.9396210545406,1791
2019.8738100588666,1700
2021.8075307867502,1694
2023.740783507431,1644
2025.6735684902228,1699
2027.6058860045214,1668
2029.5377363198004,1759
2031.4691197056118,1716
2033.4000364315875,1690
2035.3304867674374,1666
2037.260470982952,1718
2039.189989347998,1747
2041.1190421325232,1719
2043.047629606554,1686
2044.9757520401945,1730
2046.9034097036288,1719
2048.8306028671195,1737
2050.7573318010086,1732
2052.683596775716,1776
2054.609398061742,1769
2056.5347359296647,1726
2058.4596106501403,1692
2060.384022493906,1656
2062.3079717317764,1694
2064.231458634646,1725
2066.1544834734873,1730
2068.077046519352,1708
2069.99914804337,1754
2071.9207883167524,1727
2073.8419676107865,1737
2075.7626861968406,1742
2077.6829443463607,1725
2079.6027423308715,1664
2081.522080421977,1799
2083.440958891362,1734
2085.359378010786,1727
2087.2773380520907,1738
2089.194839287196,1688
2091.111881988101,1733
2093.0284664268825,1695
2094.9445928756973,1763
2096.86026160678,1762
2098.775472892446,1773
2100.690227005088,1706
2102.604524217178,1756
2104.5183648012676,1685
2106.431749029985,1755
2108.34467717604,1754
2110.2571495122206,1750
2112.169166311393,1756
2114.080727846503,1784
2115.9918343905747,1808
2117.902486216711,1669
2119.8126835980956,1707
2121.722426807987,1687
2123.6317161197285,1822
2125.5405518067364,1754
2127.448934142509,1772
2129.356863400624,1738
2131.264339854737,1744
2133.1713637785815,1851
2135.077935445972,1816
2136.9840551308002,1769
2138.889723107037,1804
2140.7949396487334,1850
2142.699705030018,1785
2144.6040195250994,1785
2146.507883408264,1823
2148.4112969538774,1781
2150.3142604363848,1784
2152.2167741303097,1772
2154.1188383102535,1793
2156.0204532508997,1833
2157.9216192270064,1854
2159.822336513414,1832
2161.7226053850413,1844
2163.622426116884,1789
2165.5217989840185,1825
2167.4207242616,1804
2169.319202224862,1846
2171.2172331491165,1848
2173.1148173097563,1895
2175.0119549822507,1912
2176.90864644215,1835
2178.8048919650823,1914
2180.7006918267534,1890
2182.596046302952,1916
2184.4909556695407,1866
2186.3854202024645,1840
2188.279440177746,1926
2190.173015871487,1865
2192.066147559868,1839
2193.958835519149,1816
2195.851080025667,1874
2197.7428813558417,1841
2199.6342397861667,1862
2201.5251555932186,1877
2203.415629053651,1858
2205.3056604441986,1871
2207.19525004167,1889
2209.084398122958,1872
2210.9731049650327,1957
2212.861370844941,1946
2214.749196039812,1930
2216.636580826851,1980
2218.523525483344,1990
2220.410030286655,1905
2222.296095514226,1923
2224.1817214435805,1903
2226.066908352319,1938
2227.951656518121,1926
2229.835966218746,1904
2231.71983773203,1836
2233.6032713358913,1939
2235.486267308324,1893
2237.3688259274036,1916
2239.2509474712824,1912
2241.132632218193,1955
2243.013880446447,1896
2244.8946924344323,1959
2246.7750684606203,1913
2248.6550088035574,1996
2250.534513741871,1958
2252.413583554265,1949
2254.292218519526,1850
2256.170418916517,1851
2258.0481850241786,1905
2259.925517121534,1958
2261.8024154876825,1900
2263.678880401803,1937
2265.5549121431536,1972
2267.430510991071,1880
2269.305677224971,1922
2271.180411124348,1891
2273.0547129687766,1879
2274.9285830379076,1846
2276.8020216114737,1833
2278.6750289692845,1821
2280.5476053912294,1801
2282.4197511572766,1845
2284.2914665474727,1961
2286.162751841943,1924
2288.0336073208937,1902
2289.904033264608,1973
2291.774029953448,1946
2293.6435976678554,1945
2295.5127366883517,1948
2297.381447295534,1859
2299.2497297700825,1787
2301.1175843927526,1761
2302.9850114443825,1767
2304.852011205885,1726
2306.7185839582553,1610
2308.5847299825664,1671
2310.4504495599676,1654
2312.3157429716925,1706
2314.1806104990483,1638
2316.0450524234247,1663
2317.9090690262888,1605
2319.772660589186,1569
2321.635827393742,1592
2323.498569721661,1581
2325.3608878547248,1537
2327.2227820747967,1624
2329.0842526638157,1564
2330.945299903803,1615
2332.805924076857,1617
2334.6661254651535,1596
2336.525904350951,1596
2338.3852610165827,1627
2340.244195744464,1536
2342.102708817088,1549
2343.9608005170253,1600
2345.8184711269287,1586
2347.675720929526,1591
2349.532550207628,1608
2351.38895924412,1579
2353.24494832197,1587
2355.100517724223,1700
2356.955667734004,1633
2358.810398634514,1590
2360.664710709037,1570
2362.5186042409337,1566
2364.3720795136437,1577
2366.225136810686,1630
2368.0777764156583,1576
2369.929998612237,1669
2371.7818036841777,1665
2373.633191915315,1673
2375.484163589562,1627
2377.3347189909114,1645
2379.184858403434,1633
2381.03458211128,1634
2382.8838903986775,1632
2384.732783549936,1625
2386.5812618494406,1642
2388.4293255816588,1647
2390.2769750311327,1603
2392.1242104824883,1636
2393.971032220427,1653
2395.8174405297295,1663
2397.6634356952563,1661
2399.509018001947,1644
2401.3541877348193,1629
2403.1989451789705,1591
2405.043290619576,1627
2406.8872243418905,1694
2408.730746631247,1591
2410.5738577730594,1617
2412.4165580528183,1571
2414.258847756095,1637
2416.100727168537,1644
2417.9421965758734,1676
2419.783256263912,1695
2421.623906518538,1649
2423.4641476257157,1686
2425.303979871491,1647
2427.143403541984,1620
2428.9824189233977,1645
2430.821026302012,1619
2432.6592259641866,1643
2434.497018196361,1705
2436.33440328505,1644
2438.171381516851,1681
2440.00795317844,1673
2441.844118556569,1660
2443.6798779380724,1727
2445.5152316098606,1699
2447.3501798589255,1688
2449.1847229723357,1691
2451.0188612372403,1660
2452.8525949408663,1671
2454.6859243705203,1700
2456.518849813587,1582
2458.3513715575314,1624
2460.183489889895,1701
2462.015205098301,1669
2463.8465174704493,1642
2465.67742729412,1684
2467.5079348571717,1652
2469.338040447542,1697
2471.1677443532476,1685
2472.9970468623833,1679
2474.825948263123,1661
2476.6544488437207,1735
2478.482548892508,1590
2480.310248697896,1663
2482.137548548374,1642
2483.9644487325118,1688
2485.790949538956,1669
2487.617051256433,1734
2489.44275417375,1601
2491.26805857979,1620
2493.0929647635157,1649
2494.917473013971,1619
2496.741583620276,1689
2498.5652968716304,1752
2500.3886130573137,1684
2502.2115324666834,1723
2504.0340553891765,1687
2505.856182114308,1724
2507.6779129316733,1754
2509.499248130945,1710
2511.3201880018764,1674
2513.140732834298,1708
2514.9608829181198,1742
2516.780638543331,1714
2518.6,1749
2520.418967578273,1733
2522.237541568376,1775
2524.0557222606144,1752
2525.8735099453706,1749
2527.6909049131086,1710
2529.507907454368,1728
2531.32451785977,1804
2533.140736420014,1823
2534.9565634258774,1799
2536.771999168218,1707
2538.5870439379714,1822
2540.4016980261526,1832
2542.2159617238544,1835
2544.02983532225,1822
2545.8433191125914,1839
2547.656413386209,1774
2549.4691184345115,1866
2551.2814345489874,1805
2553.093362021204,1878
2554.904901142808,1884
2556.716052205523,1877
2558.526815501153,1845
2560.3371913215824,1803
2562.147179958771,1821
2563.956781704761,1879
2565.7659968516705,1900
2567.5748256916986,1917
2569.3832685171224,1917
2571.1913256202984,1961
2572.9989972936614,1904
2574.806283829725,1931
2576.613185521084,1976
2578.4197026604074,1900
2580.2258355404483,1935
2582.031584454035,1947
2583.836949694077,2040
2585.6419315535613,1927
2587.4465303255533,1991
2589.2507463032002,1994
2591.0545797797245,2014
2592.8580310484303,2009
2594.6611004026995,2095
2596.463788135992,2000
2598.266094541849,2092
2600.0680199138874,2044
2601.869564545807,2037
2603.670728731383,2101
2605.4715127644704,2129
2607.2719169390048,2112
2609.071941548998,2171
2610.8715868885433,2064
2612.670853251811,2089
2614.469740933052,2062
2616.268250226594,2102
2618.0663814268455,2104
2619.864134828292,2067
2621.6615107255006,2069
2623.458509413115,2015
2625.2551311858597,2030
2627.0513763385347,2087
2628.8472451660223,2028
2630.6427379632833,2008
2632.4378550253564,1990
2634.232596647359,1984
2636.026963124488,2007
2637.8209547520187,1993
2639.6145718253065,1951
2641.407814639785,1944
2643.200683490966,1890
2644.9931786744414,1958
2646.7853004858807,1976
2648.577049221034,1987
2650.3684251757277,1946
2652.1594286458712,1879
2653.9500599274484,1884
2655.740319316525,1845
2657.5302071092437,1871
2659.3197236018286,1819
2661.10886909058,1827
2662.8976438718782,1772
2664.686048242183,1824
2666.4740824980327,1848
2668.2617469360443,1818
2670.0490418529134,1830
2671.8359675454153,1759
2673.622524310403,1730
2675.408712444811,1728
2677.1945322456495,1745
2678.979984010009,1792
2680.76506803506,1726
2682.5497846180497,1749
2684.334134056306,1700
2686.1181166472343,1701
2687.9017326883213,1733
2689.6849824771293,1773
2691.4678663113013,1733
2693.2503844885596,1682
2695.032537306705,1769
2696.8143250636167,1766
2698.5957480572542,1674
2700.3768065856534,1719
2702.1575009469316,1716
2703.937831439283,1673
2705.717798360982,1666
2707.4974020103837,1666
2709.276642685917,1678
2711.055520686095,1703
2712.834036309506,1629
2714.612189854819,1656
2716.389981620782,1646
2718.1674119062204,1656
2719.944481010041,1619
2721.721189231226,1739
2723.4975368688415,1617
2725.273524222027,1645
2727.0491515900053,1625
2728.824419272075,1693
2730.5993275676146,1684
2732.3738767760838,1619
2734.148067197016,1612
2735.921899130031,1658
2737.6953728748194,1739
2739.468488731156,1600
2741.2412469988926,1623
2743.0136479779617,1659
2744.785691968372,1537
2746.5573792702116,1562
2748.3287101836504,1609
2750.099685008934,1636
2751.870304046388,1561
2753.640567596418,1681
2755.4104759595057,1588
2757.1800294362156,1612
2758.949228327187,1530
2760.7180729331412,1624
2762.486563554877,1681
2764.254700493272,1610
2766.022484049284,1631
2767.789914523947,1610
2769.5569922183786,1606
2771.3237174337705,1551
2773.090090471394,1589
2774.8561116326036,1591
2776.6217812188274,1618
2778.3870995315756,1625
2780.1520668724356,1630
2781.9166835430747,1622
2783.6809498452394,1565
2785.444866080754,1611
2787.2084325515225,1548
2788.971649559527,1639
2790.73451740683,1631
2792.4970363955713,1594
2794.2592068279705,1565
2796.0210290063264,1568
2797.7825032330147,1554
2799.543629810493,1553
2801.304409041296,1594
2803.0648412280366,1577
2804.8249266734088,1593
2806.5846656801846,1601
2808.344058551212,1652
2810.1031055894246,1618
2811.8618070978273,1603
2813.6201633795085,1673
2815.378174737636,1588
2817.1358414754536,1635
2818.893163896285,1607
2820.6501423035334,1635
2822.4067770006814,1584
2824.1630682912883,1538
2825.9190164789957,1621
2827.6746218675207,1619
2829.429884760661,1568
2831.184805462294,1603
2832.9393842763743,1663
2834.693621506936,1612
2836.4475174580916,1586
2838.201072434034,1637
2839.954286739034,1548
2841.707160677441,1634
2843.459694553685,1583
2845.2118886722724,1556
2846.96374333779,1624
2848.7152588549034,1598
2850.4664355283567,1565
2852.217273662973,1558
2853.9677735636546,1614
2855.7179355353833,1576
2857.4677598832186,1613
2859.217246912299,1615
2860.9663969278427,1578
2862.715210235146,1620
2864.4636871395846,1606
2866.211827946614,1537
2867.9596329617652,1562
2869.7071024906536,1582
2871.4542368389684,1574
2873.20103631248,1558
2874.947501217038,1629
2876.6936318585695,1556
2878.4394285430812,1606
2880.1848915766604,1614
2881.9300212654707,1623
2883.6748179157553,1539
2885.4192818338374,1603
2887.1634133261173,1595
2888.907212699077,1619
2890.6506802592744,1613
2892.393816313348,1596
2894.1366211680142,1559
2895.8790951300693,1598
2897.621238506388,1620
2899.363051603925,1558
2901.1045347297118,1587
2902.8456881908596,1573
2904.58651229456,1619
2906.327007348081,1626
2908.067173658772,1599
2909.8070115340597,1647
2911.5465212814497,1584
2913.285703208527,1593
2915.0245576229563,1571
2916.7630848324807,1622
2918.5012851449196,1596
2920.2391588681758,1613
2921.976706310227,1598
2923.7139277791334,1619
2925.4508235830313,1567
2927.187394030137,1591
2928.923639428745,1541
2930.6595600872306,1599
2932.395156314046,1590
2934.1304284177218,1610
2935.8653767068713,1568
2937.6000014901815,1584
2939.3343030764227,1599
2941.068281774442,1564
2942.8019378931644,1603
2944.5352717415976,1515
2946.2682836288236,1567
2948.0009738640065,1637
2949.7333427563885,1677
2951.465390615289,1575
2953.1971177501086,1606
2954.9285244703265,1564
2956.6596110855,1580
2958.3903779052657,1651
2960.1208252393385,1607
2961.8509533975125,1550
2963.5807626896617,1614
2965.3102534257378,1586
2967.0394259157715,1629
2968.768280469873,1562
2970.496817398232,1618
2972.2250370111146,1602
2973.952939618869,1631
2975.6805255319196,1608
2977.4077950607707,1596
2979.134748516006,1640
2980.861386208289,1597
2982.587708448359,1654
2984.313715547037,1642
2986.039407815222,1618
2987.764785563891,1582
2989.489849104102,1636
2991.2145987469908,1549
2992.9390348037705,1588
2994.6631575857346,1615
2996.3869674042576,1585
2998.1104645707887,1583
2999.83364939686,1604
3001.5565221940783,1568
3003.2790832741334,1590
3005.0013329487924,1602
3006.7232715298996,1599
3008.4448993293804,1579
3010.166216659239,1578
3011.887223831558,1576
3013.607921158498,1528
3015.3283089522993,1574
3017.0483875252826,1569
3018.7681571898443,1571
3020.4876182584626,1592
3022.2067710436927,1597
3023.9256158581707,1590
3025.644153014609,1580
3027.362382825801,1678
3029.0803056046193,1631
3030.797921664012,1576
3032.5152313170106,1586
3034.2322348767225,1533
3035.9489326563353,1603
3037.665324969115,1568
3039.3814121284063,1571
3041.097194447633,1588
3042.812672240299,1570
3044.5278458199855,1640
3046.2427155003525,1569
3047.9572815951406,1562
3049.671544418167,1593
3051.38550428333,1592
3053.0991615046073,1564
3054.812516396051,1486
3056.5255692717974,1604
3058.2383204460575,1598
3059.9507702331257,1537
3061.662918947372,1508
3063.3747669032446,1497
3065.0863144152736,1643
3066.7975617980674,1541
3068.508509366309,1540
3070.219157434767,1576
3071.9295063182844,1639
3073.639556331785,1572
3075.3493077902704,1595
3077.058761008821,1622
3078.7679163025964,1585
3080.476773986837,1597
3082.1853343768594,1587
3083.89359778806,1582
3085.6015645359153,1654
3087.3092349359786,1546
3089.016609303884,1563
3090.7236879553434,1551
3092.4304712061476,1577
3094.136959372166,1641
3095.843152769349,1624
3097.5490517137237,1581
3099.2546565213966,1643
3100.959967508554,1607
3102.66498499146,1633
3104.3697092864577,1602
3106.0741407099695,1600
3107.778279578498,1596
3109.482126208622,1546
3111.1856809170004,1584
3112.8889440203716,1612
3114.5919158355528,1650
3116.294596679439,1553
3117.996986869006,1578
3119.6990867213062,1613
3121.4008965534726,1671
3123.102416682717,1632
3124.803647426329,1631
3126.5045891016784,1655
3128.205242026213,1600
3129.90560651746,1645
3131.605682893025,1612
3133.3054714705922,1628
3135.0049725679282,1602
3136.7041865028714,1629
3138.4031135933465,1599
3140.101754157353,1605
3141.800108512971,1612
3143.498176978357,1608
3145.1959598717494,1517
3146.8934575114636,1623
3148.5906702158954,1613
3150.2875983035183,1587
3151.9842420928853,1633
3153.680601902627,1586
3155.376678051456,1632
3157.07247085816,1591
3158.767980641609,1644
3160.463207720748,1606
3162.158152414606,1595
3163.8528150422862,1607
3165.5471959229726,1623
3167.2412953759303,1627
3168.9351137204976,1616
3170.628651276098,1643
3172.3219083622307,1641
3174.014885298474,1550
3175.707582404485,1588
3177.4000000000005,1600
3179.092138404835,1618
3180.7839979388846,1557
3182.47557892212,1589
3184.166881674594,1612
3185.8579065164386,1607
3187.5486537678626,1625
3189.2391237491547,1599
3190.9293167806827,1566
3192.6192331828934,1581
3194.3088732763117,1587
3195.998237381542,1548
3197.687325819268,1579
3199.376138910251,1621
3201.064676975334,1603
3202.7529403354347,1566
3204.4409293115523,1603
3206.1286442247647,1548
3207.816085396229,1566
3209.5032531471825,1526
3211.190147798936,1583
3212.8767696728846,1546
3214.5631190905015,1553
3216.2491963733373,1511
3217.9350018430214,1539
3219.6205358212637,1527
3221.305798629851,1576
3222.990790590651,1548
3224.6755120256103,1527
3226.359963256751,1567
3228.0441446061795,1553
3229.7280563960758,1505
3231.411698948703,1558
3233.0950725863995,1607
3234.778177631587,1517
3236.461014406761,1583
3238.1435832345005,1540
3239.8258844374595,1555
3241.507918338374,1589
3243.1896852600576,1565
3244.8711855254023,1585
3246.552419457381,1595
3248.233387379042,1566
3249.914089613516,1680
3251.59452648401,1590
3253.274698313813,1598
3254.95460542629,1512
3256.6342481448855,1552
3258.313626793125,1548
3259.9927416946084,1499
3261.6715931730196,1538
3263.3501815521176,1523
3265.0285071557437,1550
3266.706570307815,1547
3268.3843713323286,1516
3270.0619105533615,1594
3271.739188295068,1540
3273.4162048816834,1566
3275.0929606375184,1556
3276.769455886966,1604
3278.445690954498,1607
3280.1216661646613,1591
3281.797381842087,1591
3283.4728383114807,1586
3285.1480358976296,1555
3286.8229749253996,1534
3288.4976557197333,1610
3290.172078605655,1612
3291.846243908266,1585
3293.5201519527463,1485
3295.193803064357,1595
3296.8671975684374,1484
3298.5403357904024,1493
3300.21321805575,1523
3301.8858446900567,1535
3303.558216018975,1542
3305.23033236824,1595
3306.9021940636603,1554
3308.57380143113,1546
3310.2451547966184,1565
3311.916254486174,1546
3313.5871008259246,1557
3315.2576941420766,1572
3316.9280347609147,1591
3318.5981230088046,1553
3320.2679592121895,1584
3321.9375436975924,1481
3323.606876791612,1496
3325.27595882093,1598
3326.944790112305,1565
3328.6133709925753,1522
3330.2817017886573,1505
3331.949782827547,1552
3333.617614436319,1523
3335.2851969421245,1556
3336.952530672199,1531
3338.619615953853,1614
3340.286453114475,1500
3341.9530424815357,1617
3343.619384382583,1593
3345.2854791452437,1494
3346.951327097224,1554
3348.6169285663073,1502
3350.2822838803577,1564
3351.947393367319,1571
3353.61225735521,1575
3355.2768761721345,1558
3356.9412501462693,1473
3358.605379605873,1556
3360.2692648792827,1561
3361.9329062949146,1574
3363.596304181263,1546
