CollectionTime,7/9/2024 11:11:19 AM
ExposureUsed,3
CalibratedSpectrum
-962.7078968117929,544
-959.9714848408522,568
-957.2358232597828,623
-954.5009119013725,560
-951.7667505983302,542
-949.0333391832855,563
-946.3006774887896,591
-943.5687653473143,591
-940.837602591253,564
-938.1071890529199,575
-935.3775245645503,604
-932.6486089583007,607
-929.9204420662485,612
-927.1930237203925,611
-924.4663537526524,607
-921.7404319948689,597
-919.0152582788041,575
-916.2908324361409,618
-913.5671542984834,618
-910.8442236973568,598
-908.1220404642074,575
-905.4006044304027,588
-902.679915427231,592
-899.959973285902,623
-897.2407778375464,555
-894.5223289132158,610
-891.8046263438832,585
-889.0876699604426,569
-886.3714595937089,589
-883.6559950744183,575
-880.9412762332282,548
-878.2273029007168,572
-875.5140749073835,578
-872.8015920836489,585
-870.0898542598545,584
-867.3788612662631,573
-864.6686129330585,549
-861.9591090903457,573
-859.2503495681506,593
-856.5423341964203,582
-853.8350628050229,570
-851.1285352237478,547
-848.4227512823054,587
-845.7177108103272,619
-843.0134136373656,579
-840.3098595928943,612
-837.6070485063082,609
-834.9049802069229,609
-832.2036545239757,608
-829.5030712866244,607
-826.8032303239481,576
-824.1041314649472,581
-821.4057745385428,584
-818.7081593735775,580
-816.0112857988148,611
-813.3151536429393,633
-810.6197627345566,614
-807.9251129021936,601
-805.2312039742981,578
-802.5380357792392,572
-799.8456081453069,563
-797.1539209007124,611
-794.462973873588,634
-791.772766891987,608
-789.083299783884,582
-786.3945723771743,593
-783.7065844996748,588
-781.0193359791231,582
-778.3328266431781,630
-775.6470563194197,644
-772.9620248353489,589
-770.2777320183878,614
-767.5941776958798,613
-764.9113616950891,590
-762.2292838432011,585
-759.5479439673222,583
-756.8673418944801,635
-754.1874774516235,636
-751.5083504656222,619
-748.8299607632671,623
-746.15230817127,599
-743.475392516264,635
-740.7992136248035,645
-738.1237713233636,602
-735.4490654383407,589
-732.7750957960521,580
-730.1018622227365,665
-727.4293645445534,654
-724.7576025875837,635
-722.0865761778291,651
-719.4162851412126,630
-716.7467293035781,665
-714.0779084906909,659
-711.409822528237,654
-708.7424712418238,674
-706.0758544569796,648
-703.4099719991541,649
-700.7448236937178,650
-698.0804093659622,683
-695.4167288411002,711
-692.7537819442656,669
-690.0915685005134,654
-687.4300883348199,652
-684.7693412720819,642
-682.1093271371178,631
-679.4500457546669,672
-676.7914969493897,693
-674.1336805458676,682
-671.4765963686034,646
-668.8202442420206,685
-666.1646239904642,700
-663.5097354382001,704
-660.8555784094151,671
-658.2021527282176,704
-655.5494582186366,724
-652.8974947046223,711
-650.2462620100463,650
-647.5957599587009,698
-644.9459883742998,731
-642.2969470804776,710
-639.6486359007902,793
-637.0010546587141,739
-634.3542031776476,721
-631.7080812809096,693
-629.0626887917401,699
-626.4180255333008,699
-623.7740913286734,699
-621.1308860008619,700
-618.4884093727904,688
-615.8466612673046,732
-613.2056415071715,730
-610.5653499150785,731
-607.9257863136347,736
-605.28695052537,758
-602.6488423727357,706
-600.0114616781036,718
-597.3748082637674,698
-594.7388819519412,737
-592.1036825647604,762
-589.4692099242818,797
-586.8354638524829,747
-584.2024441712624,761
-581.5701507024403,760
-578.9385832677575,759
-576.3077416888759,761
-573.6776257873787,706
-571.0482353847704,744
-568.4195703024757,765
-565.7916303618415,775
-563.164415384135,809
-560.5379251905453,750
-557.9121596021815,762
-555.2871184400748,749
-552.6628015251767,755
-550.0392086783606,731
-547.4163397204204,767
-544.794194472071,774
-542.1727727539491,812
-539.5520743866118,840
-536.9320991905377,813
-534.3128469861261,810
-531.6943175936979,818
-529.0765108334947,852
-526.4594265256793,944
-523.8430644903358,1084
-521.2274245474689,1128
-518.612506517005,1235
-515.9983102187913,1212
-513.3848354725959,1123
-510.77208209810846,1216
-508.16004991493924,1313
-505.5487387426199,1435
-502.9381484006032,1648
-500.3282787082628,1747
-497.71912948489364,1686
-495.1107005497117,1683
-492.5029917218539,1542
-489.8960028203786,1348
-487.28973366426493,1201
-484.68418407241325,1139
-482.07935386364494,1075
-479.47524285670266,1059
-476.87185087025,968
-474.2691777228715,1020
-471.66722323307334,1027
-469.0659872192821,988
-466.4654694998459,1033
-463.86566989303384,1034
-461.26658821703614,1013
-458.66822428996414,965
-456.07057792985,998
-453.4736489546475,974
-450.877437182231,942
-448.28194243039627,971
-445.68716451686,953
-443.09310325926003,911
-440.49975847515555,932
-437.9071299820263,886
-435.31521759727354,947
-432.72402113821954,986
-430.13354042210767,966
-427.5437752661022,994
-424.95472548728867,974
-422.36639090267386,993
-419.7787713291855,970
-417.1918665836721,1072
-414.60567648290385,1096
-412.0202008435715,1065
-409.4354394822874,1087
-406.8513922155845,1049
-404.26805885991723,1062
-401.685439231661,1056
-399.103533147112,1051
-396.522340422488,1032
-393.9418608739278,1007
-391.3620943174908,982
-388.7830405691583,993
-386.2046994448317,937
-383.6270707603344,919
-381.05015433141045,887
-378.473949973725,855
-375.8984575028645,794
-373.32367673433623,743
-370.74960748356875,730
-368.1762495659117,696
-365.60360279663576,618
-363.03166699093265,596
-360.4604419639154,576
-357.8899275306178,562
-355.32012350599507,560
-352.7510297049233,545
-350.1826459421999,517
-347.61497203254316,503
-345.04800779059235,516
-342.4817530309082,521
-339.91620756797226,502
-337.35137121618743,507
-334.7872437898774,523
-332.22382510328725,536
-329.66111497058273,530
-327.09911320585127,492
-324.53781962310075,538
-321.9772340362607,581
-319.4173562591816,573
-316.8581861056348,544
-314.2997233893127,507
-311.7419679238294,507
-309.1849195227194,525
-306.62857799943856,540
-304.0729431673641,585
-301.51801483979375,555
-298.963792829947,531
-296.41027695096386,596
-293.85746701590574,623
-291.3053628377552,601
-288.7539642294155,566
-286.2032710037115,554
-283.65328297338897,596
-281.1039999511146,661
-278.5554217494762,662
-276.007548180983,627
-273.4603790580651,595
-270.9139141930734,619
-268.3681533982807,635
-265.8230964858798,605
-263.27874326798565,606
-260.7350935566336,603
-258.1921471637804,619
-255.6499039013039,617
-253.10836358100266,674
-250.56752601459698,667
-248.02739101372765,699
-245.48795838995704,674
-242.94922795476816,647
-240.41119951956557,665
-237.8738728956746,724
-235.33724789434166,744
-232.80132432673452,709
-230.2661020039418,694
-227.73158073697357,711
-225.19776033676033,787
-222.66464061415422,875
-220.1322213799284,811
-217.60050244477725,731
-215.06948361931552,711
-212.53916471408013,780
-210.00954553952818,783
-207.48062590603843,711
-204.9524056239104,750
-202.4248845033651,900
-199.8980623545441,909
-197.37193898751036,860
-194.84651421224817,827
-192.32178783866232,827
-189.79775967657952,840
-187.27442953574644,923
-184.7517972258321,1008
-182.2298625564256,911
-179.7086253370378,928
-177.18808537710026,813
-174.66824248596583,856
-172.14909647290835,987
-169.6306471471229,1030
-167.11289431772548,1017
-164.59583779375328,963
-162.07947738416453,961
-159.5638128978386,1103
-157.04884414357605,1208
-154.53457093009854,1321
-152.02099306604828,1250
-149.50811035998936,975
-146.99592262040665,914
-144.48442965570587,1033
-141.97363127421409,1200
-139.46352728417958,1418
-136.95411749377126,1511
-134.44540171107985,1391
-131.93737974411636,1131
-129.43005140081357,1366
-126.92341648902493,1850
-124.41747481652521,2232
-121.91222619101006,2544
-119.40767042009657,3202
-116.90380731132257,3771
-114.40063667214702,3637
-111.8981583099503,2657
-109.3963720320337,1917
-106.89527764561933,2127
-104.39487495785067,2772
-101.89516377579241,3747
-99.39614390642998,4736
-96.89781515667039,5118
-94.40017733334128,5211
-91.90323024319173,5721
-89.40697369289148,7398
-86.91140748903172,9163
-84.41653143812482,7827
-81.92234534660395,4912
-79.42884902082358,3466
-76.93604226705907,6117
-74.4439248915071,12019
-71.95249670028534,16405
-69.46175749943245,18429
-66.97170709490854,16567
-64.48234529259423,14016
-61.99367189829195,12061
-59.50568671772464,11500
-57.01838955653636,10096
-54.53178022029283,10069
-52.045858514480074,12123
-49.560624244506016,15843
-47.07607721569923,17083
-44.59221723330904,16703
-42.10904410250669,14450
-39.62655762838392,12887
-37.14475761595372,11573
-34.66364387015028,10686
-32.18321619582866,11189
-29.70347439776515,11093
-27.224418280657005,11690
-24.74604764912317,13086
-22.26836230770266,18412
-19.7913620608565,35096
-17.315046712966478,65039
-14.83941606833514,65039
-12.36446993118659,65039
-9.89020810566592,65039
-7.416630395839093,65039
-4.94373660569363,65039
-2.471526539137585,65039
-6.821210263296962E-13,65039
2.47084320796705,65039
4.941003281093458,65039
7.410480415786196,65039
9.879274808531363,65039
12.347386655893956,65039
14.814816154518212,65039
17.28156350112681,65039
19.74762889252179,65039
22.21301252558385,65039
24.67771459727237,21350
27.141735304626195,4431
29.605074844762612,2755
32.06773341487792,2260
34.52971121224755,2430
36.99100843422559,2544
39.45162527824516,2137
41.91156194181792,2138
44.370818622535126,1841
46.82939551806646,1519
49.287292826160524,1689
51.74451074464503,1791
54.201049471426245,1829
56.65690920448981,1669
59.112090141899785,1491
61.56659248179983,1251
64.02041642241159,1281
66.4735621620365,1326
68.92602989905402,1292
71.37781983192338,1238
73.82893215918205,1222
76.27936707944684,1361
78.72912479141326,1242
81.17820549385567,1298
83.62660938562783,1512
86.07433666566146,1339
88.5213875329681,1085
90.96776218663751,1143
93.41346082583925,1260
95.85848364982041,1278
98.30283085790859,1221
100.7465026495089,1287
103.18949922410604,1286
105.63182078126385,1286
108.07346752062438,1378
110.51443964190923,1126
112.95473734491827,1024
115.39436082953114,1058
117.83331029570547,1076
120.27158594347827,1094
122.7091879729652,1088
125.1461165843615,943
127.58237197794062,939
130.01795435405518,916
132.4528639131364,1053
134.88710085569494,1087
137.32066538231982,1125
139.75355769367923,1010
142.1857779905207,964
144.61732647366978,1011
147.04820334403132,1068
149.47840880258934,979
151.90794305040674,1101
154.33680628862487,1190
156.76499871846443,1292
159.19252054122433,1502
161.61937195828352,1635
164.04555317109896,1816
166.47106438120693,1971
168.89590579022217,2217
171.320077599839,2373
173.7435800118302,2424
176.16641322804742,2533
178.58857745042144,2752
181.01007288096173,2996
183.43089972175687,2960
185.85105817497413,2992
188.27054844285988,2840
190.6893707277394,2836
193.10752523201643,2914
195.5250121581745,2887
197.9418317087751,2974
200.3579840864594,2991
202.7734694939469,3015
205.18828813403627,3025
207.6024402096051,3037
210.01592592360964,3147
212.42874547908548,3239
214.84089907914665,3221
217.2523869269868,3091
219.66320922587727,3017
222.0733661791695,3040
224.48285799029293,3134
226.8916848627572,3022
229.29984700014882,3033
231.7073446061355,3161
234.11417788446204,3037
236.520347038953,3030
238.92585227351185,3089
241.33069379212054,3124
243.73487179884035,3243
246.1383864978112,3305
248.541238093252,3187
250.9434267894609,3146
253.34495279081432,3163
255.74581630176783,3071
258.1460175268563,3068
260.54555667069314,3240
262.9444339379703,3116
265.3426495334594,3116
267.7402036620107,3203
270.1370965285529,3069
272.53332833809407,2945
274.9288992957214,2935
277.32380960660055,2919
279.718059475976,2899
282.1116491091717,2930
284.5045787115897,2893
286.89684848871195,2914
289.2884586460981,2905
291.67940938938807,2912
294.0697009242996,2906
296.4593334566299,2850
298.84830719225477,2926
301.23662233712923,2780
303.6242790972866,2903
306.01127767884,2705
308.39761828798066,2818
310.78330113097934,2769
313.16832641418534,2658
315.5526943440269,2711
317.9364051270112,2637
320.3194589697242,2652
322.70185607883093,2690
325.0835966610754,2644
327.4646809232805,2688
329.8451090723478,2593
332.2248813152577,2492
334.6039978590701,2476
336.9824589109231,2560
339.36026467803447,2543
341.7374153677,2561
344.113911187295,2487
346.48975234427337,2513
348.8649390461686,2584
351.2394715005918,2487
353.61334991523415,2566
355.9865744978655,2472
358.35914545633375,2488
360.73106299856715,2480
363.10232733257146,2307
365.47293866643247,2454
367.84289720831396,2374
370.2122031664593,2359
372.5808567491905,2370
374.9488581649083,2368
377.31620762209275,2475
379.6829053293021,2349
382.0489514951745,2248
384.4143463284262,2371
386.7790900378528,2285
389.14318283232853,2306
391.50662492080653,2307
393.86941651231916,2321
396.23155781597745,2347
398.5930490409713,2288
400.9538903965696,2293
403.3140820921202,2263
405.6736243370498,2264
408.03251734086336,2244
410.3907613131465,2269
412.74835646356166,2229
415.10530300185144,2281
417.4616011378372,2290
419.81725108141893,2266
422.1722530425758,2254
424.5266072313656,2193
426.880313857925,2255
429.2333731324701,2254
431.58578526529516,2252
433.9375504667738,2250
436.2886689473588,2272
438.63914091758113,2224
440.9889665880513,2124
443.33814616945835,2198
445.68667987257015,2201
448.03456790823395,2167
450.3818104873759,2142
452.72840782100013,2177
455.07436012019105,2228
457.41966759611057,2172
459.7643304600007,2136
462.10834892318155,2232
464.4517231970525,2197
466.79445349309174,2168
469.1365400228566,2266
471.4779829979826,2323
473.81878263018564,2228
476.15893913125876,2285
478.4984527130747,2317
480.8373235875855,2382
483.17555196682144,2412
485.5131380628919,2495
487.8500820879857,2641
490.1863842543697,2802
492.52204477439034,3061
494.8570638604725,3280
497.1914417251204,3689
499.52517858091653,3827
501.85827464052306,3989
504.19073011668036,3951
506.5225452222086,3762
508.85372017000566,3677
511.18425517304956,3621
513.514150444396,3813
515.8434061971808,4773
518.1720226446176,6029
520.4999999999999,6225
522.8273384766991,5977
525.1540382881666,5286
527.480099647932,4547
529.8055227696037,3783
532.1303078668694,3125
534.454455153496,2736
536.777964843328,2590
539.1008371502907,2500
541.4230722883866,2435
543.744670471698,2392
546.0656319143858,2433
548.3859568306899,2360
550.7056454349294,2333
553.0246979415016,2312
555.3431145648834,2340
557.6608955196306,2247
559.978041020377,2352
562.2945512818363,2381
564.6104265188006,2338
566.9256669461412,2379
569.2402727788082,2430
571.5542442318302,2414
573.8675815203156,2298
576.1802848594508,2417
578.4923544645015,2459
580.8037905508126,2468
583.114593333807,2443
585.4247630289875,2445
587.7342998519354,2437
590.0432040183106,2414
592.3514757438526,2440
594.6591152443794,2384
596.9661227357875,2395
599.2724984340531,2444
601.578242555231,2388
603.8833553154542,2382
606.1878369309362,2383
608.4916876179676,2384
610.7949075929192,2274
613.0974970722403,2290
615.3994562724587,2384
617.7007854101818,2386
620.0014847020951,2352
622.3015543649641,2339
624.6009946156324,2327
626.8998056710224,2300
629.1979877481361,2341
631.4955410640538,2352
633.7924658359349,2335
636.0887622810175,2301
638.3844306166192,2323
640.6794710601358,2346
642.9738838290426,2411
645.2676691408932,2408
647.5608272133207,2328
649.853358264037,2392
652.1452625108324,2354
654.4365401715764,2392
656.7271914642178,2397
659.0172166067838,2384
661.3066158173809,2287
663.5953893141935,2359
665.8835373154867,2351
668.1710600396028,2330
670.4579577049639,2268
672.7442305300709,2277
675.0298787335033,2300
677.3149025339197,2324
679.599302150058,2355
681.8830778007342,2287
684.1662297048437,2328
686.4487580813608,2315
688.7306631493387,2395
691.0119451279091,2312
693.2926042362834,2360
695.5726406937516,2343
697.8520547196814,2341
700.1308465335215,2287
702.4090163547982,2355
704.6865644031171,2240
706.9634908981619,2319
709.2397960596965,2354
711.5154801075631,2356
713.7905432616823,2375
716.0649857420548,2317
718.3388077687592,2333
720.612009561953,2258
722.8845913418733,2463
725.1565533288352,2286
727.427895743234,2364
729.6986188055427,2259
731.9687227363137,2283
734.238207756178,2309
736.5070740858458,2317
738.7753219461066,2365
741.0429515578281,2382
743.3099631419569,2219
745.5763569195191,2343
747.8421331116193,2382
750.1072919394409,2264
752.3718336242467,2298
754.6357583873777,2363
756.8990664502545,2365
759.1617580343765,2355
761.423833361321,2365
763.6852926527457,2382
765.9461361303862,2275
768.206364016058,2313
770.4659765316536,2396
772.7249738991469,2304
774.9833563405886,2358
777.2411240781092,2365
779.4982773339183,2247
781.7548163303044,2331
784.010741289634,2353
786.2660524343538,2475
788.5207499869881,2314
790.7748341701416,2315
793.0283052064964,2368
795.2811633188143,2306
797.5334087299362,2438
799.7850416627813,2338
802.0360623403484,2260
804.2864709857143,2308
806.5362678220353,2324
808.7854530725468,2337
811.0340269605625,2337
813.2819897094754,2322
815.5293415427581,2392
817.77608268396,2402
820.0222133567116,2395
822.2677337847211,2340
824.5126441917765,2343
826.7569448017433,2486
829.0006358385675,2339
831.2437175262731,2487
833.4861900889629,2421
835.7280537508192,2366
837.9693087361026,2403
840.2099552691533,2340
842.4499935743896,2367
844.689423876309,2378
846.9282463994886,2430
849.1664613685833,2438
851.4040690083276,2372
853.6410695435349,2339
855.877463199097,2359
858.1132501999847,2434
860.3484307712487,2341
862.5830051380175,2338
864.8169735254988,2409
867.0503361589791,2465
869.2830932638243,2445
871.5152450654786,2471
873.7467917894654,2431
875.9777336613873,2392
878.2080709069252,2446
880.4378037518389,2481
882.666932421968,2403
884.8954571432301,2403
887.1233781416219,2423
889.3506956432192,2467
891.5774098741766,2500
893.803521060728,2471
896.0290294291852,2429
898.2539352059397,2409
900.4782386174619,2469
902.7019398903011,2407
904.925039251085,2426
907.147536926521,2451
909.3694331433943,2409
911.59072812857,2449
913.8114221089921,2449
916.0315153116827,2311
918.2510079637437,2352
920.4699002923547,2323
922.6881925247761,2357
924.905884888345,2370
927.1229776104793,2338
929.3394709186747,2361
931.555365040506,2339
933.7706602036275,2351
935.9853566357709,2424
938.1994545647489,2380
940.4129542184515,2365
942.6258558248488,2321
944.8381596119883,2387
947.0498658079974,2404
949.2609746410825,2345
951.4714863395287,2321
953.6814011316998,2261
955.8907192460387,2330
958.0994409110671,2317
960.3075663553858,2262
962.5150958076741,2334
964.7220294966913,2297
966.928367651274,2301
969.1341105003388,2296
971.3392582728806,2299
973.5438111979742,2311
975.747769504772,2291
977.9511334225061,2266
980.153903180487,2269
982.3560790081052,2196
984.5576611348289,2214
986.7586497902058,2231
988.9590452038618,2171
991.158847605503,2201
993.3580572249133,2096
995.5566742919558,2222
997.7546990365728,2155
999.952131688785,2085
1002.1489724786926,2092
1004.3452216364743,2111
1006.5408793923874,1959
1008.7359459767691,1970
1010.9304216200343,2045
1013.1243065526781,1988
1015.3176010052733,1904
1017.510305208472,1948
1019.7024193930064,1986
1021.8939437896848,1913
1024.0848786293977,1935
1026.2752241431122,1935
1028.4649805618747,1943
1030.6541481168115,1955
1032.842727039127,1896
1035.0307175601051,1908
1037.2181199111074,1868
1039.4049343235752,1869
1041.591161029029,1890
1043.7768002590683,1887
1045.9618522453698,1865
1048.1463172196918,1843
1050.3301954138697,1911
1052.513487059818,1865
1054.69619238953,1910
1056.8783116350783,1904
1059.0598450286152,1943
1061.2407928023704,1850
1063.4211551886528,1820
1065.6009324198508,1860
1067.780124728432,1864
1069.9587323469414,1915
1072.1367555080046,1932
1074.314194444325,1857
1076.4910493886855,1850
1078.667320573947,1832
1080.843008233051,1863
1083.0181125990161,1822
1085.1926339049414,1863
1087.3665723840027,1856
1089.5399282694575,1808
1091.7127017946405,1819
1093.8848931929647,1806
1096.0565026979243,1808
1098.2275305430899,1815
1100.3979769621128,1769
1102.567842188722,1788
1104.737126456726,1806
1106.9058300000124,1867
1109.0739530525475,1732
1111.2414958483764,1844
1113.4084586216231,1758
1115.5748416064907,1696
1117.7406450372605,1770
1119.9058691482942,1818
1122.0705141740304,1747
1124.2345803489884,1752
1126.3980679077658,1820
1128.5609770850388,1838
1130.7233081155623,1776
1132.8850612341707,1756
1135.0462366757774,1770
1137.2068346753745,1733
1139.3668554680326,1758
1141.526299288901,1772
1143.68516637321,1711
1145.8434569562655,1694
1148.001171273455,1763
1150.158309560244,1797
1152.3148720521767,1743
1154.470858984876,1678
1156.626270594044,1745
1158.7811071154629,1693
1160.9353687849912,1730
1163.089055838569,1706
1165.242168512213,1699
1167.3947070420209,1648
1169.5466716641677,1731
1171.6980626149075,1624
1173.8488801305748,1715
1175.9991244475814,1660
1178.1487958024186,1705
1180.2978944316555,1681
1182.4464205719428,1684
1184.5943744600072,1682
1186.7417563326567,1687
1188.8885664267755,1735
1191.0348049793297,1728
1193.1804722273619,1715
1195.325568407995,1746
1197.4700937584303,1697
1199.614048515948,1717
1201.7574329179074,1631
1203.900247201746,1712
1206.042491604982,1742
1208.1841663652099,1674
1210.3252717201053,1712
1212.465807907422,1726
1214.6057751649923,1692
1216.7451737307279,1727
1218.8840038426192,1691
1221.0222657387353,1762
1223.1599596572241,1691
1225.2970858363137,1744
1227.4336445143094,1730
1229.5696359295966,1722
1231.705060320639,1684
1233.8399179259786,1787
1235.9742089842384,1819
1238.107933734118,1790
1240.2410924143974,1741
1242.373685263935,1803
1244.5057125216676,1738
1246.6371744266116,1832
1248.7680712178621,1743
1250.898403134593,1707
1253.028170416058,1762
1255.1573733015875,1812
1257.2860120305932,1750
1259.4140868425648,1764
1261.54159797707,1726
1263.6685456737569,1734
1265.7949301723515,1762
1267.9207517126597,1713
1270.046010534565,1786
1272.1707068780306,1805
1274.2948409830983,1759
1276.4184130898889,1869
1278.541423438603,1830
1280.6638722695184,1818
1282.785759822993,1830
1284.9070863394636,1802
1287.0278520594447,1821
1289.1480572235314,1833
1291.2677020723963,1839
1293.3867868467923,1842
1295.5053117875495,1849
1297.623277135579,1881
1299.740683131868,1866
1301.8575300174857,1887
1303.973818033578,1913
1306.0895474213703,1909
1308.2047184221678,1896
1310.3193312773528,1871
1312.4333862283888,1892
1314.5468835168163,1936
1316.659823384255,1819
1318.7722060724045,1843
1320.8840318230418,1890
1322.9953008780249,1841
1325.1060134792888,1851
1327.2161698688478,1873
1329.3257702887959,1892
1331.4348149813054,1878
1333.5433041886276,1867
1335.6512381530933,1842
1337.7586171171101,1826
1339.8654413231675,1907
1341.9717110138317,1941
1344.0774264317488,1844
1346.1825878196432,1880
1348.2871954203192,1842
1350.3912494766587,1875
1352.4947502316231,1869
1354.5976979282532,1810
1356.7000928096686,1812
1358.8019351190665,1861
1360.9032250997243,1840
1363.0039629949988,1812
1365.1041490483235,1858
1367.2037835032133,1819
1369.3028666032606,1872
1371.401398592137,1889
1373.4993797135926,1914
1375.5968102114575,1858
1377.6936903296396,1866
1379.7900203121262,1894
1381.8858004029835,1832
1383.9810308463561,1938
1386.075711886469,1897
1388.1698437676241,1886
1390.2634267342032,1954
1392.356461030667,1903
1394.4489469015557,1860
1396.5408845914872,1896
1398.6322743451592,1990
1400.7231164073469,1926
1402.813411022907,1982
1404.903158436773,1928
1406.9923588939578,2004
1409.0810126395531,1993
1411.1691199187303,1980
1413.2566809767386,1952
1415.343696058907,1939
1417.4301654106425,1948
1419.5160892774315,2050
1421.6014679048399,2012
1423.6863015385125,2083
1425.7705904241707,2031
1427.8543348076178,2027
1429.9375349347342,2055
1432.0201910514802,2055
1434.102303403894,2082
1436.1838722380944,2134
1438.2648978002767,2034
1440.3453803367174,2115
1442.4253200937692,2179
1444.5047173178677,2130
1446.5835722555234,2190
1448.6618851533285,2194
1450.739656257952,2175
1452.8168858161434,2270
1454.8935740747306,2242
1456.96972128062,2207
1459.045327680797,2254
1461.120393522327,2259
1463.1949190523528,2391
1465.2689045180973,2349
1467.3423501668608,2398
1469.415256246024,2443
1471.4876230030463,2558
1473.559450685465,2485
1475.6307395408976,2475
1477.7014898170391,2561
1479.771701761665,2571
1481.8413756226287,2574
1483.9105116478618,2643
1485.9791100853772,2675
1488.0471711832643,2695
1490.1146951896926,2829
1492.1816823529098,2748
1494.2481329212433,2678
1496.3140471430984,2772
1498.3794252669609,2826
1500.4442675413939,2912
1502.5085742150404,2981
1504.572345536622,2873
1506.6355817549388,2890
1508.6982831188702,3011
1510.7604498773744,2997
1512.8220822794883,3069
1514.8831805743293,3087
1516.9437450110909,3088
1519.003775839048,3171
1521.0632733075522,3254
1523.1222376660367,3180
1525.1806691640113,3194
1527.2385680510652,3311
1529.2959345768668,3302
1531.3527689911643,3450
1533.4090715437833,3503
1535.4648424846291,3595
1537.5200820636855,3563
1539.5747905310159,3715
1541.6289681367616,3766
1543.6826151311434,3803
1545.7357317644614,3830
1547.7883182870937,3778
1549.8403749494987,3945
1551.8919020022113,3935
1553.9428996958477,4053
1555.9933682811015,4112
1558.0433080087469,4142
1560.0927191296346,4265
1562.1416018946961,4140
1564.1899565549415,4334
1566.2377833614592,4248
1568.2850825654164,4309
1570.3318544180606,4212
1572.3780991707158,4141
1574.423817074788,3974
1576.4690083817595,3758
1578.5136733431923,3546
1580.5578122107272,3406
1582.601425236085,3255
1584.6445126710646,3205
1586.6870747675434,2994
1588.7291117774776,2971
1590.7706239529034,2816
1592.8116115459347,2686
1594.8520748087658,2584
1596.8920139936686,2459
1598.9314293529933,2383
1600.9703211391711,2384
1603.008689604711,2361
1605.0465350022005,2313
1607.0838575843068,2253
1609.1206576037753,2152
1611.1569353134305,2205
1613.1926909661765,2130
1615.2279248149953,2064
1617.2626371129481,2009
1619.2968281131757,2012
1621.3304980688963,2028
1623.3636472334088,2001
1625.39627586009,1994
1627.428384202396,1949
1629.459972513861,1995
1631.4910410480993,1974
1633.5215900588028,1971
1635.551619799744,1959
1637.5811305247717,1885
1639.6101224878166,1827
1641.6385959428862,1900
1643.6665511440683,1904
1645.693988345528,1831
1647.7209078015112,1808
1649.7473097663405,1863
1651.7731944944203,1856
1653.7985622402307,1782
1655.823413258333,1879
1657.847747803366,1859
1659.8715661300494,1824
1661.8948684931793,1842
1663.9176551476316,1874
1665.9399263483624,1856
1667.9616823504057,1844
1669.982923408873,1922
1672.0036497789574,1812
1674.0238617159293,1868
1676.043559475138,1854
1678.0627433120121,1844
1680.081413482059,1802
1682.0995702408654,1760
1684.117213844096,1820
1686.134344547495,1845
1688.1509626068864,1800
1690.1670682781705,1823
1692.182661817329,1809
1694.1977434804217,1814
1696.2123135235875,1797
1698.226372203043,1821
1700.2399197750851,1820
1702.2529564960905,1840
1704.2654826225112,1851
1706.277498410882,1760
1708.2890041178139,1843
1710.2999999999988,1790
1712.3104863142066,1739
1714.3204633172854,1853
1716.329931266163,1809
1718.3388904178469,1822
1720.3473410294214,1775
1722.3552833580516,1777
1724.3627176609807,1791
1726.3696441955308,1761
1728.3760632191033,1773
1730.3819749891782,1725
1732.3873797633146,1721
1734.3922777991502,1765
1736.3966693544012,1727
1738.4005546868639,1734
1740.4039340544127,1758
1742.406807715001,1721
1744.4091759266616,1725
1746.4110389475054,1780
1748.4123970357223,1735
1750.413250449582,1809
1752.4135994474318,1779
1754.4134442876993,1767
1756.4127852288902,1770
1758.4116225295893,1792
1760.4099564484595,1726
1762.407787244244,1803
1764.405115175764,1745
1766.4019405019203,1656
1768.3982634816916,1708
1770.3940843741357,1780
1772.3894034383907,1740
1774.3842209336717,1707
1776.378537119274,1703
1778.372352254571,1699
1780.3656665990156,1695
1782.3584804121397,1686
1784.3507939535534,1685
1786.3426074829463,1663
1788.3339212600863,1766
1790.3247355448211,1703
1792.3150505970766,1706
1794.3048666768573,1724
1796.2941840442477,1692
1798.2830029594106,1760
1800.2713236825884,1718
1802.2591464741004,1714
1804.2464715943465,1728
1806.2332993038058,1735
1808.2196298630352,1733
1810.2054635326708,1703
1812.190800573428,1681
1814.175641246101,1739
1816.1599858115628,1771
1818.1438345307652,1752
1820.127187664738,1724
1822.1100454745924,1725
1824.092408221516,1714
1826.0742761667766,1692
1828.055649571721,1758
1830.0365286977735,1654
1832.0169138064398,1706
1833.9968051593014,1701
1835.9762030180214,1681
1837.9551076443408,1708
1839.9335193000788,1726
1841.9114382471344,1708
1843.888864747485,1753
1845.8657990631878,1760
1847.842241456378,1701
1849.8181921892697,1741
1851.7936515241558,1701
1853.7686197234098,1723
1855.7430970494815,1683
1857.7170837649014,1716
1859.6905801322787,1736
1861.6635864143004,1690
1863.6361028737338,1686
1865.608129773424,1708
1867.5796673762961,1734
1869.5507159453537,1719
1871.521275743678,1803
1873.4913470344313,1771
1875.4609300808534,1729
1877.4300251462632,1755
1879.3986324940588,1738
1881.366752387717,1725
1883.3343850907936,1751
1885.3015308669228,1724
1887.268189979819,1769
1889.2343626932739,1700
1891.2000492711595,1737
1893.1652499774254,1731
1895.1299650761011,1684
1897.0941948312952,1762
1899.0579395071945,1733
1901.0211993680641,1744
1902.98397467825,1730
1904.9462657021745,1667
1906.9080727043415,1702
1908.869395949332,1784
1910.8302357018065,1709
1912.790592226504,1715
1914.7504657882428,1706
1916.7098566519212,1742
1918.6687650825133,1648
1920.6271913450764,1751
1922.5851357047422,1708
1924.5425984267245,1719
1926.499579776314,1696
1928.4560800188833,1654
1930.4120994198802,1705
1932.367638244833,1742
1934.32269675935,1732
1936.2772752291175,1706
1938.231373919899,1675
1940.1849930975404,1748
1942.1381330279637,1716
1944.0907939771696,1723
1946.0429762112412,1665
1947.9946799963363,1731
1949.9459055986945,1697
1951.896653284633,1741
1953.8469233205478,1670
1955.7967159729142,1727
1957.7460315082863,1659
1959.6948701932974,1673
1961.6432322946594,1666
1963.5911180791632,1667
1965.5385278136787,1675
1967.4854617651545,1671
1969.4319202006182,1681
1971.377903387176,1659
1973.3234115920136,1731
1975.268445082395,1663
1977.2130041256642,1672
1979.1570889892423,1758
1981.1006999406304,1684
1983.04383724741,1684
1984.986501177238,1693
1986.928691997853,1695
1988.8704099770712,1642
1990.811655382789,1681
1992.7524284829801,1671
1994.692729545698,1659
1996.6325588390755,1661
1998.5719166313224,1631
2000.5108031907307,1692
2002.4492187856677,1592
2004.387163684583,1690
2006.3246381560011,1618
2008.2616424685298,1691
2010.1981768908527,1626
2012.1342416917332,1606
2014.069837140014,1670
2016.0049635046162,1606
2017.9396210545406,1604
2019.8738100588666,1602
2021.8075307867502,1680
2023.740783507431,1643
2025.6735684902228,1688
2027.6058860045214,1600
2029.5377363198004,1645
2031.4691197056118,1643
2033.4000364315875,1650
2035.3304867674374,1619
2037.260470982952,1652
2039.189989347998,1691
2041.1190421325232,1577
2043.047629606554,1599
2044.9757520401945,1675
2046.9034097036288,1659
2048.8306028671195,1634
2050.7573318010086,1630
2052.683596775716,1691
2054.609398061742,1624
2056.5347359296647,1630
2058.4596106501403,1691
2060.384022493906,1685
2062.3079717317764,1680
2064.231458634646,1696
2066.1544834734873,1679
2068.077046519352,1644
2069.99914804337,1619
2071.9207883167524,1631
2073.8419676107865,1686
2075.7626861968406,1574
2077.6829443463607,1634
2079.6027423308715,1673
2081.522080421977,1645
2083.440958891362,1629
2085.359378010786,1697
2087.2773380520907,1608
2089.194839287196,1687
2091.111881988101,1674
2093.0284664268825,1641
2094.9445928756973,1654
2096.86026160678,1647
2098.775472892446,1630
2100.690227005088,1669
2102.604524217178,1687
2104.5183648012676,1665
2106.431749029985,1679
2108.34467717604,1638
2110.2571495122206,1718
2112.169166311393,1661
2114.080727846503,1649
2115.9918343905747,1623
2117.902486216711,1647
2119.8126835980956,1670
2121.722426807987,1681
2123.6317161197285,1739
2125.5405518067364,1668
2127.448934142509,1715
2129.356863400624,1685
2131.264339854737,1714
2133.1713637785815,1726
2135.077935445972,1753
2136.9840551308002,1745
2138.889723107037,1667
2140.7949396487334,1716
2142.699705030018,1668
2144.6040195250994,1810
2146.507883408264,1801
2148.4112969538774,1713
2150.3142604363848,1701
2152.2167741303097,1734
2154.1188383102535,1676
2156.0204532508997,1714
2157.9216192270064,1733
2159.822336513414,1712
2161.7226053850413,1727
2163.622426116884,1697
2165.5217989840185,1712
2167.4207242616,1671
2169.319202224862,1661
2171.2172331491165,1739
2173.1148173097563,1698
2175.0119549822507,1811
2176.90864644215,1804
2178.8048919650823,1751
2180.7006918267534,1785
2182.596046302952,1795
2184.4909556695407,1721
2186.3854202024645,1789
2188.279440177746,1807
2190.173015871487,1790
2192.066147559868,1799
2193.958835519149,1815
2195.851080025667,1737
2197.7428813558417,1796
2199.6342397861667,1786
2201.5251555932186,1783
2203.415629053651,1732
2205.3056604441986,1843
2207.19525004167,1856
2209.084398122958,1807
2210.9731049650327,1862
2212.861370844941,1770
2214.749196039812,1783
2216.636580826851,1861
2218.523525483344,1856
2220.410030286655,1797
2222.296095514226,1842
2224.1817214435805,1840
2226.066908352319,1862
2227.951656518121,1829
2229.835966218746,1750
2231.71983773203,1834
2233.6032713358913,1872
2235.486267308324,1856
2237.3688259274036,1835
2239.2509474712824,1839
2241.132632218193,1790
2243.013880446447,1769
2244.8946924344323,1797
2246.7750684606203,1784
2248.6550088035574,1821
2250.534513741871,1867
2252.413583554265,1849
2254.292218519526,1846
2256.170418916517,1781
2258.0481850241786,1776
2259.925517121534,1857
2261.8024154876825,1830
2263.678880401803,1859
2265.5549121431536,1779
2267.430510991071,1843
2269.305677224971,1791
2271.180411124348,1800
2273.0547129687766,1837
2274.9285830379076,1789
2276.8020216114737,1762
2278.6750289692845,1752
2280.5476053912294,1800
2282.4197511572766,1833
2284.2914665474727,1826
2286.162751841943,1818
2288.0336073208937,1834
2289.904033264608,1839
2291.774029953448,1861
2293.6435976678554,1843
2295.5127366883517,1833
2297.381447295534,1761
2299.2497297700825,1730
2301.1175843927526,1684
2302.9850114443825,1608
2304.852011205885,1602
2306.7185839582553,1557
2308.5847299825664,1541
2310.4504495599676,1546
2312.3157429716925,1531
2314.1806104990483,1505
2316.0450524234247,1519
2317.9090690262888,1496
2319.772660589186,1541
2321.635827393742,1572
2323.498569721661,1496
2325.3608878547248,1513
2327.2227820747967,1489
2329.0842526638157,1431
2330.945299903803,1472
2332.805924076857,1529
2334.6661254651535,1495
2336.525904350951,1556
2338.3852610165827,1527
2340.244195744464,1496
2342.102708817088,1480
2343.9608005170253,1456
2345.8184711269287,1524
2347.675720929526,1472
2349.532550207628,1489
2351.38895924412,1532
2353.24494832197,1489
2355.100517724223,1523
2356.955667734004,1521
2358.810398634514,1547
2360.664710709037,1506
2362.5186042409337,1531
2364.3720795136437,1528
2366.225136810686,1553
2368.0777764156583,1550
2369.929998612237,1546
2371.7818036841777,1544
2373.633191915315,1497
2375.484163589562,1479
2377.3347189909114,1512
2379.184858403434,1524
2381.03458211128,1581
2382.8838903986775,1550
2384.732783549936,1495
2386.5812618494406,1511
2388.4293255816588,1531
2390.2769750311327,1548
2392.1242104824883,1580
2393.971032220427,1521
2395.8174405297295,1556
2397.6634356952563,1461
2399.509018001947,1565
2401.3541877348193,1571
2403.1989451789705,1581
2405.043290619576,1518
2406.8872243418905,1643
2408.730746631247,1555
2410.5738577730594,1590
2412.4165580528183,1624
2414.258847756095,1554
2416.100727168537,1550
2417.9421965758734,1578
2419.783256263912,1550
2421.623906518538,1624
2423.4641476257157,1548
2425.303979871491,1558
2427.143403541984,1592
2428.9824189233977,1519
2430.821026302012,1567
2432.6592259641866,1557
2434.497018196361,1553
2436.33440328505,1584
2438.171381516851,1586
2440.00795317844,1555
2441.844118556569,1587
2443.6798779380724,1601
2445.5152316098606,1580
2447.3501798589255,1655
2449.1847229723357,1643
2451.0188612372403,1556
2452.8525949408663,1587
2454.6859243705203,1545
2456.518849813587,1507
2458.3513715575314,1540
2460.183489889895,1612
2462.015205098301,1556
2463.8465174704493,1555
2465.67742729412,1640
2467.5079348571717,1659
2469.338040447542,1590
2471.1677443532476,1602
2472.9970468623833,1636
2474.825948263123,1568
2476.6544488437207,1571
2478.482548892508,1580
2480.310248697896,1581
2482.137548548374,1563
2483.9644487325118,1617
2485.790949538956,1632
2487.617051256433,1529
2489.44275417375,1623
2491.26805857979,1574
2493.0929647635157,1625
2494.917473013971,1609
2496.741583620276,1602
2498.5652968716304,1571
2500.3886130573137,1622
2502.2115324666834,1642
2504.0340553891765,1634
2505.856182114308,1664
2507.6779129316733,1645
2509.499248130945,1592
2511.3201880018764,1709
2513.140732834298,1704
2514.9608829181198,1603
2516.780638543331,1682
2518.6,1594
2520.418967578273,1645
2522.237541568376,1628
2524.0557222606144,1692
2525.8735099453706,1621
2527.6909049131086,1650
2529.507907454368,1609
2531.32451785977,1655
2533.140736420014,1695
2534.9565634258774,1618
2536.771999168218,1698
2538.5870439379714,1691
2540.4016980261526,1756
2542.2159617238544,1719
2544.02983532225,1756
2545.8433191125914,1760
2547.656413386209,1765
2549.4691184345115,1773
2551.2814345489874,1694
2553.093362021204,1747
2554.904901142808,1798
2556.716052205523,1741
2558.526815501153,1742
2560.3371913215824,1746
2562.147179958771,1850
2563.956781704761,1775
2565.7659968516705,1861
2567.5748256916986,1825
2569.3832685171224,1840
2571.1913256202984,1790
2572.9989972936614,1820
2574.806283829725,1812
2576.613185521084,1850
2578.4197026604074,1892
2580.2258355404483,1859
2582.031584454035,1857
2583.836949694077,1943
2585.6419315535613,1836
2587.4465303255533,1920
2589.2507463032002,1918
2591.0545797797245,1863
2592.8580310484303,1928
2594.6611004026995,1933
2596.463788135992,1914
2598.266094541849,1964
2600.0680199138874,1927
2601.869564545807,1954
2603.670728731383,2022
2605.4715127644704,2028
2607.2719169390048,1948
2609.071941548998,1960
2610.8715868885433,2025
2612.670853251811,1989
2614.469740933052,1991
2616.268250226594,1994
2618.0663814268455,1979
2619.864134828292,1965
2621.6615107255006,1947
2623.458509413115,1926
2625.2551311858597,1921
2627.0513763385347,1903
2628.8472451660223,1937
2630.6427379632833,1901
2632.4378550253564,1963
2634.232596647359,1898
2636.026963124488,1837
2637.8209547520187,1873
2639.6145718253065,1896
2641.407814639785,1895
2643.200683490966,1888
2644.9931786744414,1864
2646.7853004858807,1808
2648.577049221034,1779
2650.3684251757277,1891
2652.1594286458712,1903
2653.9500599274484,1725
2655.740319316525,1798
2657.5302071092437,1817
2659.3197236018286,1724
2661.10886909058,1813
2662.8976438718782,1742
2664.686048242183,1726
2666.4740824980327,1693
2668.2617469360443,1741
2670.0490418529134,1657
2671.8359675454153,1719
2673.622524310403,1652
2675.408712444811,1708
2677.1945322456495,1701
2678.979984010009,1613
2680.76506803506,1681
2682.5497846180497,1625
2684.334134056306,1652
2686.1181166472343,1581
2687.9017326883213,1681
2689.6849824771293,1690
2691.4678663113013,1677
2693.2503844885596,1609
2695.032537306705,1615
2696.8143250636167,1626
2698.5957480572542,1574
2700.3768065856534,1590
2702.1575009469316,1609
2703.937831439283,1616
2705.717798360982,1538
2707.4974020103837,1542
2709.276642685917,1579
2711.055520686095,1595
2712.834036309506,1614
2714.612189854819,1552
2716.389981620782,1534
2718.1674119062204,1592
2719.944481010041,1576
2721.721189231226,1555
2723.4975368688415,1601
2725.273524222027,1591
2727.0491515900053,1585
2728.824419272075,1515
2730.5993275676146,1563
2732.3738767760838,1527
2734.148067197016,1547
2735.921899130031,1572
2737.6953728748194,1506
2739.468488731156,1550
2741.2412469988926,1549
2743.0136479779617,1545
2744.785691968372,1492
2746.5573792702116,1487
2748.3287101836504,1520
2750.099685008934,1528
2751.870304046388,1551
2753.640567596418,1522
2755.4104759595057,1587
2757.1800294362156,1546
2758.949228327187,1496
2760.7180729331412,1523
2762.486563554877,1458
2764.254700493272,1511
2766.022484049284,1501
2767.789914523947,1528
2769.5569922183786,1605
2771.3237174337705,1545
2773.090090471394,1578
2774.8561116326036,1498
2776.6217812188274,1511
2778.3870995315756,1513
2780.1520668724356,1543
2781.9166835430747,1468
2783.6809498452394,1500
2785.444866080754,1479
2787.2084325515225,1546
2788.971649559527,1573
2790.73451740683,1459
2792.4970363955713,1506
2794.2592068279705,1503
2796.0210290063264,1460
2797.7825032330147,1559
2799.543629810493,1505
2801.304409041296,1530
2803.0648412280366,1497
2804.8249266734088,1502
2806.5846656801846,1554
2808.344058551212,1531
2810.1031055894246,1555
2811.8618070978273,1500
2813.6201633795085,1483
2815.378174737636,1574
2817.1358414754536,1581
2818.893163896285,1553
2820.6501423035334,1508
2822.4067770006814,1555
2824.1630682912883,1552
2825.9190164789957,1537
2827.6746218675207,1576
2829.429884760661,1520
2831.184805462294,1499
2832.9393842763743,1526
2834.693621506936,1520
2836.4475174580916,1518
2838.201072434034,1562
2839.954286739034,1504
2841.707160677441,1509
2843.459694553685,1554
2845.2118886722724,1532
2846.96374333779,1540
2848.7152588549034,1484
2850.4664355283567,1502
2852.217273662973,1580
2853.9677735636546,1549
2855.7179355353833,1534
2857.4677598832186,1621
2859.217246912299,1546
2860.9663969278427,1544
2862.715210235146,1540
2864.4636871395846,1546
2866.211827946614,1487
2867.9596329617652,1496
2869.7071024906536,1524
2871.4542368389684,1547
2873.20103631248,1558
2874.947501217038,1484
2876.6936318585695,1531
2878.4394285430812,1496
2880.1848915766604,1522
2881.9300212654707,1512
2883.6748179157553,1488
2885.4192818338374,1473
2887.1634133261173,1521
2888.907212699077,1507
2890.6506802592744,1498
2892.393816313348,1562
2894.1366211680142,1535
2895.8790951300693,1559
2897.621238506388,1559
2899.363051603925,1506
2901.1045347297118,1507
2902.8456881908596,1466
2904.58651229456,1439
2906.327007348081,1517
2908.067173658772,1460
2909.8070115340597,1542
2911.5465212814497,1506
2913.285703208527,1481
2915.0245576229563,1495
2916.7630848324807,1459
2918.5012851449196,1516
2920.2391588681758,1476
2921.976706310227,1509
2923.7139277791334,1558
2925.4508235830313,1482
2927.187394030137,1552
2928.923639428745,1547
2930.6595600872306,1554
2932.395156314046,1560
2934.1304284177218,1542
2935.8653767068713,1527
2937.6000014901815,1503
2939.3343030764227,1508
2941.068281774442,1485
2942.8019378931644,1490
2944.5352717415976,1512
2946.2682836288236,1558
2948.0009738640065,1549
2949.7333427563885,1511
2951.465390615289,1559
2953.1971177501086,1582
2954.9285244703265,1513
2956.6596110855,1493
2958.3903779052657,1565
2960.1208252393385,1518
2961.8509533975125,1520
2963.5807626896617,1527
2965.3102534257378,1529
2967.0394259157715,1555
2968.768280469873,1534
2970.496817398232,1501
2972.2250370111146,1510
2973.952939618869,1528
2975.6805255319196,1522
2977.4077950607707,1510
2979.134748516006,1610
2980.861386208289,1568
2982.587708448359,1496
2984.313715547037,1563
2986.039407815222,1550
2987.764785563891,1482
2989.489849104102,1507
2991.2145987469908,1532
2992.9390348037705,1506
2994.6631575857346,1490
2996.3869674042576,1443
2998.1104645707887,1489
2999.83364939686,1505
3001.5565221940783,1523
3003.2790832741334,1522
3005.0013329487924,1519
3006.7232715298996,1545
3008.4448993293804,1497
3010.166216659239,1465
3011.887223831558,1537
3013.607921158498,1499
3015.3283089522993,1548
3017.0483875252826,1559
3018.7681571898443,1546
3020.4876182584626,1527
3022.2067710436927,1525
3023.9256158581707,1495
3025.644153014609,1498
3027.362382825801,1542
3029.0803056046193,1488
3030.797921664012,1533
3032.5152313170106,1528
3034.2322348767225,1509
3035.9489326563353,1501
3037.665324969115,1494
3039.3814121284063,1510
3041.097194447633,1522
3042.812672240299,1488
3044.5278458199855,1554
3046.2427155003525,1473
3047.9572815951406,1418
3049.671544418167,1544
3051.38550428333,1508
3053.0991615046073,1523
3054.812516396051,1509
3056.5255692717974,1493
3058.2383204460575,1526
3059.9507702331257,1546
3061.662918947372,1573
3063.3747669032446,1572
3065.0863144152736,1515
3066.7975617980674,1513
3068.508509366309,1525
3070.219157434767,1545
3071.9295063182844,1513
3073.639556331785,1501
3075.3493077902704,1543
3077.058761008821,1516
3078.7679163025964,1510
3080.476773986837,1490
3082.1853343768594,1569
3083.89359778806,1579
3085.6015645359153,1503
3087.3092349359786,1504
3089.016609303884,1458
3090.7236879553434,1519
3092.4304712061476,1504
3094.136959372166,1430
3095.843152769349,1501
3097.5490517137237,1528
3099.2546565213966,1537
3100.959967508554,1525
3102.66498499146,1545
3104.3697092864577,1477
3106.0741407099695,1544
3107.778279578498,1497
3109.482126208622,1491
3111.1856809170004,1498
3112.8889440203716,1513
3114.5919158355528,1538
3116.294596679439,1498
3117.996986869006,1495
3119.6990867213062,1495
3121.4008965534726,1563
3123.102416682717,1631
3124.803647426329,1569
3126.5045891016784,1526
3128.205242026213,1574
3129.90560651746,1527
3131.605682893025,1565
3133.3054714705922,1525
3135.0049725679282,1538
3136.7041865028714,1517
3138.4031135933465,1527
3140.101754157353,1490
3141.800108512971,1531
3143.498176978357,1507
3145.1959598717494,1514
3146.8934575114636,1509
3148.5906702158954,1512
3150.2875983035183,1534
3151.9842420928853,1518
3153.680601902627,1513
3155.376678051456,1558
3157.07247085816,1526
3158.767980641609,1483
3160.463207720748,1533
3162.158152414606,1525
3163.8528150422862,1550
3165.5471959229726,1559
3167.2412953759303,1503
3168.9351137204976,1535
3170.628651276098,1615
3172.3219083622307,1523
3174.014885298474,1559
3175.707582404485,1483
3177.4000000000005,1480
3179.092138404835,1481
3180.7839979388846,1476
3182.47557892212,1491
3184.166881674594,1500
3185.8579065164386,1532
3187.5486537678626,1548
3189.2391237491547,1535
3190.9293167806827,1506
3192.6192331828934,1481
3194.3088732763117,1464
3195.998237381542,1483
3197.687325819268,1480
3199.376138910251,1502
3201.064676975334,1470
3202.7529403354347,1494
3204.4409293115523,1543
3206.1286442247647,1537
3207.816085396229,1490
3209.5032531471825,1447
3211.190147798936,1480
3212.8767696728846,1449
3214.5631190905015,1462
3216.2491963733373,1470
3217.9350018430214,1443
3219.6205358212637,1478
3221.305798629851,1436
3222.990790590651,1461
3224.6755120256103,1437
3226.359963256751,1431
3228.0441446061795,1499
3229.7280563960758,1486
3231.411698948703,1498
3233.0950725863995,1507
3234.778177631587,1423
3236.461014406761,1553
3238.1435832345005,1522
3239.8258844374595,1481
3241.507918338374,1535
3243.1896852600576,1450
3244.8711855254023,1488
3246.552419457381,1537
3248.233387379042,1506
3249.914089613516,1541
3251.59452648401,1451
3253.274698313813,1510
3254.95460542629,1498
3256.6342481448855,1477
3258.313626793125,1423
3259.9927416946084,1472
3261.6715931730196,1491
3263.3501815521176,1470
3265.0285071557437,1474
3266.706570307815,1493
3268.3843713323286,1461
3270.0619105533615,1439
3271.739188295068,1457
3273.4162048816834,1455
3275.0929606375184,1438
3276.769455886966,1474
3278.445690954498,1500
3280.1216661646613,1471
3281.797381842087,1506
3283.4728383114807,1545
3285.1480358976296,1436
3286.8229749253996,1533
3288.4976557197333,1513
3290.172078605655,1554
3291.846243908266,1491
3293.5201519527463,1469
3295.193803064357,1447
3296.8671975684374,1429
3298.5403357904024,1414
3300.21321805575,1501
3301.8858446900567,1500
3303.558216018975,1496
3305.23033236824,1504
3306.9021940636603,1472
3308.57380143113,1463
3310.2451547966184,1485
3311.916254486174,1480
3313.5871008259246,1484
3315.2576941420766,1446
3316.9280347609147,1489
3318.5981230088046,1458
3320.2679592121895,1425
3321.9375436975924,1449
3323.606876791612,1499
3325.27595882093,1448
3326.944790112305,1405
3328.6133709925753,1448
3330.2817017886573,1476
3331.949782827547,1473
3333.617614436319,1439
3335.2851969421245,1460
3336.952530672199,1468
3338.619615953853,1539
3340.286453114475,1513
3341.9530424815357,1492
3343.619384382583,1488
3345.2854791452437,1491
3346.951327097224,1507
3348.6169285663073,1496
3350.2822838803577,1478
3351.947393367319,1500
3353.61225735521,1396
3355.2768761721345,1493
3356.9412501462693,1437
3358.605379605873,1506
3360.2692648792827,1431
3361.9329062949146,1444
3363.596304181263,1465
