CollectionTime,7/9/2024 11:13:08 AM
ExposureUsed,3
CalibratedSpectrum
-962.7078968117929,1741
-959.9714848408522,1908
-957.2358232597828,1936
-954.5009119013725,1981
-951.7667505983302,1892
-949.0333391832855,1946
-946.3006774887896,1978
-943.5687653473143,1918
-940.837602591253,1903
-938.1071890529199,1967
-935.3775245645503,1965
-932.6486089583007,1938
-929.9204420662485,1994
-927.1930237203925,1913
-924.4663537526524,1945
-921.7404319948689,2044
-919.0152582788041,2004
-916.2908324361409,1992
-913.5671542984834,1986
-910.8442236973568,1959
-908.1220404642074,1952
-905.4006044304027,1940
-902.679915427231,2010
-899.959973285902,1975
-897.2407778375464,2003
-894.5223289132158,1994
-891.8046263438832,2031
-889.0876699604426,2128
-886.3714595937089,2060
-883.6559950744183,2018
-880.9412762332282,2004
-878.2273029007168,2004
-875.5140749073835,2021
-872.8015920836489,2052
-870.0898542598545,2011
-867.3788612662631,1998
-864.6686129330585,2001
-861.9591090903457,2088
-859.2503495681506,2036
-856.5423341964203,2019
-853.8350628050229,2091
-851.1285352237478,2064
-848.4227512823054,1942
-845.7177108103272,2045
-843.0134136373656,2057
-840.3098595928943,2074
-837.6070485063082,2094
-834.9049802069229,2106
-832.2036545239757,2152
-829.5030712866244,2063
-826.8032303239481,2150
-824.1041314649472,2148
-821.4057745385428,2097
-818.7081593735775,2110
-816.0112857988148,2142
-813.3151536429393,2148
-810.6197627345566,2156
-807.9251129021936,2052
-805.2312039742981,2089
-802.5380357792392,2166
-799.8456081453069,2140
-797.1539209007124,2152
-794.462973873588,2165
-791.772766891987,2127
-789.083299783884,2152
-786.3945723771743,2189
-783.7065844996748,2192
-781.0193359791231,2138
-778.3328266431781,2189
-775.6470563194197,2117
-772.9620248353489,2157
-770.2777320183878,2145
-767.5941776958798,2276
-764.9113616950891,2281
-762.2292838432011,2226
-759.5479439673222,2194
-756.8673418944801,2246
-754.1874774516235,2216
-751.5083504656222,2197
-748.8299607632671,2243
-746.15230817127,2193
-743.475392516264,2247
-740.7992136248035,2193
-738.1237713233636,2247
-735.4490654383407,2187
-732.7750957960521,2283
-730.1018622227365,2275
-727.4293645445534,2256
-724.7576025875837,2260
-722.0865761778291,2284
-719.4162851412126,2342
-716.7467293035781,2319
-714.0779084906909,2354
-711.409822528237,2340
-708.7424712418238,2327
-706.0758544569796,2322
-703.4099719991541,2314
-700.7448236937178,2370
-698.0804093659622,2290
-695.4167288411002,2355
-692.7537819442656,2352
-690.0915685005134,2289
-687.4300883348199,2406
-684.7693412720819,2435
-682.1093271371178,2274
-679.4500457546669,2361
-676.7914969493897,2442
-674.1336805458676,2437
-671.4765963686034,2387
-668.8202442420206,2431
-666.1646239904642,2444
-663.5097354382001,2411
-660.8555784094151,2390
-658.2021527282176,2507
-655.5494582186366,2417
-652.8974947046223,2487
-650.2462620100463,2436
-647.5957599587009,2484
-644.9459883742998,2472
-642.2969470804776,2521
-639.6486359007902,2465
-637.0010546587141,2500
-634.3542031776476,2559
-631.7080812809096,2532
-629.0626887917401,2430
-626.4180255333008,2454
-623.7740913286734,2533
-621.1308860008619,2527
-618.4884093727904,2500
-615.8466612673046,2611
-613.2056415071715,2572
-610.5653499150785,2543
-607.9257863136347,2587
-605.28695052537,2597
-602.6488423727357,2637
-600.0114616781036,2655
-597.3748082637674,2476
-594.7388819519412,2514
-592.1036825647604,2652
-589.4692099242818,2663
-586.8354638524829,2624
-584.2024441712624,2579
-581.5701507024403,2668
-578.9385832677575,2639
-576.3077416888759,2601
-573.6776257873787,2673
-571.0482353847704,2627
-568.4195703024757,2707
-565.7916303618415,2577
-563.164415384135,2593
-560.5379251905453,2613
-557.9121596021815,2729
-555.2871184400748,2692
-552.6628015251767,2699
-550.0392086783606,2705
-547.4163397204204,2700
-544.794194472071,2701
-542.1727727539491,2738
-539.5520743866118,2714
-536.9320991905377,2635
-534.3128469861261,2756
-531.6943175936979,2884
-529.0765108334947,2759
-526.4594265256793,2934
-523.8430644903358,3041
-521.2274245474689,3111
-518.612506517005,3204
-515.9983102187913,3177
-513.3848354725959,3151
-510.77208209810846,3109
-508.16004991493924,3293
-505.5487387426199,3356
-502.9381484006032,3467
-500.3282787082628,3653
-497.71912948489364,3646
-495.1107005497117,3602
-492.5029917218539,3535
-489.8960028203786,3292
-487.28973366426493,3143
-484.68418407241325,3156
-482.07935386364494,3063
-479.47524285670266,3069
-476.87185087025,3004
-474.2691777228715,3073
-471.66722323307334,3018
-469.0659872192821,3028
-466.4654694998459,3065
-463.86566989303384,2938
-461.26658821703614,3006
-458.66822428996414,3010
-456.07057792985,3074
-453.4736489546475,2984
-450.877437182231,3000
-448.28194243039627,2992
-445.68716451686,2884
-443.09310325926003,2984
-440.49975847515555,2989
-437.9071299820263,2917
-435.31521759727354,2854
-432.72402113821954,2902
-430.13354042210767,2976
-427.5437752661022,2979
-424.95472548728867,2934
-422.36639090267386,2949
-419.7787713291855,2995
-417.1918665836721,3103
-414.60567648290385,3122
-412.0202008435715,3044
-409.4354394822874,3091
-406.8513922155845,3134
-404.26805885991723,3152
-401.685439231661,3189
-399.103533147112,3028
-396.522340422488,3071
-393.9418608739278,3013
-391.3620943174908,2940
-388.7830405691583,2862
-386.2046994448317,2680
-383.6270707603344,2532
-381.05015433141045,2331
-378.473949973725,2044
-375.8984575028645,1822
-373.32367673433623,1625
-370.74960748356875,1421
-368.1762495659117,1251
-365.60360279663576,1007
-363.03166699093265,857
-360.4604419639154,747
-357.8899275306178,667
-355.32012350599507,623
-352.7510297049233,580
-350.1826459421999,562
-347.61497203254316,515
-345.04800779059235,519
-342.4817530309082,529
-339.91620756797226,497
-337.35137121618743,493
-334.7872437898774,517
-332.22382510328725,524
-329.66111497058273,536
-327.09911320585127,541
-324.53781962310075,575
-321.9772340362607,569
-319.4173562591816,566
-316.8581861056348,520
-314.2997233893127,509
-311.7419679238294,507
-309.1849195227194,505
-306.62857799943856,512
-304.0729431673641,568
-301.51801483979375,570
-298.963792829947,548
-296.41027695096386,596
-293.85746701590574,611
-291.3053628377552,545
-288.7539642294155,590
-286.2032710037115,624
-283.65328297338897,571
-281.1039999511146,669
-278.5554217494762,642
-276.007548180983,607
-273.4603790580651,568
-270.9139141930734,590
-268.3681533982807,601
-265.8230964858798,613
-263.27874326798565,648
-260.7350935566336,617
-258.1921471637804,634
-255.6499039013039,628
-253.10836358100266,635
-250.56752601459698,612
-248.02739101372765,630
-245.48795838995704,668
-242.94922795476816,656
-240.41119951956557,678
-237.8738728956746,759
-235.33724789434166,812
-232.80132432673452,688
-230.2661020039418,648
-227.73158073697357,684
-225.19776033676033,811
-222.66464061415422,815
-220.1322213799284,805
-217.60050244477725,711
-215.06948361931552,743
-212.53916471408013,759
-210.00954553952818,847
-207.48062590603843,814
-204.9524056239104,747
-202.4248845033651,871
-199.8980623545441,923
-197.37193898751036,868
-194.84651421224817,868
-192.32178783866232,869
-189.79775967657952,904
-187.27442953574644,939
-184.7517972258321,957
-182.2298625564256,891
-179.7086253370378,909
-177.18808537710026,863
-174.66824248596583,821
-172.14909647290835,1028
-169.6306471471229,1075
-167.11289431772548,1063
-164.59583779375328,964
-162.07947738416453,1004
-159.5638128978386,1144
-157.04884414357605,1365
-154.53457093009854,1453
-152.02099306604828,1285
-149.50811035998936,949
-146.99592262040665,896
-144.48442965570587,1083
-141.97363127421409,1279
-139.46352728417958,1460
-136.95411749377126,1609
-134.44540171107985,1390
-131.93737974411636,1168
-129.43005140081357,1407
-126.92341648902493,1884
-124.41747481652521,2163
-121.91222619101006,2426
-119.40767042009657,2667
-116.90380731132257,3030
-114.40063667214702,2838
-111.8981583099503,2189
-109.3963720320337,2340
-106.89527764561933,3294
-104.39487495785067,4224
-101.89516377579241,4330
-99.39614390642998,4691
-96.89781515667039,4365
-94.40017733334128,3884
-91.90323024319173,3643
-89.40697369289148,4333
-86.91140748903172,6119
-84.41653143812482,6720
-81.92234534660395,5664
-79.42884902082358,4518
-76.93604226705907,5859
-74.4439248915071,9289
-71.95249670028534,13283
-69.46175749943245,14783
-66.97170709490854,13968
-64.48234529259423,12012
-61.99367189829195,10931
-59.50568671772464,9521
-57.01838955653636,8160
-54.53178022029283,9053
-52.045858514480074,10674
-49.560624244506016,12618
-47.07607721569923,13393
-44.59221723330904,13800
-42.10904410250669,12871
-39.62655762838392,11581
-37.14475761595372,10948
-34.66364387015028,10512
-32.18321619582866,10819
-29.70347439776515,11041
-27.224418280657005,12243
-24.74604764912317,14515
-22.26836230770266,21042
-19.7913620608565,39265
-17.315046712966478,65040
-14.83941606833514,65040
-12.36446993118659,65040
-9.89020810566592,65040
-7.416630395839093,65040
-4.94373660569363,65040
-2.471526539137585,65040
-6.821210263296962E-13,65040
2.47084320796705,65040
4.941003281093458,65040
7.410480415786196,65040
9.879274808531363,65040
12.347386655893956,65040
14.814816154518212,65040
17.28156350112681,65040
19.74762889252179,65040
22.21301252558385,65040
24.67771459727237,21232
27.141735304626195,4407
29.605074844762612,3029
32.06773341487792,2422
34.52971121224755,2246
36.99100843422559,2341
39.45162527824516,2118
41.91156194181792,1901
44.370818622535126,1672
46.82939551806646,1518
49.287292826160524,1649
51.74451074464503,2085
54.201049471426245,1986
56.65690920448981,1634
59.112090141899785,1579
61.56659248179983,1343
64.02041642241159,1238
66.4735621620365,1244
68.92602989905402,1182
71.37781983192338,1094
73.82893215918205,1215
76.27936707944684,1334
78.72912479141326,1268
81.17820549385567,1366
83.62660938562783,1454
86.07433666566146,1374
88.5213875329681,1044
90.96776218663751,1123
93.41346082583925,1200
95.85848364982041,1332
98.30283085790859,1217
100.7465026495089,1138
103.18949922410604,1299
105.63182078126385,1302
108.07346752062438,1251
110.51443964190923,1069
112.95473734491827,1016
115.39436082953114,1088
117.83331029570547,1145
120.27158594347827,1080
122.7091879729652,1157
125.1461165843615,1079
127.58237197794062,980
130.01795435405518,959
132.4528639131364,1025
134.88710085569494,1139
137.32066538231982,1112
139.75355769367923,1078
142.1857779905207,1030
144.61732647366978,1015
147.04820334403132,1058
149.47840880258934,1108
151.90794305040674,1220
154.33680628862487,1410
156.76499871846443,1742
159.19252054122433,2080
161.61937195828352,2343
164.04555317109896,2736
166.47106438120693,3137
168.89590579022217,3582
171.320077599839,3811
173.7435800118302,3947
176.16641322804742,4209
178.58857745042144,4536
181.01007288096173,4792
183.43089972175687,4877
185.85105817497413,5115
188.27054844285988,5104
190.6893707277394,5258
193.10752523201643,5508
195.5250121581745,5686
197.9418317087751,5801
200.3579840864594,5769
202.7734694939469,5889
205.18828813403627,5819
207.6024402096051,5878
210.01592592360964,5938
212.42874547908548,5966
214.84089907914665,5991
217.2523869269868,5937
219.66320922587727,5908
222.0733661791695,5959
224.48285799029293,5905
226.8916848627572,6026
229.29984700014882,5999
231.7073446061355,6028
234.11417788446204,6032
236.520347038953,6065
238.92585227351185,6177
241.33069379212054,6278
243.73487179884035,6337
246.1383864978112,6177
248.541238093252,6103
250.9434267894609,6218
253.34495279081432,6105
255.74581630176783,6000
258.1460175268563,6149
260.54555667069314,6033
262.9444339379703,5979
265.3426495334594,6104
267.7402036620107,6134
270.1370965285529,6011
272.53332833809407,5982
274.9288992957214,5900
277.32380960660055,5910
279.718059475976,5865
282.1116491091717,6003
284.5045787115897,5992
286.89684848871195,5926
289.2884586460981,5978
291.67940938938807,5948
294.0697009242996,5956
296.4593334566299,6004
298.84830719225477,5967
301.23662233712923,5954
303.6242790972866,6016
306.01127767884,5936
308.39761828798066,5985
310.78330113097934,5925
313.16832641418534,5836
315.5526943440269,5707
317.9364051270112,5878
320.3194589697242,5708
322.70185607883093,5791
325.0835966610754,5589
327.4646809232805,5629
329.8451090723478,5785
332.2248813152577,5639
334.6039978590701,5785
336.9824589109231,5710
339.36026467803447,5666
341.7374153677,5729
344.113911187295,5646
346.48975234427337,5590
348.8649390461686,5720
351.2394715005918,5639
353.61334991523415,5662
355.9865744978655,5520
358.35914545633375,5490
360.73106299856715,5600
363.10232733257146,5566
365.47293866643247,5549
367.84289720831396,5656
370.2122031664593,5583
372.5808567491905,5654
374.9488581649083,5614
377.31620762209275,5631
379.6829053293021,5572
382.0489514951745,5683
384.4143463284262,5600
386.7790900378528,5684
389.14318283232853,5457
391.50662492080653,5577
393.86941651231916,5595
396.23155781597745,5493
398.5930490409713,5638
400.9538903965696,5634
403.3140820921202,5532
405.6736243370498,5565
408.03251734086336,5460
410.3907613131465,5526
412.74835646356166,5520
415.10530300185144,5572
417.4616011378372,5577
419.81725108141893,5486
422.1722530425758,5517
424.5266072313656,5577
426.880313857925,5468
429.2333731324701,5655
431.58578526529516,5615
433.9375504667738,5538
436.2886689473588,5477
438.63914091758113,5461
440.9889665880513,5470
443.33814616945835,5417
445.68667987257015,5360
448.03456790823395,5352
450.3818104873759,5341
452.72840782100013,5523
455.07436012019105,5625
457.41966759611057,5490
459.7643304600007,5534
462.10834892318155,5617
464.4517231970525,5508
466.79445349309174,5477
469.1365400228566,5547
471.4779829979826,5480
473.81878263018564,5484
476.15893913125876,5523
478.4984527130747,5480
480.8373235875855,5783
483.17555196682144,5798
485.5131380628919,5849
487.8500820879857,6031
490.1863842543697,6034
492.52204477439034,6429
494.8570638604725,6545
497.1914417251204,7035
499.52517858091653,7106
501.85827464052306,7263
504.19073011668036,7096
506.5225452222086,6909
508.85372017000566,7088
511.18425517304956,6981
513.514150444396,7042
515.8434061971808,8056
518.1720226446176,9182
520.4999999999999,9615
522.8273384766991,8912
525.1540382881666,8431
527.480099647932,7760
529.8055227696037,7025
532.1303078668694,6586
534.454455153496,6058
536.777964843328,5840
539.1008371502907,5725
541.4230722883866,5843
543.744670471698,5873
546.0656319143858,5768
548.3859568306899,5771
550.7056454349294,5653
553.0246979415016,5800
555.3431145648834,5751
557.6608955196306,5579
559.978041020377,5734
562.2945512818363,5720
564.6104265188006,5803
566.9256669461412,5767
569.2402727788082,5799
571.5542442318302,5876
573.8675815203156,5830
576.1802848594508,5868
578.4923544645015,5927
580.8037905508126,5962
583.114593333807,5813
585.4247630289875,5774
587.7342998519354,5795
590.0432040183106,5891
592.3514757438526,5988
594.6591152443794,5773
596.9661227357875,5737
599.2724984340531,5958
601.578242555231,5838
603.8833553154542,5992
606.1878369309362,5840
608.4916876179676,5919
610.7949075929192,5735
613.0974970722403,5800
615.3994562724587,5818
617.7007854101818,5845
620.0014847020951,5768
622.3015543649641,5690
624.6009946156324,5775
626.8998056710224,5920
629.1979877481361,5807
631.4955410640538,5845
633.7924658359349,5850
636.0887622810175,5826
638.3844306166192,5928
640.6794710601358,5842
642.9738838290426,5869
645.2676691408932,5921
647.5608272133207,5754
649.853358264037,5842
652.1452625108324,5886
654.4365401715764,6051
656.7271914642178,6056
659.0172166067838,5975
661.3066158173809,5924
663.5953893141935,6004
665.8835373154867,5933
668.1710600396028,5987
670.4579577049639,5901
672.7442305300709,5955
675.0298787335033,5971
677.3149025339197,6033
679.599302150058,5997
681.8830778007342,6045
684.1662297048437,5963
686.4487580813608,5985
688.7306631493387,5941
691.0119451279091,6019
693.2926042362834,5939
695.5726406937516,5944
697.8520547196814,5930
700.1308465335215,5944
702.4090163547982,6032
704.6865644031171,6013
706.9634908981619,5887
709.2397960596965,5840
711.5154801075631,5967
713.7905432616823,5910
716.0649857420548,5957
718.3388077687592,6024
720.612009561953,5970
722.8845913418733,5932
725.1565533288352,6045
727.427895743234,6010
729.6986188055427,5921
731.9687227363137,6126
734.238207756178,5970
736.5070740858458,6016
738.7753219461066,6087
741.0429515578281,5907
743.3099631419569,6152
745.5763569195191,6176
747.8421331116193,5932
750.1072919394409,6045
752.3718336242467,6028
754.6357583873777,6060
756.8990664502545,6153
759.1617580343765,5939
761.423833361321,6090
763.6852926527457,5975
765.9461361303862,6115
768.206364016058,6135
770.4659765316536,6017
772.7249738991469,6095
774.9833563405886,6087
777.2411240781092,6040
779.4982773339183,6038
781.7548163303044,6118
784.010741289634,6077
786.2660524343538,6107
788.5207499869881,6067
790.7748341701416,6240
793.0283052064964,6150
795.2811633188143,6154
797.5334087299362,6231
799.7850416627813,6051
802.0360623403484,6147
804.2864709857143,6077
806.5362678220353,6183
808.7854530725468,6260
811.0340269605625,6188
813.2819897094754,6173
815.5293415427581,6189
817.77608268396,6188
820.0222133567116,6171
822.2677337847211,6195
824.5126441917765,6216
826.7569448017433,6238
829.0006358385675,6125
831.2437175262731,6224
833.4861900889629,6235
835.7280537508192,6140
837.9693087361026,6170
840.2099552691533,6265
842.4499935743896,6237
844.689423876309,6217
846.9282463994886,6328
849.1664613685833,6085
851.4040690083276,6090
853.6410695435349,6121
855.877463199097,6249
858.1132501999847,6169
860.3484307712487,6228
862.5830051380175,6100
864.8169735254988,6263
867.0503361589791,6158
869.2830932638243,6210
871.5152450654786,6112
873.7467917894654,6060
875.9777336613873,6198
878.2080709069252,6196
880.4378037518389,6336
882.666932421968,6172
884.8954571432301,6223
887.1233781416219,6371
889.3506956432192,6250
891.5774098741766,6324
893.803521060728,6356
896.0290294291852,6392
898.2539352059397,6269
900.4782386174619,6341
902.7019398903011,6361
904.925039251085,6243
907.147536926521,6312
909.3694331433943,6219
911.59072812857,6388
913.8114221089921,6222
916.0315153116827,6299
918.2510079637437,6316
920.4699002923547,6156
922.6881925247761,6048
924.905884888345,6200
927.1229776104793,6272
929.3394709186747,6225
931.555365040506,6105
933.7706602036275,6123
935.9853566357709,6111
938.1994545647489,6190
940.4129542184515,6299
942.6258558248488,6141
944.8381596119883,6202
947.0498658079974,6262
949.2609746410825,6224
951.4714863395287,6103
953.6814011316998,6211
955.8907192460387,6137
958.0994409110671,6233
960.3075663553858,6334
962.5150958076741,6289
964.7220294966913,6212
966.928367651274,6273
969.1341105003388,6213
971.3392582728806,6107
973.5438111979742,6322
975.747769504772,6156
977.9511334225061,6052
980.153903180487,6053
982.3560790081052,6206
984.5576611348289,6071
986.7586497902058,6107
988.9590452038618,6048
991.158847605503,6036
993.3580572249133,6075
995.5566742919558,6260
997.7546990365728,6035
999.952131688785,5949
1002.1489724786926,5907
1004.3452216364743,5796
1006.5408793923874,5947
1008.7359459767691,5777
1010.9304216200343,5914
1013.1243065526781,5966
1015.3176010052733,5783
1017.510305208472,5849
1019.7024193930064,5868
1021.8939437896848,5817
1024.0848786293977,5959
1026.2752241431122,5826
1028.4649805618747,5855
1030.6541481168115,5823
1032.842727039127,5883
1035.0307175601051,5901
1037.2181199111074,5874
1039.4049343235752,5829
1041.591161029029,5835
1043.7768002590683,5940
1045.9618522453698,5795
1048.1463172196918,5820
1050.3301954138697,5816
1052.513487059818,5990
1054.69619238953,5840
1056.8783116350783,5955
1059.0598450286152,5988
1061.2407928023704,5870
1063.4211551886528,5839
1065.6009324198508,5865
1067.780124728432,5884
1069.9587323469414,5808
1072.1367555080046,5934
1074.314194444325,5832
1076.4910493886855,5824
1078.667320573947,5718
1080.843008233051,5878
1083.0181125990161,5876
1085.1926339049414,5846
1087.3665723840027,5845
1089.5399282694575,5822
1091.7127017946405,5705
1093.8848931929647,5777
1096.0565026979243,5822
1098.2275305430899,5738
1100.3979769621128,5857
1102.567842188722,5784
1104.737126456726,5652
1106.9058300000124,5774
1109.0739530525475,5691
1111.2414958483764,5774
1113.4084586216231,5694
1115.5748416064907,5816
1117.7406450372605,5670
1119.9058691482942,5828
1122.0705141740304,5833
1124.2345803489884,5820
1126.3980679077658,5804
1128.5609770850388,5784
1130.7233081155623,5673
1132.8850612341707,5785
1135.0462366757774,5831
1137.2068346753745,5772
1139.3668554680326,5881
1141.526299288901,5781
1143.68516637321,5780
1145.8434569562655,5739
1148.001171273455,5606
1150.158309560244,5667
1152.3148720521767,5723
1154.470858984876,5685
1156.626270594044,5804
1158.7811071154629,5869
1160.9353687849912,5858
1163.089055838569,5706
1165.242168512213,5677
1167.3947070420209,5815
1169.5466716641677,5854
1171.6980626149075,5693
1173.8488801305748,5723
1175.9991244475814,5775
1178.1487958024186,5730
1180.2978944316555,5732
1182.4464205719428,5715
1184.5943744600072,5695
1186.7417563326567,5709
1188.8885664267755,5694
1191.0348049793297,5621
1193.1804722273619,5757
1195.325568407995,5844
1197.4700937584303,5728
1199.614048515948,5670
1201.7574329179074,5694
1203.900247201746,5718
1206.042491604982,5677
1208.1841663652099,5781
1210.3252717201053,5756
1212.465807907422,5655
1214.6057751649923,5761
1216.7451737307279,5694
1218.8840038426192,5845
1221.0222657387353,5657
1223.1599596572241,5838
1225.2970858363137,5909
1227.4336445143094,5697
1229.5696359295966,5920
1231.705060320639,5922
1233.8399179259786,5740
1235.9742089842384,5838
1238.107933734118,5680
1240.2410924143974,5787
1242.373685263935,5932
1244.5057125216676,5727
1246.6371744266116,5748
1248.7680712178621,5891
1250.898403134593,6012
1253.028170416058,5767
1255.1573733015875,5808
1257.2860120305932,5760
1259.4140868425648,5828
1261.54159797707,5907
1263.6685456737569,5788
1265.7949301723515,5892
1267.9207517126597,5917
1270.046010534565,5814
1272.1707068780306,5874
1274.2948409830983,5907
1276.4184130898889,5829
1278.541423438603,5993
1280.6638722695184,5913
1282.785759822993,6088
1284.9070863394636,5993
1287.0278520594447,5897
1289.1480572235314,5931
1291.2677020723963,5956
1293.3867868467923,5883
1295.5053117875495,6001
1297.623277135579,6069
1299.740683131868,6064
1301.8575300174857,6021
1303.973818033578,5937
1306.0895474213703,6025
1308.2047184221678,6019
1310.3193312773528,6135
1312.4333862283888,6160
1314.5468835168163,6195
1316.659823384255,6072
1318.7722060724045,5956
1320.8840318230418,5963
1322.9953008780249,5986
1325.1060134792888,6083
1327.2161698688478,6046
1329.3257702887959,6057
1331.4348149813054,6172
1333.5433041886276,6091
1335.6512381530933,6051
1337.7586171171101,6017
1339.8654413231675,6082
1341.9717110138317,6044
1344.0774264317488,6032
1346.1825878196432,5867
1348.2871954203192,6052
1350.3912494766587,6024
1352.4947502316231,5937
1354.5976979282532,5958
1356.7000928096686,6046
1358.8019351190665,5945
1360.9032250997243,5994
1363.0039629949988,6021
1365.1041490483235,5892
1367.2037835032133,5978
1369.3028666032606,5964
1371.401398592137,6048
1373.4993797135926,5992
1375.5968102114575,6057
1377.6936903296396,6049
1379.7900203121262,6011
1381.8858004029835,6088
1383.9810308463561,6121
1386.075711886469,6108
1388.1698437676241,6078
1390.2634267342032,6107
1392.356461030667,6065
1394.4489469015557,6043
1396.5408845914872,6189
1398.6322743451592,6128
1400.7231164073469,6105
1402.813411022907,6267
1404.903158436773,6082
1406.9923588939578,6260
1409.0810126395531,6370
1411.1691199187303,6025
1413.2566809767386,6100
1415.343696058907,6265
1417.4301654106425,6205
1419.5160892774315,6155
1421.6014679048399,6276
1423.6863015385125,6126
1425.7705904241707,6065
1427.8543348076178,6179
1429.9375349347342,6134
1432.0201910514802,6183
1434.102303403894,6254
1436.1838722380944,6159
1438.2648978002767,6148
1440.3453803367174,6255
1442.4253200937692,6372
1444.5047173178677,6310
1446.5835722555234,6236
1448.6618851533285,6340
1450.739656257952,6346
1452.8168858161434,6434
1454.8935740747306,6440
1456.96972128062,6495
1459.045327680797,6457
1461.120393522327,6513
1463.1949190523528,6503
1465.2689045180973,6521
1467.3423501668608,6739
1469.415256246024,6605
1471.4876230030463,6714
1473.559450685465,6726
1475.6307395408976,6690
1477.7014898170391,6927
1479.771701761665,6760
1481.8413756226287,7041
1483.9105116478618,6879
1485.9791100853772,7006
1488.0471711832643,6979
1490.1146951896926,7005
1492.1816823529098,6952
1494.2481329212433,7109
1496.3140471430984,7096
1498.3794252669609,7124
1500.4442675413939,7087
1502.5085742150404,7054
1504.572345536622,7268
1506.6355817549388,7192
1508.6982831188702,7281
1510.7604498773744,7265
1512.8220822794883,7283
1514.8831805743293,7328
1516.9437450110909,7415
1519.003775839048,7481
1521.0632733075522,7470
1523.1222376660367,7583
1525.1806691640113,7651
1527.2385680510652,7781
1529.2959345768668,7735
1531.3527689911643,7832
1533.4090715437833,7889
1535.4648424846291,7942
1537.5200820636855,8040
1539.5747905310159,8107
1541.6289681367616,8250
1543.6826151311434,8115
1545.7357317644614,8244
1547.7883182870937,8195
1549.8403749494987,8326
1551.8919020022113,8397
1553.9428996958477,8519
1555.9933682811015,8619
1558.0433080087469,8720
1560.0927191296346,8820
1562.1416018946961,8789
1564.1899565549415,8806
1566.2377833614592,8766
1568.2850825654164,8577
1570.3318544180606,8658
1572.3780991707158,8418
1574.423817074788,8374
1576.4690083817595,8086
1578.5136733431923,8003
1580.5578122107272,7746
1582.601425236085,7454
1584.6445126710646,7346
1586.6870747675434,7172
1588.7291117774776,7103
1590.7706239529034,7031
1592.8116115459347,6970
1594.8520748087658,6854
1596.8920139936686,6687
1598.9314293529933,6616
1600.9703211391711,6572
1603.008689604711,6563
1605.0465350022005,6355
1607.0838575843068,6224
1609.1206576037753,6259
1611.1569353134305,6301
1613.1926909661765,6164
1615.2279248149953,6212
1617.2626371129481,6133
1619.2968281131757,6140
1621.3304980688963,6219
1623.3636472334088,6074
1625.39627586009,6242
1627.428384202396,6021
1629.459972513861,6122
1631.4910410480993,5951
1633.5215900588028,5992
1635.551619799744,6027
1637.5811305247717,6137
1639.6101224878166,6108
1641.6385959428862,5998
1643.6665511440683,6060
1645.693988345528,5943
1647.7209078015112,5855
1649.7473097663405,5881
1651.7731944944203,5942
1653.7985622402307,5905
1655.823413258333,5890
1657.847747803366,5851
1659.8715661300494,5888
1661.8948684931793,5785
1663.9176551476316,5858
1665.9399263483624,5881
1667.9616823504057,5896
1669.982923408873,5876
1672.0036497789574,5737
1674.0238617159293,5799
1676.043559475138,5768
1678.0627433120121,5981
1680.081413482059,5852
1682.0995702408654,5920
1684.117213844096,5892
1686.134344547495,5926
1688.1509626068864,5783
1690.1670682781705,5843
1692.182661817329,5890
1694.1977434804217,5854
1696.2123135235875,5825
1698.226372203043,5862
1700.2399197750851,5803
1702.2529564960905,5855
1704.2654826225112,5850
1706.277498410882,5745
1708.2890041178139,5826
1710.2999999999988,5886
1712.3104863142066,5884
1714.3204633172854,5854
1716.329931266163,5898
1718.3388904178469,5839
1720.3473410294214,5901
1722.3552833580516,5884
1724.3627176609807,5858
1726.3696441955308,5800
1728.3760632191033,5718
1730.3819749891782,5809
1732.3873797633146,5700
1734.3922777991502,5750
1736.3966693544012,5779
1738.4005546868639,5661
1740.4039340544127,5772
1742.406807715001,5677
1744.4091759266616,5684
1746.4110389475054,5901
1748.4123970357223,5744
1750.413250449582,5620
1752.4135994474318,5623
1754.4134442876993,5657
1756.4127852288902,5696
1758.4116225295893,5746
1760.4099564484595,5754
1762.407787244244,5567
1764.405115175764,5670
1766.4019405019203,5576
1768.3982634816916,5657
1770.3940843741357,5672
1772.3894034383907,5559
1774.3842209336717,5644
1776.378537119274,5568
1778.372352254571,5656
1780.3656665990156,5606
1782.3584804121397,5704
1784.3507939535534,5688
1786.3426074829463,5676
1788.3339212600863,5702
1790.3247355448211,5646
1792.3150505970766,5796
1794.3048666768573,5587
1796.2941840442477,5437
1798.2830029594106,5669
1800.2713236825884,5611
1802.2591464741004,5720
1804.2464715943465,5619
1806.2332993038058,5661
1808.2196298630352,5804
1810.2054635326708,5511
1812.190800573428,5548
1814.175641246101,5726
1816.1599858115628,5581
1818.1438345307652,5609
1820.127187664738,5593
1822.1100454745924,5570
1824.092408221516,5553
1826.0742761667766,5667
1828.055649571721,5566
1830.0365286977735,5426
1832.0169138064398,5563
1833.9968051593014,5642
1835.9762030180214,5679
1837.9551076443408,5577
1839.9335193000788,5391
1841.9114382471344,5511
1843.888864747485,5536
1845.8657990631878,5524
1847.842241456378,5541
1849.8181921892697,5578
1851.7936515241558,5482
1853.7686197234098,5474
1855.7430970494815,5539
1857.7170837649014,5557
1859.6905801322787,5489
1861.6635864143004,5601
1863.6361028737338,5450
1865.608129773424,5572
1867.5796673762961,5506
1869.5507159453537,5529
1871.521275743678,5445
1873.4913470344313,5600
1875.4609300808534,5528
1877.4300251462632,5489
1879.3986324940588,5481
1881.366752387717,5577
1883.3343850907936,5610
1885.3015308669228,5515
1887.268189979819,5474
1889.2343626932739,5528
1891.2000492711595,5647
1893.1652499774254,5586
1895.1299650761011,5531
1897.0941948312952,5394
1899.0579395071945,5467
1901.0211993680641,5583
1902.98397467825,5465
1904.9462657021745,5457
1906.9080727043415,5586
1908.869395949332,5598
1910.8302357018065,5582
1912.790592226504,5535
1914.7504657882428,5494
1916.7098566519212,5530
1918.6687650825133,5458
1920.6271913450764,5577
1922.5851357047422,5618
1924.5425984267245,5496
1926.499579776314,5576
1928.4560800188833,5547
1930.4120994198802,5478
1932.367638244833,5380
1934.32269675935,5463
1936.2772752291175,5522
1938.231373919899,5511
1940.1849930975404,5487
1942.1381330279637,5439
1944.0907939771696,5659
1946.0429762112412,5627
1947.9946799963363,5467
1949.9459055986945,5607
1951.896653284633,5515
1953.8469233205478,5589
1955.7967159729142,5588
1957.7460315082863,5584
1959.6948701932974,5547
1961.6432322946594,5513
1963.5911180791632,5673
1965.5385278136787,5496
1967.4854617651545,5419
1969.4319202006182,5484
1971.377903387176,5515
1973.3234115920136,5616
1975.268445082395,5565
1977.2130041256642,5462
1979.1570889892423,5456
1981.1006999406304,5525
1983.04383724741,5520
1984.986501177238,5630
1986.928691997853,5537
1988.8704099770712,5512
1990.811655382789,5772
1992.7524284829801,5556
1994.692729545698,5480
1996.6325588390755,5525
1998.5719166313224,5546
2000.5108031907307,5465
2002.4492187856677,5456
2004.387163684583,5487
2006.3246381560011,5527
2008.2616424685298,5423
2010.1981768908527,5444
2012.1342416917332,5523
2014.069837140014,5297
2016.0049635046162,5489
2017.9396210545406,5516
2019.8738100588666,5465
2021.8075307867502,5475
2023.740783507431,5476
2025.6735684902228,5248
2027.6058860045214,5526
2029.5377363198004,5399
2031.4691197056118,5362
2033.4000364315875,5500
2035.3304867674374,5293
2037.260470982952,5430
2039.189989347998,5452
2041.1190421325232,5413
2043.047629606554,5400
2044.9757520401945,5386
2046.9034097036288,5347
2048.8306028671195,5502
2050.7573318010086,5570
2052.683596775716,5467
2054.609398061742,5633
2056.5347359296647,5519
2058.4596106501403,5526
2060.384022493906,5493
2062.3079717317764,5480
2064.231458634646,5497
2066.1544834734873,5576
2068.077046519352,5447
2069.99914804337,5569
2071.9207883167524,5542
2073.8419676107865,5525
2075.7626861968406,5606
2077.6829443463607,5413
2079.6027423308715,5487
2081.522080421977,5535
2083.440958891362,5617
2085.359378010786,5474
2087.2773380520907,5651
2089.194839287196,5573
2091.111881988101,5537
2093.0284664268825,5378
2094.9445928756973,5532
2096.86026160678,5478
2098.775472892446,5508
2100.690227005088,5486
2102.604524217178,5489
2104.5183648012676,5690
2106.431749029985,5659
2108.34467717604,5532
2110.2571495122206,5529
2112.169166311393,5556
2114.080727846503,5577
2115.9918343905747,5566
2117.902486216711,5583
2119.8126835980956,5707
2121.722426807987,5546
2123.6317161197285,5461
2125.5405518067364,5596
2127.448934142509,5712
2129.356863400624,5666
2131.264339854737,5673
2133.1713637785815,5695
2135.077935445972,5584
2136.9840551308002,5607
2138.889723107037,5728
2140.7949396487334,5617
2142.699705030018,5521
2144.6040195250994,5592
2146.507883408264,5605
2148.4112969538774,5650
2150.3142604363848,5756
2152.2167741303097,5577
2154.1188383102535,5631
2156.0204532508997,5679
2157.9216192270064,5541
2159.822336513414,5646
2161.7226053850413,5698
2163.622426116884,5737
2165.5217989840185,5607
2167.4207242616,5701
2169.319202224862,5688
2171.2172331491165,5644
2173.1148173097563,5551
2175.0119549822507,5678
2176.90864644215,5625
2178.8048919650823,5673
2180.7006918267534,5636
2182.596046302952,5560
2184.4909556695407,5599
2186.3854202024645,5786
2188.279440177746,5737
2190.173015871487,5628
2192.066147559868,5787
2193.958835519149,5611
2195.851080025667,5640
2197.7428813558417,5779
2199.6342397861667,5757
2201.5251555932186,5759
2203.415629053651,5793
2205.3056604441986,5704
2207.19525004167,5762
2209.084398122958,5814
2210.9731049650327,5757
2212.861370844941,5809
2214.749196039812,5671
2216.636580826851,5701
2218.523525483344,5689
2220.410030286655,5706
2222.296095514226,5811
2224.1817214435805,5891
2226.066908352319,5680
2227.951656518121,5737
2229.835966218746,5808
2231.71983773203,5769
2233.6032713358913,5766
2235.486267308324,5834
2237.3688259274036,5860
2239.2509474712824,5715
2241.132632218193,5799
2243.013880446447,5800
2244.8946924344323,5625
2246.7750684606203,5750
2248.6550088035574,5863
2250.534513741871,5678
2252.413583554265,5651
2254.292218519526,5688
2256.170418916517,5696
2258.0481850241786,5671
2259.925517121534,5721
2261.8024154876825,5543
2263.678880401803,5688
2265.5549121431536,5858
2267.430510991071,5692
2269.305677224971,5750
2271.180411124348,5640
2273.0547129687766,5722
2274.9285830379076,5544
2276.8020216114737,5604
2278.6750289692845,5688
2280.5476053912294,5705
2282.4197511572766,5705
2284.2914665474727,5768
2286.162751841943,5774
2288.0336073208937,5676
2289.904033264608,5757
2291.774029953448,5650
2293.6435976678554,5782
2295.5127366883517,5720
2297.381447295534,5545
2299.2497297700825,5472
2301.1175843927526,5538
2302.9850114443825,5510
2304.852011205885,5444
2306.7185839582553,5345
2308.5847299825664,5318
2310.4504495599676,5426
2312.3157429716925,5356
2314.1806104990483,5390
2316.0450524234247,5264
2317.9090690262888,5393
2319.772660589186,5349
2321.635827393742,5372
2323.498569721661,5325
2325.3608878547248,5361
2327.2227820747967,5219
2329.0842526638157,5297
2330.945299903803,5268
2332.805924076857,5319
2334.6661254651535,5212
2336.525904350951,5304
2338.3852610165827,5359
2340.244195744464,5308
2342.102708817088,5150
2343.9608005170253,5372
2345.8184711269287,5335
2347.675720929526,5250
2349.532550207628,5141
2351.38895924412,5257
2353.24494832197,5280
2355.100517724223,5214
2356.955667734004,5229
2358.810398634514,5364
2360.664710709037,5302
2362.5186042409337,5351
2364.3720795136437,5335
2366.225136810686,5294
2368.0777764156583,5225
2369.929998612237,5214
2371.7818036841777,5300
2373.633191915315,5350
2375.484163589562,5178
2377.3347189909114,5196
2379.184858403434,5216
2381.03458211128,5261
2382.8838903986775,5423
2384.732783549936,5363
2386.5812618494406,5296
2388.4293255816588,5371
2390.2769750311327,5261
2392.1242104824883,5293
2393.971032220427,5269
2395.8174405297295,5278
2397.6634356952563,5321
2399.509018001947,5327
2401.3541877348193,5288
2403.1989451789705,5202
2405.043290619576,5318
2406.8872243418905,5324
2408.730746631247,5394
2410.5738577730594,5329
2412.4165580528183,5356
2414.258847756095,5217
2416.100727168537,5385
2417.9421965758734,5422
2419.783256263912,5348
2421.623906518538,5239
2423.4641476257157,5290
2425.303979871491,5233
2427.143403541984,5334
2428.9824189233977,5232
2430.821026302012,5336
2432.6592259641866,5332
2434.497018196361,5228
2436.33440328505,5297
2438.171381516851,5368
2440.00795317844,5240
2441.844118556569,5248
2443.6798779380724,5208
2445.5152316098606,5328
2447.3501798589255,5232
2449.1847229723357,5445
2451.0188612372403,5343
2452.8525949408663,5173
2454.6859243705203,5275
2456.518849813587,5257
2458.3513715575314,5307
2460.183489889895,5334
2462.015205098301,5337
2463.8465174704493,5301
2465.67742729412,5297
2467.5079348571717,5305
2469.338040447542,5233
2471.1677443532476,5227
2472.9970468623833,5300
2474.825948263123,5386
2476.6544488437207,5430
2478.482548892508,5258
2480.310248697896,5409
2482.137548548374,5243
2483.9644487325118,5315
2485.790949538956,5417
2487.617051256433,5346
2489.44275417375,5323
2491.26805857979,5263
2493.0929647635157,5248
2494.917473013971,5232
2496.741583620276,5396
2498.5652968716304,5319
2500.3886130573137,5284
2502.2115324666834,5459
2504.0340553891765,5459
2505.856182114308,5360
2507.6779129316733,5306
2509.499248130945,5330
2511.3201880018764,5226
2513.140732834298,5385
2514.9608829181198,5275
2516.780638543331,5397
2518.6,5327
2520.418967578273,5377
2522.237541568376,5332
2524.0557222606144,5436
2525.8735099453706,5422
2527.6909049131086,5309
2529.507907454368,5245
2531.32451785977,5321
2533.140736420014,5361
2534.9565634258774,5342
2536.771999168218,5375
2538.5870439379714,5384
2540.4016980261526,5378
2542.2159617238544,5420
2544.02983532225,5347
2545.8433191125914,5451
2547.656413386209,5415
2549.4691184345115,5363
2551.2814345489874,5422
2553.093362021204,5395
2554.904901142808,5447
2556.716052205523,5557
2558.526815501153,5366
2560.3371913215824,5388
2562.147179958771,5335
2563.956781704761,5483
2565.7659968516705,5384
2567.5748256916986,5480
2569.3832685171224,5488
2571.1913256202984,5511
2572.9989972936614,5444
2574.806283829725,5528
2576.613185521084,5544
2578.4197026604074,5600
2580.2258355404483,5480
2582.031584454035,5529
2583.836949694077,5520
2585.6419315535613,5479
2587.4465303255533,5486
2589.2507463032002,5530
2591.0545797797245,5530
2592.8580310484303,5607
2594.6611004026995,5511
2596.463788135992,5577
2598.266094541849,5665
2600.0680199138874,5696
2601.869564545807,5576
2603.670728731383,5580
2605.4715127644704,5465
2607.2719169390048,5566
2609.071941548998,5534
2610.8715868885433,5713
2612.670853251811,5477
2614.469740933052,5509
2616.268250226594,5624
2618.0663814268455,5653
2619.864134828292,5558
2621.6615107255006,5548
2623.458509413115,5567
2625.2551311858597,5560
2627.0513763385347,5366
2628.8472451660223,5488
2630.6427379632833,5483
2632.4378550253564,5475
2634.232596647359,5425
2636.026963124488,5470
2637.8209547520187,5472
2639.6145718253065,5292
2641.407814639785,5400
2643.200683490966,5393
2644.9931786744414,5409
2646.7853004858807,5430
2648.577049221034,5384
2650.3684251757277,5311
2652.1594286458712,5344
2653.9500599274484,5410
2655.740319316525,5332
2657.5302071092437,5402
2659.3197236018286,5306
2661.10886909058,5285
2662.8976438718782,5395
2664.686048242183,5268
2666.4740824980327,5360
2668.2617469360443,5292
2670.0490418529134,5243
2671.8359675454153,5324
2673.622524310403,5228
2675.408712444811,5247
2677.1945322456495,5229
2678.979984010009,5158
2680.76506803506,5126
2682.5497846180497,5141
2684.334134056306,5230
2686.1181166472343,5272
2687.9017326883213,5125
2689.6849824771293,5142
2691.4678663113013,5180
2693.2503844885596,5125
2695.032537306705,5099
2696.8143250636167,5225
2698.5957480572542,5158
2700.3768065856534,5134
2702.1575009469316,5083
2703.937831439283,5198
2705.717798360982,5112
2707.4974020103837,5152
2709.276642685917,5157
2711.055520686095,5161
2712.834036309506,5025
2714.612189854819,5013
2716.389981620782,5038
2718.1674119062204,4946
2719.944481010041,5040
2721.721189231226,5054
2723.4975368688415,5091
2725.273524222027,5130
2727.0491515900053,4899
2728.824419272075,5094
2730.5993275676146,4989
2732.3738767760838,5073
2734.148067197016,4989
2735.921899130031,4952
2737.6953728748194,5035
2739.468488731156,5057
2741.2412469988926,5054
2743.0136479779617,5055
2744.785691968372,5046
2746.5573792702116,5011
2748.3287101836504,4953
2750.099685008934,4984
2751.870304046388,4917
2753.640567596418,4968
2755.4104759595057,5019
2757.1800294362156,4951
2758.949228327187,5054
2760.7180729331412,5027
2762.486563554877,4995
2764.254700493272,4961
2766.022484049284,4976
2767.789914523947,5072
2769.5569922183786,4954
2771.3237174337705,4965
2773.090090471394,5008
2774.8561116326036,5147
2776.6217812188274,4892
2778.3870995315756,4911
2780.1520668724356,4954
2781.9166835430747,4995
2783.6809498452394,4937
2785.444866080754,5050
2787.2084325515225,4901
2788.971649559527,5119
2790.73451740683,4951
2792.4970363955713,4993
2794.2592068279705,4938
2796.0210290063264,5073
2797.7825032330147,5013
2799.543629810493,4895
2801.304409041296,4976
2803.0648412280366,4992
2804.8249266734088,4850
2806.5846656801846,5089
2808.344058551212,4944
2810.1031055894246,5050
2811.8618070978273,4902
2813.6201633795085,4939
2815.378174737636,4956
2817.1358414754536,4875
2818.893163896285,4993
2820.6501423035334,4879
2822.4067770006814,4981
2824.1630682912883,4986
2825.9190164789957,4899
2827.6746218675207,4948
2829.429884760661,4855
2831.184805462294,5079
2832.9393842763743,4887
2834.693621506936,4965
2836.4475174580916,4906
2838.201072434034,5057
2839.954286739034,5023
2841.707160677441,5004
2843.459694553685,5030
2845.2118886722724,5017
2846.96374333779,4868
2848.7152588549034,5038
2850.4664355283567,5000
2852.217273662973,5039
2853.9677735636546,5011
2855.7179355353833,4915
2857.4677598832186,5005
2859.217246912299,5001
2860.9663969278427,4995
2862.715210235146,5020
2864.4636871395846,4834
2866.211827946614,4971
2867.9596329617652,4911
2869.7071024906536,4959
2871.4542368389684,4988
2873.20103631248,4850
2874.947501217038,4886
2876.6936318585695,4958
2878.4394285430812,4917
2880.1848915766604,4852
2881.9300212654707,4921
2883.6748179157553,5025
2885.4192818338374,4975
2887.1634133261173,4971
2888.907212699077,4934
2890.6506802592744,4972
2892.393816313348,5010
2894.1366211680142,4910
2895.8790951300693,4974
2897.621238506388,4841
2899.363051603925,4889
2901.1045347297118,4921
2902.8456881908596,4835
2904.58651229456,4920
2906.327007348081,4816
2908.067173658772,4847
2909.8070115340597,4815
2911.5465212814497,4957
2913.285703208527,4942
2915.0245576229563,4844
2916.7630848324807,4837
2918.5012851449196,4846
2920.2391588681758,4888
2921.976706310227,4890
2923.7139277791334,4810
2925.4508235830313,4890
2927.187394030137,4957
2928.923639428745,4911
2930.6595600872306,4904
2932.395156314046,4875
2934.1304284177218,4881
2935.8653767068713,4974
2937.6000014901815,5000
2939.3343030764227,4953
2941.068281774442,4878
2942.8019378931644,5011
2944.5352717415976,4930
2946.2682836288236,4951
2948.0009738640065,4850
2949.7333427563885,4926
2951.465390615289,4697
2953.1971177501086,4861
2954.9285244703265,4915
2956.6596110855,5007
2958.3903779052657,4845
2960.1208252393385,4889
2961.8509533975125,4800
2963.5807626896617,4915
2965.3102534257378,4883
2967.0394259157715,4970
2968.768280469873,4816
2970.496817398232,4781
2972.2250370111146,4976
2973.952939618869,4859
2975.6805255319196,4996
2977.4077950607707,4899
2979.134748516006,4978
2980.861386208289,5022
2982.587708448359,4948
2984.313715547037,4932
2986.039407815222,4944
2987.764785563891,5004
2989.489849104102,4860
2991.2145987469908,4943
2992.9390348037705,4839
2994.6631575857346,4961
2996.3869674042576,4910
2998.1104645707887,4949
2999.83364939686,4805
3001.5565221940783,4921
3003.2790832741334,4879
3005.0013329487924,4949
3006.7232715298996,4895
3008.4448993293804,4836
3010.166216659239,4765
3011.887223831558,4818
3013.607921158498,4855
3015.3283089522993,4869
3017.0483875252826,4933
3018.7681571898443,4869
3020.4876182584626,4815
3022.2067710436927,4855
3023.9256158581707,4874
3025.644153014609,4969
3027.362382825801,4838
3029.0803056046193,4930
3030.797921664012,4868
3032.5152313170106,4824
3034.2322348767225,4857
3035.9489326563353,4761
3037.665324969115,4959
3039.3814121284063,4824
3041.097194447633,4874
3042.812672240299,4872
3044.5278458199855,4868
3046.2427155003525,4870
3047.9572815951406,4950
3049.671544418167,4889
3051.38550428333,4788
3053.0991615046073,4870
3054.812516396051,4812
3056.5255692717974,4851
3058.2383204460575,4859
3059.9507702331257,4851
3061.662918947372,5023
3063.3747669032446,4871
3065.0863144152736,4827
3066.7975617980674,4769
3068.508509366309,4919
3070.219157434767,4843
3071.9295063182844,4874
3073.639556331785,4858
3075.3493077902704,4829
3077.058761008821,4904
3078.7679163025964,4904
3080.476773986837,4910
3082.1853343768594,4823
3083.89359778806,4862
3085.6015645359153,4936
3087.3092349359786,4844
3089.016609303884,4790
3090.7236879553434,4896
3092.4304712061476,5004
3094.136959372166,4879
3095.843152769349,4937
3097.5490517137237,4926
3099.2546565213966,4988
3100.959967508554,4879
3102.66498499146,4902
3104.3697092864577,5015
3106.0741407099695,4985
3107.778279578498,5017
3109.482126208622,4966
3111.1856809170004,4935
3112.8889440203716,5040
3114.5919158355528,4963
3116.294596679439,4891
3117.996986869006,4950
3119.6990867213062,4910
3121.4008965534726,5017
3123.102416682717,5168
3124.803647426329,4970
3126.5045891016784,4917
3128.205242026213,4849
3129.90560651746,5128
3131.605682893025,5039
3133.3054714705922,4980
3135.0049725679282,5081
3136.7041865028714,4927
3138.4031135933465,5058
3140.101754157353,4884
3141.800108512971,4981
3143.498176978357,5077
3145.1959598717494,4938
3146.8934575114636,4925
3148.5906702158954,4986
3150.2875983035183,5051
3151.9842420928853,5012
3153.680601902627,4889
3155.376678051456,5028
3157.07247085816,4853
3158.767980641609,4917
3160.463207720748,4983
3162.158152414606,5025
3163.8528150422862,4952
3165.5471959229726,5016
3167.2412953759303,4980
3168.9351137204976,4985
3170.628651276098,5026
3172.3219083622307,5044
3174.014885298474,5019
3175.707582404485,4993
3177.4000000000005,5007
3179.092138404835,4991
3180.7839979388846,4938
3182.47557892212,4910
3184.166881674594,4963
3185.8579065164386,5080
3187.5486537678626,4981
3189.2391237491547,5027
3190.9293167806827,4965
3192.6192331828934,4891
3194.3088732763117,5055
3195.998237381542,4880
3197.687325819268,4927
3199.376138910251,4836
3201.064676975334,4977
3202.7529403354347,4877
3204.4409293115523,4777
3206.1286442247647,4945
3207.816085396229,4843
3209.5032531471825,4821
3211.190147798936,4654
3212.8767696728846,4798
3214.5631190905015,4837
3216.2491963733373,4769
3217.9350018430214,4785
3219.6205358212637,4756
3221.305798629851,4766
3222.990790590651,4701
3224.6755120256103,4720
3226.359963256751,4636
3228.0441446061795,4768
3229.7280563960758,4700
3231.411698948703,4794
3233.0950725863995,4896
3234.778177631587,4817
3236.461014406761,4897
3238.1435832345005,4992
3239.8258844374595,5007
3241.507918338374,4839
3243.1896852600576,4789
3244.8711855254023,4863
3246.552419457381,4868
3248.233387379042,4847
3249.914089613516,4946
3251.59452648401,4808
3253.274698313813,4682
3254.95460542629,4755
3256.6342481448855,4915
3258.313626793125,4739
3259.9927416946084,4645
3261.6715931730196,4729
3263.3501815521176,4848
3265.0285071557437,4783
3266.706570307815,4754
3268.3843713323286,4772
3270.0619105533615,4716
3271.739188295068,4761
3273.4162048816834,4853
3275.0929606375184,4743
3276.769455886966,4720
3278.445690954498,4754
3280.1216661646613,4770
3281.797381842087,4824
3283.4728383114807,4810
3285.1480358976296,4808
3286.8229749253996,4794
3288.4976557197333,4684
3290.172078605655,4658
3291.846243908266,4724
3293.5201519527463,4840
3295.193803064357,4645
3296.8671975684374,4741
3298.5403357904024,4731
3300.21321805575,4723
3301.8858446900567,4685
3303.558216018975,4759
3305.23033236824,4637
3306.9021940636603,4766
3308.57380143113,4784
3310.2451547966184,4824
3311.916254486174,4849
3313.5871008259246,4759
3315.2576941420766,4785
3316.9280347609147,4798
3318.5981230088046,4735
3320.2679592121895,4848
3321.9375436975924,4763
3323.606876791612,4667
3325.27595882093,4733
3326.944790112305,4750
3328.6133709925753,4718
3330.2817017886573,4698
3331.949782827547,4765
3333.617614436319,4732
3335.2851969421245,4764
3336.952530672199,4716
3338.619615953853,4765
3340.286453114475,4834
3341.9530424815357,4819
3343.619384382583,4931
3345.2854791452437,4893
3346.951327097224,4840
3348.6169285663073,4823
3350.2822838803577,4824
3351.947393367319,4822
3353.61225735521,4864
3355.2768761721345,4884
3356.9412501462693,4631
3358.605379605873,4690
3360.2692648792827,4656
3361.9329062949146,4708
3363.596304181263,4772
