CollectionTime,7/10/2024 4:45:51 PM
ExposureUsed,3
CalibratedSpectrum
-962.7078968117929,576
-959.9714848408522,612
-957.2358232597828,606
-954.5009119013725,636
-951.7667505983302,612
-949.0333391832855,633
-946.3006774887896,619
-943.5687653473143,637
-940.837602591253,611
-938.1071890529199,601
-935.3775245645503,634
-932.6486089583007,576
-929.9204420662485,646
-927.1930237203925,671
-924.4663537526524,643
-921.7404319948689,645
-919.0152582788041,636
-916.2908324361409,658
-913.5671542984834,629
-910.8442236973568,647
-908.1220404642074,609
-905.4006044304027,652
-902.679915427231,602
-899.959973285902,641
-897.2407778375464,613
-894.5223289132158,621
-891.8046263438832,622
-889.0876699604426,589
-886.3714595937089,590
-883.6559950744183,598
-880.9412762332282,611
-878.2273029007168,584
-875.5140749073835,606
-872.8015920836489,610
-870.0898542598545,589
-867.3788612662631,621
-864.6686129330585,591
-861.9591090903457,606
-859.2503495681506,596
-856.5423341964203,607
-853.8350628050229,612
-851.1285352237478,604
-848.4227512823054,602
-845.7177108103272,582
-843.0134136373656,618
-840.3098595928943,604
-837.6070485063082,630
-834.9049802069229,614
-832.2036545239757,597
-829.5030712866244,638
-826.8032303239481,626
-824.1041314649472,644
-821.4057745385428,600
-818.7081593735775,617
-816.0112857988148,593
-813.3151536429393,597
-810.6197627345566,622
-807.9251129021936,614
-805.2312039742981,591
-802.5380357792392,603
-799.8456081453069,604
-797.1539209007124,620
-794.462973873588,617
-791.772766891987,635
-789.083299783884,643
-786.3945723771743,625
-783.7065844996748,613
-781.0193359791231,608
-778.3328266431781,598
-775.6470563194197,607
-772.9620248353489,641
-770.2777320183878,613
-767.5941776958798,626
-764.9113616950891,632
-762.2292838432011,616
-759.5479439673222,625
-756.8673418944801,633
-754.1874774516235,616
-751.5083504656222,620
-748.8299607632671,645
-746.15230817127,615
-743.475392516264,635
-740.7992136248035,645
-738.1237713233636,649
-735.4490654383407,633
-732.7750957960521,646
-730.1018622227365,656
-727.4293645445534,675
-724.7576025875837,669
-722.0865761778291,662
-719.4162851412126,665
-716.7467293035781,666
-714.0779084906909,675
-711.409822528237,653
-708.7424712418238,668
-706.0758544569796,661
-703.4099719991541,662
-700.7448236937178,631
-698.0804093659622,685
-695.4167288411002,682
-692.7537819442656,685
-690.0915685005134,677
-687.4300883348199,714
-684.7693412720819,721
-682.1093271371178,702
-679.4500457546669,681
-676.7914969493897,706
-674.1336805458676,703
-671.4765963686034,724
-668.8202442420206,693
-666.1646239904642,704
-663.5097354382001,728
-660.8555784094151,736
-658.2021527282176,702
-655.5494582186366,731
-652.8974947046223,732
-650.2462620100463,703
-647.5957599587009,726
-644.9459883742998,747
-642.2969470804776,716
-639.6486359007902,725
-637.0010546587141,748
-634.3542031776476,713
-631.7080812809096,715
-629.0626887917401,722
-626.4180255333008,725
-623.7740913286734,715
-621.1308860008619,775
-618.4884093727904,739
-615.8466612673046,737
-613.2056415071715,727
-610.5653499150785,694
-607.9257863136347,746
-605.28695052537,744
-602.6488423727357,736
-600.0114616781036,706
-597.3748082637674,720
-594.7388819519412,760
-592.1036825647604,710
-589.4692099242818,771
-586.8354638524829,749
-584.2024441712624,738
-581.5701507024403,794
-578.9385832677575,786
-576.3077416888759,802
-573.6776257873787,773
-571.0482353847704,765
-568.4195703024757,784
-565.7916303618415,790
-563.164415384135,788
-560.5379251905453,788
-557.9121596021815,786
-555.2871184400748,770
-552.6628015251767,782
-550.0392086783606,799
-547.4163397204204,816
-544.794194472071,825
-542.1727727539491,837
-539.5520743866118,824
-536.9320991905377,800
-534.3128469861261,835
-531.6943175936979,864
-529.0765108334947,912
-526.4594265256793,935
-523.8430644903358,1091
-521.2274245474689,1165
-518.612506517005,1266
-515.9983102187913,1243
-513.3848354725959,1207
-510.77208209810846,1176
-508.16004991493924,1252
-505.5487387426199,1359
-502.9381484006032,1550
-500.3282787082628,1633
-497.71912948489364,1596
-495.1107005497117,1554
-492.5029917218539,1405
-489.8960028203786,1224
-487.28973366426493,1202
-484.68418407241325,1049
-482.07935386364494,1086
-479.47524285670266,991
-476.87185087025,982
-474.2691777228715,1020
-471.66722323307334,968
-469.0659872192821,976
-466.4654694998459,1013
-463.86566989303384,956
-461.26658821703614,958
-458.66822428996414,954
-456.07057792985,974
-453.4736489546475,988
-450.877437182231,971
-448.28194243039627,922
-445.68716451686,965
-443.09310325926003,894
-440.49975847515555,906
-437.9071299820263,939
-435.31521759727354,926
-432.72402113821954,988
-430.13354042210767,969
-427.5437752661022,986
-424.95472548728867,1006
-422.36639090267386,990
-419.7787713291855,1018
-417.1918665836721,1039
-414.60567648290385,1030
-412.0202008435715,1016
-409.4354394822874,1017
-406.8513922155845,1054
-404.26805885991723,1023
-401.685439231661,1085
-399.103533147112,1018
-396.522340422488,1033
-393.9418608739278,1062
-391.3620943174908,993
-388.7830405691583,1042
-386.2046994448317,921
-383.6270707603344,934
-381.05015433141045,858
-378.473949973725,829
-375.8984575028645,789
-373.32367673433623,735
-370.74960748356875,689
-368.1762495659117,658
-365.60360279663576,607
-363.03166699093265,559
-360.4604419639154,507
-357.8899275306178,511
-355.32012350599507,497
-352.7510297049233,479
-350.1826459421999,460
-347.61497203254316,454
-345.04800779059235,446
-342.4817530309082,449
-339.91620756797226,434
-337.35137121618743,456
-334.7872437898774,460
-332.22382510328725,487
-329.66111497058273,447
-327.09911320585127,442
-324.53781962310075,487
-321.9772340362607,464
-319.4173562591816,486
-316.8581861056348,465
-314.2997233893127,445
-311.7419679238294,446
-309.1849195227194,442
-306.62857799943856,487
-304.0729431673641,529
-301.51801483979375,471
-298.963792829947,486
-296.41027695096386,515
-293.85746701590574,511
-291.3053628377552,518
-288.7539642294155,495
-286.2032710037115,490
-283.65328297338897,503
-281.1039999511146,509
-278.5554217494762,547
-276.007548180983,521
-273.4603790580651,509
-270.9139141930734,522
-268.3681533982807,542
-265.8230964858798,581
-263.27874326798565,551
-260.7350935566336,555
-258.1921471637804,538
-255.6499039013039,528
-253.10836358100266,570
-250.56752601459698,578
-248.02739101372765,541
-245.48795838995704,571
-242.94922795476816,568
-240.41119951956557,559
-237.8738728956746,577
-235.33724789434166,605
-232.80132432673452,570
-230.2661020039418,574
-227.73158073697357,588
-225.19776033676033,581
-222.66464061415422,593
-220.1322213799284,564
-217.60050244477725,605
-215.06948361931552,618
-212.53916471408013,649
-210.00954553952818,627
-207.48062590603843,640
-204.9524056239104,681
-202.4248845033651,643
-199.8980623545441,656
-197.37193898751036,670
-194.84651421224817,719
-192.32178783866232,706
-189.79775967657952,728
-187.27442953574644,755
-184.7517972258321,744
-182.2298625564256,756
-179.7086253370378,687
-177.18808537710026,730
-174.66824248596583,673
-172.14909647290835,722
-169.6306471471229,765
-167.11289431772548,739
-164.59583779375328,703
-162.07947738416453,732
-159.5638128978386,800
-157.04884414357605,815
-154.53457093009854,830
-152.02099306604828,792
-149.50811035998936,737
-146.99592262040665,733
-144.48442965570587,868
-141.97363127421409,834
-139.46352728417958,860
-136.95411749377126,888
-134.44540171107985,781
-131.93737974411636,752
-129.43005140081357,745
-126.92341648902493,945
-124.41747481652521,1322
-121.91222619101006,1622
-119.40767042009657,1818
-116.90380731132257,1784
-114.40063667214702,1890
-111.8981583099503,2216
-109.3963720320337,2194
-106.89527764561933,1682
-104.39487495785067,1688
-101.89516377579241,2143
-99.39614390642998,3486
-96.89781515667039,4135
-94.40017733334128,3931
-91.90323024319173,3042
-89.40697369289148,2262
-86.91140748903172,2130
-84.41653143812482,2948
-81.92234534660395,4234
-79.42884902082358,5035
-76.93604226705907,5707
-74.4439248915071,7946
-71.95249670028534,11912
-69.46175749943245,14497
-66.97170709490854,15497
-64.48234529259423,15397
-61.99367189829195,13027
-59.50568671772464,9247
-57.01838955653636,6570
-54.53178022029283,7088
-52.045858514480074,8297
-49.560624244506016,8585
-47.07607721569923,9118
-44.59221723330904,9897
-42.10904410250669,10491
-39.62655762838392,9048
-37.14475761595372,7881
-34.66364387015028,8209
-32.18321619582866,8261
-29.70347439776515,8514
-27.224418280657005,8619
-24.74604764912317,9374
-22.26836230770266,11820
-19.7913620608565,19021
-17.315046712966478,31463
-14.83941606833514,43727
-12.36446993118659,65038
-9.89020810566592,65038
-7.416630395839093,65038
-4.94373660569363,65038
-2.471526539137585,65038
-6.821210263296962E-13,65038
2.47084320796705,65038
4.941003281093458,65038
7.410480415786196,65038
9.879274808531363,65038
12.347386655893956,65038
14.814816154518212,65038
17.28156350112681,65038
19.74762889252179,65038
22.21301252558385,65038
24.67771459727237,20701
27.141735304626195,3852
29.605074844762612,2498
32.06773341487792,2082
34.52971121224755,1949
36.99100843422559,1999
39.45162527824516,1944
41.91156194181792,1771
44.370818622535126,1457
46.82939551806646,1162
49.287292826160524,1337
51.74451074464503,1551
54.201049471426245,1426
56.65690920448981,1263
59.112090141899785,1162
61.56659248179983,1209
64.02041642241159,1197
66.4735621620365,970
68.92602989905402,981
71.37781983192338,1092
73.82893215918205,1138
76.27936707944684,1131
78.72912479141326,1058
81.17820549385567,961
83.62660938562783,1102
86.07433666566146,1082
88.5213875329681,992
90.96776218663751,926
93.41346082583925,812
95.85848364982041,922
98.30283085790859,1062
100.7465026495089,1004
103.18949922410604,938
105.63182078126385,961
108.07346752062438,911
110.51443964190923,1008
112.95473734491827,1008
115.39436082953114,833
117.83331029570547,796
120.27158594347827,779
122.7091879729652,827
125.1461165843615,868
127.58237197794062,951
130.01795435405518,877
132.4528639131364,839
134.88710085569494,883
137.32066538231982,857
139.75355769367923,855
142.1857779905207,775
144.61732647366978,779
147.04820334403132,790
149.47840880258934,848
151.90794305040674,941
154.33680628862487,935
156.76499871846443,1136
159.19252054122433,1353
161.61937195828352,1441
164.04555317109896,1575
166.47106438120693,1715
168.89590579022217,1895
171.320077599839,2112
173.7435800118302,2212
176.16641322804742,2375
178.58857745042144,2493
181.01007288096173,2656
183.43089972175687,2745
185.85105817497413,2575
188.27054844285988,2635
190.6893707277394,2583
193.10752523201643,2597
195.5250121581745,2609
197.9418317087751,2858
200.3579840864594,2792
202.7734694939469,2899
205.18828813403627,2790
207.6024402096051,2942
210.01592592360964,3005
212.42874547908548,2874
214.84089907914665,3014
217.2523869269868,2942
219.66320922587727,2816
222.0733661791695,2745
224.48285799029293,2881
226.8916848627572,2918
229.29984700014882,2854
231.7073446061355,2932
234.11417788446204,2942
236.520347038953,2888
238.92585227351185,2942
241.33069379212054,3033
243.73487179884035,2967
246.1383864978112,3074
248.541238093252,3166
250.9434267894609,3093
253.34495279081432,3239
255.74581630176783,3191
258.1460175268563,3097
260.54555667069314,3153
262.9444339379703,3162
265.3426495334594,2962
267.7402036620107,2930
270.1370965285529,2978
272.53332833809407,2846
274.9288992957214,2808
277.32380960660055,2754
279.718059475976,2705
282.1116491091717,2643
284.5045787115897,2758
286.89684848871195,2616
289.2884586460981,2696
291.67940938938807,2707
294.0697009242996,2668
296.4593334566299,2745
298.84830719225477,2604
301.23662233712923,2623
303.6242790972866,2657
306.01127767884,2602
308.39761828798066,2586
310.78330113097934,2527
313.16832641418534,2500
315.5526943440269,2471
317.9364051270112,2425
320.3194589697242,2326
322.70185607883093,2468
325.0835966610754,2434
327.4646809232805,2362
329.8451090723478,2297
332.2248813152577,2325
334.6039978590701,2308
336.9824589109231,2356
339.36026467803447,2407
341.7374153677,2234
344.113911187295,2272
346.48975234427337,2295
348.8649390461686,2250
351.2394715005918,2292
353.61334991523415,2213
355.9865744978655,2315
358.35914545633375,2304
360.73106299856715,2257
363.10232733257146,2214
365.47293866643247,2135
367.84289720831396,2112
370.2122031664593,2173
372.5808567491905,2179
374.9488581649083,2142
377.31620762209275,2106
379.6829053293021,2110
382.0489514951745,2107
384.4143463284262,2172
386.7790900378528,2136
389.14318283232853,2133
391.50662492080653,2098
393.86941651231916,2111
396.23155781597745,2134
398.5930490409713,2130
400.9538903965696,2071
403.3140820921202,2142
405.6736243370498,2084
408.03251734086336,2033
410.3907613131465,2080
412.74835646356166,2091
415.10530300185144,2071
417.4616011378372,2118
419.81725108141893,2059
422.1722530425758,2037
424.5266072313656,2125
426.880313857925,2038
429.2333731324701,2079
431.58578526529516,1981
433.9375504667738,2090
436.2886689473588,2047
438.63914091758113,1999
440.9889665880513,2074
443.33814616945835,1990
445.68667987257015,2033
448.03456790823395,1918
450.3818104873759,1968
452.72840782100013,1971
455.07436012019105,1975
457.41966759611057,2063
459.7643304600007,2045
462.10834892318155,2081
464.4517231970525,2050
466.79445349309174,2079
469.1365400228566,1996
471.4779829979826,2038
473.81878263018564,1990
476.15893913125876,2033
478.4984527130747,1996
480.8373235875855,2083
483.17555196682144,2215
485.5131380628919,2236
487.8500820879857,2229
490.1863842543697,2319
492.52204477439034,2505
494.8570638604725,2635
497.1914417251204,2846
499.52517858091653,3073
501.85827464052306,3254
504.19073011668036,3357
506.5225452222086,3383
508.85372017000566,3329
511.18425517304956,3207
513.514150444396,3393
515.8434061971808,4110
518.1720226446176,4913
520.4999999999999,5306
522.8273384766991,5049
525.1540382881666,4681
527.480099647932,4213
529.8055227696037,3512
532.1303078668694,2827
534.454455153496,2455
536.777964843328,2274
539.1008371502907,2158
541.4230722883866,2103
543.744670471698,2192
546.0656319143858,2066
548.3859568306899,2065
550.7056454349294,2122
553.0246979415016,2042
555.3431145648834,2046
557.6608955196306,1985
559.978041020377,2066
562.2945512818363,1957
564.6104265188006,2082
566.9256669461412,2075
569.2402727788082,2015
571.5542442318302,2114
573.8675815203156,2038
576.1802848594508,2130
578.4923544645015,2092
580.8037905508126,2084
583.114593333807,2155
585.4247630289875,2153
587.7342998519354,2085
590.0432040183106,2069
592.3514757438526,2076
594.6591152443794,2167
596.9661227357875,2113
599.2724984340531,2179
601.578242555231,2111
603.8833553154542,2192
606.1878369309362,2118
608.4916876179676,2118
610.7949075929192,2093
613.0974970722403,2084
615.3994562724587,2068
617.7007854101818,2071
620.0014847020951,2199
622.3015543649641,2114
624.6009946156324,2134
626.8998056710224,2092
629.1979877481361,2128
631.4955410640538,2128
633.7924658359349,2079
636.0887622810175,2084
638.3844306166192,2108
640.6794710601358,2016
642.9738838290426,2152
645.2676691408932,2152
647.5608272133207,2088
649.853358264037,2090
652.1452625108324,2212
654.4365401715764,2162
656.7271914642178,2145
659.0172166067838,2244
661.3066158173809,2070
663.5953893141935,2040
665.8835373154867,2092
668.1710600396028,2096
670.4579577049639,2090
672.7442305300709,2159
675.0298787335033,2144
677.3149025339197,2125
679.599302150058,2047
681.8830778007342,2156
684.1662297048437,2040
686.4487580813608,2125
688.7306631493387,2136
691.0119451279091,2177
693.2926042362834,2178
695.5726406937516,2129
697.8520547196814,2068
700.1308465335215,2124
702.4090163547982,2085
704.6865644031171,2178
706.9634908981619,2080
709.2397960596965,2106
711.5154801075631,2085
713.7905432616823,2064
716.0649857420548,2121
718.3388077687592,2110
720.612009561953,2092
722.8845913418733,2112
725.1565533288352,2118
727.427895743234,2105
729.6986188055427,2045
731.9687227363137,2034
734.238207756178,2074
736.5070740858458,2064
738.7753219461066,1985
741.0429515578281,2057
743.3099631419569,2066
745.5763569195191,2046
747.8421331116193,2070
750.1072919394409,2100
752.3718336242467,2095
754.6357583873777,2084
756.8990664502545,2020
759.1617580343765,2113
761.423833361321,2036
763.6852926527457,2079
765.9461361303862,2082
768.206364016058,2199
770.4659765316536,2118
772.7249738991469,2065
774.9833563405886,2125
777.2411240781092,2081
779.4982773339183,2048
781.7548163303044,2059
784.010741289634,2155
786.2660524343538,2185
788.5207499869881,2164
790.7748341701416,2066
793.0283052064964,2182
795.2811633188143,2144
797.5334087299362,2152
799.7850416627813,2070
802.0360623403484,2152
804.2864709857143,2123
806.5362678220353,2138
808.7854530725468,2180
811.0340269605625,2166
813.2819897094754,2100
815.5293415427581,2145
817.77608268396,2178
820.0222133567116,2154
822.2677337847211,2154
824.5126441917765,2166
826.7569448017433,2167
829.0006358385675,2137
831.2437175262731,2136
833.4861900889629,2179
835.7280537508192,2165
837.9693087361026,2072
840.2099552691533,2164
842.4499935743896,2163
844.689423876309,2105
846.9282463994886,2134
849.1664613685833,2148
851.4040690083276,2133
853.6410695435349,2110
855.877463199097,2102
858.1132501999847,2071
860.3484307712487,2150
862.5830051380175,2091
864.8169735254988,2229
867.0503361589791,2249
869.2830932638243,2119
871.5152450654786,2105
873.7467917894654,2182
875.9777336613873,2126
878.2080709069252,2239
880.4378037518389,2206
882.666932421968,2154
884.8954571432301,2196
887.1233781416219,2227
889.3506956432192,2244
891.5774098741766,2209
893.803521060728,2215
896.0290294291852,2267
898.2539352059397,2212
900.4782386174619,2237
902.7019398903011,2218
904.925039251085,2247
907.147536926521,2219
909.3694331433943,2162
911.59072812857,2173
913.8114221089921,2289
916.0315153116827,2180
918.2510079637437,2090
920.4699002923547,2094
922.6881925247761,2130
924.905884888345,2256
927.1229776104793,2146
929.3394709186747,2125
931.555365040506,2085
933.7706602036275,2167
935.9853566357709,2161
938.1994545647489,2172
940.4129542184515,2191
942.6258558248488,2198
944.8381596119883,2145
947.0498658079974,2165
949.2609746410825,2145
951.4714863395287,2078
953.6814011316998,2064
955.8907192460387,2142
958.0994409110671,2063
960.3075663553858,2039
962.5150958076741,2111
964.7220294966913,2055
966.928367651274,2108
969.1341105003388,2098
971.3392582728806,2086
973.5438111979742,2078
975.747769504772,2050
977.9511334225061,2057
980.153903180487,2022
982.3560790081052,2075
984.5576611348289,2050
986.7586497902058,2033
988.9590452038618,1986
991.158847605503,1965
993.3580572249133,2003
995.5566742919558,2037
997.7546990365728,1939
999.952131688785,1954
1002.1489724786926,1831
1004.3452216364743,1890
1006.5408793923874,1861
1008.7359459767691,1894
1010.9304216200343,1765
1013.1243065526781,1883
1015.3176010052733,1773
1017.510305208472,1755
1019.7024193930064,1808
1021.8939437896848,1744
1024.0848786293977,1772
1026.2752241431122,1757
1028.4649805618747,1753
1030.6541481168115,1790
1032.842727039127,1747
1035.0307175601051,1757
1037.2181199111074,1760
1039.4049343235752,1772
1041.591161029029,1763
1043.7768002590683,1800
1045.9618522453698,1752
1048.1463172196918,1756
1050.3301954138697,1822
1052.513487059818,1743
1054.69619238953,1732
1056.8783116350783,1754
1059.0598450286152,1851
1061.2407928023704,1778
1063.4211551886528,1731
1065.6009324198508,1860
1067.780124728432,1767
1069.9587323469414,1685
1072.1367555080046,1756
1074.314194444325,1701
1076.4910493886855,1708
1078.667320573947,1813
1080.843008233051,1666
1083.0181125990161,1697
1085.1926339049414,1713
1087.3665723840027,1739
1089.5399282694575,1695
1091.7127017946405,1727
1093.8848931929647,1776
1096.0565026979243,1670
1098.2275305430899,1633
1100.3979769621128,1614
1102.567842188722,1719
1104.737126456726,1754
1106.9058300000124,1675
1109.0739530525475,1628
1111.2414958483764,1598
1113.4084586216231,1713
1115.5748416064907,1670
1117.7406450372605,1642
1119.9058691482942,1702
1122.0705141740304,1676
1124.2345803489884,1616
1126.3980679077658,1621
1128.5609770850388,1616
1130.7233081155623,1600
1132.8850612341707,1601
1135.0462366757774,1631
1137.2068346753745,1626
1139.3668554680326,1623
1141.526299288901,1613
1143.68516637321,1624
1145.8434569562655,1621
1148.001171273455,1580
1150.158309560244,1555
1152.3148720521767,1623
1154.470858984876,1646
1156.626270594044,1578
1158.7811071154629,1629
1160.9353687849912,1619
1163.089055838569,1606
1165.242168512213,1615
1167.3947070420209,1595
1169.5466716641677,1593
1171.6980626149075,1566
1173.8488801305748,1572
1175.9991244475814,1630
1178.1487958024186,1590
1180.2978944316555,1566
1182.4464205719428,1581
1184.5943744600072,1598
1186.7417563326567,1583
1188.8885664267755,1627
1191.0348049793297,1538
1193.1804722273619,1533
1195.325568407995,1578
1197.4700937584303,1589
1199.614048515948,1556
1201.7574329179074,1629
1203.900247201746,1564
1206.042491604982,1572
1208.1841663652099,1626
1210.3252717201053,1645
1212.465807907422,1600
1214.6057751649923,1622
1216.7451737307279,1587
1218.8840038426192,1516
1221.0222657387353,1662
1223.1599596572241,1588
1225.2970858363137,1644
1227.4336445143094,1642
1229.5696359295966,1601
1231.705060320639,1650
1233.8399179259786,1667
1235.9742089842384,1627
1238.107933734118,1651
1240.2410924143974,1642
1242.373685263935,1631
1244.5057125216676,1651
1246.6371744266116,1619
1248.7680712178621,1571
1250.898403134593,1646
1253.028170416058,1694
1255.1573733015875,1679
1257.2860120305932,1728
1259.4140868425648,1599
1261.54159797707,1584
1263.6685456737569,1658
1265.7949301723515,1632
1267.9207517126597,1676
1270.046010534565,1667
1272.1707068780306,1661
1274.2948409830983,1650
1276.4184130898889,1778
1278.541423438603,1722
1280.6638722695184,1774
1282.785759822993,1699
1284.9070863394636,1687
1287.0278520594447,1751
1289.1480572235314,1770
1291.2677020723963,1683
1293.3867868467923,1751
1295.5053117875495,1725
1297.623277135579,1769
1299.740683131868,1782
1301.8575300174857,1777
1303.973818033578,1731
1306.0895474213703,1743
1308.2047184221678,1768
1310.3193312773528,1791
1312.4333862283888,1738
1314.5468835168163,1734
1316.659823384255,1803
1318.7722060724045,1694
1320.8840318230418,1823
1322.9953008780249,1783
1325.1060134792888,1781
1327.2161698688478,1817
1329.3257702887959,1790
1331.4348149813054,1830
1333.5433041886276,1730
1335.6512381530933,1804
1337.7586171171101,1790
1339.8654413231675,1824
1341.9717110138317,1754
1344.0774264317488,1790
1346.1825878196432,1769
1348.2871954203192,1681
1350.3912494766587,1756
1352.4947502316231,1742
1354.5976979282532,1722
1356.7000928096686,1743
1358.8019351190665,1782
1360.9032250997243,1813
1363.0039629949988,1764
1365.1041490483235,1784
1367.2037835032133,1753
1369.3028666032606,1743
1371.401398592137,1744
1373.4993797135926,1846
1375.5968102114575,1729
1377.6936903296396,1728
1379.7900203121262,1792
1381.8858004029835,1714
1383.9810308463561,1784
1386.075711886469,1807
1388.1698437676241,1770
1390.2634267342032,1730
1392.356461030667,1835
1394.4489469015557,1790
1396.5408845914872,1723
1398.6322743451592,1834
1400.7231164073469,1780
1402.813411022907,1816
1404.903158436773,1849
1406.9923588939578,1824
1409.0810126395531,1835
1411.1691199187303,1797
1413.2566809767386,1894
1415.343696058907,1843
1417.4301654106425,1862
1419.5160892774315,1839
1421.6014679048399,1871
1423.6863015385125,1902
1425.7705904241707,1944
1427.8543348076178,1915
1429.9375349347342,1916
1432.0201910514802,1893
1434.102303403894,2027
1436.1838722380944,2000
1438.2648978002767,1976
1440.3453803367174,2090
1442.4253200937692,2008
1444.5047173178677,2004
1446.5835722555234,2014
1448.6618851533285,2116
1450.739656257952,2091
1452.8168858161434,2109
1454.8935740747306,2131
1456.96972128062,2169
1459.045327680797,2109
1461.120393522327,2193
1463.1949190523528,2263
1465.2689045180973,2348
1467.3423501668608,2309
1469.415256246024,2341
1471.4876230030463,2427
1473.559450685465,2355
1475.6307395408976,2379
1477.7014898170391,2398
1479.771701761665,2453
1481.8413756226287,2456
1483.9105116478618,2538
1485.9791100853772,2523
1488.0471711832643,2580
1490.1146951896926,2579
1492.1816823529098,2656
1494.2481329212433,2739
1496.3140471430984,2675
1498.3794252669609,2839
1500.4442675413939,2838
1502.5085742150404,2841
1504.572345536622,2804
1506.6355817549388,2859
1508.6982831188702,2834
1510.7604498773744,2845
1512.8220822794883,2946
1514.8831805743293,3026
1516.9437450110909,2911
1519.003775839048,2977
1521.0632733075522,3053
1523.1222376660367,3132
1525.1806691640113,3034
1527.2385680510652,3043
1529.2959345768668,3142
1531.3527689911643,3199
1533.4090715437833,3313
1535.4648424846291,3157
1537.5200820636855,3205
1539.5747905310159,3360
1541.6289681367616,3263
1543.6826151311434,3386
1545.7357317644614,3455
1547.7883182870937,3432
1549.8403749494987,3482
1551.8919020022113,3571
1553.9428996958477,3646
1555.9933682811015,3605
1558.0433080087469,3746
1560.0927191296346,3823
1562.1416018946961,3811
1564.1899565549415,3835
1566.2377833614592,3770
1568.2850825654164,3751
1570.3318544180606,3745
1572.3780991707158,3556
1574.423817074788,3485
1576.4690083817595,3381
1578.5136733431923,3277
1580.5578122107272,3108
1582.601425236085,3082
1584.6445126710646,2916
1586.6870747675434,2731
1588.7291117774776,2646
1590.7706239529034,2563
1592.8116115459347,2480
1594.8520748087658,2415
1596.8920139936686,2389
1598.9314293529933,2305
1600.9703211391711,2183
1603.008689604711,2090
1605.0465350022005,2138
1607.0838575843068,2090
1609.1206576037753,2065
1611.1569353134305,2025
1613.1926909661765,1919
1615.2279248149953,1929
1617.2626371129481,1949
1619.2968281131757,1950
1621.3304980688963,1935
1623.3636472334088,1858
1625.39627586009,1819
1627.428384202396,1840
1629.459972513861,1752
1631.4910410480993,1776
1633.5215900588028,1765
1635.551619799744,1841
1637.5811305247717,1746
1639.6101224878166,1762
1641.6385959428862,1732
1643.6665511440683,1785
1645.693988345528,1705
1647.7209078015112,1741
1649.7473097663405,1713
1651.7731944944203,1670
1653.7985622402307,1629
1655.823413258333,1679
1657.847747803366,1787
1659.8715661300494,1691
1661.8948684931793,1732
1663.9176551476316,1665
1665.9399263483624,1683
1667.9616823504057,1747
1669.982923408873,1695
1672.0036497789574,1685
1674.0238617159293,1681
1676.043559475138,1658
1678.0627433120121,1644
1680.081413482059,1629
1682.0995702408654,1724
1684.117213844096,1599
1686.134344547495,1669
1688.1509626068864,1724
1690.1670682781705,1676
1692.182661817329,1656
1694.1977434804217,1674
1696.2123135235875,1723
1698.226372203043,1704
1700.2399197750851,1680
1702.2529564960905,1684
1704.2654826225112,1696
1706.277498410882,1710
1708.2890041178139,1645
1710.2999999999988,1668
1712.3104863142066,1632
1714.3204633172854,1613
1716.329931266163,1619
1718.3388904178469,1661
1720.3473410294214,1589
1722.3552833580516,1568
1724.3627176609807,1544
1726.3696441955308,1593
1728.3760632191033,1645
1730.3819749891782,1602
1732.3873797633146,1590
1734.3922777991502,1635
1736.3966693544012,1574
1738.4005546868639,1622
1740.4039340544127,1580
1742.406807715001,1612
1744.4091759266616,1530
1746.4110389475054,1540
1748.4123970357223,1583
1750.413250449582,1525
1752.4135994474318,1602
1754.4134442876993,1614
1756.4127852288902,1595
1758.4116225295893,1566
1760.4099564484595,1567
1762.407787244244,1489
1764.405115175764,1501
1766.4019405019203,1538
1768.3982634816916,1525
1770.3940843741357,1563
1772.3894034383907,1550
1774.3842209336717,1555
1776.378537119274,1539
1778.372352254571,1597
1780.3656665990156,1507
1782.3584804121397,1524
1784.3507939535534,1540
1786.3426074829463,1509
1788.3339212600863,1535
1790.3247355448211,1516
1792.3150505970766,1442
1794.3048666768573,1521
1796.2941840442477,1497
1798.2830029594106,1563
1800.2713236825884,1523
1802.2591464741004,1481
1804.2464715943465,1585
1806.2332993038058,1520
1808.2196298630352,1576
1810.2054635326708,1523
1812.190800573428,1523
1814.175641246101,1565
1816.1599858115628,1535
1818.1438345307652,1514
1820.127187664738,1517
1822.1100454745924,1514
1824.092408221516,1552
1826.0742761667766,1531
1828.055649571721,1518
1830.0365286977735,1526
1832.0169138064398,1551
1833.9968051593014,1529
1835.9762030180214,1481
1837.9551076443408,1504
1839.9335193000788,1535
1841.9114382471344,1522
1843.888864747485,1587
1845.8657990631878,1527
1847.842241456378,1500
1849.8181921892697,1520
1851.7936515241558,1501
1853.7686197234098,1511
1855.7430970494815,1488
1857.7170837649014,1443
1859.6905801322787,1489
1861.6635864143004,1517
1863.6361028737338,1447
1865.608129773424,1501
1867.5796673762961,1432
1869.5507159453537,1434
1871.521275743678,1503
1873.4913470344313,1494
1875.4609300808534,1479
1877.4300251462632,1497
1879.3986324940588,1466
1881.366752387717,1511
1883.3343850907936,1500
1885.3015308669228,1474
1887.268189979819,1518
1889.2343626932739,1499
1891.2000492711595,1482
1893.1652499774254,1535
1895.1299650761011,1590
1897.0941948312952,1540
1899.0579395071945,1458
1901.0211993680641,1542
1902.98397467825,1540
1904.9462657021745,1479
1906.9080727043415,1504
1908.869395949332,1564
1910.8302357018065,1496
1912.790592226504,1533
1914.7504657882428,1478
1916.7098566519212,1538
1918.6687650825133,1510
1920.6271913450764,1537
1922.5851357047422,1490
1924.5425984267245,1472
1926.499579776314,1477
1928.4560800188833,1536
1930.4120994198802,1522
1932.367638244833,1499
1934.32269675935,1508
1936.2772752291175,1494
1938.231373919899,1553
1940.1849930975404,1532
1942.1381330279637,1511
1944.0907939771696,1466
1946.0429762112412,1489
1947.9946799963363,1469
1949.9459055986945,1464
1951.896653284633,1551
1953.8469233205478,1483
1955.7967159729142,1445
1957.7460315082863,1452
1959.6948701932974,1474
1961.6432322946594,1512
1963.5911180791632,1446
1965.5385278136787,1468
1967.4854617651545,1501
1969.4319202006182,1453
1971.377903387176,1496
1973.3234115920136,1496
1975.268445082395,1466
1977.2130041256642,1468
1979.1570889892423,1548
1981.1006999406304,1461
1983.04383724741,1465
1984.986501177238,1455
1986.928691997853,1447
1988.8704099770712,1472
1990.811655382789,1461
1992.7524284829801,1521
1994.692729545698,1464
1996.6325588390755,1502
1998.5719166313224,1465
2000.5108031907307,1474
2002.4492187856677,1450
2004.387163684583,1502
2006.3246381560011,1375
2008.2616424685298,1407
2010.1981768908527,1419
2012.1342416917332,1429
2014.069837140014,1471
2016.0049635046162,1442
2017.9396210545406,1452
2019.8738100588666,1434
2021.8075307867502,1410
2023.740783507431,1418
2025.6735684902228,1444
2027.6058860045214,1457
2029.5377363198004,1522
2031.4691197056118,1526
2033.4000364315875,1420
2035.3304867674374,1444
2037.260470982952,1407
2039.189989347998,1455
2041.1190421325232,1426
2043.047629606554,1424
2044.9757520401945,1407
2046.9034097036288,1419
2048.8306028671195,1472
2050.7573318010086,1394
2052.683596775716,1386
2054.609398061742,1433
2056.5347359296647,1435
2058.4596106501403,1488
2060.384022493906,1456
2062.3079717317764,1375
2064.231458634646,1470
2066.1544834734873,1445
2068.077046519352,1458
2069.99914804337,1438
2071.9207883167524,1451
2073.8419676107865,1478
2075.7626861968406,1412
2077.6829443463607,1458
2079.6027423308715,1431
2081.522080421977,1386
2083.440958891362,1415
2085.359378010786,1416
2087.2773380520907,1425
2089.194839287196,1437
2091.111881988101,1446
2093.0284664268825,1440
2094.9445928756973,1461
2096.86026160678,1459
2098.775472892446,1384
2100.690227005088,1476
2102.604524217178,1411
2104.5183648012676,1435
2106.431749029985,1393
2108.34467717604,1472
2110.2571495122206,1485
2112.169166311393,1467
2114.080727846503,1512
2115.9918343905747,1484
2117.902486216711,1465
2119.8126835980956,1524
2121.722426807987,1481
2123.6317161197285,1460
2125.5405518067364,1494
2127.448934142509,1410
2129.356863400624,1445
2131.264339854737,1502
2133.1713637785815,1513
2135.077935445972,1541
2136.9840551308002,1500
2138.889723107037,1502
2140.7949396487334,1501
2142.699705030018,1525
2144.6040195250994,1476
2146.507883408264,1523
2148.4112969538774,1587
2150.3142604363848,1496
2152.2167741303097,1494
2154.1188383102535,1572
2156.0204532508997,1523
2157.9216192270064,1528
2159.822336513414,1488
2161.7226053850413,1446
2163.622426116884,1395
2165.5217989840185,1539
2167.4207242616,1570
2169.319202224862,1469
2171.2172331491165,1522
2173.1148173097563,1506
2175.0119549822507,1531
2176.90864644215,1534
2178.8048919650823,1496
2180.7006918267534,1570
2182.596046302952,1489
2184.4909556695407,1513
2186.3854202024645,1541
2188.279440177746,1597
2190.173015871487,1567
2192.066147559868,1536
2193.958835519149,1572
2195.851080025667,1451
2197.7428813558417,1568
2199.6342397861667,1560
2201.5251555932186,1578
2203.415629053651,1609
2205.3056604441986,1556
2207.19525004167,1622
2209.084398122958,1564
2210.9731049650327,1625
2212.861370844941,1567
2214.749196039812,1617
2216.636580826851,1643
2218.523525483344,1567
2220.410030286655,1617
2222.296095514226,1492
2224.1817214435805,1544
2226.066908352319,1534
2227.951656518121,1542
2229.835966218746,1558
2231.71983773203,1555
2233.6032713358913,1547
2235.486267308324,1585
2237.3688259274036,1586
2239.2509474712824,1603
2241.132632218193,1597
2243.013880446447,1615
2244.8946924344323,1535
2246.7750684606203,1564
2248.6550088035574,1624
2250.534513741871,1541
2252.413583554265,1565
2254.292218519526,1528
2256.170418916517,1481
2258.0481850241786,1610
2259.925517121534,1521
2261.8024154876825,1589
2263.678880401803,1553
2265.5549121431536,1566
2267.430510991071,1584
2269.305677224971,1510
2271.180411124348,1547
2273.0547129687766,1534
2274.9285830379076,1501
2276.8020216114737,1526
2278.6750289692845,1510
2280.5476053912294,1498
2282.4197511572766,1558
2284.2914665474727,1599
2286.162751841943,1613
2288.0336073208937,1625
2289.904033264608,1599
2291.774029953448,1550
2293.6435976678554,1585
2295.5127366883517,1542
2297.381447295534,1490
2299.2497297700825,1481
2301.1175843927526,1453
2302.9850114443825,1396
2304.852011205885,1425
2306.7185839582553,1396
2308.5847299825664,1357
2310.4504495599676,1388
2312.3157429716925,1378
2314.1806104990483,1362
2316.0450524234247,1356
2317.9090690262888,1354
2319.772660589186,1307
2321.635827393742,1363
2323.498569721661,1432
2325.3608878547248,1352
2327.2227820747967,1355
2329.0842526638157,1360
2330.945299903803,1365
2332.805924076857,1347
2334.6661254651535,1371
2336.525904350951,1343
2338.3852610165827,1416
2340.244195744464,1385
2342.102708817088,1374
2343.9608005170253,1389
2345.8184711269287,1379
2347.675720929526,1430
2349.532550207628,1381
2351.38895924412,1362
2353.24494832197,1359
2355.100517724223,1378
2356.955667734004,1403
2358.810398634514,1410
2360.664710709037,1337
2362.5186042409337,1340
2364.3720795136437,1398
2366.225136810686,1350
2368.0777764156583,1388
2369.929998612237,1373
2371.7818036841777,1363
2373.633191915315,1346
2375.484163589562,1387
2377.3347189909114,1448
2379.184858403434,1406
2381.03458211128,1382
2382.8838903986775,1410
2384.732783549936,1403
2386.5812618494406,1379
2388.4293255816588,1413
2390.2769750311327,1397
2392.1242104824883,1462
2393.971032220427,1389
2395.8174405297295,1297
2397.6634356952563,1445
2399.509018001947,1417
2401.3541877348193,1436
2403.1989451789705,1408
2405.043290619576,1398
2406.8872243418905,1392
2408.730746631247,1349
2410.5738577730594,1391
2412.4165580528183,1356
2414.258847756095,1383
2416.100727168537,1367
2417.9421965758734,1354
2419.783256263912,1389
2421.623906518538,1413
2423.4641476257157,1354
2425.303979871491,1369
2427.143403541984,1470
2428.9824189233977,1468
2430.821026302012,1419
2432.6592259641866,1422
2434.497018196361,1397
2436.33440328505,1413
2438.171381516851,1397
2440.00795317844,1395
2441.844118556569,1406
2443.6798779380724,1406
2445.5152316098606,1379
2447.3501798589255,1389
2449.1847229723357,1410
2451.0188612372403,1431
2452.8525949408663,1404
2454.6859243705203,1461
2456.518849813587,1414
2458.3513715575314,1384
2460.183489889895,1472
2462.015205098301,1394
2463.8465174704493,1457
2465.67742729412,1497
2467.5079348571717,1478
2469.338040447542,1459
2471.1677443532476,1383
2472.9970468623833,1398
2474.825948263123,1429
2476.6544488437207,1448
2478.482548892508,1415
2480.310248697896,1438
2482.137548548374,1424
2483.9644487325118,1430
2485.790949538956,1458
2487.617051256433,1484
2489.44275417375,1431
2491.26805857979,1393
2493.0929647635157,1450
2494.917473013971,1509
2496.741583620276,1438
2498.5652968716304,1526
2500.3886130573137,1467
2502.2115324666834,1465
2504.0340553891765,1455
2505.856182114308,1509
2507.6779129316733,1547
2509.499248130945,1538
2511.3201880018764,1502
2513.140732834298,1461
2514.9608829181198,1501
2516.780638543331,1532
2518.6,1474
2520.418967578273,1557
2522.237541568376,1522
2524.0557222606144,1522
2525.8735099453706,1532
2527.6909049131086,1493
2529.507907454368,1503
2531.32451785977,1531
2533.140736420014,1557
2534.9565634258774,1558
2536.771999168218,1602
2538.5870439379714,1501
2540.4016980261526,1537
2542.2159617238544,1594
2544.02983532225,1598
2545.8433191125914,1662
2547.656413386209,1607
2549.4691184345115,1573
2551.2814345489874,1580
2553.093362021204,1632
2554.904901142808,1602
2556.716052205523,1584
2558.526815501153,1662
2560.3371913215824,1654
2562.147179958771,1645
2563.956781704761,1612
2565.7659968516705,1671
2567.5748256916986,1771
2569.3832685171224,1633
2571.1913256202984,1652
2572.9989972936614,1653
2574.806283829725,1641
2576.613185521084,1715
2578.4197026604074,1780
2580.2258355404483,1747
2582.031584454035,1706
2583.836949694077,1728
2585.6419315535613,1709
2587.4465303255533,1752
2589.2507463032002,1762
2591.0545797797245,1752
2592.8580310484303,1692
2594.6611004026995,1794
2596.463788135992,1795
2598.266094541849,1763
2600.0680199138874,1796
2601.869564545807,1803
2603.670728731383,1790
2605.4715127644704,1736
2607.2719169390048,1796
2609.071941548998,1744
2610.8715868885433,1781
2612.670853251811,1740
2614.469740933052,1794
2616.268250226594,1837
2618.0663814268455,1812
2619.864134828292,1805
2621.6615107255006,1751
2623.458509413115,1795
2625.2551311858597,1794
2627.0513763385347,1686
2628.8472451660223,1729
2630.6427379632833,1771
2632.4378550253564,1694
2634.232596647359,1749
2636.026963124488,1703
2637.8209547520187,1702
2639.6145718253065,1689
2641.407814639785,1655
2643.200683490966,1656
2644.9931786744414,1668
2646.7853004858807,1690
2648.577049221034,1651
2650.3684251757277,1565
2652.1594286458712,1556
2653.9500599274484,1612
2655.740319316525,1582
2657.5302071092437,1547
2659.3197236018286,1576
2661.10886909058,1572
2662.8976438718782,1582
2664.686048242183,1558
2666.4740824980327,1539
2668.2617469360443,1567
2670.0490418529134,1503
2671.8359675454153,1504
2673.622524310403,1517
2675.408712444811,1438
2677.1945322456495,1501
2678.979984010009,1433
2680.76506803506,1505
2682.5497846180497,1482
2684.334134056306,1471
2686.1181166472343,1444
2687.9017326883213,1467
2689.6849824771293,1471
2691.4678663113013,1455
2693.2503844885596,1494
2695.032537306705,1449
2696.8143250636167,1408
2698.5957480572542,1495
2700.3768065856534,1444
2702.1575009469316,1471
2703.937831439283,1462
2705.717798360982,1417
2707.4974020103837,1405
2709.276642685917,1434
2711.055520686095,1383
2712.834036309506,1367
2714.612189854819,1428
2716.389981620782,1383
2718.1674119062204,1390
2719.944481010041,1423
2721.721189231226,1380
2723.4975368688415,1446
2725.273524222027,1368
2727.0491515900053,1384
2728.824419272075,1424
2730.5993275676146,1410
2732.3738767760838,1423
2734.148067197016,1370
2735.921899130031,1359
2737.6953728748194,1353
2739.468488731156,1342
2741.2412469988926,1424
2743.0136479779617,1395
2744.785691968372,1394
2746.5573792702116,1337
2748.3287101836504,1381
2750.099685008934,1401
2751.870304046388,1377
2753.640567596418,1393
2755.4104759595057,1377
2757.1800294362156,1383
2758.949228327187,1359
2760.7180729331412,1383
2762.486563554877,1396
2764.254700493272,1357
2766.022484049284,1349
2767.789914523947,1428
2769.5569922183786,1381
2771.3237174337705,1403
2773.090090471394,1376
2774.8561116326036,1398
2776.6217812188274,1393
2778.3870995315756,1382
2780.1520668724356,1407
2781.9166835430747,1337
2783.6809498452394,1341
2785.444866080754,1347
2787.2084325515225,1359
2788.971649559527,1331
2790.73451740683,1327
2792.4970363955713,1354
2794.2592068279705,1337
2796.0210290063264,1355
2797.7825032330147,1349
2799.543629810493,1406
2801.304409041296,1370
2803.0648412280366,1329
2804.8249266734088,1386
2806.5846656801846,1424
2808.344058551212,1355
2810.1031055894246,1315
2811.8618070978273,1386
2813.6201633795085,1420
2815.378174737636,1354
2817.1358414754536,1415
2818.893163896285,1367
2820.6501423035334,1388
2822.4067770006814,1307
2824.1630682912883,1380
2825.9190164789957,1310
2827.6746218675207,1358
2829.429884760661,1313
2831.184805462294,1388
2832.9393842763743,1378
2834.693621506936,1298
2836.4475174580916,1361
2838.201072434034,1367
2839.954286739034,1411
2841.707160677441,1347
2843.459694553685,1385
2845.2118886722724,1357
2846.96374333779,1331
2848.7152588549034,1373
2850.4664355283567,1362
2852.217273662973,1405
2853.9677735636546,1363
2855.7179355353833,1382
2857.4677598832186,1366
2859.217246912299,1380
2860.9663969278427,1335
2862.715210235146,1367
2864.4636871395846,1296
2866.211827946614,1370
2867.9596329617652,1362
2869.7071024906536,1342
2871.4542368389684,1308
2873.20103631248,1394
2874.947501217038,1393
2876.6936318585695,1359
2878.4394285430812,1378
2880.1848915766604,1348
2881.9300212654707,1395
2883.6748179157553,1388
2885.4192818338374,1321
2887.1634133261173,1367
2888.907212699077,1394
2890.6506802592744,1333
2892.393816313348,1389
2894.1366211680142,1368
2895.8790951300693,1335
2897.621238506388,1378
2899.363051603925,1401
2901.1045347297118,1386
2902.8456881908596,1368
2904.58651229456,1395
2906.327007348081,1305
2908.067173658772,1360
2909.8070115340597,1388
2911.5465212814497,1385
2913.285703208527,1351
2915.0245576229563,1313
2916.7630848324807,1333
2918.5012851449196,1386
2920.2391588681758,1340
2921.976706310227,1335
2923.7139277791334,1370
2925.4508235830313,1396
2927.187394030137,1338
2928.923639428745,1339
2930.6595600872306,1344
2932.395156314046,1361
2934.1304284177218,1384
2935.8653767068713,1366
2937.6000014901815,1374
2939.3343030764227,1401
2941.068281774442,1317
2942.8019378931644,1361
2944.5352717415976,1328
2946.2682836288236,1336
2948.0009738640065,1358
2949.7333427563885,1348
2951.465390615289,1375
2953.1971177501086,1353
2954.9285244703265,1313
2956.6596110855,1360
2958.3903779052657,1411
2960.1208252393385,1355
2961.8509533975125,1354
2963.5807626896617,1355
2965.3102534257378,1392
2967.0394259157715,1358
2968.768280469873,1390
2970.496817398232,1349
2972.2250370111146,1348
2973.952939618869,1398
2975.6805255319196,1353
2977.4077950607707,1387
2979.134748516006,1388
2980.861386208289,1416
2982.587708448359,1337
2984.313715547037,1392
2986.039407815222,1423
2987.764785563891,1341
2989.489849104102,1334
2991.2145987469908,1357
2992.9390348037705,1326
2994.6631575857346,1334
2996.3869674042576,1355
2998.1104645707887,1316
2999.83364939686,1359
3001.5565221940783,1329
3003.2790832741334,1342
3005.0013329487924,1362
3006.7232715298996,1364
3008.4448993293804,1343
3010.166216659239,1339
3011.887223831558,1328
3013.607921158498,1346
3015.3283089522993,1314
3017.0483875252826,1296
3018.7681571898443,1303
3020.4876182584626,1314
3022.2067710436927,1316
3023.9256158581707,1319
3025.644153014609,1340
3027.362382825801,1293
3029.0803056046193,1372
3030.797921664012,1333
3032.5152313170106,1345
3034.2322348767225,1344
3035.9489326563353,1374
3037.665324969115,1276
3039.3814121284063,1347
3041.097194447633,1333
3042.812672240299,1328
3044.5278458199855,1416
3046.2427155003525,1354
3047.9572815951406,1347
3049.671544418167,1340
3051.38550428333,1307
3053.0991615046073,1322
3054.812516396051,1351
3056.5255692717974,1383
3058.2383204460575,1323
3059.9507702331257,1340
3061.662918947372,1335
3063.3747669032446,1314
3065.0863144152736,1346
3066.7975617980674,1337
3068.508509366309,1345
3070.219157434767,1344
3071.9295063182844,1272
3073.639556331785,1354
3075.3493077902704,1310
3077.058761008821,1324
3078.7679163025964,1331
3080.476773986837,1310
3082.1853343768594,1319
3083.89359778806,1355
3085.6015645359153,1355
3087.3092349359786,1391
3089.016609303884,1406
3090.7236879553434,1343
3092.4304712061476,1280
3094.136959372166,1352
3095.843152769349,1363
3097.5490517137237,1362
3099.2546565213966,1330
3100.959967508554,1449
3102.66498499146,1327
3104.3697092864577,1313
3106.0741407099695,1333
3107.778279578498,1327
3109.482126208622,1319
3111.1856809170004,1394
3112.8889440203716,1313
3114.5919158355528,1343
3116.294596679439,1381
3117.996986869006,1357
3119.6990867213062,1342
3121.4008965534726,1366
3123.102416682717,1397
3124.803647426329,1382
3126.5045891016784,1338
3128.205242026213,1289
3129.90560651746,1378
3131.605682893025,1374
3133.3054714705922,1353
3135.0049725679282,1317
3136.7041865028714,1352
3138.4031135933465,1351
3140.101754157353,1367
3141.800108512971,1329
3143.498176978357,1357
3145.1959598717494,1354
3146.8934575114636,1400
3148.5906702158954,1335
3150.2875983035183,1338
3151.9842420928853,1336
3153.680601902627,1345
3155.376678051456,1278
3157.07247085816,1407
3158.767980641609,1365
3160.463207720748,1317
3162.158152414606,1269
3163.8528150422862,1387
3165.5471959229726,1289
3167.2412953759303,1303
3168.9351137204976,1358
3170.628651276098,1311
3172.3219083622307,1361
3174.014885298474,1345
3175.707582404485,1311
3177.4000000000005,1337
3179.092138404835,1327
3180.7839979388846,1326
3182.47557892212,1309
3184.166881674594,1318
3185.8579065164386,1271
3187.5486537678626,1289
3189.2391237491547,1341
3190.9293167806827,1322
3192.6192331828934,1281
3194.3088732763117,1286
3195.998237381542,1335
3197.687325819268,1310
3199.376138910251,1253
3201.064676975334,1314
3202.7529403354347,1292
3204.4409293115523,1303
3206.1286442247647,1350
3207.816085396229,1375
3209.5032531471825,1282
3211.190147798936,1286
3212.8767696728846,1284
3214.5631190905015,1298
3216.2491963733373,1297
3217.9350018430214,1311
3219.6205358212637,1298
3221.305798629851,1287
3222.990790590651,1250
3224.6755120256103,1287
3226.359963256751,1305
3228.0441446061795,1278
3229.7280563960758,1337
3231.411698948703,1311
3233.0950725863995,1320
3234.778177631587,1361
3236.461014406761,1296
3238.1435832345005,1339
3239.8258844374595,1313
3241.507918338374,1305
3243.1896852600576,1315
3244.8711855254023,1305
3246.552419457381,1324
3248.233387379042,1319
3249.914089613516,1349
3251.59452648401,1316
3253.274698313813,1394
3254.95460542629,1291
3256.6342481448855,1299
3258.313626793125,1306
3259.9927416946084,1307
3261.6715931730196,1246
3263.3501815521176,1277
3265.0285071557437,1266
3266.706570307815,1300
3268.3843713323286,1341
3270.0619105533615,1294
3271.739188295068,1375
3273.4162048816834,1339
3275.0929606375184,1345
3276.769455886966,1303
3278.445690954498,1345
3280.1216661646613,1325
3281.797381842087,1261
3283.4728383114807,1338
3285.1480358976296,1313
3286.8229749253996,1275
3288.4976557197333,1278
3290.172078605655,1288
3291.846243908266,1273
3293.5201519527463,1327
3295.193803064357,1310
3296.8671975684374,1288
3298.5403357904024,1280
3300.21321805575,1266
3301.8858446900567,1334
3303.558216018975,1318
3305.23033236824,1377
3306.9021940636603,1234
3308.57380143113,1330
3310.2451547966184,1296
3311.916254486174,1317
3313.5871008259246,1274
3315.2576941420766,1305
3316.9280347609147,1351
3318.5981230088046,1306
3320.2679592121895,1264
3321.9375436975924,1309
3323.606876791612,1284
3325.27595882093,1280
3326.944790112305,1304
3328.6133709925753,1286
3330.2817017886573,1285
3331.949782827547,1316
3333.617614436319,1290
3335.2851969421245,1300
3336.952530672199,1320
3338.619615953853,1281
3340.286453114475,1263
3341.9530424815357,1291
3343.619384382583,1330
3345.2854791452437,1347
3346.951327097224,1277
3348.6169285663073,1291
3350.2822838803577,1340
3351.947393367319,1310
3353.61225735521,1331
3355.2768761721345,1300
3356.9412501462693,1312
3358.605379605873,1289
3360.2692648792827,1299
3361.9329062949146,1290
3363.596304181263,1284
