CollectionTime,7/10/2024 4:46:14 PM
ExposureUsed,3
CalibratedSpectrum
-962.7078968117929,516
-959.9714848408522,579
-957.2358232597828,610
-954.5009119013725,594
-951.7667505983302,564
-949.0333391832855,619
-946.3006774887896,632
-943.5687653473143,649
-940.837602591253,624
-938.1071890529199,569
-935.3775245645503,618
-932.6486089583007,586
-929.9204420662485,620
-927.1930237203925,659
-924.4663537526524,610
-921.7404319948689,639
-919.0152582788041,626
-916.2908324361409,655
-913.5671542984834,634
-910.8442236973568,625
-908.1220404642074,603
-905.4006044304027,603
-902.679915427231,628
-899.959973285902,586
-897.2407778375464,592
-894.5223289132158,608
-891.8046263438832,617
-889.0876699604426,588
-886.3714595937089,573
-883.6559950744183,607
-880.9412762332282,575
-878.2273029007168,603
-875.5140749073835,584
-872.8015920836489,586
-870.0898542598545,565
-867.3788612662631,574
-864.6686129330585,622
-861.9591090903457,585
-859.2503495681506,626
-856.5423341964203,606
-853.8350628050229,602
-851.1285352237478,579
-848.4227512823054,540
-845.7177108103272,590
-843.0134136373656,574
-840.3098595928943,577
-837.6070485063082,596
-834.9049802069229,583
-832.2036545239757,605
-829.5030712866244,608
-826.8032303239481,613
-824.1041314649472,631
-821.4057745385428,600
-818.7081593735775,629
-816.0112857988148,603
-813.3151536429393,631
-810.6197627345566,605
-807.9251129021936,627
-805.2312039742981,599
-802.5380357792392,598
-799.8456081453069,629
-797.1539209007124,638
-794.462973873588,615
-791.772766891987,638
-789.083299783884,632
-786.3945723771743,624
-783.7065844996748,623
-781.0193359791231,612
-778.3328266431781,602
-775.6470563194197,630
-772.9620248353489,564
-770.2777320183878,618
-767.5941776958798,591
-764.9113616950891,596
-762.2292838432011,587
-759.5479439673222,593
-756.8673418944801,609
-754.1874774516235,612
-751.5083504656222,638
-748.8299607632671,618
-746.15230817127,644
-743.475392516264,630
-740.7992136248035,637
-738.1237713233636,646
-735.4490654383407,647
-732.7750957960521,655
-730.1018622227365,670
-727.4293645445534,657
-724.7576025875837,635
-722.0865761778291,628
-719.4162851412126,653
-716.7467293035781,647
-714.0779084906909,675
-711.409822528237,661
-708.7424712418238,680
-706.0758544569796,661
-703.4099719991541,627
-700.7448236937178,650
-698.0804093659622,687
-695.4167288411002,717
-692.7537819442656,669
-690.0915685005134,667
-687.4300883348199,670
-684.7693412720819,696
-682.1093271371178,703
-679.4500457546669,695
-676.7914969493897,681
-674.1336805458676,709
-671.4765963686034,676
-668.8202442420206,697
-666.1646239904642,723
-663.5097354382001,697
-660.8555784094151,697
-658.2021527282176,729
-655.5494582186366,718
-652.8974947046223,697
-650.2462620100463,734
-647.5957599587009,694
-644.9459883742998,744
-642.2969470804776,708
-639.6486359007902,684
-637.0010546587141,719
-634.3542031776476,727
-631.7080812809096,697
-629.0626887917401,720
-626.4180255333008,760
-623.7740913286734,700
-621.1308860008619,704
-618.4884093727904,720
-615.8466612673046,716
-613.2056415071715,725
-610.5653499150785,690
-607.9257863136347,721
-605.28695052537,723
-602.6488423727357,736
-600.0114616781036,706
-597.3748082637674,740
-594.7388819519412,715
-592.1036825647604,742
-589.4692099242818,758
-586.8354638524829,771
-584.2024441712624,745
-581.5701507024403,741
-578.9385832677575,820
-576.3077416888759,757
-573.6776257873787,804
-571.0482353847704,753
-568.4195703024757,766
-565.7916303618415,757
-563.164415384135,701
-560.5379251905453,766
-557.9121596021815,760
-555.2871184400748,756
-552.6628015251767,798
-550.0392086783606,781
-547.4163397204204,769
-544.794194472071,768
-542.1727727539491,787
-539.5520743866118,765
-536.9320991905377,839
-534.3128469861261,839
-531.6943175936979,828
-529.0765108334947,882
-526.4594265256793,886
-523.8430644903358,1007
-521.2274245474689,1198
-518.612506517005,1178
-515.9983102187913,1166
-513.3848354725959,1166
-510.77208209810846,1224
-508.16004991493924,1228
-505.5487387426199,1336
-502.9381484006032,1468
-500.3282787082628,1549
-497.71912948489364,1622
-495.1107005497117,1495
-492.5029917218539,1413
-489.8960028203786,1290
-487.28973366426493,1193
-484.68418407241325,1129
-482.07935386364494,1075
-479.47524285670266,1021
-476.87185087025,1018
-474.2691777228715,1011
-471.66722323307334,1038
-469.0659872192821,964
-466.4654694998459,933
-463.86566989303384,1006
-461.26658821703614,1000
-458.66822428996414,943
-456.07057792985,939
-453.4736489546475,967
-450.877437182231,957
-448.28194243039627,925
-445.68716451686,949
-443.09310325926003,939
-440.49975847515555,895
-437.9071299820263,921
-435.31521759727354,979
-432.72402113821954,969
-430.13354042210767,990
-427.5437752661022,1036
-424.95472548728867,994
-422.36639090267386,992
-419.7787713291855,951
-417.1918665836721,996
-414.60567648290385,1044
-412.0202008435715,1023
-409.4354394822874,1002
-406.8513922155845,1048
-404.26805885991723,1022
-401.685439231661,1027
-399.103533147112,1062
-396.522340422488,1061
-393.9418608739278,999
-391.3620943174908,1062
-388.7830405691583,1058
-386.2046994448317,958
-383.6270707603344,971
-381.05015433141045,870
-378.473949973725,806
-375.8984575028645,824
-373.32367673433623,725
-370.74960748356875,716
-368.1762495659117,649
-365.60360279663576,638
-363.03166699093265,564
-360.4604419639154,539
-357.8899275306178,521
-355.32012350599507,497
-352.7510297049233,511
-350.1826459421999,467
-347.61497203254316,479
-345.04800779059235,475
-342.4817530309082,479
-339.91620756797226,495
-337.35137121618743,489
-334.7872437898774,465
-332.22382510328725,479
-329.66111497058273,511
-327.09911320585127,494
-324.53781962310075,509
-321.9772340362607,477
-319.4173562591816,511
-316.8581861056348,469
-314.2997233893127,445
-311.7419679238294,477
-309.1849195227194,439
-306.62857799943856,478
-304.0729431673641,496
-301.51801483979375,469
-298.963792829947,480
-296.41027695096386,545
-293.85746701590574,584
-291.3053628377552,543
-288.7539642294155,546
-286.2032710037115,523
-283.65328297338897,507
-281.1039999511146,576
-278.5554217494762,611
-276.007548180983,626
-273.4603790580651,550
-270.9139141930734,536
-268.3681533982807,521
-265.8230964858798,547
-263.27874326798565,578
-260.7350935566336,565
-258.1921471637804,579
-255.6499039013039,559
-253.10836358100266,600
-250.56752601459698,679
-248.02739101372765,584
-245.48795838995704,587
-242.94922795476816,605
-240.41119951956557,567
-237.8738728956746,566
-235.33724789434166,597
-232.80132432673452,640
-230.2661020039418,585
-227.73158073697357,600
-225.19776033676033,647
-222.66464061415422,653
-220.1322213799284,603
-217.60050244477725,576
-215.06948361931552,569
-212.53916471408013,647
-210.00954553952818,666
-207.48062590603843,620
-204.9524056239104,622
-202.4248845033651,633
-199.8980623545441,598
-197.37193898751036,677
-194.84651421224817,687
-192.32178783866232,703
-189.79775967657952,708
-187.27442953574644,729
-184.7517972258321,756
-182.2298625564256,808
-179.7086253370378,743
-177.18808537710026,746
-174.66824248596583,698
-172.14909647290835,679
-169.6306471471229,710
-167.11289431772548,789
-164.59583779375328,886
-162.07947738416453,804
-159.5638128978386,793
-157.04884414357605,826
-154.53457093009854,825
-152.02099306604828,834
-149.50811035998936,726
-146.99592262040665,778
-144.48442965570587,886
-141.97363127421409,859
-139.46352728417958,933
-136.95411749377126,866
-134.44540171107985,848
-131.93737974411636,850
-129.43005140081357,781
-126.92341648902493,967
-124.41747481652521,1338
-121.91222619101006,1665
-119.40767042009657,1949
-116.90380731132257,2035
-114.40063667214702,2104
-111.8981583099503,2429
-109.3963720320337,2385
-106.89527764561933,1884
-104.39487495785067,1766
-101.89516377579241,2224
-99.39614390642998,3760
-96.89781515667039,4427
-94.40017733334128,4157
-91.90323024319173,3318
-89.40697369289148,2346
-86.91140748903172,2237
-84.41653143812482,3189
-81.92234534660395,4393
-79.42884902082358,5046
-76.93604226705907,6060
-74.4439248915071,8594
-71.95249670028534,13046
-69.46175749943245,15977
-66.97170709490854,16748
-64.48234529259423,16200
-61.99367189829195,14475
-59.50568671772464,10421
-57.01838955653636,8008
-54.53178022029283,8229
-52.045858514480074,9278
-49.560624244506016,9272
-47.07607721569923,11505
-44.59221723330904,13110
-42.10904410250669,12463
-39.62655762838392,10886
-37.14475761595372,10401
-34.66364387015028,9858
-32.18321619582866,9499
-29.70347439776515,9873
-27.224418280657005,10325
-24.74604764912317,11392
-22.26836230770266,13172
-19.7913620608565,21449
-17.315046712966478,35229
-14.83941606833514,44315
-12.36446993118659,64169
-9.89020810566592,65037
-7.416630395839093,65037
-4.94373660569363,65037
-2.471526539137585,65037
-6.821210263296962E-13,65037
2.47084320796705,65037
4.941003281093458,65037
7.410480415786196,65037
9.879274808531363,65037
12.347386655893956,65037
14.814816154518212,65037
17.28156350112681,65037
19.74762889252179,65037
22.21301252558385,65037
24.67771459727237,20254
27.141735304626195,3844
29.605074844762612,2752
32.06773341487792,2293
34.52971121224755,2107
36.99100843422559,2371
39.45162527824516,2248
41.91156194181792,1943
44.370818622535126,1685
46.82939551806646,1497
49.287292826160524,1537
51.74451074464503,1762
54.201049471426245,1729
56.65690920448981,1486
59.112090141899785,1326
61.56659248179983,1330
64.02041642241159,1276
66.4735621620365,1138
68.92602989905402,998
71.37781983192338,1086
73.82893215918205,1135
76.27936707944684,1060
78.72912479141326,1182
81.17820549385567,1125
83.62660938562783,1059
86.07433666566146,1029
88.5213875329681,966
90.96776218663751,983
93.41346082583925,933
95.85848364982041,970
98.30283085790859,1337
100.7465026495089,1246
103.18949922410604,1064
105.63182078126385,953
108.07346752062438,964
110.51443964190923,1017
112.95473734491827,970
115.39436082953114,974
117.83331029570547,917
120.27158594347827,883
122.7091879729652,871
125.1461165843615,957
127.58237197794062,958
130.01795435405518,925
132.4528639131364,903
134.88710085569494,961
137.32066538231982,870
139.75355769367923,840
142.1857779905207,726
144.61732647366978,761
147.04820334403132,866
149.47840880258934,982
151.90794305040674,948
154.33680628862487,996
156.76499871846443,1206
159.19252054122433,1387
161.61937195828352,1425
164.04555317109896,1568
166.47106438120693,1844
168.89590579022217,1970
171.320077599839,2139
173.7435800118302,2182
176.16641322804742,2328
178.58857745042144,2523
181.01007288096173,2584
183.43089972175687,2663
185.85105817497413,2571
188.27054844285988,2627
190.6893707277394,2655
193.10752523201643,2697
195.5250121581745,2717
197.9418317087751,2746
200.3579840864594,2759
202.7734694939469,2813
205.18828813403627,2816
207.6024402096051,2917
210.01592592360964,2998
212.42874547908548,2864
214.84089907914665,2969
217.2523869269868,2911
219.66320922587727,2949
222.0733661791695,2877
224.48285799029293,2831
226.8916848627572,2820
229.29984700014882,2897
231.7073446061355,2949
234.11417788446204,2816
236.520347038953,3046
238.92585227351185,2975
241.33069379212054,3081
243.73487179884035,2971
246.1383864978112,3086
248.541238093252,3135
250.9434267894609,3058
253.34495279081432,3163
255.74581630176783,3160
258.1460175268563,3164
260.54555667069314,2992
262.9444339379703,3155
265.3426495334594,3079
267.7402036620107,3127
270.1370965285529,3048
272.53332833809407,2851
274.9288992957214,2884
277.32380960660055,2756
279.718059475976,2785
282.1116491091717,2707
284.5045787115897,2692
286.89684848871195,2674
289.2884586460981,2651
291.67940938938807,2670
294.0697009242996,2770
296.4593334566299,2720
298.84830719225477,2690
301.23662233712923,2638
303.6242790972866,2748
306.01127767884,2525
308.39761828798066,2499
310.78330113097934,2549
313.16832641418534,2556
315.5526943440269,2461
317.9364051270112,2442
320.3194589697242,2442
322.70185607883093,2424
325.0835966610754,2431
327.4646809232805,2392
329.8451090723478,2355
332.2248813152577,2317
334.6039978590701,2363
336.9824589109231,2316
339.36026467803447,2345
341.7374153677,2309
344.113911187295,2299
346.48975234427337,2260
348.8649390461686,2181
351.2394715005918,2246
353.61334991523415,2247
355.9865744978655,2177
358.35914545633375,2198
360.73106299856715,2188
363.10232733257146,2277
365.47293866643247,2256
367.84289720831396,2175
370.2122031664593,2227
372.5808567491905,2177
374.9488581649083,2210
377.31620762209275,2194
379.6829053293021,2047
382.0489514951745,2109
384.4143463284262,2141
386.7790900378528,2047
389.14318283232853,2171
391.50662492080653,2126
393.86941651231916,2102
396.23155781597745,2170
398.5930490409713,2168
400.9538903965696,2185
403.3140820921202,2112
405.6736243370498,2021
408.03251734086336,2078
410.3907613131465,2130
412.74835646356166,2084
415.10530300185144,2025
417.4616011378372,2041
419.81725108141893,2044
422.1722530425758,2013
424.5266072313656,2064
426.880313857925,2047
429.2333731324701,2114
431.58578526529516,2125
433.9375504667738,2028
436.2886689473588,1938
438.63914091758113,1945
440.9889665880513,2078
443.33814616945835,2005
445.68667987257015,1913
448.03456790823395,2009
450.3818104873759,2087
452.72840782100013,2058
455.07436012019105,1955
457.41966759611057,2040
459.7643304600007,1986
462.10834892318155,2050
464.4517231970525,2031
466.79445349309174,2044
469.1365400228566,1999
471.4779829979826,2002
473.81878263018564,2000
476.15893913125876,1920
478.4984527130747,2018
480.8373235875855,2092
483.17555196682144,2100
485.5131380628919,2155
487.8500820879857,2209
490.1863842543697,2360
492.52204477439034,2522
494.8570638604725,2776
497.1914417251204,2922
499.52517858091653,3242
501.85827464052306,3360
504.19073011668036,3412
506.5225452222086,3350
508.85372017000566,3295
511.18425517304956,3261
513.514150444396,3356
515.8434061971808,4087
518.1720226446176,4929
520.4999999999999,5248
522.8273384766991,4972
525.1540382881666,4622
527.480099647932,4224
529.8055227696037,3510
532.1303078668694,2857
534.454455153496,2353
536.777964843328,2226
539.1008371502907,2127
541.4230722883866,2075
543.744670471698,2218
546.0656319143858,2095
548.3859568306899,2219
550.7056454349294,2037
553.0246979415016,2054
555.3431145648834,2069
557.6608955196306,1984
559.978041020377,1998
562.2945512818363,2043
564.6104265188006,2045
566.9256669461412,2105
569.2402727788082,2016
571.5542442318302,2078
573.8675815203156,2098
576.1802848594508,2065
578.4923544645015,2070
580.8037905508126,2105
583.114593333807,2059
585.4247630289875,2034
587.7342998519354,2078
590.0432040183106,2070
592.3514757438526,2080
594.6591152443794,2072
596.9661227357875,2146
599.2724984340531,2096
601.578242555231,2068
603.8833553154542,2062
606.1878369309362,2063
608.4916876179676,2159
610.7949075929192,2049
613.0974970722403,2081
615.3994562724587,2066
617.7007854101818,2077
620.0014847020951,2028
622.3015543649641,2110
624.6009946156324,2054
626.8998056710224,2103
629.1979877481361,2172
631.4955410640538,2163
633.7924658359349,2150
636.0887622810175,2136
638.3844306166192,2128
640.6794710601358,2129
642.9738838290426,2087
645.2676691408932,2101
647.5608272133207,2056
649.853358264037,2046
652.1452625108324,2086
654.4365401715764,2103
656.7271914642178,2186
659.0172166067838,2171
661.3066158173809,2168
663.5953893141935,2078
665.8835373154867,2104
668.1710600396028,2118
670.4579577049639,2154
672.7442305300709,2200
675.0298787335033,2110
677.3149025339197,2183
679.599302150058,2125
681.8830778007342,2158
684.1662297048437,2118
686.4487580813608,2109
688.7306631493387,2133
691.0119451279091,2123
693.2926042362834,2140
695.5726406937516,2074
697.8520547196814,2158
700.1308465335215,2107
702.4090163547982,2088
704.6865644031171,2111
706.9634908981619,2097
709.2397960596965,2102
711.5154801075631,2048
713.7905432616823,2123
716.0649857420548,2153
718.3388077687592,2126
720.612009561953,2118
722.8845913418733,2130
725.1565533288352,2118
727.427895743234,2136
729.6986188055427,2195
731.9687227363137,2162
734.238207756178,2108
736.5070740858458,2139
738.7753219461066,2094
741.0429515578281,2084
743.3099631419569,2204
745.5763569195191,2121
747.8421331116193,2076
750.1072919394409,2146
752.3718336242467,2205
754.6357583873777,2085
756.8990664502545,2127
759.1617580343765,2084
761.423833361321,2085
763.6852926527457,2082
765.9461361303862,2111
768.206364016058,2186
770.4659765316536,2165
772.7249738991469,2078
774.9833563405886,2175
777.2411240781092,2168
779.4982773339183,2107
781.7548163303044,2104
784.010741289634,2207
786.2660524343538,2179
788.5207499869881,2124
790.7748341701416,2186
793.0283052064964,2155
795.2811633188143,2169
797.5334087299362,2170
799.7850416627813,2092
802.0360623403484,2174
804.2864709857143,2172
806.5362678220353,2167
808.7854530725468,2139
811.0340269605625,2088
813.2819897094754,2140
815.5293415427581,2113
817.77608268396,2150
820.0222133567116,2148
822.2677337847211,2105
824.5126441917765,2213
826.7569448017433,2152
829.0006358385675,2268
831.2437175262731,2190
833.4861900889629,2099
835.7280537508192,2085
837.9693087361026,2140
840.2099552691533,2174
842.4499935743896,2160
844.689423876309,2185
846.9282463994886,2125
849.1664613685833,2154
851.4040690083276,2057
853.6410695435349,2130
855.877463199097,2120
858.1132501999847,2110
860.3484307712487,2149
862.5830051380175,2145
864.8169735254988,2183
867.0503361589791,2363
869.2830932638243,2176
871.5152450654786,2173
873.7467917894654,2184
875.9777336613873,2219
878.2080709069252,2204
880.4378037518389,2219
882.666932421968,2271
884.8954571432301,2276
887.1233781416219,2278
889.3506956432192,2254
891.5774098741766,2202
893.803521060728,2211
896.0290294291852,2218
898.2539352059397,2249
900.4782386174619,2239
902.7019398903011,2186
904.925039251085,2242
907.147536926521,2240
909.3694331433943,2186
911.59072812857,2154
913.8114221089921,2153
916.0315153116827,2206
918.2510079637437,2088
920.4699002923547,2106
922.6881925247761,2095
924.905884888345,2076
927.1229776104793,2175
929.3394709186747,2144
931.555365040506,2181
933.7706602036275,2142
935.9853566357709,2201
938.1994545647489,2263
940.4129542184515,2173
942.6258558248488,2196
944.8381596119883,2141
947.0498658079974,2089
949.2609746410825,2149
951.4714863395287,2069
953.6814011316998,2150
955.8907192460387,2141
958.0994409110671,2046
960.3075663553858,2038
962.5150958076741,2144
964.7220294966913,2081
966.928367651274,2084
969.1341105003388,2063
971.3392582728806,1981
973.5438111979742,2131
975.747769504772,1940
977.9511334225061,2035
980.153903180487,2024
982.3560790081052,2018
984.5576611348289,1995
986.7586497902058,2036
988.9590452038618,2044
991.158847605503,2047
993.3580572249133,2037
995.5566742919558,1945
997.7546990365728,1905
999.952131688785,1898
1002.1489724786926,1823
1004.3452216364743,1847
1006.5408793923874,1816
1008.7359459767691,1897
1010.9304216200343,1838
1013.1243065526781,1834
1015.3176010052733,1817
1017.510305208472,1841
1019.7024193930064,1793
1021.8939437896848,1769
1024.0848786293977,1828
1026.2752241431122,1830
1028.4649805618747,1794
1030.6541481168115,1835
1032.842727039127,1732
1035.0307175601051,1736
1037.2181199111074,1834
1039.4049343235752,1844
1041.591161029029,1771
1043.7768002590683,1769
1045.9618522453698,1692
1048.1463172196918,1707
1050.3301954138697,1766
1052.513487059818,1786
1054.69619238953,1764
1056.8783116350783,1778
1059.0598450286152,1801
1061.2407928023704,1788
1063.4211551886528,1744
1065.6009324198508,1661
1067.780124728432,1721
1069.9587323469414,1799
1072.1367555080046,1723
1074.314194444325,1740
1076.4910493886855,1661
1078.667320573947,1651
1080.843008233051,1651
1083.0181125990161,1627
1085.1926339049414,1666
1087.3665723840027,1675
1089.5399282694575,1700
1091.7127017946405,1683
1093.8848931929647,1666
1096.0565026979243,1621
1098.2275305430899,1668
1100.3979769621128,1690
1102.567842188722,1689
1104.737126456726,1657
1106.9058300000124,1660
1109.0739530525475,1726
1111.2414958483764,1607
1113.4084586216231,1629
1115.5748416064907,1688
1117.7406450372605,1620
1119.9058691482942,1626
1122.0705141740304,1669
1124.2345803489884,1606
1126.3980679077658,1650
1128.5609770850388,1660
1130.7233081155623,1646
1132.8850612341707,1619
1135.0462366757774,1630
1137.2068346753745,1666
1139.3668554680326,1621
1141.526299288901,1654
1143.68516637321,1621
1145.8434569562655,1664
1148.001171273455,1635
1150.158309560244,1624
1152.3148720521767,1513
1154.470858984876,1546
1156.626270594044,1591
1158.7811071154629,1550
1160.9353687849912,1520
1163.089055838569,1549
1165.242168512213,1617
1167.3947070420209,1600
1169.5466716641677,1584
1171.6980626149075,1626
1173.8488801305748,1557
1175.9991244475814,1535
1178.1487958024186,1553
1180.2978944316555,1619
1182.4464205719428,1563
1184.5943744600072,1580
1186.7417563326567,1553
1188.8885664267755,1610
1191.0348049793297,1607
1193.1804722273619,1512
1195.325568407995,1592
1197.4700937584303,1619
1199.614048515948,1574
1201.7574329179074,1563
1203.900247201746,1552
1206.042491604982,1588
1208.1841663652099,1600
1210.3252717201053,1534
1212.465807907422,1583
1214.6057751649923,1619
1216.7451737307279,1561
1218.8840038426192,1558
1221.0222657387353,1574
1223.1599596572241,1606
1225.2970858363137,1590
1227.4336445143094,1641
1229.5696359295966,1636
1231.705060320639,1602
1233.8399179259786,1611
1235.9742089842384,1678
1238.107933734118,1595
1240.2410924143974,1653
1242.373685263935,1593
1244.5057125216676,1610
1246.6371744266116,1651
1248.7680712178621,1671
1250.898403134593,1638
1253.028170416058,1557
1255.1573733015875,1625
1257.2860120305932,1618
1259.4140868425648,1627
1261.54159797707,1674
1263.6685456737569,1682
1265.7949301723515,1646
1267.9207517126597,1713
1270.046010534565,1706
1272.1707068780306,1660
1274.2948409830983,1743
1276.4184130898889,1631
1278.541423438603,1645
1280.6638722695184,1699
1282.785759822993,1663
1284.9070863394636,1741
1287.0278520594447,1737
1289.1480572235314,1732
1291.2677020723963,1659
1293.3867868467923,1689
1295.5053117875495,1765
1297.623277135579,1791
1299.740683131868,1684
1301.8575300174857,1730
1303.973818033578,1766
1306.0895474213703,1838
1308.2047184221678,1698
1310.3193312773528,1781
1312.4333862283888,1759
1314.5468835168163,1721
1316.659823384255,1707
1318.7722060724045,1728
1320.8840318230418,1789
1322.9953008780249,1766
1325.1060134792888,1770
1327.2161698688478,1796
1329.3257702887959,1762
1331.4348149813054,1771
1333.5433041886276,1771
1335.6512381530933,1754
1337.7586171171101,1711
1339.8654413231675,1613
1341.9717110138317,1712
1344.0774264317488,1764
1346.1825878196432,1736
1348.2871954203192,1717
1350.3912494766587,1748
1352.4947502316231,1726
1354.5976979282532,1724
1356.7000928096686,1726
1358.8019351190665,1751
1360.9032250997243,1734
1363.0039629949988,1721
1365.1041490483235,1750
1367.2037835032133,1694
1369.3028666032606,1697
1371.401398592137,1752
1373.4993797135926,1758
1375.5968102114575,1762
1377.6936903296396,1746
1379.7900203121262,1806
1381.8858004029835,1832
1383.9810308463561,1770
1386.075711886469,1780
1388.1698437676241,1781
1390.2634267342032,1740
1392.356461030667,1717
1394.4489469015557,1737
1396.5408845914872,1817
1398.6322743451592,1792
1400.7231164073469,1770
1402.813411022907,1789
1404.903158436773,1799
1406.9923588939578,1820
1409.0810126395531,1818
1411.1691199187303,1825
1413.2566809767386,1908
1415.343696058907,1853
1417.4301654106425,1794
1419.5160892774315,1787
1421.6014679048399,1900
1423.6863015385125,1922
1425.7705904241707,1876
1427.8543348076178,1896
1429.9375349347342,1919
1432.0201910514802,1931
1434.102303403894,1929
1436.1838722380944,1919
1438.2648978002767,1932
1440.3453803367174,1933
1442.4253200937692,2049
1444.5047173178677,2070
1446.5835722555234,2105
1448.6618851533285,2022
1450.739656257952,2054
1452.8168858161434,2109
1454.8935740747306,2182
1456.96972128062,2043
1459.045327680797,2200
1461.120393522327,2210
1463.1949190523528,2232
1465.2689045180973,2301
1467.3423501668608,2300
1469.415256246024,2376
1471.4876230030463,2370
1473.559450685465,2412
1475.6307395408976,2381
1477.7014898170391,2445
1479.771701761665,2425
1481.8413756226287,2476
1483.9105116478618,2478
1485.9791100853772,2594
1488.0471711832643,2622
1490.1146951896926,2608
1492.1816823529098,2699
1494.2481329212433,2742
1496.3140471430984,2654
1498.3794252669609,2812
1500.4442675413939,2726
1502.5085742150404,2826
1504.572345536622,2751
1506.6355817549388,2877
1508.6982831188702,2859
1510.7604498773744,2904
1512.8220822794883,2881
1514.8831805743293,2955
1516.9437450110909,2946
1519.003775839048,3045
1521.0632733075522,3079
1523.1222376660367,3046
1525.1806691640113,3158
1527.2385680510652,3116
1529.2959345768668,3185
1531.3527689911643,3261
1533.4090715437833,3283
1535.4648424846291,3289
1537.5200820636855,3321
1539.5747905310159,3395
1541.6289681367616,3377
1543.6826151311434,3452
1545.7357317644614,3474
1547.7883182870937,3411
1549.8403749494987,3563
1551.8919020022113,3580
1553.9428996958477,3602
1555.9933682811015,3738
1558.0433080087469,3834
1560.0927191296346,3763
1562.1416018946961,3755
1564.1899565549415,3770
1566.2377833614592,3776
1568.2850825654164,3816
1570.3318544180606,3561
1572.3780991707158,3557
1574.423817074788,3542
1576.4690083817595,3336
1578.5136733431923,3074
1580.5578122107272,3012
1582.601425236085,2888
1584.6445126710646,2794
1586.6870747675434,2780
1588.7291117774776,2609
1590.7706239529034,2520
1592.8116115459347,2454
1594.8520748087658,2357
1596.8920139936686,2308
1598.9314293529933,2220
1600.9703211391711,2205
1603.008689604711,2173
1605.0465350022005,2089
1607.0838575843068,2088
1609.1206576037753,2103
1611.1569353134305,1944
1613.1926909661765,1861
1615.2279248149953,1971
1617.2626371129481,1878
1619.2968281131757,1892
1621.3304980688963,1844
1623.3636472334088,1864
1625.39627586009,1854
1627.428384202396,1882
1629.459972513861,1806
1631.4910410480993,1757
1633.5215900588028,1767
1635.551619799744,1772
1637.5811305247717,1806
1639.6101224878166,1734
1641.6385959428862,1710
1643.6665511440683,1764
1645.693988345528,1752
1647.7209078015112,1696
1649.7473097663405,1808
1651.7731944944203,1690
1653.7985622402307,1695
1655.823413258333,1788
1657.847747803366,1710
1659.8715661300494,1643
1661.8948684931793,1766
1663.9176551476316,1725
1665.9399263483624,1708
1667.9616823504057,1689
1669.982923408873,1721
1672.0036497789574,1672
1674.0238617159293,1666
1676.043559475138,1651
1678.0627433120121,1702
1680.081413482059,1665
1682.0995702408654,1668
1684.117213844096,1655
1686.134344547495,1658
1688.1509626068864,1676
1690.1670682781705,1668
1692.182661817329,1652
1694.1977434804217,1621
1696.2123135235875,1652
1698.226372203043,1678
1700.2399197750851,1682
1702.2529564960905,1683
1704.2654826225112,1682
1706.277498410882,1661
1708.2890041178139,1619
1710.2999999999988,1687
1712.3104863142066,1626
1714.3204633172854,1663
1716.329931266163,1590
1718.3388904178469,1669
1720.3473410294214,1632
1722.3552833580516,1632
1724.3627176609807,1591
1726.3696441955308,1622
1728.3760632191033,1650
1730.3819749891782,1577
1732.3873797633146,1625
1734.3922777991502,1644
1736.3966693544012,1574
1738.4005546868639,1614
1740.4039340544127,1631
1742.406807715001,1635
1744.4091759266616,1593
1746.4110389475054,1569
1748.4123970357223,1573
1750.413250449582,1548
1752.4135994474318,1527
1754.4134442876993,1577
1756.4127852288902,1584
1758.4116225295893,1564
1760.4099564484595,1550
1762.407787244244,1567
1764.405115175764,1544
1766.4019405019203,1545
1768.3982634816916,1540
1770.3940843741357,1553
1772.3894034383907,1550
1774.3842209336717,1470
1776.378537119274,1505
1778.372352254571,1480
1780.3656665990156,1584
1782.3584804121397,1537
1784.3507939535534,1529
1786.3426074829463,1549
1788.3339212600863,1569
1790.3247355448211,1507
1792.3150505970766,1490
1794.3048666768573,1559
1796.2941840442477,1553
1798.2830029594106,1520
1800.2713236825884,1511
1802.2591464741004,1566
1804.2464715943465,1491
1806.2332993038058,1553
1808.2196298630352,1617
1810.2054635326708,1565
1812.190800573428,1546
1814.175641246101,1555
1816.1599858115628,1508
1818.1438345307652,1514
1820.127187664738,1537
1822.1100454745924,1516
1824.092408221516,1518
1826.0742761667766,1565
1828.055649571721,1554
1830.0365286977735,1513
1832.0169138064398,1528
1833.9968051593014,1462
1835.9762030180214,1548
1837.9551076443408,1534
1839.9335193000788,1575
1841.9114382471344,1539
1843.888864747485,1576
1845.8657990631878,1508
1847.842241456378,1510
1849.8181921892697,1551
1851.7936515241558,1550
1853.7686197234098,1489
1855.7430970494815,1543
1857.7170837649014,1511
1859.6905801322787,1508
1861.6635864143004,1533
1863.6361028737338,1456
1865.608129773424,1469
1867.5796673762961,1534
1869.5507159453537,1556
1871.521275743678,1542
1873.4913470344313,1571
1875.4609300808534,1534
1877.4300251462632,1525
1879.3986324940588,1527
1881.366752387717,1501
1883.3343850907936,1548
1885.3015308669228,1549
1887.268189979819,1560
1889.2343626932739,1498
1891.2000492711595,1560
1893.1652499774254,1528
1895.1299650761011,1476
1897.0941948312952,1546
1899.0579395071945,1556
1901.0211993680641,1556
1902.98397467825,1550
1904.9462657021745,1540
1906.9080727043415,1554
1908.869395949332,1610
1910.8302357018065,1503
1912.790592226504,1498
1914.7504657882428,1550
1916.7098566519212,1534
1918.6687650825133,1522
1920.6271913450764,1550
1922.5851357047422,1506
1924.5425984267245,1507
1926.499579776314,1545
1928.4560800188833,1501
1930.4120994198802,1514
1932.367638244833,1531
1934.32269675935,1586
1936.2772752291175,1477
1938.231373919899,1468
1940.1849930975404,1492
1942.1381330279637,1544
1944.0907939771696,1513
1946.0429762112412,1547
1947.9946799963363,1489
1949.9459055986945,1441
1951.896653284633,1551
1953.8469233205478,1480
1955.7967159729142,1435
1957.7460315082863,1500
1959.6948701932974,1500
1961.6432322946594,1441
1963.5911180791632,1510
1965.5385278136787,1483
1967.4854617651545,1484
1969.4319202006182,1470
1971.377903387176,1451
1973.3234115920136,1557
1975.268445082395,1541
1977.2130041256642,1480
1979.1570889892423,1534
1981.1006999406304,1504
1983.04383724741,1500
1984.986501177238,1530
1986.928691997853,1503
1988.8704099770712,1511
1990.811655382789,1473
1992.7524284829801,1436
1994.692729545698,1501
1996.6325588390755,1535
1998.5719166313224,1536
2000.5108031907307,1509
2002.4492187856677,1458
2004.387163684583,1458
2006.3246381560011,1494
2008.2616424685298,1513
2010.1981768908527,1456
2012.1342416917332,1507
2014.069837140014,1537
2016.0049635046162,1428
2017.9396210545406,1457
2019.8738100588666,1444
2021.8075307867502,1423
2023.740783507431,1447
2025.6735684902228,1498
2027.6058860045214,1500
2029.5377363198004,1463
2031.4691197056118,1477
2033.4000364315875,1464
2035.3304867674374,1492
2037.260470982952,1499
2039.189989347998,1392
2041.1190421325232,1464
2043.047629606554,1480
2044.9757520401945,1489
2046.9034097036288,1460
2048.8306028671195,1457
2050.7573318010086,1488
2052.683596775716,1448
2054.609398061742,1486
2056.5347359296647,1468
2058.4596106501403,1464
2060.384022493906,1493
2062.3079717317764,1473
2064.231458634646,1492
2066.1544834734873,1441
2068.077046519352,1528
2069.99914804337,1489
2071.9207883167524,1482
2073.8419676107865,1497
2075.7626861968406,1433
2077.6829443463607,1502
2079.6027423308715,1449
2081.522080421977,1450
2083.440958891362,1449
2085.359378010786,1428
2087.2773380520907,1504
2089.194839287196,1480
2091.111881988101,1478
2093.0284664268825,1520
2094.9445928756973,1534
2096.86026160678,1533
2098.775472892446,1532
2100.690227005088,1463
2102.604524217178,1469
2104.5183648012676,1492
2106.431749029985,1502
2108.34467717604,1482
2110.2571495122206,1413
2112.169166311393,1449
2114.080727846503,1498
2115.9918343905747,1454
2117.902486216711,1487
2119.8126835980956,1505
2121.722426807987,1420
2123.6317161197285,1436
2125.5405518067364,1521
2127.448934142509,1461
2129.356863400624,1491
2131.264339854737,1523
2133.1713637785815,1486
2135.077935445972,1538
2136.9840551308002,1436
2138.889723107037,1568
2140.7949396487334,1505
2142.699705030018,1498
2144.6040195250994,1485
2146.507883408264,1466
2148.4112969538774,1467
2150.3142604363848,1441
2152.2167741303097,1575
2154.1188383102535,1496
2156.0204532508997,1532
2157.9216192270064,1540
2159.822336513414,1483
2161.7226053850413,1461
2163.622426116884,1541
2165.5217989840185,1604
2167.4207242616,1564
2169.319202224862,1503
2171.2172331491165,1532
2173.1148173097563,1540
2175.0119549822507,1600
2176.90864644215,1542
2178.8048919650823,1532
2180.7006918267534,1527
2182.596046302952,1595
2184.4909556695407,1547
2186.3854202024645,1594
2188.279440177746,1613
2190.173015871487,1594
2192.066147559868,1608
2193.958835519149,1551
2195.851080025667,1558
2197.7428813558417,1502
2199.6342397861667,1579
2201.5251555932186,1526
2203.415629053651,1562
2205.3056604441986,1595
2207.19525004167,1558
2209.084398122958,1505
2210.9731049650327,1538
2212.861370844941,1570
2214.749196039812,1597
2216.636580826851,1622
2218.523525483344,1648
2220.410030286655,1597
2222.296095514226,1603
2224.1817214435805,1583
2226.066908352319,1527
2227.951656518121,1597
2229.835966218746,1579
2231.71983773203,1595
2233.6032713358913,1501
2235.486267308324,1593
2237.3688259274036,1542
2239.2509474712824,1605
2241.132632218193,1599
2243.013880446447,1636
2244.8946924344323,1565
2246.7750684606203,1598
2248.6550088035574,1563
2250.534513741871,1586
2252.413583554265,1593
2254.292218519526,1539
2256.170418916517,1597
2258.0481850241786,1539
2259.925517121534,1521
2261.8024154876825,1571
2263.678880401803,1683
2265.5549121431536,1563
2267.430510991071,1584
2269.305677224971,1583
2271.180411124348,1524
2273.0547129687766,1562
2274.9285830379076,1530
2276.8020216114737,1551
2278.6750289692845,1533
2280.5476053912294,1561
2282.4197511572766,1590
2284.2914665474727,1543
2286.162751841943,1623
2288.0336073208937,1674
2289.904033264608,1592
2291.774029953448,1573
2293.6435976678554,1627
2295.5127366883517,1557
2297.381447295534,1568
2299.2497297700825,1486
2301.1175843927526,1470
2302.9850114443825,1421
2304.852011205885,1410
2306.7185839582553,1407
2308.5847299825664,1406
2310.4504495599676,1418
2312.3157429716925,1395
2314.1806104990483,1365
2316.0450524234247,1415
2317.9090690262888,1336
2319.772660589186,1355
2321.635827393742,1335
2323.498569721661,1406
2325.3608878547248,1357
2327.2227820747967,1342
2329.0842526638157,1314
2330.945299903803,1349
2332.805924076857,1353
2334.6661254651535,1329
2336.525904350951,1336
2338.3852610165827,1363
2340.244195744464,1371
2342.102708817088,1367
2343.9608005170253,1404
2345.8184711269287,1343
2347.675720929526,1362
2349.532550207628,1378
2351.38895924412,1320
2353.24494832197,1382
2355.100517724223,1376
2356.955667734004,1392
2358.810398634514,1418
2360.664710709037,1349
2362.5186042409337,1325
2364.3720795136437,1387
2366.225136810686,1397
2368.0777764156583,1365
2369.929998612237,1280
2371.7818036841777,1337
2373.633191915315,1315
2375.484163589562,1378
2377.3347189909114,1401
2379.184858403434,1405
2381.03458211128,1400
2382.8838903986775,1388
2384.732783549936,1407
2386.5812618494406,1345
2388.4293255816588,1381
2390.2769750311327,1416
2392.1242104824883,1326
2393.971032220427,1399
2395.8174405297295,1393
2397.6634356952563,1390
2399.509018001947,1382
2401.3541877348193,1349
2403.1989451789705,1350
2405.043290619576,1369
2406.8872243418905,1438
2408.730746631247,1375
2410.5738577730594,1411
2412.4165580528183,1345
2414.258847756095,1330
2416.100727168537,1352
2417.9421965758734,1386
2419.783256263912,1349
2421.623906518538,1423
2423.4641476257157,1390
2425.303979871491,1410
2427.143403541984,1348
2428.9824189233977,1412
2430.821026302012,1326
2432.6592259641866,1337
2434.497018196361,1385
2436.33440328505,1388
2438.171381516851,1400
2440.00795317844,1368
2441.844118556569,1414
2443.6798779380724,1414
2445.5152316098606,1415
2447.3501798589255,1373
2449.1847229723357,1400
2451.0188612372403,1438
2452.8525949408663,1344
2454.6859243705203,1405
2456.518849813587,1373
2458.3513715575314,1435
2460.183489889895,1411
2462.015205098301,1407
2463.8465174704493,1442
2465.67742729412,1451
2467.5079348571717,1397
2469.338040447542,1394
2471.1677443532476,1406
2472.9970468623833,1455
2474.825948263123,1392
2476.6544488437207,1384
2478.482548892508,1445
2480.310248697896,1407
2482.137548548374,1482
2483.9644487325118,1405
2485.790949538956,1381
2487.617051256433,1427
2489.44275417375,1450
2491.26805857979,1432
2493.0929647635157,1474
2494.917473013971,1409
2496.741583620276,1449
2498.5652968716304,1431
2500.3886130573137,1439
2502.2115324666834,1414
2504.0340553891765,1412
2505.856182114308,1467
2507.6779129316733,1472
2509.499248130945,1451
2511.3201880018764,1464
2513.140732834298,1469
2514.9608829181198,1429
2516.780638543331,1493
2518.6,1472
2520.418967578273,1482
2522.237541568376,1455
2524.0557222606144,1486
2525.8735099453706,1476
2527.6909049131086,1469
2529.507907454368,1515
2531.32451785977,1512
2533.140736420014,1444
2534.9565634258774,1485
2536.771999168218,1485
2538.5870439379714,1514
2540.4016980261526,1520
2542.2159617238544,1541
2544.02983532225,1625
2545.8433191125914,1548
2547.656413386209,1591
2549.4691184345115,1560
2551.2814345489874,1544
2553.093362021204,1584
2554.904901142808,1583
2556.716052205523,1634
2558.526815501153,1654
2560.3371913215824,1653
2562.147179958771,1681
2563.956781704761,1642
2565.7659968516705,1629
2567.5748256916986,1651
2569.3832685171224,1638
2571.1913256202984,1760
2572.9989972936614,1684
2574.806283829725,1724
2576.613185521084,1753
2578.4197026604074,1708
2580.2258355404483,1687
2582.031584454035,1701
2583.836949694077,1717
2585.6419315535613,1729
2587.4465303255533,1734
2589.2507463032002,1701
2591.0545797797245,1715
2592.8580310484303,1754
2594.6611004026995,1710
2596.463788135992,1727
2598.266094541849,1790
2600.0680199138874,1825
2601.869564545807,1787
2603.670728731383,1749
2605.4715127644704,1770
2607.2719169390048,1761
2609.071941548998,1758
2610.8715868885433,1744
2612.670853251811,1699
2614.469740933052,1769
2616.268250226594,1706
2618.0663814268455,1711
2619.864134828292,1747
2621.6615107255006,1729
2623.458509413115,1733
2625.2551311858597,1691
2627.0513763385347,1659
2628.8472451660223,1674
2630.6427379632833,1649
2632.4378550253564,1650
2634.232596647359,1697
2636.026963124488,1632
2637.8209547520187,1616
2639.6145718253065,1604
2641.407814639785,1653
2643.200683490966,1596
2644.9931786744414,1581
2646.7853004858807,1638
2648.577049221034,1541
2650.3684251757277,1581
2652.1594286458712,1577
2653.9500599274484,1587
2655.740319316525,1549
2657.5302071092437,1559
2659.3197236018286,1537
2661.10886909058,1499
2662.8976438718782,1572
2664.686048242183,1495
2666.4740824980327,1527
2668.2617469360443,1507
2670.0490418529134,1493
2671.8359675454153,1473
2673.622524310403,1470
2675.408712444811,1509
2677.1945322456495,1434
2678.979984010009,1516
2680.76506803506,1515
2682.5497846180497,1463
2684.334134056306,1460
2686.1181166472343,1449
2687.9017326883213,1470
2689.6849824771293,1439
2691.4678663113013,1414
2693.2503844885596,1405
2695.032537306705,1430
2696.8143250636167,1383
2698.5957480572542,1408
2700.3768065856534,1448
2702.1575009469316,1404
2703.937831439283,1429
2705.717798360982,1387
2707.4974020103837,1395
2709.276642685917,1426
2711.055520686095,1472
2712.834036309506,1477
2714.612189854819,1411
2716.389981620782,1344
2718.1674119062204,1379
2719.944481010041,1379
2721.721189231226,1365
2723.4975368688415,1437
2725.273524222027,1368
2727.0491515900053,1354
2728.824419272075,1373
2730.5993275676146,1393
2732.3738767760838,1382
2734.148067197016,1349
2735.921899130031,1377
2737.6953728748194,1321
2739.468488731156,1448
2741.2412469988926,1396
2743.0136479779617,1333
2744.785691968372,1345
2746.5573792702116,1391
2748.3287101836504,1409
2750.099685008934,1284
2751.870304046388,1397
2753.640567596418,1363
2755.4104759595057,1434
2757.1800294362156,1372
2758.949228327187,1401
2760.7180729331412,1406
2762.486563554877,1327
2764.254700493272,1345
2766.022484049284,1363
2767.789914523947,1345
2769.5569922183786,1345
2771.3237174337705,1365
2773.090090471394,1405
2774.8561116326036,1413
2776.6217812188274,1388
2778.3870995315756,1379
2780.1520668724356,1340
2781.9166835430747,1335
2783.6809498452394,1353
2785.444866080754,1414
2787.2084325515225,1305
2788.971649559527,1404
2790.73451740683,1355
2792.4970363955713,1376
2794.2592068279705,1356
2796.0210290063264,1367
2797.7825032330147,1330
2799.543629810493,1373
2801.304409041296,1326
2803.0648412280366,1363
2804.8249266734088,1358
2806.5846656801846,1363
2808.344058551212,1364
2810.1031055894246,1357
2811.8618070978273,1329
2813.6201633795085,1357
2815.378174737636,1364
2817.1358414754536,1326
2818.893163896285,1362
2820.6501423035334,1354
2822.4067770006814,1348
2824.1630682912883,1347
2825.9190164789957,1408
2827.6746218675207,1299
2829.429884760661,1341
2831.184805462294,1360
2832.9393842763743,1380
2834.693621506936,1362
2836.4475174580916,1361
2838.201072434034,1347
2839.954286739034,1345
2841.707160677441,1350
2843.459694553685,1393
2845.2118886722724,1280
2846.96374333779,1340
2848.7152588549034,1396
2850.4664355283567,1311
2852.217273662973,1347
2853.9677735636546,1368
2855.7179355353833,1336
2857.4677598832186,1330
2859.217246912299,1305
2860.9663969278427,1347
2862.715210235146,1395
2864.4636871395846,1301
2866.211827946614,1298
2867.9596329617652,1397
2869.7071024906536,1291
2871.4542368389684,1295
2873.20103631248,1380
2874.947501217038,1431
2876.6936318585695,1390
2878.4394285430812,1324
2880.1848915766604,1384
2881.9300212654707,1367
2883.6748179157553,1338
2885.4192818338374,1370
2887.1634133261173,1341
2888.907212699077,1354
2890.6506802592744,1350
2892.393816313348,1367
2894.1366211680142,1347
2895.8790951300693,1340
2897.621238506388,1324
2899.363051603925,1314
2901.1045347297118,1383
2902.8456881908596,1349
2904.58651229456,1309
2906.327007348081,1357
2908.067173658772,1385
2909.8070115340597,1388
2911.5465212814497,1355
2913.285703208527,1380
2915.0245576229563,1308
2916.7630848324807,1329
2918.5012851449196,1311
2920.2391588681758,1349
2921.976706310227,1328
2923.7139277791334,1370
2925.4508235830313,1363
2927.187394030137,1294
2928.923639428745,1358
2930.6595600872306,1390
2932.395156314046,1351
2934.1304284177218,1350
2935.8653767068713,1383
2937.6000014901815,1388
2939.3343030764227,1327
2941.068281774442,1351
2942.8019378931644,1428
2944.5352717415976,1366
2946.2682836288236,1322
2948.0009738640065,1366
2949.7333427563885,1330
2951.465390615289,1348
2953.1971177501086,1374
2954.9285244703265,1349
2956.6596110855,1373
2958.3903779052657,1402
2960.1208252393385,1337
2961.8509533975125,1344
2963.5807626896617,1359
2965.3102534257378,1347
2967.0394259157715,1339
2968.768280469873,1313
2970.496817398232,1343
2972.2250370111146,1324
2973.952939618869,1413
2975.6805255319196,1350
2977.4077950607707,1312
2979.134748516006,1469
2980.861386208289,1397
2982.587708448359,1337
2984.313715547037,1368
2986.039407815222,1306
2987.764785563891,1349
2989.489849104102,1354
2991.2145987469908,1302
2992.9390348037705,1345
2994.6631575857346,1327
2996.3869674042576,1330
2998.1104645707887,1342
2999.83364939686,1330
3001.5565221940783,1425
3003.2790832741334,1379
3005.0013329487924,1296
3006.7232715298996,1340
3008.4448993293804,1352
3010.166216659239,1341
3011.887223831558,1362
3013.607921158498,1301
3015.3283089522993,1321
3017.0483875252826,1370
3018.7681571898443,1309
3020.4876182584626,1317
3022.2067710436927,1346
3023.9256158581707,1308
3025.644153014609,1320
3027.362382825801,1365
3029.0803056046193,1302
3030.797921664012,1326
3032.5152313170106,1318
3034.2322348767225,1361
3035.9489326563353,1294
3037.665324969115,1331
3039.3814121284063,1388
3041.097194447633,1335
3042.812672240299,1358
3044.5278458199855,1377
3046.2427155003525,1316
3047.9572815951406,1358
3049.671544418167,1328
3051.38550428333,1306
3053.0991615046073,1318
3054.812516396051,1349
3056.5255692717974,1286
3058.2383204460575,1350
3059.9507702331257,1337
3061.662918947372,1408
3063.3747669032446,1344
3065.0863144152736,1353
3066.7975617980674,1325
3068.508509366309,1341
3070.219157434767,1344
3071.9295063182844,1366
3073.639556331785,1343
3075.3493077902704,1406
3077.058761008821,1336
3078.7679163025964,1388
3080.476773986837,1387
3082.1853343768594,1351
3083.89359778806,1309
3085.6015645359153,1364
3087.3092349359786,1337
3089.016609303884,1338
3090.7236879553434,1376
3092.4304712061476,1315
3094.136959372166,1347
3095.843152769349,1386
3097.5490517137237,1389
3099.2546565213966,1397
3100.959967508554,1315
3102.66498499146,1324
3104.3697092864577,1379
3106.0741407099695,1326
3107.778279578498,1406
3109.482126208622,1385
3111.1856809170004,1376
3112.8889440203716,1389
3114.5919158355528,1341
3116.294596679439,1384
3117.996986869006,1397
3119.6990867213062,1323
3121.4008965534726,1413
3123.102416682717,1367
3124.803647426329,1291
3126.5045891016784,1370
3128.205242026213,1378
3129.90560651746,1363
3131.605682893025,1382
3133.3054714705922,1400
3135.0049725679282,1331
3136.7041865028714,1388
3138.4031135933465,1339
3140.101754157353,1337
3141.800108512971,1364
3143.498176978357,1370
3145.1959598717494,1363
3146.8934575114636,1313
3148.5906702158954,1341
3150.2875983035183,1338
3151.9842420928853,1379
3153.680601902627,1332
3155.376678051456,1294
3157.07247085816,1325
3158.767980641609,1328
3160.463207720748,1319
3162.158152414606,1281
3163.8528150422862,1367
3165.5471959229726,1335
3167.2412953759303,1443
3168.9351137204976,1322
3170.628651276098,1341
3172.3219083622307,1364
3174.014885298474,1322
3175.707582404485,1344
3177.4000000000005,1350
3179.092138404835,1322
3180.7839979388846,1339
3182.47557892212,1393
3184.166881674594,1332
3185.8579065164386,1344
3187.5486537678626,1342
3189.2391237491547,1341
3190.9293167806827,1349
3192.6192331828934,1371
3194.3088732763117,1354
3195.998237381542,1305
3197.687325819268,1412
3199.376138910251,1391
3201.064676975334,1289
3202.7529403354347,1297
3204.4409293115523,1352
3206.1286442247647,1361
3207.816085396229,1321
3209.5032531471825,1317
3211.190147798936,1333
3212.8767696728846,1310
3214.5631190905015,1348
3216.2491963733373,1293
3217.9350018430214,1351
3219.6205358212637,1304
3221.305798629851,1278
3222.990790590651,1314
3224.6755120256103,1290
3226.359963256751,1305
3228.0441446061795,1315
3229.7280563960758,1342
3231.411698948703,1329
3233.0950725863995,1284
3234.778177631587,1358
3236.461014406761,1305
3238.1435832345005,1322
3239.8258844374595,1348
3241.507918338374,1375
3243.1896852600576,1356
3244.8711855254023,1391
3246.552419457381,1360
3248.233387379042,1384
3249.914089613516,1308
3251.59452648401,1353
3253.274698313813,1389
3254.95460542629,1381
3256.6342481448855,1335
3258.313626793125,1307
3259.9927416946084,1315
3261.6715931730196,1320
3263.3501815521176,1284
3265.0285071557437,1340
3266.706570307815,1309
3268.3843713323286,1284
3270.0619105533615,1345
3271.739188295068,1289
3273.4162048816834,1301
3275.0929606375184,1345
3276.769455886966,1366
3278.445690954498,1339
3280.1216661646613,1344
3281.797381842087,1337
3283.4728383114807,1322
3285.1480358976296,1311
3286.8229749253996,1281
3288.4976557197333,1288
3290.172078605655,1333
3291.846243908266,1293
3293.5201519527463,1236
3295.193803064357,1280
3296.8671975684374,1291
3298.5403357904024,1348
3300.21321805575,1292
3301.8858446900567,1297
3303.558216018975,1324
3305.23033236824,1294
3306.9021940636603,1337
3308.57380143113,1316
3310.2451547966184,1356
3311.916254486174,1315
3313.5871008259246,1293
3315.2576941420766,1364
3316.9280347609147,1314
3318.5981230088046,1288
3320.2679592121895,1322
3321.9375436975924,1318
3323.606876791612,1303
3325.27595882093,1349
3326.944790112305,1293
3328.6133709925753,1301
3330.2817017886573,1285
3331.949782827547,1274
3333.617614436319,1288
3335.2851969421245,1359
3336.952530672199,1300
3338.619615953853,1301
3340.286453114475,1283
3341.9530424815357,1349
3343.619384382583,1409
3345.2854791452437,1391
3346.951327097224,1272
3348.6169285663073,1352
3350.2822838803577,1314
3351.947393367319,1314
3353.61225735521,1301
3355.2768761721345,1287
3356.9412501462693,1328
3358.605379605873,1348
3360.2692648792827,1283
3361.9329062949146,1356
3363.596304181263,1324
