CollectionTime,7/9/2024 3:58:59 PM
ExposureUsed,3
CalibratedSpectrum
-962.7078968117929,474
-959.9714848408522,557
-957.2358232597828,539
-954.5009119013725,480
-951.7667505983302,508
-949.0333391832855,509
-946.3006774887896,530
-943.5687653473143,537
-940.837602591253,556
-938.1071890529199,542
-935.3775245645503,515
-932.6486089583007,531
-929.9204420662485,534
-927.1930237203925,541
-924.4663537526524,548
-921.7404319948689,558
-919.0152582788041,560
-916.2908324361409,582
-913.5671542984834,566
-910.8442236973568,551
-908.1220404642074,543
-905.4006044304027,525
-902.679915427231,549
-899.959973285902,558
-897.2407778375464,548
-894.5223289132158,541
-891.8046263438832,530
-889.0876699604426,523
-886.3714595937089,523
-883.6559950744183,540
-880.9412762332282,546
-878.2273029007168,513
-875.5140749073835,538
-872.8015920836489,525
-870.0898542598545,537
-867.3788612662631,536
-864.6686129330585,531
-861.9591090903457,545
-859.2503495681506,532
-856.5423341964203,525
-853.8350628050229,534
-851.1285352237478,529
-848.4227512823054,519
-845.7177108103272,538
-843.0134136373656,541
-840.3098595928943,534
-837.6070485063082,545
-834.9049802069229,552
-832.2036545239757,573
-829.5030712866244,556
-826.8032303239481,574
-824.1041314649472,559
-821.4057745385428,565
-818.7081593735775,540
-816.0112857988148,549
-813.3151536429393,560
-810.6197627345566,530
-807.9251129021936,535
-805.2312039742981,551
-802.5380357792392,538
-799.8456081453069,557
-797.1539209007124,579
-794.462973873588,554
-791.772766891987,586
-789.083299783884,567
-786.3945723771743,578
-783.7065844996748,543
-781.0193359791231,537
-778.3328266431781,508
-775.6470563194197,545
-772.9620248353489,558
-770.2777320183878,544
-767.5941776958798,567
-764.9113616950891,611
-762.2292838432011,593
-759.5479439673222,586
-756.8673418944801,551
-754.1874774516235,562
-751.5083504656222,566
-748.8299607632671,566
-746.15230817127,586
-743.475392516264,579
-740.7992136248035,587
-738.1237713233636,567
-735.4490654383407,567
-732.7750957960521,589
-730.1018622227365,603
-727.4293645445534,558
-724.7576025875837,578
-722.0865761778291,584
-719.4162851412126,566
-716.7467293035781,600
-714.0779084906909,583
-711.409822528237,596
-708.7424712418238,589
-706.0758544569796,613
-703.4099719991541,606
-700.7448236937178,637
-698.0804093659622,608
-695.4167288411002,612
-692.7537819442656,616
-690.0915685005134,595
-687.4300883348199,593
-684.7693412720819,592
-682.1093271371178,594
-679.4500457546669,600
-676.7914969493897,626
-674.1336805458676,583
-671.4765963686034,610
-668.8202442420206,638
-666.1646239904642,632
-663.5097354382001,601
-660.8555784094151,638
-658.2021527282176,631
-655.5494582186366,608
-652.8974947046223,616
-650.2462620100463,632
-647.5957599587009,609
-644.9459883742998,619
-642.2969470804776,632
-639.6486359007902,667
-637.0010546587141,672
-634.3542031776476,628
-631.7080812809096,664
-629.0626887917401,643
-626.4180255333008,616
-623.7740913286734,634
-621.1308860008619,655
-618.4884093727904,643
-615.8466612673046,646
-613.2056415071715,652
-610.5653499150785,646
-607.9257863136347,675
-605.28695052537,658
-602.6488423727357,662
-600.0114616781036,683
-597.3748082637674,655
-594.7388819519412,674
-592.1036825647604,713
-589.4692099242818,748
-586.8354638524829,706
-584.2024441712624,712
-581.5701507024403,703
-578.9385832677575,694
-576.3077416888759,717
-573.6776257873787,719
-571.0482353847704,674
-568.4195703024757,742
-565.7916303618415,701
-563.164415384135,699
-560.5379251905453,677
-557.9121596021815,672
-555.2871184400748,693
-552.6628015251767,699
-550.0392086783606,676
-547.4163397204204,690
-544.794194472071,670
-542.1727727539491,699
-539.5520743866118,794
-536.9320991905377,796
-534.3128469861261,807
-531.6943175936979,790
-529.0765108334947,832
-526.4594265256793,856
-523.8430644903358,990
-521.2274245474689,1102
-518.612506517005,1178
-515.9983102187913,1168
-513.3848354725959,1135
-510.77208209810846,1126
-508.16004991493924,1234
-505.5487387426199,1344
-502.9381484006032,1481
-500.3282787082628,1703
-497.71912948489364,1698
-495.1107005497117,1682
-492.5029917218539,1615
-489.8960028203786,1348
-487.28973366426493,1308
-484.68418407241325,1148
-482.07935386364494,1060
-479.47524285670266,1029
-476.87185087025,984
-474.2691777228715,986
-471.66722323307334,1032
-469.0659872192821,936
-466.4654694998459,931
-463.86566989303384,934
-461.26658821703614,975
-458.66822428996414,930
-456.07057792985,938
-453.4736489546475,967
-450.877437182231,950
-448.28194243039627,898
-445.68716451686,893
-443.09310325926003,905
-440.49975847515555,845
-437.9071299820263,896
-435.31521759727354,889
-432.72402113821954,900
-430.13354042210767,989
-427.5437752661022,935
-424.95472548728867,917
-422.36639090267386,895
-419.7787713291855,958
-417.1918665836721,1045
-414.60567648290385,1013
-412.0202008435715,970
-409.4354394822874,1015
-406.8513922155845,1007
-404.26805885991723,1009
-401.685439231661,1000
-399.103533147112,965
-396.522340422488,987
-393.9418608739278,970
-391.3620943174908,1031
-388.7830405691583,992
-386.2046994448317,927
-383.6270707603344,914
-381.05015433141045,850
-378.473949973725,835
-375.8984575028645,751
-373.32367673433623,721
-370.74960748356875,675
-368.1762495659117,674
-365.60360279663576,673
-363.03166699093265,582
-360.4604419639154,583
-357.8899275306178,540
-355.32012350599507,542
-352.7510297049233,508
-350.1826459421999,497
-347.61497203254316,508
-345.04800779059235,535
-342.4817530309082,551
-339.91620756797226,524
-337.35137121618743,508
-334.7872437898774,580
-332.22382510328725,599
-329.66111497058273,539
-327.09911320585127,552
-324.53781962310075,548
-321.9772340362607,555
-319.4173562591816,534
-316.8581861056348,515
-314.2997233893127,514
-311.7419679238294,511
-309.1849195227194,554
-306.62857799943856,543
-304.0729431673641,547
-301.51801483979375,556
-298.963792829947,558
-296.41027695096386,580
-293.85746701590574,587
-291.3053628377552,564
-288.7539642294155,630
-286.2032710037115,611
-283.65328297338897,605
-281.1039999511146,667
-278.5554217494762,686
-276.007548180983,632
-273.4603790580651,585
-270.9139141930734,611
-268.3681533982807,612
-265.8230964858798,603
-263.27874326798565,589
-260.7350935566336,638
-258.1921471637804,652
-255.6499039013039,605
-253.10836358100266,642
-250.56752601459698,630
-248.02739101372765,664
-245.48795838995704,680
-242.94922795476816,645
-240.41119951956557,648
-237.8738728956746,695
-235.33724789434166,767
-232.80132432673452,725
-230.2661020039418,691
-227.73158073697357,724
-225.19776033676033,852
-222.66464061415422,859
-220.1322213799284,826
-217.60050244477725,768
-215.06948361931552,703
-212.53916471408013,754
-210.00954553952818,737
-207.48062590603843,724
-204.9524056239104,808
-202.4248845033651,902
-199.8980623545441,935
-197.37193898751036,869
-194.84651421224817,930
-192.32178783866232,884
-189.79775967657952,846
-187.27442953574644,858
-184.7517972258321,896
-182.2298625564256,874
-179.7086253370378,896
-177.18808537710026,919
-174.66824248596583,924
-172.14909647290835,1038
-169.6306471471229,1000
-167.11289431772548,961
-164.59583779375328,959
-162.07947738416453,985
-159.5638128978386,1007
-157.04884414357605,1170
-154.53457093009854,1367
-152.02099306604828,1435
-149.50811035998936,1131
-146.99592262040665,989
-144.48442965570587,982
-141.97363127421409,1049
-139.46352728417958,1246
-136.95411749377126,1414
-134.44540171107985,1449
-131.93737974411636,1139
-129.43005140081357,1262
-126.92341648902493,1937
-124.41747481652521,2117
-121.91222619101006,2377
-119.40767042009657,3181
-116.90380731132257,4051
-114.40063667214702,4010
-111.8981583099503,2801
-109.3963720320337,1986
-106.89527764561933,2060
-104.39487495785067,2416
-101.89516377579241,3603
-99.39614390642998,4035
-96.89781515667039,4127
-94.40017733334128,4097
-91.90323024319173,4653
-89.40697369289148,6647
-86.91140748903172,8503
-84.41653143812482,8954
-81.92234534660395,6292
-79.42884902082358,4661
-76.93604226705907,8273
-74.4439248915071,15274
-71.95249670028534,21381
-69.46175749943245,23637
-66.97170709490854,22166
-64.48234529259423,18589
-61.99367189829195,15163
-59.50568671772464,11233
-57.01838955653636,10648
-54.53178022029283,11527
-52.045858514480074,11333
-49.560624244506016,13433
-47.07607721569923,15245
-44.59221723330904,15452
-42.10904410250669,14001
-39.62655762838392,10999
-37.14475761595372,10067
-34.66364387015028,9942
-32.18321619582866,9612
-29.70347439776515,11028
-27.224418280657005,12403
-24.74604764912317,14150
-22.26836230770266,20956
-19.7913620608565,36319
-17.315046712966478,61918
-14.83941606833514,65035
-12.36446993118659,65035
-9.89020810566592,65035
-7.416630395839093,65035
-4.94373660569363,65035
-2.471526539137585,65035
-6.821210263296962E-13,65035
2.47084320796705,65035
4.941003281093458,65035
7.410480415786196,65035
9.879274808531363,65035
12.347386655893956,65035
14.814816154518212,65035
17.28156350112681,65035
19.74762889252179,65035
22.21301252558385,65035
24.67771459727237,21703
27.141735304626195,4648
29.605074844762612,2924
32.06773341487792,2448
34.52971121224755,2499
36.99100843422559,2476
39.45162527824516,2285
41.91156194181792,2034
44.370818622535126,1880
46.82939551806646,1857
49.287292826160524,1687
51.74451074464503,1870
54.201049471426245,1967
56.65690920448981,1606
59.112090141899785,1363
61.56659248179983,1267
64.02041642241159,1219
66.4735621620365,1212
68.92602989905402,1325
71.37781983192338,1355
73.82893215918205,1284
76.27936707944684,1297
78.72912479141326,1342
81.17820549385567,1319
83.62660938562783,1384
86.07433666566146,1303
88.5213875329681,996
90.96776218663751,999
93.41346082583925,1103
95.85848364982041,1222
98.30283085790859,1241
100.7465026495089,1280
103.18949922410604,1092
105.63182078126385,1166
108.07346752062438,1418
110.51443964190923,1101
112.95473734491827,1031
115.39436082953114,1055
117.83331029570547,1049
120.27158594347827,1050
122.7091879729652,1137
125.1461165843615,1021
127.58237197794062,929
130.01795435405518,1057
132.4528639131364,1259
134.88710085569494,1235
137.32066538231982,1098
139.75355769367923,1004
142.1857779905207,973
144.61732647366978,911
147.04820334403132,938
149.47840880258934,1001
151.90794305040674,1072
154.33680628862487,1234
156.76499871846443,1515
159.19252054122433,1532
161.61937195828352,1666
164.04555317109896,1725
166.47106438120693,1779
168.89590579022217,1970
171.320077599839,2134
173.7435800118302,2282
176.16641322804742,2379
178.58857745042144,2570
181.01007288096173,2701
183.43089972175687,2687
185.85105817497413,2580
188.27054844285988,2530
190.6893707277394,2535
193.10752523201643,2467
195.5250121581745,2619
197.9418317087751,2655
200.3579840864594,2678
202.7734694939469,2737
205.18828813403627,2792
207.6024402096051,2826
210.01592592360964,2889
212.42874547908548,2838
214.84089907914665,2862
217.2523869269868,2813
219.66320922587727,2818
222.0733661791695,2720
224.48285799029293,2768
226.8916848627572,2796
229.29984700014882,2750
231.7073446061355,2818
234.11417788446204,2693
236.520347038953,2780
238.92585227351185,2662
241.33069379212054,2793
243.73487179884035,2759
246.1383864978112,2789
248.541238093252,2841
250.9434267894609,2911
253.34495279081432,2737
255.74581630176783,2712
258.1460175268563,2710
260.54555667069314,2772
262.9444339379703,2706
265.3426495334594,2800
267.7402036620107,2843
270.1370965285529,2804
272.53332833809407,2745
274.9288992957214,2672
277.32380960660055,2784
279.718059475976,2893
282.1116491091717,2901
284.5045787115897,2786
286.89684848871195,2891
289.2884586460981,2839
291.67940938938807,2771
294.0697009242996,2879
296.4593334566299,2850
298.84830719225477,2776
301.23662233712923,2808
303.6242790972866,2726
306.01127767884,2636
308.39761828798066,2685
310.78330113097934,2651
313.16832641418534,2602
315.5526943440269,2555
317.9364051270112,2492
320.3194589697242,2512
322.70185607883093,2540
325.0835966610754,2537
327.4646809232805,2526
329.8451090723478,2479
332.2248813152577,2464
334.6039978590701,2428
336.9824589109231,2479
339.36026467803447,2455
341.7374153677,2441
344.113911187295,2389
346.48975234427337,2418
348.8649390461686,2435
351.2394715005918,2482
353.61334991523415,2442
355.9865744978655,2341
358.35914545633375,2351
360.73106299856715,2430
363.10232733257146,2425
365.47293866643247,2378
367.84289720831396,2349
370.2122031664593,2338
372.5808567491905,2279
374.9488581649083,2271
377.31620762209275,2302
379.6829053293021,2279
382.0489514951745,2186
384.4143463284262,2260
386.7790900378528,2236
389.14318283232853,2255
391.50662492080653,2208
393.86941651231916,2248
396.23155781597745,2209
398.5930490409713,2255
400.9538903965696,2184
403.3140820921202,2211
405.6736243370498,2292
408.03251734086336,2199
410.3907613131465,2174
412.74835646356166,2214
415.10530300185144,2144
417.4616011378372,2150
419.81725108141893,2161
422.1722530425758,2138
424.5266072313656,2147
426.880313857925,2108
429.2333731324701,2115
431.58578526529516,2076
433.9375504667738,2202
436.2886689473588,2150
438.63914091758113,2154
440.9889665880513,2077
443.33814616945835,2130
445.68667987257015,2077
448.03456790823395,2164
450.3818104873759,2117
452.72840782100013,2156
455.07436012019105,2098
457.41966759611057,2180
459.7643304600007,2201
462.10834892318155,2106
464.4517231970525,2145
466.79445349309174,2095
469.1365400228566,2200
471.4779829979826,2185
473.81878263018564,2162
476.15893913125876,2180
478.4984527130747,2328
480.8373235875855,2386
483.17555196682144,2415
485.5131380628919,2531
487.8500820879857,2672
490.1863842543697,2888
492.52204477439034,3097
494.8570638604725,3624
497.1914417251204,3824
499.52517858091653,3991
501.85827464052306,3944
504.19073011668036,3962
506.5225452222086,3742
508.85372017000566,3519
511.18425517304956,3509
513.514150444396,3749
515.8434061971808,4645
518.1720226446176,5902
520.4999999999999,5906
522.8273384766991,5671
525.1540382881666,4999
527.480099647932,4406
529.8055227696037,3631
532.1303078668694,3004
534.454455153496,2593
536.777964843328,2390
539.1008371502907,2448
541.4230722883866,2254
543.744670471698,2257
546.0656319143858,2280
548.3859568306899,2307
550.7056454349294,2281
553.0246979415016,2193
555.3431145648834,2183
557.6608955196306,2189
559.978041020377,2184
562.2945512818363,2136
564.6104265188006,2194
566.9256669461412,2245
569.2402727788082,2283
571.5542442318302,2185
573.8675815203156,2190
576.1802848594508,2302
578.4923544645015,2349
580.8037905508126,2311
583.114593333807,2280
585.4247630289875,2299
587.7342998519354,2214
590.0432040183106,2240
592.3514757438526,2256
594.6591152443794,2303
596.9661227357875,2243
599.2724984340531,2314
601.578242555231,2247
603.8833553154542,2338
606.1878369309362,2248
608.4916876179676,2231
610.7949075929192,2178
613.0974970722403,2197
615.3994562724587,2176
617.7007854101818,2275
620.0014847020951,2235
622.3015543649641,2174
624.6009946156324,2135
626.8998056710224,2174
629.1979877481361,2174
631.4955410640538,2222
633.7924658359349,2074
636.0887622810175,2161
638.3844306166192,2235
640.6794710601358,2252
642.9738838290426,2159
645.2676691408932,2155
647.5608272133207,2257
649.853358264037,2263
652.1452625108324,2216
654.4365401715764,2212
656.7271914642178,2178
659.0172166067838,2220
661.3066158173809,2156
663.5953893141935,2250
665.8835373154867,2227
668.1710600396028,2236
670.4579577049639,2231
672.7442305300709,2238
675.0298787335033,2256
677.3149025339197,2131
679.599302150058,2222
681.8830778007342,2210
684.1662297048437,2152
686.4487580813608,2169
688.7306631493387,2170
691.0119451279091,2215
693.2926042362834,2224
695.5726406937516,2314
697.8520547196814,2293
700.1308465335215,2095
702.4090163547982,2215
704.6865644031171,2184
706.9634908981619,2220
709.2397960596965,2210
711.5154801075631,2214
713.7905432616823,2226
716.0649857420548,2204
718.3388077687592,2313
720.612009561953,2202
722.8845913418733,2217
725.1565533288352,2212
727.427895743234,2280
729.6986188055427,2224
731.9687227363137,2262
734.238207756178,2231
736.5070740858458,2164
738.7753219461066,2203
741.0429515578281,2256
743.3099631419569,2183
745.5763569195191,2139
747.8421331116193,2284
750.1072919394409,2214
752.3718336242467,2252
754.6357583873777,2270
756.8990664502545,2252
759.1617580343765,2234
761.423833361321,2221
763.6852926527457,2156
765.9461361303862,2178
768.206364016058,2311
770.4659765316536,2277
772.7249738991469,2212
774.9833563405886,2323
777.2411240781092,2335
779.4982773339183,2328
781.7548163303044,2300
784.010741289634,2306
786.2660524343538,2342
788.5207499869881,2279
790.7748341701416,2330
793.0283052064964,2318
795.2811633188143,2257
797.5334087299362,2336
799.7850416627813,2319
802.0360623403484,2259
804.2864709857143,2306
806.5362678220353,2369
808.7854530725468,2375
811.0340269605625,2338
813.2819897094754,2305
815.5293415427581,2292
817.77608268396,2290
820.0222133567116,2185
822.2677337847211,2344
824.5126441917765,2224
826.7569448017433,2286
829.0006358385675,2292
831.2437175262731,2200
833.4861900889629,2232
835.7280537508192,2204
837.9693087361026,2252
840.2099552691533,2276
842.4499935743896,2250
844.689423876309,2296
846.9282463994886,2295
849.1664613685833,2329
851.4040690083276,2302
853.6410695435349,2324
855.877463199097,2313
858.1132501999847,2279
860.3484307712487,2278
862.5830051380175,2285
864.8169735254988,2265
867.0503361589791,2330
869.2830932638243,2336
871.5152450654786,2341
873.7467917894654,2401
875.9777336613873,2369
878.2080709069252,2329
880.4378037518389,2306
882.666932421968,2341
884.8954571432301,2320
887.1233781416219,2393
889.3506956432192,2368
891.5774098741766,2353
893.803521060728,2403
896.0290294291852,2390
898.2539352059397,2356
900.4782386174619,2399
902.7019398903011,2326
904.925039251085,2325
907.147536926521,2316
909.3694331433943,2323
911.59072812857,2305
913.8114221089921,2278
916.0315153116827,2257
918.2510079637437,2276
920.4699002923547,2262
922.6881925247761,2281
924.905884888345,2222
927.1229776104793,2333
929.3394709186747,2236
931.555365040506,2214
933.7706602036275,2183
935.9853566357709,2236
938.1994545647489,2262
940.4129542184515,2181
942.6258558248488,2237
944.8381596119883,2214
947.0498658079974,2178
949.2609746410825,2216
951.4714863395287,2228
953.6814011316998,2126
955.8907192460387,2095
958.0994409110671,2131
960.3075663553858,2097
962.5150958076741,2144
964.7220294966913,2194
966.928367651274,2201
969.1341105003388,2210
971.3392582728806,2185
973.5438111979742,2159
975.747769504772,2126
977.9511334225061,2089
980.153903180487,2160
982.3560790081052,2159
984.5576611348289,2092
986.7586497902058,2047
988.9590452038618,2058
991.158847605503,2038
993.3580572249133,2013
995.5566742919558,2016
997.7546990365728,1987
999.952131688785,1903
1002.1489724786926,1959
1004.3452216364743,1918
1006.5408793923874,1851
1008.7359459767691,1879
1010.9304216200343,1820
1013.1243065526781,1792
1015.3176010052733,1889
1017.510305208472,1847
1019.7024193930064,1832
1021.8939437896848,1786
1024.0848786293977,1788
1026.2752241431122,1846
1028.4649805618747,1817
1030.6541481168115,1838
1032.842727039127,1761
1035.0307175601051,1741
1037.2181199111074,1743
1039.4049343235752,1770
1041.591161029029,1761
1043.7768002590683,1702
1045.9618522453698,1737
1048.1463172196918,1760
1050.3301954138697,1783
1052.513487059818,1764
1054.69619238953,1813
1056.8783116350783,1818
1059.0598450286152,1769
1061.2407928023704,1743
1063.4211551886528,1757
1065.6009324198508,1789
1067.780124728432,1699
1069.9587323469414,1761
1072.1367555080046,1738
1074.314194444325,1749
1076.4910493886855,1760
1078.667320573947,1690
1080.843008233051,1711
1083.0181125990161,1696
1085.1926339049414,1692
1087.3665723840027,1690
1089.5399282694575,1725
1091.7127017946405,1687
1093.8848931929647,1689
1096.0565026979243,1660
1098.2275305430899,1695
1100.3979769621128,1629
1102.567842188722,1714
1104.737126456726,1582
1106.9058300000124,1647
1109.0739530525475,1661
1111.2414958483764,1676
1113.4084586216231,1684
1115.5748416064907,1669
1117.7406450372605,1649
1119.9058691482942,1640
1122.0705141740304,1698
1124.2345803489884,1627
1126.3980679077658,1696
1128.5609770850388,1652
1130.7233081155623,1640
1132.8850612341707,1651
1135.0462366757774,1666
1137.2068346753745,1655
1139.3668554680326,1631
1141.526299288901,1592
1143.68516637321,1617
1145.8434569562655,1647
1148.001171273455,1614
1150.158309560244,1607
1152.3148720521767,1620
1154.470858984876,1670
1156.626270594044,1647
1158.7811071154629,1579
1160.9353687849912,1629
1163.089055838569,1651
1165.242168512213,1607
1167.3947070420209,1587
1169.5466716641677,1642
1171.6980626149075,1576
1173.8488801305748,1548
1175.9991244475814,1541
1178.1487958024186,1619
1180.2978944316555,1494
1182.4464205719428,1555
1184.5943744600072,1557
1186.7417563326567,1585
1188.8885664267755,1637
1191.0348049793297,1590
1193.1804722273619,1551
1195.325568407995,1646
1197.4700937584303,1587
1199.614048515948,1587
1201.7574329179074,1592
1203.900247201746,1593
1206.042491604982,1545
1208.1841663652099,1570
1210.3252717201053,1635
1212.465807907422,1546
1214.6057751649923,1628
1216.7451737307279,1613
1218.8840038426192,1657
1221.0222657387353,1589
1223.1599596572241,1646
1225.2970858363137,1628
1227.4336445143094,1656
1229.5696359295966,1584
1231.705060320639,1609
1233.8399179259786,1662
1235.9742089842384,1646
1238.107933734118,1692
1240.2410924143974,1655
1242.373685263935,1646
1244.5057125216676,1697
1246.6371744266116,1650
1248.7680712178621,1627
1250.898403134593,1682
1253.028170416058,1655
1255.1573733015875,1652
1257.2860120305932,1653
1259.4140868425648,1657
1261.54159797707,1718
1263.6685456737569,1690
1265.7949301723515,1685
1267.9207517126597,1725
1270.046010534565,1677
1272.1707068780306,1723
1274.2948409830983,1703
1276.4184130898889,1678
1278.541423438603,1788
1280.6638722695184,1625
1282.785759822993,1653
1284.9070863394636,1658
1287.0278520594447,1650
1289.1480572235314,1651
1291.2677020723963,1703
1293.3867868467923,1686
1295.5053117875495,1774
1297.623277135579,1759
1299.740683131868,1731
1301.8575300174857,1711
1303.973818033578,1786
1306.0895474213703,1848
1308.2047184221678,1775
1310.3193312773528,1788
1312.4333862283888,1763
1314.5468835168163,1740
1316.659823384255,1697
1318.7722060724045,1736
1320.8840318230418,1787
1322.9953008780249,1764
1325.1060134792888,1753
1327.2161698688478,1783
1329.3257702887959,1801
1331.4348149813054,1759
1333.5433041886276,1758
1335.6512381530933,1712
1337.7586171171101,1702
1339.8654413231675,1755
1341.9717110138317,1731
1344.0774264317488,1742
1346.1825878196432,1762
1348.2871954203192,1750
1350.3912494766587,1768
1352.4947502316231,1833
1354.5976979282532,1800
1356.7000928096686,1736
1358.8019351190665,1768
1360.9032250997243,1800
1363.0039629949988,1764
1365.1041490483235,1757
1367.2037835032133,1769
1369.3028666032606,1717
1371.401398592137,1769
1373.4993797135926,1781
1375.5968102114575,1805
1377.6936903296396,1769
1379.7900203121262,1774
1381.8858004029835,1724
1383.9810308463561,1756
1386.075711886469,1718
1388.1698437676241,1796
1390.2634267342032,1734
1392.356461030667,1751
1394.4489469015557,1779
1396.5408845914872,1747
1398.6322743451592,1774
1400.7231164073469,1698
1402.813411022907,1785
1404.903158436773,1815
1406.9923588939578,1733
1409.0810126395531,1797
1411.1691199187303,1794
1413.2566809767386,1800
1415.343696058907,1811
1417.4301654106425,1814
1419.5160892774315,1857
1421.6014679048399,1715
1423.6863015385125,1761
1425.7705904241707,1794
1427.8543348076178,1839
1429.9375349347342,1801
1432.0201910514802,1791
1434.102303403894,1828
1436.1838722380944,1856
1438.2648978002767,1795
1440.3453803367174,1803
1442.4253200937692,1887
1444.5047173178677,1776
1446.5835722555234,1825
1448.6618851533285,1808
1450.739656257952,1855
1452.8168858161434,1815
1454.8935740747306,1827
1456.96972128062,1860
1459.045327680797,1825
1461.120393522327,1917
1463.1949190523528,1922
1465.2689045180973,1934
1467.3423501668608,1939
1469.415256246024,1886
1471.4876230030463,1927
1473.559450685465,1992
1475.6307395408976,1919
1477.7014898170391,1950
1479.771701761665,2011
1481.8413756226287,1980
1483.9105116478618,1954
1485.9791100853772,1986
1488.0471711832643,2020
1490.1146951896926,1958
1492.1816823529098,2045
1494.2481329212433,1986
1496.3140471430984,2051
1498.3794252669609,2095
1500.4442675413939,2083
1502.5085742150404,2072
1504.572345536622,2103
1506.6355817549388,2120
1508.6982831188702,2127
1510.7604498773744,2146
1512.8220822794883,2181
1514.8831805743293,2164
1516.9437450110909,2253
1519.003775839048,2197
1521.0632733075522,2323
1523.1222376660367,2358
1525.1806691640113,2326
1527.2385680510652,2369
1529.2959345768668,2464
1531.3527689911643,2426
1533.4090715437833,2440
1535.4648424846291,2529
1537.5200820636855,2544
1539.5747905310159,2593
1541.6289681367616,2572
1543.6826151311434,2655
1545.7357317644614,2674
1547.7883182870937,2727
1549.8403749494987,2774
1551.8919020022113,2854
1553.9428996958477,2899
1555.9933682811015,2984
1558.0433080087469,2941
1560.0927191296346,2986
1562.1416018946961,2995
1564.1899565549415,3048
1566.2377833614592,3086
1568.2850825654164,3121
1570.3318544180606,2876
1572.3780991707158,2959
1574.423817074788,2833
1576.4690083817595,2825
1578.5136733431923,2681
1580.5578122107272,2555
1582.601425236085,2475
1584.6445126710646,2457
1586.6870747675434,2372
1588.7291117774776,2267
1590.7706239529034,2197
1592.8116115459347,2197
1594.8520748087658,2124
1596.8920139936686,2038
1598.9314293529933,2077
1600.9703211391711,2052
1603.008689604711,2035
1605.0465350022005,1995
1607.0838575843068,1958
1609.1206576037753,1954
1611.1569353134305,1889
1613.1926909661765,1899
1615.2279248149953,1912
1617.2626371129481,1838
1619.2968281131757,1829
1621.3304980688963,1791
1623.3636472334088,1880
1625.39627586009,1862
1627.428384202396,1767
1629.459972513861,1802
1631.4910410480993,1810
1633.5215900588028,1804
1635.551619799744,1776
1637.5811305247717,1815
1639.6101224878166,1744
1641.6385959428862,1727
1643.6665511440683,1694
1645.693988345528,1719
1647.7209078015112,1715
1649.7473097663405,1736
1651.7731944944203,1747
1653.7985622402307,1738
1655.823413258333,1695
1657.847747803366,1701
1659.8715661300494,1701
1661.8948684931793,1700
1663.9176551476316,1769
1665.9399263483624,1714
1667.9616823504057,1758
1669.982923408873,1697
1672.0036497789574,1768
1674.0238617159293,1747
1676.043559475138,1714
1678.0627433120121,1757
1680.081413482059,1719
1682.0995702408654,1670
1684.117213844096,1727
1686.134344547495,1670
1688.1509626068864,1723
1690.1670682781705,1695
1692.182661817329,1730
1694.1977434804217,1794
1696.2123135235875,1739
1698.226372203043,1771
1700.2399197750851,1714
1702.2529564960905,1679
1704.2654826225112,1803
1706.277498410882,1799
1708.2890041178139,1702
1710.2999999999988,1777
1712.3104863142066,1735
1714.3204633172854,1726
1716.329931266163,1768
1718.3388904178469,1659
1720.3473410294214,1702
1722.3552833580516,1676
1724.3627176609807,1654
1726.3696441955308,1730
1728.3760632191033,1706
1730.3819749891782,1733
1732.3873797633146,1650
1734.3922777991502,1723
1736.3966693544012,1723
1738.4005546868639,1681
1740.4039340544127,1647
1742.406807715001,1652
1744.4091759266616,1688
1746.4110389475054,1739
1748.4123970357223,1724
1750.413250449582,1687
1752.4135994474318,1662
1754.4134442876993,1722
1756.4127852288902,1664
1758.4116225295893,1673
1760.4099564484595,1637
1762.407787244244,1702
1764.405115175764,1676
1766.4019405019203,1665
1768.3982634816916,1647
1770.3940843741357,1681
1772.3894034383907,1636
1774.3842209336717,1701
1776.378537119274,1688
1778.372352254571,1728
1780.3656665990156,1677
1782.3584804121397,1696
1784.3507939535534,1604
1786.3426074829463,1704
1788.3339212600863,1668
1790.3247355448211,1637
1792.3150505970766,1689
1794.3048666768573,1661
1796.2941840442477,1703
1798.2830029594106,1744
1800.2713236825884,1715
1802.2591464741004,1682
1804.2464715943465,1734
1806.2332993038058,1740
1808.2196298630352,1680
1810.2054635326708,1646
1812.190800573428,1630
1814.175641246101,1636
1816.1599858115628,1684
1818.1438345307652,1681
1820.127187664738,1653
1822.1100454745924,1665
1824.092408221516,1671
1826.0742761667766,1683
1828.055649571721,1686
1830.0365286977735,1632
1832.0169138064398,1622
1833.9968051593014,1693
1835.9762030180214,1695
1837.9551076443408,1678
1839.9335193000788,1666
1841.9114382471344,1689
1843.888864747485,1651
1845.8657990631878,1676
1847.842241456378,1681
1849.8181921892697,1613
1851.7936515241558,1621
1853.7686197234098,1627
1855.7430970494815,1579
1857.7170837649014,1622
1859.6905801322787,1624
1861.6635864143004,1652
1863.6361028737338,1620
1865.608129773424,1689
1867.5796673762961,1623
1869.5507159453537,1698
1871.521275743678,1702
1873.4913470344313,1657
1875.4609300808534,1650
1877.4300251462632,1740
1879.3986324940588,1688
1881.366752387717,1593
1883.3343850907936,1649
1885.3015308669228,1663
1887.268189979819,1712
1889.2343626932739,1664
1891.2000492711595,1660
1893.1652499774254,1615
1895.1299650761011,1678
1897.0941948312952,1704
1899.0579395071945,1658
1901.0211993680641,1662
1902.98397467825,1725
1904.9462657021745,1761
1906.9080727043415,1657
1908.869395949332,1718
1910.8302357018065,1680
1912.790592226504,1597
1914.7504657882428,1624
1916.7098566519212,1638
1918.6687650825133,1613
1920.6271913450764,1641
1922.5851357047422,1599
1924.5425984267245,1653
1926.499579776314,1640
1928.4560800188833,1636
1930.4120994198802,1637
1932.367638244833,1653
1934.32269675935,1684
1936.2772752291175,1648
1938.231373919899,1688
1940.1849930975404,1685
1942.1381330279637,1644
1944.0907939771696,1644
1946.0429762112412,1631
1947.9946799963363,1643
1949.9459055986945,1665
1951.896653284633,1598
1953.8469233205478,1671
1955.7967159729142,1617
1957.7460315082863,1688
1959.6948701932974,1615
1961.6432322946594,1677
1963.5911180791632,1646
1965.5385278136787,1646
1967.4854617651545,1621
1969.4319202006182,1649
1971.377903387176,1628
1973.3234115920136,1673
1975.268445082395,1600
1977.2130041256642,1694
1979.1570889892423,1697
1981.1006999406304,1619
1983.04383724741,1635
1984.986501177238,1554
1986.928691997853,1645
1988.8704099770712,1648
1990.811655382789,1666
1992.7524284829801,1646
1994.692729545698,1600
1996.6325588390755,1594
1998.5719166313224,1666
2000.5108031907307,1669
2002.4492187856677,1637
2004.387163684583,1629
2006.3246381560011,1638
2008.2616424685298,1686
2010.1981768908527,1640
2012.1342416917332,1615
2014.069837140014,1642
2016.0049635046162,1712
2017.9396210545406,1653
2019.8738100588666,1629
2021.8075307867502,1621
2023.740783507431,1592
2025.6735684902228,1647
2027.6058860045214,1634
2029.5377363198004,1663
2031.4691197056118,1634
2033.4000364315875,1654
2035.3304867674374,1636
2037.260470982952,1604
2039.189989347998,1633
2041.1190421325232,1604
2043.047629606554,1660
2044.9757520401945,1640
2046.9034097036288,1624
2048.8306028671195,1617
2050.7573318010086,1634
2052.683596775716,1582
2054.609398061742,1538
2056.5347359296647,1640
2058.4596106501403,1629
2060.384022493906,1661
2062.3079717317764,1689
2064.231458634646,1669
2066.1544834734873,1634
2068.077046519352,1600
2069.99914804337,1672
2071.9207883167524,1619
2073.8419676107865,1619
2075.7626861968406,1621
2077.6829443463607,1630
2079.6027423308715,1574
2081.522080421977,1635
2083.440958891362,1617
2085.359378010786,1641
2087.2773380520907,1630
2089.194839287196,1583
2091.111881988101,1650
2093.0284664268825,1622
2094.9445928756973,1639
2096.86026160678,1635
2098.775472892446,1655
2100.690227005088,1661
2102.604524217178,1641
2104.5183648012676,1656
2106.431749029985,1665
2108.34467717604,1659
2110.2571495122206,1670
2112.169166311393,1680
2114.080727846503,1666
2115.9918343905747,1641
2117.902486216711,1669
2119.8126835980956,1637
2121.722426807987,1662
2123.6317161197285,1713
2125.5405518067364,1648
2127.448934142509,1662
2129.356863400624,1610
2131.264339854737,1610
2133.1713637785815,1617
2135.077935445972,1728
2136.9840551308002,1711
2138.889723107037,1703
2140.7949396487334,1704
2142.699705030018,1661
2144.6040195250994,1692
2146.507883408264,1716
2148.4112969538774,1625
2150.3142604363848,1679
2152.2167741303097,1690
2154.1188383102535,1713
2156.0204532508997,1673
2157.9216192270064,1671
2159.822336513414,1736
2161.7226053850413,1733
2163.622426116884,1687
2165.5217989840185,1725
2167.4207242616,1713
2169.319202224862,1753
2171.2172331491165,1711
2173.1148173097563,1751
2175.0119549822507,1716
2176.90864644215,1744
2178.8048919650823,1737
2180.7006918267534,1780
2182.596046302952,1784
2184.4909556695407,1777
2186.3854202024645,1796
2188.279440177746,1755
2190.173015871487,1767
2192.066147559868,1744
2193.958835519149,1773
2195.851080025667,1712
2197.7428813558417,1775
2199.6342397861667,1816
2201.5251555932186,1806
2203.415629053651,1836
2205.3056604441986,1756
2207.19525004167,1775
2209.084398122958,1799
2210.9731049650327,1807
2212.861370844941,1988
2214.749196039812,1809
2216.636580826851,1859
2218.523525483344,1820
2220.410030286655,1864
2222.296095514226,1819
2224.1817214435805,1836
2226.066908352319,1892
2227.951656518121,1864
2229.835966218746,1858
2231.71983773203,1848
2233.6032713358913,1866
2235.486267308324,1830
2237.3688259274036,1870
2239.2509474712824,1804
2241.132632218193,1853
2243.013880446447,1914
2244.8946924344323,1871
2246.7750684606203,1876
2248.6550088035574,1857
2250.534513741871,1826
2252.413583554265,1860
2254.292218519526,1869
2256.170418916517,1799
2258.0481850241786,1823
2259.925517121534,1767
2261.8024154876825,1889
2263.678880401803,1828
2265.5549121431536,1864
2267.430510991071,1864
2269.305677224971,1815
2271.180411124348,1831
2273.0547129687766,1826
2274.9285830379076,1733
2276.8020216114737,1803
2278.6750289692845,1749
2280.5476053912294,1799
2282.4197511572766,1818
2284.2914665474727,1818
2286.162751841943,1803
2288.0336073208937,1882
2289.904033264608,1946
2291.774029953448,1860
2293.6435976678554,1809
2295.5127366883517,1829
2297.381447295534,1735
2299.2497297700825,1682
2301.1175843927526,1678
2302.9850114443825,1682
2304.852011205885,1541
2306.7185839582553,1509
2308.5847299825664,1495
2310.4504495599676,1482
2312.3157429716925,1525
2314.1806104990483,1487
2316.0450524234247,1497
2317.9090690262888,1490
2319.772660589186,1505
2321.635827393742,1478
2323.498569721661,1470
2325.3608878547248,1467
2327.2227820747967,1521
2329.0842526638157,1485
2330.945299903803,1535
2332.805924076857,1500
2334.6661254651535,1486
2336.525904350951,1469
2338.3852610165827,1495
2340.244195744464,1410
2342.102708817088,1384
2343.9608005170253,1482
2345.8184711269287,1459
2347.675720929526,1532
2349.532550207628,1481
2351.38895924412,1429
2353.24494832197,1412
2355.100517724223,1439
2356.955667734004,1501
2358.810398634514,1503
2360.664710709037,1492
2362.5186042409337,1419
2364.3720795136437,1500
2366.225136810686,1492
2368.0777764156583,1507
2369.929998612237,1491
2371.7818036841777,1524
2373.633191915315,1519
2375.484163589562,1454
2377.3347189909114,1458
2379.184858403434,1466
2381.03458211128,1504
2382.8838903986775,1511
2384.732783549936,1506
2386.5812618494406,1512
2388.4293255816588,1534
2390.2769750311327,1472
2392.1242104824883,1435
2393.971032220427,1478
2395.8174405297295,1475
2397.6634356952563,1488
2399.509018001947,1507
2401.3541877348193,1486
2403.1989451789705,1496
2405.043290619576,1485
2406.8872243418905,1532
2408.730746631247,1501
2410.5738577730594,1534
2412.4165580528183,1503
2414.258847756095,1582
2416.100727168537,1523
2417.9421965758734,1486
2419.783256263912,1498
2421.623906518538,1478
2423.4641476257157,1473
2425.303979871491,1556
2427.143403541984,1516
2428.9824189233977,1476
2430.821026302012,1448
2432.6592259641866,1512
2434.497018196361,1492
2436.33440328505,1551
2438.171381516851,1509
2440.00795317844,1538
2441.844118556569,1538
2443.6798779380724,1560
2445.5152316098606,1460
2447.3501798589255,1536
2449.1847229723357,1546
2451.0188612372403,1619
2452.8525949408663,1489
2454.6859243705203,1505
2456.518849813587,1523
2458.3513715575314,1494
2460.183489889895,1502
2462.015205098301,1487
2463.8465174704493,1483
2465.67742729412,1494
2467.5079348571717,1527
2469.338040447542,1506
2471.1677443532476,1501
2472.9970468623833,1496
2474.825948263123,1509
2476.6544488437207,1490
2478.482548892508,1491
2480.310248697896,1429
2482.137548548374,1446
2483.9644487325118,1459
2485.790949538956,1460
2487.617051256433,1524
2489.44275417375,1495
2491.26805857979,1524
2493.0929647635157,1511
2494.917473013971,1503
2496.741583620276,1566
2498.5652968716304,1542
2500.3886130573137,1474
2502.2115324666834,1551
2504.0340553891765,1587
2505.856182114308,1522
2507.6779129316733,1510
2509.499248130945,1510
2511.3201880018764,1510
2513.140732834298,1501
2514.9608829181198,1540
2516.780638543331,1510
2518.6,1523
2520.418967578273,1487
2522.237541568376,1526
2524.0557222606144,1526
2525.8735099453706,1595
2527.6909049131086,1507
2529.507907454368,1485
2531.32451785977,1545
2533.140736420014,1548
2534.9565634258774,1506
2536.771999168218,1576
2538.5870439379714,1562
2540.4016980261526,1609
2542.2159617238544,1594
2544.02983532225,1505
2545.8433191125914,1589
2547.656413386209,1605
2549.4691184345115,1581
2551.2814345489874,1592
2553.093362021204,1522
2554.904901142808,1521
2556.716052205523,1580
2558.526815501153,1617
2560.3371913215824,1575
2562.147179958771,1618
2563.956781704761,1551
2565.7659968516705,1568
2567.5748256916986,1592
2569.3832685171224,1613
2571.1913256202984,1642
2572.9989972936614,1614
2574.806283829725,1616
2576.613185521084,1598
2578.4197026604074,1600
2580.2258355404483,1567
2582.031584454035,1594
2583.836949694077,1612
2585.6419315535613,1649
2587.4465303255533,1647
2589.2507463032002,1672
2591.0545797797245,1714
2592.8580310484303,1687
2594.6611004026995,1668
2596.463788135992,1711
2598.266094541849,1699
2600.0680199138874,1712
2601.869564545807,1676
2603.670728731383,1654
2605.4715127644704,1676
2607.2719169390048,1685
2609.071941548998,1792
2610.8715868885433,1660
2612.670853251811,1691
2614.469740933052,1640
2616.268250226594,1701
2618.0663814268455,1711
2619.864134828292,1685
2621.6615107255006,1732
2623.458509413115,1693
2625.2551311858597,1692
2627.0513763385347,1666
2628.8472451660223,1735
2630.6427379632833,1730
2632.4378550253564,1690
2634.232596647359,1681
2636.026963124488,1741
2637.8209547520187,1698
2639.6145718253065,1642
2641.407814639785,1627
2643.200683490966,1629
2644.9931786744414,1659
2646.7853004858807,1664
2648.577049221034,1700
2650.3684251757277,1711
2652.1594286458712,1641
2653.9500599274484,1639
2655.740319316525,1578
2657.5302071092437,1586
2659.3197236018286,1605
2661.10886909058,1607
2662.8976438718782,1547
2664.686048242183,1608
2666.4740824980327,1670
2668.2617469360443,1591
2670.0490418529134,1587
2671.8359675454153,1650
2673.622524310403,1573
2675.408712444811,1541
2677.1945322456495,1533
2678.979984010009,1630
2680.76506803506,1596
2682.5497846180497,1505
2684.334134056306,1572
2686.1181166472343,1587
2687.9017326883213,1625
2689.6849824771293,1497
2691.4678663113013,1534
2693.2503844885596,1547
2695.032537306705,1525
2696.8143250636167,1518
2698.5957480572542,1575
2700.3768065856534,1577
2702.1575009469316,1548
2703.937831439283,1475
2705.717798360982,1504
2707.4974020103837,1571
2709.276642685917,1565
2711.055520686095,1516
2712.834036309506,1555
2714.612189854819,1451
2716.389981620782,1456
2718.1674119062204,1498
2719.944481010041,1553
2721.721189231226,1537
2723.4975368688415,1492
2725.273524222027,1502
2727.0491515900053,1509
2728.824419272075,1510
2730.5993275676146,1567
2732.3738767760838,1493
2734.148067197016,1508
2735.921899130031,1504
2737.6953728748194,1475
2739.468488731156,1499
2741.2412469988926,1526
2743.0136479779617,1520
2744.785691968372,1534
2746.5573792702116,1478
2748.3287101836504,1483
2750.099685008934,1528
2751.870304046388,1474
2753.640567596418,1523
2755.4104759595057,1507
2757.1800294362156,1557
2758.949228327187,1538
2760.7180729331412,1475
2762.486563554877,1467
2764.254700493272,1511
2766.022484049284,1476
2767.789914523947,1538
2769.5569922183786,1465
2771.3237174337705,1499
2773.090090471394,1521
2774.8561116326036,1470
2776.6217812188274,1499
2778.3870995315756,1560
2780.1520668724356,1502
2781.9166835430747,1473
2783.6809498452394,1481
2785.444866080754,1505
2787.2084325515225,1500
2788.971649559527,1502
2790.73451740683,1502
2792.4970363955713,1480
2794.2592068279705,1541
2796.0210290063264,1531
2797.7825032330147,1444
2799.543629810493,1496
2801.304409041296,1464
2803.0648412280366,1469
2804.8249266734088,1473
2806.5846656801846,1546
2808.344058551212,1540
2810.1031055894246,1547
2811.8618070978273,1507
2813.6201633795085,1541
2815.378174737636,1544
2817.1358414754536,1506
2818.893163896285,1521
2820.6501423035334,1518
2822.4067770006814,1527
2824.1630682912883,1523
2825.9190164789957,1491
2827.6746218675207,1506
2829.429884760661,1485
2831.184805462294,1479
2832.9393842763743,1492
2834.693621506936,1544
2836.4475174580916,1545
2838.201072434034,1472
2839.954286739034,1502
2841.707160677441,1483
2843.459694553685,1456
2845.2118886722724,1539
2846.96374333779,1590
2848.7152588549034,1555
2850.4664355283567,1481
2852.217273662973,1546
2853.9677735636546,1555
2855.7179355353833,1537
2857.4677598832186,1540
2859.217246912299,1503
2860.9663969278427,1475
2862.715210235146,1502
2864.4636871395846,1468
2866.211827946614,1499
2867.9596329617652,1463
2869.7071024906536,1505
2871.4542368389684,1506
2873.20103631248,1518
2874.947501217038,1491
2876.6936318585695,1470
2878.4394285430812,1515
2880.1848915766604,1492
2881.9300212654707,1457
2883.6748179157553,1490
2885.4192818338374,1563
2887.1634133261173,1545
2888.907212699077,1589
2890.6506802592744,1478
2892.393816313348,1507
2894.1366211680142,1592
2895.8790951300693,1511
2897.621238506388,1512
2899.363051603925,1514
2901.1045347297118,1560
2902.8456881908596,1494
2904.58651229456,1514
2906.327007348081,1512
2908.067173658772,1543
2909.8070115340597,1532
2911.5465212814497,1500
2913.285703208527,1523
2915.0245576229563,1537
2916.7630848324807,1525
2918.5012851449196,1520
2920.2391588681758,1536
2921.976706310227,1530
2923.7139277791334,1451
2925.4508235830313,1521
2927.187394030137,1525
2928.923639428745,1518
2930.6595600872306,1546
2932.395156314046,1519
2934.1304284177218,1516
2935.8653767068713,1507
2937.6000014901815,1527
2939.3343030764227,1498
2941.068281774442,1547
2942.8019378931644,1502
2944.5352717415976,1536
2946.2682836288236,1491
2948.0009738640065,1460
2949.7333427563885,1452
2951.465390615289,1489
2953.1971177501086,1543
2954.9285244703265,1465
2956.6596110855,1483
2958.3903779052657,1505
2960.1208252393385,1550
2961.8509533975125,1542
2963.5807626896617,1459
2965.3102534257378,1537
2967.0394259157715,1441
2968.768280469873,1552
2970.496817398232,1582
2972.2250370111146,1559
2973.952939618869,1527
2975.6805255319196,1504
2977.4077950607707,1543
2979.134748516006,1538
2980.861386208289,1569
2982.587708448359,1559
2984.313715547037,1549
2986.039407815222,1575
2987.764785563891,1510
2989.489849104102,1521
2991.2145987469908,1456
2992.9390348037705,1505
2994.6631575857346,1495
2996.3869674042576,1523
2998.1104645707887,1505
2999.83364939686,1507
3001.5565221940783,1481
3003.2790832741334,1548
3005.0013329487924,1540
3006.7232715298996,1514
3008.4448993293804,1527
3010.166216659239,1504
3011.887223831558,1457
3013.607921158498,1480
3015.3283089522993,1489
3017.0483875252826,1501
3018.7681571898443,1519
3020.4876182584626,1506
3022.2067710436927,1511
3023.9256158581707,1500
3025.644153014609,1576
3027.362382825801,1584
3029.0803056046193,1511
3030.797921664012,1546
3032.5152313170106,1491
3034.2322348767225,1490
3035.9489326563353,1467
3037.665324969115,1524
3039.3814121284063,1558
3041.097194447633,1442
3042.812672240299,1542
3044.5278458199855,1490
3046.2427155003525,1568
3047.9572815951406,1543
3049.671544418167,1522
3051.38550428333,1457
3053.0991615046073,1531
3054.812516396051,1551
3056.5255692717974,1502
3058.2383204460575,1487
3059.9507702331257,1466
3061.662918947372,1449
3063.3747669032446,1502
3065.0863144152736,1535
3066.7975617980674,1482
3068.508509366309,1478
3070.219157434767,1466
3071.9295063182844,1425
3073.639556331785,1463
3075.3493077902704,1478
3077.058761008821,1468
3078.7679163025964,1507
3080.476773986837,1488
3082.1853343768594,1554
3083.89359778806,1545
3085.6015645359153,1535
3087.3092349359786,1492
3089.016609303884,1466
3090.7236879553434,1519
3092.4304712061476,1487
3094.136959372166,1488
3095.843152769349,1474
3097.5490517137237,1504
3099.2546565213966,1460
3100.959967508554,1493
3102.66498499146,1520
3104.3697092864577,1461
3106.0741407099695,1468
3107.778279578498,1516
3109.482126208622,1492
3111.1856809170004,1487
3112.8889440203716,1501
3114.5919158355528,1485
3116.294596679439,1607
3117.996986869006,1516
3119.6990867213062,1500
3121.4008965534726,1568
3123.102416682717,1484
3124.803647426329,1473
3126.5045891016784,1554
3128.205242026213,1524
3129.90560651746,1512
3131.605682893025,1530
3133.3054714705922,1523
3135.0049725679282,1541
3136.7041865028714,1527
3138.4031135933465,1473
3140.101754157353,1502
3141.800108512971,1471
3143.498176978357,1448
3145.1959598717494,1509
3146.8934575114636,1539
3148.5906702158954,1483
3150.2875983035183,1475
3151.9842420928853,1514
3153.680601902627,1503
3155.376678051456,1570
3157.07247085816,1484
3158.767980641609,1551
3160.463207720748,1526
3162.158152414606,1580
3163.8528150422862,1555
3165.5471959229726,1575
3167.2412953759303,1522
3168.9351137204976,1544
3170.628651276098,1509
3172.3219083622307,1560
3174.014885298474,1534
3175.707582404485,1540
3177.4000000000005,1534
3179.092138404835,1541
3180.7839979388846,1513
3182.47557892212,1561
3184.166881674594,1506
3185.8579065164386,1447
3187.5486537678626,1553
3189.2391237491547,1516
3190.9293167806827,1499
3192.6192331828934,1544
3194.3088732763117,1512
3195.998237381542,1526
3197.687325819268,1529
3199.376138910251,1461
3201.064676975334,1531
3202.7529403354347,1491
3204.4409293115523,1491
3206.1286442247647,1530
3207.816085396229,1511
3209.5032531471825,1467
3211.190147798936,1507
3212.8767696728846,1555
3214.5631190905015,1478
3216.2491963733373,1457
3217.9350018430214,1500
3219.6205358212637,1466
3221.305798629851,1473
3222.990790590651,1448
3224.6755120256103,1503
3226.359963256751,1502
3228.0441446061795,1451
3229.7280563960758,1520
3231.411698948703,1477
3233.0950725863995,1547
3234.778177631587,1521
3236.461014406761,1486
3238.1435832345005,1529
3239.8258844374595,1517
3241.507918338374,1512
3243.1896852600576,1540
3244.8711855254023,1544
3246.552419457381,1514
3248.233387379042,1552
3249.914089613516,1505
3251.59452648401,1529
3253.274698313813,1518
3254.95460542629,1523
3256.6342481448855,1515
3258.313626793125,1512
3259.9927416946084,1529
3261.6715931730196,1505
3263.3501815521176,1457
3265.0285071557437,1425
3266.706570307815,1488
3268.3843713323286,1448
3270.0619105533615,1521
3271.739188295068,1503
3273.4162048816834,1457
3275.0929606375184,1506
3276.769455886966,1508
3278.445690954498,1523
3280.1216661646613,1588
3281.797381842087,1538
3283.4728383114807,1508
3285.1480358976296,1472
3286.8229749253996,1492
3288.4976557197333,1507
3290.172078605655,1468
3291.846243908266,1396
3293.5201519527463,1513
3295.193803064357,1464
3296.8671975684374,1492
3298.5403357904024,1511
3300.21321805575,1459
3301.8858446900567,1499
3303.558216018975,1457
3305.23033236824,1488
3306.9021940636603,1528
3308.57380143113,1457
3310.2451547966184,1539
3311.916254486174,1513
3313.5871008259246,1501
3315.2576941420766,1499
3316.9280347609147,1569
3318.5981230088046,1514
3320.2679592121895,1496
3321.9375436975924,1465
3323.606876791612,1547
3325.27595882093,1479
3326.944790112305,1468
3328.6133709925753,1482
3330.2817017886573,1476
3331.949782827547,1510
3333.617614436319,1450
3335.2851969421245,1493
3336.952530672199,1450
3338.619615953853,1456
3340.286453114475,1507
3341.9530424815357,1509
3343.619384382583,1501
3345.2854791452437,1487
3346.951327097224,1473
3348.6169285663073,1509
3350.2822838803577,1539
3351.947393367319,1483
3353.61225735521,1514
3355.2768761721345,1469
3356.9412501462693,1495
3358.605379605873,1487
3360.2692648792827,1527
3361.9329062949146,1520
3363.596304181263,1556
