CollectionTime,7/9/2024 3:55:28 PM
ExposureUsed,3
CalibratedSpectrum
-962.7078968117929,476
-959.9714848408522,529
-957.2358232597828,530
-954.5009119013725,522
-951.7667505983302,501
-949.0333391832855,508
-946.3006774887896,513
-943.5687653473143,515
-940.837602591253,498
-938.1071890529199,496
-935.3775245645503,544
-932.6486089583007,513
-929.9204420662485,551
-927.1930237203925,529
-924.4663537526524,532
-921.7404319948689,533
-919.0152582788041,550
-916.2908324361409,613
-913.5671542984834,581
-910.8442236973568,582
-908.1220404642074,497
-905.4006044304027,583
-902.679915427231,546
-899.959973285902,534
-897.2407778375464,572
-894.5223289132158,547
-891.8046263438832,560
-889.0876699604426,538
-886.3714595937089,539
-883.6559950744183,520
-880.9412762332282,545
-878.2273029007168,518
-875.5140749073835,513
-872.8015920836489,507
-870.0898542598545,535
-867.3788612662631,517
-864.6686129330585,521
-861.9591090903457,525
-859.2503495681506,529
-856.5423341964203,517
-853.8350628050229,521
-851.1285352237478,493
-848.4227512823054,521
-845.7177108103272,534
-843.0134136373656,554
-840.3098595928943,563
-837.6070485063082,602
-834.9049802069229,554
-832.2036545239757,530
-829.5030712866244,544
-826.8032303239481,546
-824.1041314649472,536
-821.4057745385428,569
-818.7081593735775,555
-816.0112857988148,521
-813.3151536429393,551
-810.6197627345566,556
-807.9251129021936,553
-805.2312039742981,551
-802.5380357792392,532
-799.8456081453069,548
-797.1539209007124,535
-794.462973873588,546
-791.772766891987,554
-789.083299783884,553
-786.3945723771743,554
-783.7065844996748,573
-781.0193359791231,537
-778.3328266431781,536
-775.6470563194197,547
-772.9620248353489,541
-770.2777320183878,561
-767.5941776958798,581
-764.9113616950891,566
-762.2292838432011,570
-759.5479439673222,565
-756.8673418944801,549
-754.1874774516235,578
-751.5083504656222,570
-748.8299607632671,576
-746.15230817127,593
-743.475392516264,578
-740.7992136248035,570
-738.1237713233636,579
-735.4490654383407,552
-732.7750957960521,546
-730.1018622227365,602
-727.4293645445534,565
-724.7576025875837,575
-722.0865761778291,613
-719.4162851412126,599
-716.7467293035781,577
-714.0779084906909,605
-711.409822528237,549
-708.7424712418238,588
-706.0758544569796,576
-703.4099719991541,605
-700.7448236937178,585
-698.0804093659622,605
-695.4167288411002,607
-692.7537819442656,576
-690.0915685005134,584
-687.4300883348199,624
-684.7693412720819,639
-682.1093271371178,572
-679.4500457546669,594
-676.7914969493897,581
-674.1336805458676,607
-671.4765963686034,599
-668.8202442420206,622
-666.1646239904642,612
-663.5097354382001,583
-660.8555784094151,620
-658.2021527282176,609
-655.5494582186366,635
-652.8974947046223,627
-650.2462620100463,604
-647.5957599587009,619
-644.9459883742998,666
-642.2969470804776,658
-639.6486359007902,681
-637.0010546587141,700
-634.3542031776476,664
-631.7080812809096,672
-629.0626887917401,641
-626.4180255333008,661
-623.7740913286734,710
-621.1308860008619,679
-618.4884093727904,661
-615.8466612673046,702
-613.2056415071715,654
-610.5653499150785,645
-607.9257863136347,675
-605.28695052537,707
-602.6488423727357,664
-600.0114616781036,671
-597.3748082637674,686
-594.7388819519412,653
-592.1036825647604,786
-589.4692099242818,725
-586.8354638524829,682
-584.2024441712624,657
-581.5701507024403,719
-578.9385832677575,716
-576.3077416888759,718
-573.6776257873787,671
-571.0482353847704,690
-568.4195703024757,688
-565.7916303618415,693
-563.164415384135,701
-560.5379251905453,707
-557.9121596021815,654
-555.2871184400748,679
-552.6628015251767,710
-550.0392086783606,690
-547.4163397204204,682
-544.794194472071,699
-542.1727727539491,718
-539.5520743866118,756
-536.9320991905377,770
-534.3128469861261,765
-531.6943175936979,780
-529.0765108334947,813
-526.4594265256793,873
-523.8430644903358,1024
-521.2274245474689,1148
-518.612506517005,1161
-515.9983102187913,1194
-513.3848354725959,1141
-510.77208209810846,1129
-508.16004991493924,1209
-505.5487387426199,1330
-502.9381484006032,1561
-500.3282787082628,1689
-497.71912948489364,1703
-495.1107005497117,1723
-492.5029917218539,1625
-489.8960028203786,1533
-487.28973366426493,1320
-484.68418407241325,1218
-482.07935386364494,1105
-479.47524285670266,1021
-476.87185087025,989
-474.2691777228715,948
-471.66722323307334,951
-469.0659872192821,945
-466.4654694998459,970
-463.86566989303384,976
-461.26658821703614,947
-458.66822428996414,955
-456.07057792985,990
-453.4736489546475,930
-450.877437182231,898
-448.28194243039627,894
-445.68716451686,896
-443.09310325926003,909
-440.49975847515555,912
-437.9071299820263,882
-435.31521759727354,887
-432.72402113821954,949
-430.13354042210767,982
-427.5437752661022,925
-424.95472548728867,936
-422.36639090267386,937
-419.7787713291855,991
-417.1918665836721,1043
-414.60567648290385,1052
-412.0202008435715,1022
-409.4354394822874,991
-406.8513922155845,1043
-404.26805885991723,1053
-401.685439231661,1039
-399.103533147112,1018
-396.522340422488,1005
-393.9418608739278,970
-391.3620943174908,945
-388.7830405691583,963
-386.2046994448317,914
-383.6270707603344,885
-381.05015433141045,878
-378.473949973725,832
-375.8984575028645,753
-373.32367673433623,745
-370.74960748356875,726
-368.1762495659117,678
-365.60360279663576,623
-363.03166699093265,566
-360.4604419639154,557
-357.8899275306178,526
-355.32012350599507,547
-352.7510297049233,498
-350.1826459421999,491
-347.61497203254316,486
-345.04800779059235,519
-342.4817530309082,528
-339.91620756797226,509
-337.35137121618743,527
-334.7872437898774,591
-332.22382510328725,566
-329.66111497058273,542
-327.09911320585127,523
-324.53781962310075,525
-321.9772340362607,553
-319.4173562591816,540
-316.8581861056348,518
-314.2997233893127,493
-311.7419679238294,506
-309.1849195227194,533
-306.62857799943856,523
-304.0729431673641,568
-301.51801483979375,577
-298.963792829947,537
-296.41027695096386,543
-293.85746701590574,566
-291.3053628377552,585
-288.7539642294155,604
-286.2032710037115,586
-283.65328297338897,587
-281.1039999511146,641
-278.5554217494762,653
-276.007548180983,619
-273.4603790580651,593
-270.9139141930734,564
-268.3681533982807,543
-265.8230964858798,596
-263.27874326798565,619
-260.7350935566336,605
-258.1921471637804,624
-255.6499039013039,626
-253.10836358100266,624
-250.56752601459698,613
-248.02739101372765,692
-245.48795838995704,732
-242.94922795476816,674
-240.41119951956557,659
-237.8738728956746,717
-235.33724789434166,773
-232.80132432673452,704
-230.2661020039418,691
-227.73158073697357,712
-225.19776033676033,777
-222.66464061415422,792
-220.1322213799284,689
-217.60050244477725,685
-215.06948361931552,700
-212.53916471408013,763
-210.00954553952818,827
-207.48062590603843,796
-204.9524056239104,792
-202.4248845033651,867
-199.8980623545441,815
-197.37193898751036,829
-194.84651421224817,831
-192.32178783866232,848
-189.79775967657952,876
-187.27442953574644,948
-184.7517972258321,922
-182.2298625564256,875
-179.7086253370378,850
-177.18808537710026,905
-174.66824248596583,917
-172.14909647290835,965
-169.6306471471229,889
-167.11289431772548,932
-164.59583779375328,961
-162.07947738416453,861
-159.5638128978386,979
-157.04884414357605,1239
-154.53457093009854,1438
-152.02099306604828,1382
-149.50811035998936,1007
-146.99592262040665,854
-144.48442965570587,983
-141.97363127421409,1085
-139.46352728417958,1373
-136.95411749377126,1645
-134.44540171107985,1501
-131.93737974411636,1131
-129.43005140081357,1362
-126.92341648902493,1814
-124.41747481652521,2173
-121.91222619101006,2418
-119.40767042009657,3288
-116.90380731132257,4080
-114.40063667214702,4040
-111.8981583099503,2940
-109.3963720320337,2097
-106.89527764561933,1965
-104.39487495785067,2467
-101.89516377579241,3773
-99.39614390642998,4474
-96.89781515667039,4456
-94.40017733334128,4083
-91.90323024319173,5191
-89.40697369289148,7554
-86.91140748903172,9554
-84.41653143812482,8860
-81.92234534660395,5712
-79.42884902082358,4058
-76.93604226705907,8584
-74.4439248915071,16217
-71.95249670028534,22415
-69.46175749943245,23131
-66.97170709490854,20409
-64.48234529259423,17824
-61.99367189829195,15511
-59.50568671772464,11649
-57.01838955653636,9026
-54.53178022029283,9082
-52.045858514480074,10005
-49.560624244506016,10634
-47.07607721569923,10988
-44.59221723330904,10999
-42.10904410250669,10168
-39.62655762838392,8477
-37.14475761595372,7869
-34.66364387015028,7652
-32.18321619582866,7325
-29.70347439776515,7565
-27.224418280657005,8545
-24.74604764912317,10533
-22.26836230770266,18457
-19.7913620608565,37548
-17.315046712966478,65037
-14.83941606833514,65037
-12.36446993118659,65037
-9.89020810566592,65037
-7.416630395839093,65037
-4.94373660569363,65037
-2.471526539137585,65037
-6.821210263296962E-13,65037
2.47084320796705,65037
4.941003281093458,65037
7.410480415786196,65037
9.879274808531363,65037
12.347386655893956,65037
14.814816154518212,65037
17.28156350112681,65037
19.74762889252179,65037
22.21301252558385,65037
24.67771459727237,21814
27.141735304626195,4744
29.605074844762612,2854
32.06773341487792,2629
34.52971121224755,2756
36.99100843422559,2627
39.45162527824516,2304
41.91156194181792,2191
44.370818622535126,1920
46.82939551806646,1387
49.287292826160524,1432
51.74451074464503,1837
54.201049471426245,1767
56.65690920448981,1645
59.112090141899785,1331
61.56659248179983,1210
64.02041642241159,1200
66.4735621620365,1132
68.92602989905402,1168
71.37781983192338,1186
73.82893215918205,1281
76.27936707944684,1497
78.72912479141326,1419
81.17820549385567,1333
83.62660938562783,1473
86.07433666566146,1376
88.5213875329681,1093
90.96776218663751,1170
93.41346082583925,1117
95.85848364982041,1041
98.30283085790859,1115
100.7465026495089,1252
103.18949922410604,1258
105.63182078126385,1336
108.07346752062438,1373
110.51443964190923,1123
112.95473734491827,958
115.39436082953114,1050
117.83331029570547,1067
120.27158594347827,1046
122.7091879729652,1120
125.1461165843615,1009
127.58237197794062,954
130.01795435405518,832
132.4528639131364,1041
134.88710085569494,1013
137.32066538231982,1049
139.75355769367923,930
142.1857779905207,954
144.61732647366978,982
147.04820334403132,910
149.47840880258934,1002
151.90794305040674,1029
154.33680628862487,1169
156.76499871846443,1338
159.19252054122433,1517
161.61937195828352,1574
164.04555317109896,1706
166.47106438120693,1907
168.89590579022217,2113
171.320077599839,2161
173.7435800118302,2114
176.16641322804742,2223
178.58857745042144,2444
181.01007288096173,2746
183.43089972175687,2549
185.85105817497413,2551
188.27054844285988,2572
190.6893707277394,2429
193.10752523201643,2511
195.5250121581745,2638
197.9418317087751,2677
200.3579840864594,2675
202.7734694939469,2747
205.18828813403627,2734
207.6024402096051,2869
210.01592592360964,2924
212.42874547908548,2851
214.84089907914665,2841
217.2523869269868,2817
219.66320922587727,2862
222.0733661791695,2808
224.48285799029293,2708
226.8916848627572,2826
229.29984700014882,2860
231.7073446061355,2805
234.11417788446204,2785
236.520347038953,2668
238.92585227351185,2801
241.33069379212054,2764
243.73487179884035,2796
246.1383864978112,2842
248.541238093252,2779
250.9434267894609,2824
253.34495279081432,2723
255.74581630176783,2759
258.1460175268563,2730
260.54555667069314,2758
262.9444339379703,2708
265.3426495334594,2821
267.7402036620107,2844
270.1370965285529,2842
272.53332833809407,2771
274.9288992957214,2712
277.32380960660055,2726
279.718059475976,2831
282.1116491091717,2830
284.5045787115897,2730
286.89684848871195,2823
289.2884586460981,2928
291.67940938938807,2987
294.0697009242996,2821
296.4593334566299,2857
298.84830719225477,2817
301.23662233712923,2798
303.6242790972866,2825
306.01127767884,2796
308.39761828798066,2731
310.78330113097934,2748
313.16832641418534,2640
315.5526943440269,2582
317.9364051270112,2588
320.3194589697242,2561
322.70185607883093,2584
325.0835966610754,2615
327.4646809232805,2541
329.8451090723478,2464
332.2248813152577,2593
334.6039978590701,2499
336.9824589109231,2450
339.36026467803447,2453
341.7374153677,2448
344.113911187295,2453
346.48975234427337,2448
348.8649390461686,2341
351.2394715005918,2370
353.61334991523415,2489
355.9865744978655,2451
358.35914545633375,2434
360.73106299856715,2376
363.10232733257146,2432
365.47293866643247,2375
367.84289720831396,2391
370.2122031664593,2309
372.5808567491905,2393
374.9488581649083,2286
377.31620762209275,2261
379.6829053293021,2223
382.0489514951745,2317
384.4143463284262,2216
386.7790900378528,2285
389.14318283232853,2272
391.50662492080653,2286
393.86941651231916,2317
396.23155781597745,2313
398.5930490409713,2300
400.9538903965696,2295
403.3140820921202,2238
405.6736243370498,2229
408.03251734086336,2255
410.3907613131465,2142
412.74835646356166,2243
415.10530300185144,2173
417.4616011378372,2132
419.81725108141893,2336
422.1722530425758,2206
424.5266072313656,2226
426.880313857925,2159
429.2333731324701,2243
431.58578526529516,2141
433.9375504667738,2194
436.2886689473588,2125
438.63914091758113,2166
440.9889665880513,2187
443.33814616945835,2149
445.68667987257015,2163
448.03456790823395,2074
450.3818104873759,2118
452.72840782100013,2119
455.07436012019105,2180
457.41966759611057,2187
459.7643304600007,2098
462.10834892318155,2139
464.4517231970525,2158
466.79445349309174,2185
469.1365400228566,2274
471.4779829979826,2241
473.81878263018564,2189
476.15893913125876,2268
478.4984527130747,2308
480.8373235875855,2408
483.17555196682144,2505
485.5131380628919,2568
487.8500820879857,2707
490.1863842543697,3015
492.52204477439034,3297
494.8570638604725,3609
497.1914417251204,3972
499.52517858091653,4045
501.85827464052306,4132
504.19073011668036,3997
506.5225452222086,3770
508.85372017000566,3577
511.18425517304956,3499
513.514150444396,3785
515.8434061971808,4910
518.1720226446176,6065
520.4999999999999,6241
522.8273384766991,5894
525.1540382881666,5216
527.480099647932,4472
529.8055227696037,3844
532.1303078668694,3107
534.454455153496,2599
536.777964843328,2526
539.1008371502907,2417
541.4230722883866,2328
543.744670471698,2324
546.0656319143858,2369
548.3859568306899,2283
550.7056454349294,2262
553.0246979415016,2226
555.3431145648834,2235
557.6608955196306,2176
559.978041020377,2194
562.2945512818363,2228
564.6104265188006,2287
566.9256669461412,2301
569.2402727788082,2303
571.5542442318302,2290
573.8675815203156,2331
576.1802848594508,2306
578.4923544645015,2249
580.8037905508126,2396
583.114593333807,2364
585.4247630289875,2343
587.7342998519354,2313
590.0432040183106,2353
592.3514757438526,2305
594.6591152443794,2309
596.9661227357875,2289
599.2724984340531,2338
601.578242555231,2337
603.8833553154542,2312
606.1878369309362,2289
608.4916876179676,2280
610.7949075929192,2261
613.0974970722403,2259
615.3994562724587,2272
617.7007854101818,2265
620.0014847020951,2290
622.3015543649641,2251
624.6009946156324,2286
626.8998056710224,2268
629.1979877481361,2324
631.4955410640538,2200
633.7924658359349,2231
636.0887622810175,2243
638.3844306166192,2143
640.6794710601358,2291
642.9738838290426,2238
645.2676691408932,2249
647.5608272133207,2166
649.853358264037,2246
652.1452625108324,2225
654.4365401715764,2268
656.7271914642178,2303
659.0172166067838,2204
661.3066158173809,2244
663.5953893141935,2275
665.8835373154867,2227
668.1710600396028,2202
670.4579577049639,2286
672.7442305300709,2306
675.0298787335033,2273
677.3149025339197,2139
679.599302150058,2274
681.8830778007342,2234
684.1662297048437,2210
686.4487580813608,2302
688.7306631493387,2249
691.0119451279091,2272
693.2926042362834,2230
695.5726406937516,2263
697.8520547196814,2265
700.1308465335215,2250
702.4090163547982,2251
704.6865644031171,2171
706.9634908981619,2227
709.2397960596965,2211
711.5154801075631,2194
713.7905432616823,2221
716.0649857420548,2154
718.3388077687592,2182
720.612009561953,2257
722.8845913418733,2209
725.1565533288352,2160
727.427895743234,2175
729.6986188055427,2172
731.9687227363137,2210
734.238207756178,2240
736.5070740858458,2219
738.7753219461066,2220
741.0429515578281,2204
743.3099631419569,2257
745.5763569195191,2194
747.8421331116193,2269
750.1072919394409,2217
752.3718336242467,2188
754.6357583873777,2242
756.8990664502545,2332
759.1617580343765,2193
761.423833361321,2209
763.6852926527457,2237
765.9461361303862,2203
768.206364016058,2284
770.4659765316536,2248
772.7249738991469,2283
774.9833563405886,2245
777.2411240781092,2259
779.4982773339183,2307
781.7548163303044,2280
784.010741289634,2270
786.2660524343538,2321
788.5207499869881,2334
790.7748341701416,2313
793.0283052064964,2322
795.2811633188143,2294
797.5334087299362,2355
799.7850416627813,2292
802.0360623403484,2341
804.2864709857143,2285
806.5362678220353,2389
808.7854530725468,2327
811.0340269605625,2297
813.2819897094754,2329
815.5293415427581,2240
817.77608268396,2365
820.0222133567116,2244
822.2677337847211,2289
824.5126441917765,2280
826.7569448017433,2265
829.0006358385675,2237
831.2437175262731,2280
833.4861900889629,2330
835.7280537508192,2305
837.9693087361026,2301
840.2099552691533,2339
842.4499935743896,2293
844.689423876309,2331
846.9282463994886,2310
849.1664613685833,2330
851.4040690083276,2383
853.6410695435349,2298
855.877463199097,2319
858.1132501999847,2260
860.3484307712487,2316
862.5830051380175,2348
864.8169735254988,2449
867.0503361589791,2342
869.2830932638243,2341
871.5152450654786,2314
873.7467917894654,2369
875.9777336613873,2426
878.2080709069252,2405
880.4378037518389,2406
882.666932421968,2370
884.8954571432301,2457
887.1233781416219,2425
889.3506956432192,2433
891.5774098741766,2468
893.803521060728,2449
896.0290294291852,2384
898.2539352059397,2423
900.4782386174619,2362
902.7019398903011,2326
904.925039251085,2298
907.147536926521,2379
909.3694331433943,2332
911.59072812857,2350
913.8114221089921,2333
916.0315153116827,2330
918.2510079637437,2321
920.4699002923547,2301
922.6881925247761,2283
924.905884888345,2289
927.1229776104793,2303
929.3394709186747,2231
931.555365040506,2287
933.7706602036275,2255
935.9853566357709,2258
938.1994545647489,2247
940.4129542184515,2279
942.6258558248488,2299
944.8381596119883,2241
947.0498658079974,2211
949.2609746410825,2232
951.4714863395287,2220
953.6814011316998,2201
955.8907192460387,2161
958.0994409110671,2245
960.3075663553858,2264
962.5150958076741,2150
964.7220294966913,2181
966.928367651274,2224
969.1341105003388,2218
971.3392582728806,2094
973.5438111979742,2103
975.747769504772,2225
977.9511334225061,2142
980.153903180487,2112
982.3560790081052,2082
984.5576611348289,2094
986.7586497902058,2025
988.9590452038618,2150
991.158847605503,2071
993.3580572249133,2062
995.5566742919558,1991
997.7546990365728,1988
999.952131688785,2007
1002.1489724786926,1944
1004.3452216364743,1953
1006.5408793923874,1911
1008.7359459767691,1894
1010.9304216200343,1909
1013.1243065526781,1860
1015.3176010052733,1863
1017.510305208472,1814
1019.7024193930064,1830
1021.8939437896848,1867
1024.0848786293977,1940
1026.2752241431122,1810
1028.4649805618747,1890
1030.6541481168115,1749
1032.842727039127,1839
1035.0307175601051,1880
1037.2181199111074,1803
1039.4049343235752,1797
1041.591161029029,1872
1043.7768002590683,1762
1045.9618522453698,1813
1048.1463172196918,1762
1050.3301954138697,1816
1052.513487059818,1803
1054.69619238953,1880
1056.8783116350783,1769
1059.0598450286152,1806
1061.2407928023704,1898
1063.4211551886528,1751
1065.6009324198508,1811
1067.780124728432,1731
1069.9587323469414,1734
1072.1367555080046,1808
1074.314194444325,1802
1076.4910493886855,1791
1078.667320573947,1703
1080.843008233051,1740
1083.0181125990161,1798
1085.1926339049414,1712
1087.3665723840027,1670
1089.5399282694575,1752
1091.7127017946405,1756
1093.8848931929647,1684
1096.0565026979243,1707
1098.2275305430899,1641
1100.3979769621128,1722
1102.567842188722,1752
1104.737126456726,1581
1106.9058300000124,1781
1109.0739530525475,1691
1111.2414958483764,1736
1113.4084586216231,1697
1115.5748416064907,1733
1117.7406450372605,1723
1119.9058691482942,1689
1122.0705141740304,1709
1124.2345803489884,1679
1126.3980679077658,1652
1128.5609770850388,1689
1130.7233081155623,1680
1132.8850612341707,1676
1135.0462366757774,1690
1137.2068346753745,1664
1139.3668554680326,1638
1141.526299288901,1642
1143.68516637321,1710
1145.8434569562655,1634
1148.001171273455,1686
1150.158309560244,1589
1152.3148720521767,1690
1154.470858984876,1705
1156.626270594044,1608
1158.7811071154629,1645
1160.9353687849912,1634
1163.089055838569,1599
1165.242168512213,1620
1167.3947070420209,1608
1169.5466716641677,1720
1171.6980626149075,1615
1173.8488801305748,1634
1175.9991244475814,1662
1178.1487958024186,1642
1180.2978944316555,1572
1182.4464205719428,1603
1184.5943744600072,1584
1186.7417563326567,1627
1188.8885664267755,1633
1191.0348049793297,1609
1193.1804722273619,1637
1195.325568407995,1661
1197.4700937584303,1558
1199.614048515948,1583
1201.7574329179074,1630
1203.900247201746,1628
1206.042491604982,1661
1208.1841663652099,1621
1210.3252717201053,1620
1212.465807907422,1660
1214.6057751649923,1699
1216.7451737307279,1675
1218.8840038426192,1634
1221.0222657387353,1630
1223.1599596572241,1660
1225.2970858363137,1671
1227.4336445143094,1676
1229.5696359295966,1590
1231.705060320639,1657
1233.8399179259786,1643
1235.9742089842384,1799
1238.107933734118,1658
1240.2410924143974,1627
1242.373685263935,1683
1244.5057125216676,1671
1246.6371744266116,1687
1248.7680712178621,1702
1250.898403134593,1754
1253.028170416058,1709
1255.1573733015875,1696
1257.2860120305932,1642
1259.4140868425648,1726
1261.54159797707,1702
1263.6685456737569,1680
1265.7949301723515,1717
1267.9207517126597,1679
1270.046010534565,1670
1272.1707068780306,1610
1274.2948409830983,1713
1276.4184130898889,1686
1278.541423438603,1744
1280.6638722695184,1733
1282.785759822993,1735
1284.9070863394636,1748
1287.0278520594447,1726
1289.1480572235314,1739
1291.2677020723963,1756
1293.3867868467923,1746
1295.5053117875495,1779
1297.623277135579,1771
1299.740683131868,1746
1301.8575300174857,1771
1303.973818033578,1767
1306.0895474213703,1820
1308.2047184221678,1771
1310.3193312773528,1875
1312.4333862283888,1778
1314.5468835168163,1706
1316.659823384255,1763
1318.7722060724045,1720
1320.8840318230418,1737
1322.9953008780249,1735
1325.1060134792888,1689
1327.2161698688478,1787
1329.3257702887959,1753
1331.4348149813054,1742
1333.5433041886276,1769
1335.6512381530933,1748
1337.7586171171101,1755
1339.8654413231675,1752
1341.9717110138317,1772
1344.0774264317488,1763
1346.1825878196432,1776
1348.2871954203192,1732
1350.3912494766587,1711
1352.4947502316231,1765
1354.5976979282532,1756
1356.7000928096686,1702
1358.8019351190665,1830
1360.9032250997243,1791
1363.0039629949988,1721
1365.1041490483235,1707
1367.2037835032133,1770
1369.3028666032606,1718
1371.401398592137,1746
1373.4993797135926,1710
1375.5968102114575,1697
1377.6936903296396,1761
1379.7900203121262,1715
1381.8858004029835,1723
1383.9810308463561,1773
1386.075711886469,1734
1388.1698437676241,1781
1390.2634267342032,1776
1392.356461030667,1784
1394.4489469015557,1803
1396.5408845914872,1719
1398.6322743451592,1820
1400.7231164073469,1737
1402.813411022907,1761
1404.903158436773,1789
1406.9923588939578,1818
1409.0810126395531,1887
1411.1691199187303,1805
1413.2566809767386,1797
1415.343696058907,1752
1417.4301654106425,1804
1419.5160892774315,1792
1421.6014679048399,1815
1423.6863015385125,1855
1425.7705904241707,1756
1427.8543348076178,1803
1429.9375349347342,1806
1432.0201910514802,1780
1434.102303403894,1728
1436.1838722380944,1801
1438.2648978002767,1919
1440.3453803367174,1838
1442.4253200937692,1949
1444.5047173178677,1858
1446.5835722555234,1859
1448.6618851533285,1848
1450.739656257952,1925
1452.8168858161434,1900
1454.8935740747306,1874
1456.96972128062,1910
1459.045327680797,1887
1461.120393522327,1852
1463.1949190523528,1888
1465.2689045180973,1906
1467.3423501668608,1904
1469.415256246024,1982
1471.4876230030463,1982
1473.559450685465,1928
1475.6307395408976,1974
1477.7014898170391,2003
1479.771701761665,1910
1481.8413756226287,2029
1483.9105116478618,1980
1485.9791100853772,1940
1488.0471711832643,1985
1490.1146951896926,2004
1492.1816823529098,2074
1494.2481329212433,2034
1496.3140471430984,2083
1498.3794252669609,2037
1500.4442675413939,2101
1502.5085742150404,2054
1504.572345536622,2103
1506.6355817549388,2086
1508.6982831188702,2154
1510.7604498773744,2193
1512.8220822794883,2230
1514.8831805743293,2189
1516.9437450110909,2229
1519.003775839048,2205
1521.0632733075522,2240
1523.1222376660367,2330
1525.1806691640113,2332
1527.2385680510652,2294
1529.2959345768668,2401
1531.3527689911643,2374
1533.4090715437833,2481
1535.4648424846291,2476
1537.5200820636855,2586
1539.5747905310159,2640
1541.6289681367616,2572
1543.6826151311434,2604
1545.7357317644614,2757
1547.7883182870937,2737
1549.8403749494987,2799
1551.8919020022113,2866
1553.9428996958477,2786
1555.9933682811015,2933
1558.0433080087469,2943
1560.0927191296346,2947
1562.1416018946961,3077
1564.1899565549415,3022
1566.2377833614592,3041
1568.2850825654164,3093
1570.3318544180606,2894
1572.3780991707158,2939
1574.423817074788,2900
1576.4690083817595,2749
1578.5136733431923,2639
1580.5578122107272,2594
1582.601425236085,2483
1584.6445126710646,2397
1586.6870747675434,2390
1588.7291117774776,2290
1590.7706239529034,2233
1592.8116115459347,2247
1594.8520748087658,2185
1596.8920139936686,2079
1598.9314293529933,2025
1600.9703211391711,2073
1603.008689604711,2029
1605.0465350022005,1906
1607.0838575843068,1890
1609.1206576037753,1917
1611.1569353134305,1917
1613.1926909661765,1891
1615.2279248149953,1931
1617.2626371129481,1821
1619.2968281131757,1842
1621.3304980688963,1816
1623.3636472334088,1794
1625.39627586009,1828
1627.428384202396,1939
1629.459972513861,1805
1631.4910410480993,1839
1633.5215900588028,1804
1635.551619799744,1860
1637.5811305247717,1829
1639.6101224878166,1787
1641.6385959428862,1813
1643.6665511440683,1786
1645.693988345528,1755
1647.7209078015112,1797
1649.7473097663405,1735
1651.7731944944203,1726
1653.7985622402307,1735
1655.823413258333,1762
1657.847747803366,1759
1659.8715661300494,1761
1661.8948684931793,1783
1663.9176551476316,1764
1665.9399263483624,1740
1667.9616823504057,1706
1669.982923408873,1743
1672.0036497789574,1739
1674.0238617159293,1655
1676.043559475138,1734
1678.0627433120121,1707
1680.081413482059,1686
1682.0995702408654,1715
1684.117213844096,1762
1686.134344547495,1779
1688.1509626068864,1713
1690.1670682781705,1761
1692.182661817329,1767
1694.1977434804217,1742
1696.2123135235875,1764
1698.226372203043,1800
1700.2399197750851,1727
1702.2529564960905,1754
1704.2654826225112,1757
1706.277498410882,1671
1708.2890041178139,1757
1710.2999999999988,1705
1712.3104863142066,1794
1714.3204633172854,1722
1716.329931266163,1692
1718.3388904178469,1733
1720.3473410294214,1746
1722.3552833580516,1772
1724.3627176609807,1747
1726.3696441955308,1739
1728.3760632191033,1697
1730.3819749891782,1739
1732.3873797633146,1738
1734.3922777991502,1744
1736.3966693544012,1666
1738.4005546868639,1713
1740.4039340544127,1717
1742.406807715001,1711
1744.4091759266616,1760
1746.4110389475054,1737
1748.4123970357223,1683
1750.413250449582,1684
1752.4135994474318,1714
1754.4134442876993,1789
1756.4127852288902,1726
1758.4116225295893,1734
1760.4099564484595,1769
1762.407787244244,1692
1764.405115175764,1732
1766.4019405019203,1756
1768.3982634816916,1717
1770.3940843741357,1745
1772.3894034383907,1782
1774.3842209336717,1737
1776.378537119274,1713
1778.372352254571,1686
1780.3656665990156,1713
1782.3584804121397,1661
1784.3507939535534,1743
1786.3426074829463,1739
1788.3339212600863,1710
1790.3247355448211,1714
1792.3150505970766,1743
1794.3048666768573,1704
1796.2941840442477,1626
1798.2830029594106,1726
1800.2713236825884,1685
1802.2591464741004,1674
1804.2464715943465,1711
1806.2332993038058,1720
1808.2196298630352,1671
1810.2054635326708,1699
1812.190800573428,1663
1814.175641246101,1719
1816.1599858115628,1702
1818.1438345307652,1766
1820.127187664738,1682
1822.1100454745924,1714
1824.092408221516,1739
1826.0742761667766,1702
1828.055649571721,1748
1830.0365286977735,1759
1832.0169138064398,1673
1833.9968051593014,1755
1835.9762030180214,1703
1837.9551076443408,1694
1839.9335193000788,1668
1841.9114382471344,1712
1843.888864747485,1698
1845.8657990631878,1741
1847.842241456378,1681
1849.8181921892697,1668
1851.7936515241558,1654
1853.7686197234098,1657
1855.7430970494815,1659
1857.7170837649014,1694
1859.6905801322787,1710
1861.6635864143004,1669
1863.6361028737338,1623
1865.608129773424,1755
1867.5796673762961,1639
1869.5507159453537,1667
1871.521275743678,1652
1873.4913470344313,1646
1875.4609300808534,1683
1877.4300251462632,1697
1879.3986324940588,1792
1881.366752387717,1678
1883.3343850907936,1677
1885.3015308669228,1687
1887.268189979819,1694
1889.2343626932739,1643
1891.2000492711595,1717
1893.1652499774254,1737
1895.1299650761011,1655
1897.0941948312952,1675
1899.0579395071945,1662
1901.0211993680641,1687
1902.98397467825,1719
1904.9462657021745,1684
1906.9080727043415,1709
1908.869395949332,1673
1910.8302357018065,1676
1912.790592226504,1662
1914.7504657882428,1671
1916.7098566519212,1718
1918.6687650825133,1703
1920.6271913450764,1687
1922.5851357047422,1697
1924.5425984267245,1722
1926.499579776314,1748
1928.4560800188833,1724
1930.4120994198802,1654
1932.367638244833,1679
1934.32269675935,1690
1936.2772752291175,1688
1938.231373919899,1642
1940.1849930975404,1668
1942.1381330279637,1666
1944.0907939771696,1693
1946.0429762112412,1658
1947.9946799963363,1613
1949.9459055986945,1715
1951.896653284633,1657
1953.8469233205478,1685
1955.7967159729142,1707
1957.7460315082863,1678
1959.6948701932974,1683
1961.6432322946594,1653
1963.5911180791632,1641
1965.5385278136787,1622
1967.4854617651545,1616
1969.4319202006182,1579
1971.377903387176,1628
1973.3234115920136,1714
1975.268445082395,1680
1977.2130041256642,1727
1979.1570889892423,1674
1981.1006999406304,1595
1983.04383724741,1649
1984.986501177238,1666
1986.928691997853,1703
1988.8704099770712,1720
1990.811655382789,1611
1992.7524284829801,1664
1994.692729545698,1633
1996.6325588390755,1689
1998.5719166313224,1660
2000.5108031907307,1649
2002.4492187856677,1676
2004.387163684583,1665
2006.3246381560011,1664
2008.2616424685298,1648
2010.1981768908527,1635
2012.1342416917332,1650
2014.069837140014,1639
2016.0049635046162,1623
2017.9396210545406,1688
2019.8738100588666,1707
2021.8075307867502,1677
2023.740783507431,1728
2025.6735684902228,1647
2027.6058860045214,1682
2029.5377363198004,1604
2031.4691197056118,1709
2033.4000364315875,1658
2035.3304867674374,1629
2037.260470982952,1663
2039.189989347998,1652
2041.1190421325232,1646
2043.047629606554,1629
2044.9757520401945,1706
2046.9034097036288,1636
2048.8306028671195,1603
2050.7573318010086,1730
2052.683596775716,1675
2054.609398061742,1573
2056.5347359296647,1630
2058.4596106501403,1640
2060.384022493906,1650
2062.3079717317764,1585
2064.231458634646,1709
2066.1544834734873,1682
2068.077046519352,1708
2069.99914804337,1645
2071.9207883167524,1681
2073.8419676107865,1638
2075.7626861968406,1615
2077.6829443463607,1606
2079.6027423308715,1661
2081.522080421977,1623
2083.440958891362,1672
2085.359378010786,1666
2087.2773380520907,1645
2089.194839287196,1657
2091.111881988101,1656
2093.0284664268825,1641
2094.9445928756973,1646
2096.86026160678,1709
2098.775472892446,1647
2100.690227005088,1651
2102.604524217178,1691
2104.5183648012676,1642
2106.431749029985,1660
2108.34467717604,1658
2110.2571495122206,1632
2112.169166311393,1670
2114.080727846503,1614
2115.9918343905747,1694
2117.902486216711,1694
2119.8126835980956,1653
2121.722426807987,1661
2123.6317161197285,1700
2125.5405518067364,1713
2127.448934142509,1683
2129.356863400624,1625
2131.264339854737,1668
2133.1713637785815,1685
2135.077935445972,1650
2136.9840551308002,1759
2138.889723107037,1719
2140.7949396487334,1707
2142.699705030018,1699
2144.6040195250994,1716
2146.507883408264,1709
2148.4112969538774,1694
2150.3142604363848,1687
2152.2167741303097,1750
2154.1188383102535,1710
2156.0204532508997,1763
2157.9216192270064,1706
2159.822336513414,1630
2161.7226053850413,1728
2163.622426116884,1711
2165.5217989840185,1761
2167.4207242616,1762
2169.319202224862,1759
2171.2172331491165,1717
2173.1148173097563,1717
2175.0119549822507,1750
2176.90864644215,1814
2178.8048919650823,1711
2180.7006918267534,1837
2182.596046302952,1836
2184.4909556695407,1799
2186.3854202024645,1774
2188.279440177746,1830
2190.173015871487,1781
2192.066147559868,1772
2193.958835519149,1836
2195.851080025667,1818
2197.7428813558417,1779
2199.6342397861667,1884
2201.5251555932186,1916
2203.415629053651,1912
2205.3056604441986,1826
2207.19525004167,1830
2209.084398122958,1878
2210.9731049650327,1917
2212.861370844941,1847
2214.749196039812,1886
2216.636580826851,1917
2218.523525483344,1884
2220.410030286655,1881
2222.296095514226,1901
2224.1817214435805,1960
2226.066908352319,1906
2227.951656518121,1942
2229.835966218746,1888
2231.71983773203,1868
2233.6032713358913,1891
2235.486267308324,1996
2237.3688259274036,1924
2239.2509474712824,1883
2241.132632218193,1909
2243.013880446447,1907
2244.8946924344323,1984
2246.7750684606203,1872
2248.6550088035574,1902
2250.534513741871,1851
2252.413583554265,1931
2254.292218519526,1917
2256.170418916517,1870
2258.0481850241786,1854
2259.925517121534,1888
2261.8024154876825,1945
2263.678880401803,1829
2265.5549121431536,1921
2267.430510991071,1921
2269.305677224971,1883
2271.180411124348,1889
2273.0547129687766,1798
2274.9285830379076,1919
2276.8020216114737,1867
2278.6750289692845,1849
2280.5476053912294,1881
2282.4197511572766,1947
2284.2914665474727,1912
2286.162751841943,1949
2288.0336073208937,1997
2289.904033264608,1998
2291.774029953448,1978
2293.6435976678554,1881
2295.5127366883517,1877
2297.381447295534,1836
2299.2497297700825,1802
2301.1175843927526,1693
2302.9850114443825,1654
2304.852011205885,1597
2306.7185839582553,1572
2308.5847299825664,1605
2310.4504495599676,1609
2312.3157429716925,1601
2314.1806104990483,1483
2316.0450524234247,1481
2317.9090690262888,1571
2319.772660589186,1514
2321.635827393742,1478
2323.498569721661,1500
2325.3608878547248,1537
2327.2227820747967,1471
2329.0842526638157,1497
2330.945299903803,1501
2332.805924076857,1543
2334.6661254651535,1472
2336.525904350951,1463
2338.3852610165827,1502
2340.244195744464,1502
2342.102708817088,1465
2343.9608005170253,1513
2345.8184711269287,1472
2347.675720929526,1503
2349.532550207628,1498
2351.38895924412,1534
2353.24494832197,1493
2355.100517724223,1528
2356.955667734004,1460
2358.810398634514,1533
2360.664710709037,1519
2362.5186042409337,1523
2364.3720795136437,1533
2366.225136810686,1513
2368.0777764156583,1501
2369.929998612237,1549
2371.7818036841777,1515
2373.633191915315,1523
2375.484163589562,1542
2377.3347189909114,1561
2379.184858403434,1515
2381.03458211128,1497
2382.8838903986775,1526
2384.732783549936,1489
2386.5812618494406,1522
2388.4293255816588,1553
2390.2769750311327,1530
2392.1242104824883,1470
2393.971032220427,1494
2395.8174405297295,1540
2397.6634356952563,1553
2399.509018001947,1504
2401.3541877348193,1520
2403.1989451789705,1540
2405.043290619576,1561
2406.8872243418905,1415
2408.730746631247,1434
2410.5738577730594,1457
2412.4165580528183,1576
2414.258847756095,1537
2416.100727168537,1527
2417.9421965758734,1533
2419.783256263912,1492
2421.623906518538,1544
2423.4641476257157,1566
2425.303979871491,1506
2427.143403541984,1547
2428.9824189233977,1568
2430.821026302012,1523
2432.6592259641866,1595
2434.497018196361,1515
2436.33440328505,1529
2438.171381516851,1554
2440.00795317844,1528
2441.844118556569,1492
2443.6798779380724,1538
2445.5152316098606,1531
2447.3501798589255,1554
2449.1847229723357,1576
2451.0188612372403,1528
2452.8525949408663,1565
2454.6859243705203,1553
2456.518849813587,1464
2458.3513715575314,1550
2460.183489889895,1509
2462.015205098301,1479
2463.8465174704493,1505
2465.67742729412,1497
2467.5079348571717,1532
2469.338040447542,1570
2471.1677443532476,1570
2472.9970468623833,1509
2474.825948263123,1500
2476.6544488437207,1549
2478.482548892508,1540
2480.310248697896,1513
2482.137548548374,1511
2483.9644487325118,1566
2485.790949538956,1503
2487.617051256433,1596
2489.44275417375,1516
2491.26805857979,1544
2493.0929647635157,1526
2494.917473013971,1562
2496.741583620276,1545
2498.5652968716304,1533
2500.3886130573137,1563
2502.2115324666834,1540
2504.0340553891765,1577
2505.856182114308,1580
2507.6779129316733,1578
2509.499248130945,1605
2511.3201880018764,1612
2513.140732834298,1531
2514.9608829181198,1555
2516.780638543331,1546
2518.6,1494
2520.418967578273,1472
2522.237541568376,1524
2524.0557222606144,1515
2525.8735099453706,1528
2527.6909049131086,1617
2529.507907454368,1611
2531.32451785977,1542
2533.140736420014,1535
2534.9565634258774,1618
2536.771999168218,1570
2538.5870439379714,1536
2540.4016980261526,1615
2542.2159617238544,1580
2544.02983532225,1599
2545.8433191125914,1656
2547.656413386209,1547
2549.4691184345115,1630
2551.2814345489874,1627
2553.093362021204,1596
2554.904901142808,1598
2556.716052205523,1616
2558.526815501153,1648
2560.3371913215824,1635
2562.147179958771,1589
2563.956781704761,1621
2565.7659968516705,1685
2567.5748256916986,1641
2569.3832685171224,1655
2571.1913256202984,1640
2572.9989972936614,1640
2574.806283829725,1641
2576.613185521084,1610
2578.4197026604074,1636
2580.2258355404483,1607
2582.031584454035,1673
2583.836949694077,1707
2585.6419315535613,1575
2587.4465303255533,1622
2589.2507463032002,1676
2591.0545797797245,1623
2592.8580310484303,1662
2594.6611004026995,1717
2596.463788135992,1725
2598.266094541849,1727
2600.0680199138874,1682
2601.869564545807,1724
2603.670728731383,1736
2605.4715127644704,1704
2607.2719169390048,1655
2609.071941548998,1756
2610.8715868885433,1683
2612.670853251811,1730
2614.469740933052,1690
2616.268250226594,1750
2618.0663814268455,1735
2619.864134828292,1747
2621.6615107255006,1757
2623.458509413115,1787
2625.2551311858597,1713
2627.0513763385347,1737
2628.8472451660223,1709
2630.6427379632833,1753
2632.4378550253564,1717
2634.232596647359,1709
2636.026963124488,1648
2637.8209547520187,1668
2639.6145718253065,1601
2641.407814639785,1631
2643.200683490966,1723
2644.9931786744414,1620
2646.7853004858807,1597
2648.577049221034,1662
2650.3684251757277,1675
2652.1594286458712,1676
2653.9500599274484,1640
2655.740319316525,1655
2657.5302071092437,1642
2659.3197236018286,1623
2661.10886909058,1701
2662.8976438718782,1603
2664.686048242183,1588
2666.4740824980327,1572
2668.2617469360443,1610
2670.0490418529134,1611
2671.8359675454153,1564
2673.622524310403,1616
2675.408712444811,1640
2677.1945322456495,1617
2678.979984010009,1638
2680.76506803506,1628
2682.5497846180497,1598
2684.334134056306,1616
2686.1181166472343,1559
2687.9017326883213,1547
2689.6849824771293,1607
2691.4678663113013,1593
2693.2503844885596,1537
2695.032537306705,1507
2696.8143250636167,1565
2698.5957480572542,1572
2700.3768065856534,1573
2702.1575009469316,1598
2703.937831439283,1522
2705.717798360982,1583
2707.4974020103837,1605
2709.276642685917,1545
2711.055520686095,1559
2712.834036309506,1543
2714.612189854819,1570
2716.389981620782,1555
2718.1674119062204,1486
2719.944481010041,1518
2721.721189231226,1599
2723.4975368688415,1515
2725.273524222027,1595
2727.0491515900053,1567
2728.824419272075,1544
2730.5993275676146,1591
2732.3738767760838,1548
2734.148067197016,1520
2735.921899130031,1558
2737.6953728748194,1587
2739.468488731156,1577
2741.2412469988926,1577
2743.0136479779617,1533
2744.785691968372,1553
2746.5573792702116,1504
2748.3287101836504,1507
2750.099685008934,1490
2751.870304046388,1521
2753.640567596418,1523
2755.4104759595057,1571
2757.1800294362156,1533
2758.949228327187,1530
2760.7180729331412,1523
2762.486563554877,1530
2764.254700493272,1568
2766.022484049284,1541
2767.789914523947,1504
2769.5569922183786,1539
2771.3237174337705,1533
2773.090090471394,1559
2774.8561116326036,1501
2776.6217812188274,1449
2778.3870995315756,1488
2780.1520668724356,1461
2781.9166835430747,1526
2783.6809498452394,1537
2785.444866080754,1550
2787.2084325515225,1557
2788.971649559527,1562
2790.73451740683,1505
2792.4970363955713,1467
2794.2592068279705,1477
2796.0210290063264,1512
2797.7825032330147,1495
2799.543629810493,1496
2801.304409041296,1527
2803.0648412280366,1559
2804.8249266734088,1523
2806.5846656801846,1561
2808.344058551212,1564
2810.1031055894246,1638
2811.8618070978273,1595
2813.6201633795085,1562
2815.378174737636,1489
2817.1358414754536,1533
2818.893163896285,1553
2820.6501423035334,1598
2822.4067770006814,1563
2824.1630682912883,1515
2825.9190164789957,1537
2827.6746218675207,1485
2829.429884760661,1549
2831.184805462294,1528
2832.9393842763743,1554
2834.693621506936,1544
2836.4475174580916,1486
2838.201072434034,1589
2839.954286739034,1521
2841.707160677441,1452
2843.459694553685,1482
2845.2118886722724,1529
2846.96374333779,1580
2848.7152588549034,1589
2850.4664355283567,1575
2852.217273662973,1564
2853.9677735636546,1581
2855.7179355353833,1547
2857.4677598832186,1589
2859.217246912299,1621
2860.9663969278427,1590
2862.715210235146,1548
2864.4636871395846,1521
2866.211827946614,1557
2867.9596329617652,1527
2869.7071024906536,1529
2871.4542368389684,1569
2873.20103631248,1523
2874.947501217038,1542
2876.6936318585695,1569
2878.4394285430812,1542
2880.1848915766604,1530
2881.9300212654707,1588
2883.6748179157553,1540
2885.4192818338374,1548
2887.1634133261173,1525
2888.907212699077,1630
2890.6506802592744,1553
2892.393816313348,1553
2894.1366211680142,1472
2895.8790951300693,1566
2897.621238506388,1534
2899.363051603925,1536
2901.1045347297118,1559
2902.8456881908596,1528
2904.58651229456,1544
2906.327007348081,1556
2908.067173658772,1545
2909.8070115340597,1501
2911.5465212814497,1517
2913.285703208527,1497
2915.0245576229563,1611
2916.7630848324807,1523
2918.5012851449196,1524
2920.2391588681758,1591
2921.976706310227,1542
2923.7139277791334,1596
2925.4508235830313,1516
2927.187394030137,1498
2928.923639428745,1579
2930.6595600872306,1540
2932.395156314046,1539
2934.1304284177218,1538
2935.8653767068713,1589
2937.6000014901815,1512
2939.3343030764227,1581
2941.068281774442,1582
2942.8019378931644,1543
2944.5352717415976,1578
2946.2682836288236,1531
2948.0009738640065,1500
2949.7333427563885,1561
2951.465390615289,1534
2953.1971177501086,1520
2954.9285244703265,1539
2956.6596110855,1531
2958.3903779052657,1550
2960.1208252393385,1561
2961.8509533975125,1531
2963.5807626896617,1516
2965.3102534257378,1540
2967.0394259157715,1524
2968.768280469873,1561
2970.496817398232,1596
2972.2250370111146,1571
2973.952939618869,1585
2975.6805255319196,1554
2977.4077950607707,1536
2979.134748516006,1586
2980.861386208289,1607
2982.587708448359,1578
2984.313715547037,1558
2986.039407815222,1628
2987.764785563891,1575
2989.489849104102,1493
2991.2145987469908,1609
2992.9390348037705,1538
2994.6631575857346,1551
2996.3869674042576,1589
2998.1104645707887,1618
2999.83364939686,1548
3001.5565221940783,1488
3003.2790832741334,1544
3005.0013329487924,1572
3006.7232715298996,1541
3008.4448993293804,1580
3010.166216659239,1495
3011.887223831558,1584
3013.607921158498,1544
3015.3283089522993,1524
3017.0483875252826,1561
3018.7681571898443,1554
3020.4876182584626,1504
3022.2067710436927,1549
3023.9256158581707,1489
3025.644153014609,1497
3027.362382825801,1542
3029.0803056046193,1531
3030.797921664012,1573
3032.5152313170106,1542
3034.2322348767225,1535
3035.9489326563353,1525
3037.665324969115,1528
3039.3814121284063,1554
3041.097194447633,1520
3042.812672240299,1568
3044.5278458199855,1576
3046.2427155003525,1493
3047.9572815951406,1542
3049.671544418167,1501
3051.38550428333,1553
3053.0991615046073,1551
3054.812516396051,1546
3056.5255692717974,1556
3058.2383204460575,1491
3059.9507702331257,1540
3061.662918947372,1534
3063.3747669032446,1516
3065.0863144152736,1521
3066.7975617980674,1527
3068.508509366309,1550
3070.219157434767,1542
3071.9295063182844,1559
3073.639556331785,1505
3075.3493077902704,1596
3077.058761008821,1566
3078.7679163025964,1611
3080.476773986837,1465
3082.1853343768594,1516
3083.89359778806,1528
3085.6015645359153,1604
3087.3092349359786,1609
3089.016609303884,1550
3090.7236879553434,1589
3092.4304712061476,1546
3094.136959372166,1547
3095.843152769349,1501
3097.5490517137237,1558
3099.2546565213966,1584
3100.959967508554,1522
3102.66498499146,1552
3104.3697092864577,1499
3106.0741407099695,1501
3107.778279578498,1519
3109.482126208622,1548
3111.1856809170004,1527
3112.8889440203716,1569
3114.5919158355528,1589
3116.294596679439,1566
3117.996986869006,1556
3119.6990867213062,1584
3121.4008965534726,1563
3123.102416682717,1542
3124.803647426329,1620
3126.5045891016784,1555
3128.205242026213,1629
3129.90560651746,1567
3131.605682893025,1575
3133.3054714705922,1496
3135.0049725679282,1606
3136.7041865028714,1506
3138.4031135933465,1568
3140.101754157353,1548
3141.800108512971,1527
3143.498176978357,1607
3145.1959598717494,1532
3146.8934575114636,1544
3148.5906702158954,1609
3150.2875983035183,1597
3151.9842420928853,1521
3153.680601902627,1591
3155.376678051456,1520
3157.07247085816,1549
3158.767980641609,1632
3160.463207720748,1500
3162.158152414606,1565
3163.8528150422862,1636
3165.5471959229726,1602
3167.2412953759303,1613
3168.9351137204976,1568
3170.628651276098,1636
3172.3219083622307,1562
3174.014885298474,1563
3175.707582404485,1544
3177.4000000000005,1628
3179.092138404835,1606
3180.7839979388846,1570
3182.47557892212,1607
3184.166881674594,1569
3185.8579065164386,1557
3187.5486537678626,1515
3189.2391237491547,1536
3190.9293167806827,1545
3192.6192331828934,1551
3194.3088732763117,1550
3195.998237381542,1575
3197.687325819268,1503
3199.376138910251,1575
3201.064676975334,1534
3202.7529403354347,1554
3204.4409293115523,1506
3206.1286442247647,1561
3207.816085396229,1526
3209.5032531471825,1522
3211.190147798936,1565
3212.8767696728846,1520
3214.5631190905015,1564
3216.2491963733373,1493
3217.9350018430214,1475
3219.6205358212637,1507
3221.305798629851,1471
3222.990790590651,1461
3224.6755120256103,1522
3226.359963256751,1486
3228.0441446061795,1512
3229.7280563960758,1538
3231.411698948703,1569
3233.0950725863995,1570
3234.778177631587,1492
3236.461014406761,1548
3238.1435832345005,1567
3239.8258844374595,1606
3241.507918338374,1597
3243.1896852600576,1581
3244.8711855254023,1566
3246.552419457381,1598
3248.233387379042,1528
3249.914089613516,1565
3251.59452648401,1559
3253.274698313813,1540
3254.95460542629,1587
3256.6342481448855,1528
3258.313626793125,1532
3259.9927416946084,1583
3261.6715931730196,1488
3263.3501815521176,1533
3265.0285071557437,1506
3266.706570307815,1525
3268.3843713323286,1535
3270.0619105533615,1491
3271.739188295068,1537
3273.4162048816834,1529
3275.0929606375184,1542
3276.769455886966,1569
3278.445690954498,1568
3280.1216661646613,1548
3281.797381842087,1589
3283.4728383114807,1609
3285.1480358976296,1546
3286.8229749253996,1532
3288.4976557197333,1504
3290.172078605655,1540
3291.846243908266,1465
3293.5201519527463,1516
3295.193803064357,1442
3296.8671975684374,1519
3298.5403357904024,1509
3300.21321805575,1540
3301.8858446900567,1509
3303.558216018975,1518
3305.23033236824,1550
3306.9021940636603,1525
3308.57380143113,1527
3310.2451547966184,1477
3311.916254486174,1505
3313.5871008259246,1549
3315.2576941420766,1571
3316.9280347609147,1530
3318.5981230088046,1577
3320.2679592121895,1510
3321.9375436975924,1466
3323.606876791612,1550
3325.27595882093,1595
3326.944790112305,1547
3328.6133709925753,1479
3330.2817017886573,1514
3331.949782827547,1498
3333.617614436319,1576
3335.2851969421245,1531
3336.952530672199,1572
3338.619615953853,1544
3340.286453114475,1509
3341.9530424815357,1537
3343.619384382583,1572
3345.2854791452437,1511
3346.951327097224,1499
3348.6169285663073,1536
3350.2822838803577,1532
3351.947393367319,1547
3353.61225735521,1584
3355.2768761721345,1562
3356.9412501462693,1544
3358.605379605873,1540
3360.2692648792827,1517
3361.9329062949146,1579
3363.596304181263,1537
