CollectionTime,7/10/2024 4:00:39 PM
ExposureUsed,3
CalibratedSpectrum
-962.7078968117929,876
-959.9714848408522,950
-957.2358232597828,952
-954.5009119013725,900
-951.7667505983302,936
-949.0333391832855,921
-946.3006774887896,922
-943.5687653473143,920
-940.837602591253,912
-938.1071890529199,954
-935.3775245645503,914
-932.6486089583007,940
-929.9204420662485,951
-927.1930237203925,966
-924.4663537526524,908
-921.7404319948689,925
-919.0152582788041,917
-916.2908324361409,962
-913.5671542984834,969
-910.8442236973568,917
-908.1220404642074,962
-905.4006044304027,950
-902.679915427231,957
-899.959973285902,958
-897.2407778375464,1008
-894.5223289132158,979
-891.8046263438832,935
-889.0876699604426,919
-886.3714595937089,928
-883.6559950744183,955
-880.9412762332282,925
-878.2273029007168,886
-875.5140749073835,937
-872.8015920836489,954
-870.0898542598545,925
-867.3788612662631,923
-864.6686129330585,914
-861.9591090903457,980
-859.2503495681506,923
-856.5423341964203,901
-853.8350628050229,950
-851.1285352237478,933
-848.4227512823054,898
-845.7177108103272,942
-843.0134136373656,997
-840.3098595928943,953
-837.6070485063082,970
-834.9049802069229,952
-832.2036545239757,973
-829.5030712866244,929
-826.8032303239481,980
-824.1041314649472,990
-821.4057745385428,982
-818.7081593735775,975
-816.0112857988148,1000
-813.3151536429393,966
-810.6197627345566,989
-807.9251129021936,960
-805.2312039742981,954
-802.5380357792392,958
-799.8456081453069,958
-797.1539209007124,957
-794.462973873588,935
-791.772766891987,953
-789.083299783884,950
-786.3945723771743,990
-783.7065844996748,936
-781.0193359791231,999
-778.3328266431781,955
-775.6470563194197,1006
-772.9620248353489,990
-770.2777320183878,1025
-767.5941776958798,978
-764.9113616950891,976
-762.2292838432011,975
-759.5479439673222,990
-756.8673418944801,1017
-754.1874774516235,985
-751.5083504656222,1018
-748.8299607632671,1001
-746.15230817127,1011
-743.475392516264,1024
-740.7992136248035,1070
-738.1237713233636,1001
-735.4490654383407,1014
-732.7750957960521,1025
-730.1018622227365,1000
-727.4293645445534,1026
-724.7576025875837,1041
-722.0865761778291,1043
-719.4162851412126,1051
-716.7467293035781,1005
-714.0779084906909,1036
-711.409822528237,1037
-708.7424712418238,1022
-706.0758544569796,1032
-703.4099719991541,1076
-700.7448236937178,1061
-698.0804093659622,1059
-695.4167288411002,1053
-692.7537819442656,1037
-690.0915685005134,1061
-687.4300883348199,1091
-684.7693412720819,1074
-682.1093271371178,1034
-679.4500457546669,1083
-676.7914969493897,1070
-674.1336805458676,1059
-671.4765963686034,1085
-668.8202442420206,1065
-666.1646239904642,1068
-663.5097354382001,1083
-660.8555784094151,1134
-658.2021527282176,1143
-655.5494582186366,1066
-652.8974947046223,1085
-650.2462620100463,1119
-647.5957599587009,1106
-644.9459883742998,1110
-642.2969470804776,1141
-639.6486359007902,1108
-637.0010546587141,1200
-634.3542031776476,1172
-631.7080812809096,1156
-629.0626887917401,1138
-626.4180255333008,1043
-623.7740913286734,1163
-621.1308860008619,1118
-618.4884093727904,1228
-615.8466612673046,1122
-613.2056415071715,1126
-610.5653499150785,1188
-607.9257863136347,1129
-605.28695052537,1157
-602.6488423727357,1174
-600.0114616781036,1167
-597.3748082637674,1144
-594.7388819519412,1131
-592.1036825647604,1205
-589.4692099242818,1233
-586.8354638524829,1189
-584.2024441712624,1204
-581.5701507024403,1160
-578.9385832677575,1196
-576.3077416888759,1171
-573.6776257873787,1159
-571.0482353847704,1182
-568.4195703024757,1199
-565.7916303618415,1185
-563.164415384135,1193
-560.5379251905453,1163
-557.9121596021815,1202
-555.2871184400748,1222
-552.6628015251767,1304
-550.0392086783606,1179
-547.4163397204204,1254
-544.794194472071,1263
-542.1727727539491,1218
-539.5520743866118,1324
-536.9320991905377,1294
-534.3128469861261,1245
-531.6943175936979,1303
-529.0765108334947,1262
-526.4594265256793,1363
-523.8430644903358,1449
-521.2274245474689,1531
-518.612506517005,1553
-515.9983102187913,1499
-513.3848354725959,1557
-510.77208209810846,1539
-508.16004991493924,1662
-505.5487387426199,1810
-502.9381484006032,1830
-500.3282787082628,1921
-497.71912948489364,1875
-495.1107005497117,1723
-492.5029917218539,1718
-489.8960028203786,1608
-487.28973366426493,1567
-484.68418407241325,1489
-482.07935386364494,1465
-479.47524285670266,1437
-476.87185087025,1392
-474.2691777228715,1424
-471.66722323307334,1429
-469.0659872192821,1365
-466.4654694998459,1356
-463.86566989303384,1383
-461.26658821703614,1425
-458.66822428996414,1421
-456.07057792985,1489
-453.4736489546475,1428
-450.877437182231,1418
-448.28194243039627,1371
-445.68716451686,1349
-443.09310325926003,1355
-440.49975847515555,1348
-437.9071299820263,1372
-435.31521759727354,1383
-432.72402113821954,1374
-430.13354042210767,1428
-427.5437752661022,1479
-424.95472548728867,1422
-422.36639090267386,1468
-419.7787713291855,1512
-417.1918665836721,1441
-414.60567648290385,1485
-412.0202008435715,1503
-409.4354394822874,1491
-406.8513922155845,1437
-404.26805885991723,1509
-401.685439231661,1513
-399.103533147112,1440
-396.522340422488,1427
-393.9418608739278,1425
-391.3620943174908,1470
-388.7830405691583,1415
-386.2046994448317,1402
-383.6270707603344,1277
-381.05015433141045,1206
-378.473949973725,1123
-375.8984575028645,1086
-373.32367673433623,1023
-370.74960748356875,891
-368.1762495659117,852
-365.60360279663576,783
-363.03166699093265,707
-360.4604419639154,626
-357.8899275306178,591
-355.32012350599507,567
-352.7510297049233,537
-350.1826459421999,507
-347.61497203254316,485
-345.04800779059235,484
-342.4817530309082,483
-339.91620756797226,493
-337.35137121618743,509
-334.7872437898774,513
-332.22382510328725,478
-329.66111497058273,493
-327.09911320585127,489
-324.53781962310075,524
-321.9772340362607,506
-319.4173562591816,482
-316.8581861056348,446
-314.2997233893127,469
-311.7419679238294,456
-309.1849195227194,476
-306.62857799943856,486
-304.0729431673641,507
-301.51801483979375,548
-298.963792829947,544
-296.41027695096386,518
-293.85746701590574,519
-291.3053628377552,540
-288.7539642294155,537
-286.2032710037115,517
-283.65328297338897,558
-281.1039999511146,559
-278.5554217494762,583
-276.007548180983,615
-273.4603790580651,600
-270.9139141930734,579
-268.3681533982807,590
-265.8230964858798,543
-263.27874326798565,540
-260.7350935566336,555
-258.1921471637804,597
-255.6499039013039,597
-253.10836358100266,605
-250.56752601459698,587
-248.02739101372765,565
-245.48795838995704,631
-242.94922795476816,694
-240.41119951956557,656
-237.8738728956746,631
-235.33724789434166,705
-232.80132432673452,609
-230.2661020039418,577
-227.73158073697357,567
-225.19776033676033,609
-222.66464061415422,657
-220.1322213799284,705
-217.60050244477725,667
-215.06948361931552,702
-212.53916471408013,703
-210.00954553952818,738
-207.48062590603843,735
-204.9524056239104,708
-202.4248845033651,695
-199.8980623545441,677
-197.37193898751036,740
-194.84651421224817,673
-192.32178783866232,754
-189.79775967657952,686
-187.27442953574644,748
-184.7517972258321,759
-182.2298625564256,777
-179.7086253370378,807
-177.18808537710026,765
-174.66824248596583,755
-172.14909647290835,775
-169.6306471471229,817
-167.11289431772548,757
-164.59583779375328,763
-162.07947738416453,842
-159.5638128978386,863
-157.04884414357605,894
-154.53457093009854,989
-152.02099306604828,949
-149.50811035998936,880
-146.99592262040665,856
-144.48442965570587,835
-141.97363127421409,953
-139.46352728417958,1055
-136.95411749377126,1067
-134.44540171107985,1053
-131.93737974411636,935
-129.43005140081357,932
-126.92341648902493,1263
-124.41747481652521,1779
-121.91222619101006,2061
-119.40767042009657,1907
-116.90380731132257,1960
-114.40063667214702,1789
-111.8981583099503,1579
-109.3963720320337,1659
-106.89527764561933,2482
-104.39487495785067,4033
-101.89516377579241,5205
-99.39614390642998,5354
-96.89781515667039,4990
-94.40017733334128,4929
-91.90323024319173,5763
-89.40697369289148,6529
-86.91140748903172,6711
-84.41653143812482,6525
-81.92234534660395,6106
-79.42884902082358,6154
-76.93604226705907,6365
-74.4439248915071,7709
-71.95249670028534,10004
-69.46175749943245,12997
-66.97170709490854,15266
-64.48234529259423,15280
-61.99367189829195,13245
-59.50568671772464,11112
-57.01838955653636,8425
-54.53178022029283,7787
-52.045858514480074,9936
-49.560624244506016,12222
-47.07607721569923,13096
-44.59221723330904,13474
-42.10904410250669,13802
-39.62655762838392,13739
-37.14475761595372,12915
-34.66364387015028,13361
-32.18321619582866,12383
-29.70347439776515,11376
-27.224418280657005,11102
-24.74604764912317,11643
-22.26836230770266,15818
-19.7913620608565,28815
-17.315046712966478,53217
-14.83941606833514,65041
-12.36446993118659,65041
-9.89020810566592,65041
-7.416630395839093,65041
-4.94373660569363,65041
-2.471526539137585,65041
-6.821210263296962E-13,65041
2.47084320796705,65041
4.941003281093458,65041
7.410480415786196,65041
9.879274808531363,65041
12.347386655893956,65041
14.814816154518212,65041
17.28156350112681,65041
19.74762889252179,65041
22.21301252558385,65041
24.67771459727237,20769
27.141735304626195,4204
29.605074844762612,2891
32.06773341487792,2663
34.52971121224755,2128
36.99100843422559,2052
39.45162527824516,2083
41.91156194181792,1750
44.370818622535126,1503
46.82939551806646,1475
49.287292826160524,1568
51.74451074464503,2134
54.201049471426245,2525
56.65690920448981,2236
59.112090141899785,1634
61.56659248179983,1383
64.02041642241159,1232
66.4735621620365,1372
68.92602989905402,1274
71.37781983192338,1214
73.82893215918205,1327
76.27936707944684,1302
78.72912479141326,1285
81.17820549385567,1179
83.62660938562783,1418
86.07433666566146,1433
88.5213875329681,1152
90.96776218663751,993
93.41346082583925,1044
95.85848364982041,1094
98.30283085790859,1172
100.7465026495089,1049
103.18949922410604,1081
105.63182078126385,1135
108.07346752062438,1089
110.51443964190923,1065
112.95473734491827,985
115.39436082953114,990
117.83331029570547,1103
120.27158594347827,1226
122.7091879729652,1175
125.1461165843615,1105
127.58237197794062,999
130.01795435405518,888
132.4528639131364,856
134.88710085569494,850
137.32066538231982,938
139.75355769367923,947
142.1857779905207,999
144.61732647366978,954
147.04820334403132,864
149.47840880258934,876
151.90794305040674,1020
154.33680628862487,1195
156.76499871846443,1235
159.19252054122433,1466
161.61937195828352,1591
164.04555317109896,1669
166.47106438120693,1933
168.89590579022217,2047
171.320077599839,2270
173.7435800118302,2461
176.16641322804742,2575
178.58857745042144,2699
181.01007288096173,2903
183.43089972175687,2941
185.85105817497413,2875
188.27054844285988,2921
190.6893707277394,2981
193.10752523201643,3134
195.5250121581745,3173
197.9418317087751,3207
200.3579840864594,3351
202.7734694939469,3328
205.18828813403627,3381
207.6024402096051,3622
210.01592592360964,3585
212.42874547908548,3366
214.84089907914665,3452
217.2523869269868,3448
219.66320922587727,3303
222.0733661791695,3325
224.48285799029293,3461
226.8916848627572,3253
229.29984700014882,3485
231.7073446061355,3495
234.11417788446204,3479
236.520347038953,3446
238.92585227351185,3521
241.33069379212054,3526
243.73487179884035,3623
246.1383864978112,3653
248.541238093252,3698
250.9434267894609,3610
253.34495279081432,3613
255.74581630176783,3623
258.1460175268563,3633
260.54555667069314,3528
262.9444339379703,3513
265.3426495334594,3444
267.7402036620107,3498
270.1370965285529,3422
272.53332833809407,3443
274.9288992957214,3321
277.32380960660055,3248
279.718059475976,3181
282.1116491091717,3226
284.5045787115897,3171
286.89684848871195,3174
289.2884586460981,3241
291.67940938938807,3354
294.0697009242996,3277
296.4593334566299,3303
298.84830719225477,3220
301.23662233712923,3243
303.6242790972866,3142
306.01127767884,3228
308.39761828798066,3113
310.78330113097934,3162
313.16832641418534,3161
315.5526943440269,3224
317.9364051270112,3043
320.3194589697242,2961
322.70185607883093,3085
325.0835966610754,3137
327.4646809232805,3071
329.8451090723478,3037
332.2248813152577,2963
334.6039978590701,2963
336.9824589109231,3044
339.36026467803447,2912
341.7374153677,2835
344.113911187295,2958
346.48975234427337,2901
348.8649390461686,2882
351.2394715005918,2924
353.61334991523415,2959
355.9865744978655,3001
358.35914545633375,2989
360.73106299856715,2871
363.10232733257146,2976
365.47293866643247,2762
367.84289720831396,2911
370.2122031664593,2937
372.5808567491905,2906
374.9488581649083,2818
377.31620762209275,2837
379.6829053293021,2848
382.0489514951745,2801
384.4143463284262,2768
386.7790900378528,2774
389.14318283232853,2909
391.50662492080653,2782
393.86941651231916,2882
396.23155781597745,2861
398.5930490409713,2852
400.9538903965696,2897
403.3140820921202,2869
405.6736243370498,2901
408.03251734086336,2799
410.3907613131465,2755
412.74835646356166,2832
415.10530300185144,2809
417.4616011378372,2759
419.81725108141893,2773
422.1722530425758,2799
424.5266072313656,2756
426.880313857925,2816
429.2333731324701,2763
431.58578526529516,2792
433.9375504667738,2775
436.2886689473588,2817
438.63914091758113,2748
440.9889665880513,2719
443.33814616945835,2771
445.68667987257015,2747
448.03456790823395,2681
450.3818104873759,2788
452.72840782100013,2788
455.07436012019105,2832
457.41966759611057,2732
459.7643304600007,2799
462.10834892318155,2671
464.4517231970525,2797
466.79445349309174,2767
469.1365400228566,2765
471.4779829979826,2787
473.81878263018564,2761
476.15893913125876,2785
478.4984527130747,2817
480.8373235875855,2779
483.17555196682144,2803
485.5131380628919,2948
487.8500820879857,2967
490.1863842543697,3000
492.52204477439034,3152
494.8570638604725,3299
497.1914417251204,3402
499.52517858091653,3691
501.85827464052306,3857
504.19073011668036,3894
506.5225452222086,3925
508.85372017000566,3932
511.18425517304956,3864
513.514150444396,3935
515.8434061971808,4479
518.1720226446176,5114
520.4999999999999,5411
522.8273384766991,5180
525.1540382881666,4907
527.480099647932,4432
529.8055227696037,4117
532.1303078668694,3489
534.454455153496,3223
536.777964843328,3004
539.1008371502907,3036
541.4230722883866,2881
543.744670471698,2871
546.0656319143858,2971
548.3859568306899,2830
550.7056454349294,2842
553.0246979415016,2752
555.3431145648834,2876
557.6608955196306,2832
559.978041020377,2859
562.2945512818363,2854
564.6104265188006,2861
566.9256669461412,2814
569.2402727788082,2806
571.5542442318302,2856
573.8675815203156,2836
576.1802848594508,2800
578.4923544645015,2910
580.8037905508126,2821
583.114593333807,3009
585.4247630289875,2856
587.7342998519354,2860
590.0432040183106,2930
592.3514757438526,2978
594.6591152443794,2826
596.9661227357875,2943
599.2724984340531,2950
601.578242555231,2895
603.8833553154542,2896
606.1878369309362,2899
608.4916876179676,2961
610.7949075929192,2902
613.0974970722403,2868
615.3994562724587,2859
617.7007854101818,2825
620.0014847020951,2845
622.3015543649641,2859
624.6009946156324,2835
626.8998056710224,2821
629.1979877481361,2873
631.4955410640538,2903
633.7924658359349,2885
636.0887622810175,2926
638.3844306166192,2924
640.6794710601358,2937
642.9738838290426,3028
645.2676691408932,2936
647.5608272133207,2914
649.853358264037,2941
652.1452625108324,2989
654.4365401715764,2964
656.7271914642178,3053
659.0172166067838,2910
661.3066158173809,2972
663.5953893141935,3049
665.8835373154867,2988
668.1710600396028,3002
670.4579577049639,2950
672.7442305300709,2937
675.0298787335033,2999
677.3149025339197,2989
679.599302150058,3006
681.8830778007342,3028
684.1662297048437,2976
686.4487580813608,3091
688.7306631493387,2912
691.0119451279091,3068
693.2926042362834,3075
695.5726406937516,2982
697.8520547196814,2980
700.1308465335215,3069
702.4090163547982,2978
704.6865644031171,2900
706.9634908981619,2896
709.2397960596965,2955
711.5154801075631,2922
713.7905432616823,2975
716.0649857420548,3016
718.3388077687592,2981
720.612009561953,2916
722.8845913418733,2916
725.1565533288352,2975
727.427895743234,2980
729.6986188055427,2923
731.9687227363137,3063
734.238207756178,2880
736.5070740858458,2881
738.7753219461066,2895
741.0429515578281,2980
743.3099631419569,2960
745.5763569195191,3031
747.8421331116193,2981
750.1072919394409,2877
752.3718336242467,3090
754.6357583873777,3010
756.8990664502545,3040
759.1617580343765,3018
761.423833361321,2962
763.6852926527457,3114
765.9461361303862,2945
768.206364016058,2977
770.4659765316536,3080
772.7249738991469,3128
774.9833563405886,3003
777.2411240781092,3104
779.4982773339183,3037
781.7548163303044,3047
784.010741289634,2931
786.2660524343538,3150
788.5207499869881,3075
790.7748341701416,3117
793.0283052064964,3105
795.2811633188143,3069
797.5334087299362,3126
799.7850416627813,3107
802.0360623403484,3120
804.2864709857143,3085
806.5362678220353,3106
808.7854530725468,3076
811.0340269605625,3023
813.2819897094754,3029
815.5293415427581,3095
817.77608268396,3035
820.0222133567116,3099
822.2677337847211,3023
824.5126441917765,3045
826.7569448017433,3122
829.0006358385675,3006
831.2437175262731,3007
833.4861900889629,3070
835.7280537508192,3034
837.9693087361026,3039
840.2099552691533,3035
842.4499935743896,3127
844.689423876309,3038
846.9282463994886,3096
849.1664613685833,3007
851.4040690083276,3085
853.6410695435349,3128
855.877463199097,3108
858.1132501999847,3040
860.3484307712487,3042
862.5830051380175,3086
864.8169735254988,3101
867.0503361589791,3105
869.2830932638243,3076
871.5152450654786,3125
873.7467917894654,3148
875.9777336613873,3176
878.2080709069252,3155
880.4378037518389,3145
882.666932421968,3151
884.8954571432301,3143
887.1233781416219,3121
889.3506956432192,3059
891.5774098741766,3169
893.803521060728,3223
896.0290294291852,3217
898.2539352059397,3156
900.4782386174619,3132
902.7019398903011,3142
904.925039251085,3062
907.147536926521,3143
909.3694331433943,3160
911.59072812857,3150
913.8114221089921,3091
916.0315153116827,3159
918.2510079637437,3127
920.4699002923547,3166
922.6881925247761,3226
924.905884888345,3143
927.1229776104793,3044
929.3394709186747,3076
931.555365040506,3162
933.7706602036275,3162
935.9853566357709,3130
938.1994545647489,3150
940.4129542184515,3164
942.6258558248488,3099
944.8381596119883,3104
947.0498658079974,3108
949.2609746410825,3060
951.4714863395287,3067
953.6814011316998,3118
955.8907192460387,2984
958.0994409110671,3129
960.3075663553858,2889
962.5150958076741,3079
964.7220294966913,3117
966.928367651274,3010
969.1341105003388,3061
971.3392582728806,3101
973.5438111979742,3061
975.747769504772,3147
977.9511334225061,3035
980.153903180487,3109
982.3560790081052,3088
984.5576611348289,3008
986.7586497902058,2977
988.9590452038618,2984
991.158847605503,3063
993.3580572249133,2937
995.5566742919558,2950
997.7546990365728,2936
999.952131688785,2899
1002.1489724786926,2907
1004.3452216364743,2963
1006.5408793923874,2830
1008.7359459767691,2736
1010.9304216200343,2932
1013.1243065526781,2782
1015.3176010052733,2845
1017.510305208472,2916
1019.7024193930064,2880
1021.8939437896848,2813
1024.0848786293977,2930
1026.2752241431122,2869
1028.4649805618747,2789
1030.6541481168115,2759
1032.842727039127,2823
1035.0307175601051,2844
1037.2181199111074,2775
1039.4049343235752,2831
1041.591161029029,2863
1043.7768002590683,2779
1045.9618522453698,2809
1048.1463172196918,2813
1050.3301954138697,2818
1052.513487059818,2917
1054.69619238953,2778
1056.8783116350783,2836
1059.0598450286152,2806
1061.2407928023704,2832
1063.4211551886528,2846
1065.6009324198508,2859
1067.780124728432,2819
1069.9587323469414,2847
1072.1367555080046,2788
1074.314194444325,2806
1076.4910493886855,2754
1078.667320573947,2683
1080.843008233051,2739
1083.0181125990161,2763
1085.1926339049414,2859
1087.3665723840027,2818
1089.5399282694575,2849
1091.7127017946405,2820
1093.8848931929647,2734
1096.0565026979243,2761
1098.2275305430899,2790
1100.3979769621128,2778
1102.567842188722,2800
1104.737126456726,2787
1106.9058300000124,2674
1109.0739530525475,2731
1111.2414958483764,2771
1113.4084586216231,2732
1115.5748416064907,2676
1117.7406450372605,2679
1119.9058691482942,2791
1122.0705141740304,2730
1124.2345803489884,2826
1126.3980679077658,2757
1128.5609770850388,2758
1130.7233081155623,2701
1132.8850612341707,2842
1135.0462366757774,2740
1137.2068346753745,2725
1139.3668554680326,2738
1141.526299288901,2736
1143.68516637321,2686
1145.8434569562655,2721
1148.001171273455,2710
1150.158309560244,2764
1152.3148720521767,2736
1154.470858984876,2678
1156.626270594044,2684
1158.7811071154629,2756
1160.9353687849912,2751
1163.089055838569,2677
1165.242168512213,2706
1167.3947070420209,2671
1169.5466716641677,2672
1171.6980626149075,2654
1173.8488801305748,2574
1175.9991244475814,2635
1178.1487958024186,2658
1180.2978944316555,2714
1182.4464205719428,2679
1184.5943744600072,2623
1186.7417563326567,2653
1188.8885664267755,2664
1191.0348049793297,2681
1193.1804722273619,2775
1195.325568407995,2715
1197.4700937584303,2698
1199.614048515948,2740
1201.7574329179074,2681
1203.900247201746,2709
1206.042491604982,2702
1208.1841663652099,2765
1210.3252717201053,2706
1212.465807907422,2742
1214.6057751649923,2772
1216.7451737307279,2689
1218.8840038426192,2747
1221.0222657387353,2730
1223.1599596572241,2731
1225.2970858363137,2822
1227.4336445143094,2827
1229.5696359295966,2802
1231.705060320639,2723
1233.8399179259786,2813
1235.9742089842384,2806
1238.107933734118,2819
1240.2410924143974,2888
1242.373685263935,2822
1244.5057125216676,2761
1246.6371744266116,2751
1248.7680712178621,2844
1250.898403134593,2704
1253.028170416058,2791
1255.1573733015875,2844
1257.2860120305932,2780
1259.4140868425648,2779
1261.54159797707,2854
1263.6685456737569,2789
1265.7949301723515,2725
1267.9207517126597,2793
1270.046010534565,2795
1272.1707068780306,2901
1274.2948409830983,2853
1276.4184130898889,2843
1278.541423438603,2879
1280.6638722695184,2772
1282.785759822993,2869
1284.9070863394636,2831
1287.0278520594447,2858
1289.1480572235314,2913
1291.2677020723963,2935
1293.3867868467923,2919
1295.5053117875495,2989
1297.623277135579,2952
1299.740683131868,2848
1301.8575300174857,2944
1303.973818033578,2917
1306.0895474213703,2908
1308.2047184221678,2997
1310.3193312773528,2903
1312.4333862283888,2913
1314.5468835168163,3103
1316.659823384255,2927
1318.7722060724045,2953
1320.8840318230418,2918
1322.9953008780249,2975
1325.1060134792888,2965
1327.2161698688478,2952
1329.3257702887959,2997
1331.4348149813054,2931
1333.5433041886276,3076
1335.6512381530933,2946
1337.7586171171101,2946
1339.8654413231675,2982
1341.9717110138317,2892
1344.0774264317488,2944
1346.1825878196432,2913
1348.2871954203192,3002
1350.3912494766587,3012
1352.4947502316231,2877
1354.5976979282532,2887
1356.7000928096686,2945
1358.8019351190665,2939
1360.9032250997243,2963
1363.0039629949988,2983
1365.1041490483235,2882
1367.2037835032133,2915
1369.3028666032606,2930
1371.401398592137,2939
1373.4993797135926,2962
1375.5968102114575,2956
1377.6936903296396,2974
1379.7900203121262,2944
1381.8858004029835,2919
1383.9810308463561,3025
1386.075711886469,2883
1388.1698437676241,2944
1390.2634267342032,2927
1392.356461030667,3006
1394.4489469015557,2947
1396.5408845914872,3016
1398.6322743451592,3027
1400.7231164073469,3008
1402.813411022907,3078
1404.903158436773,3008
1406.9923588939578,3000
1409.0810126395531,3032
1411.1691199187303,2985
1413.2566809767386,2959
1415.343696058907,3062
1417.4301654106425,3052
1419.5160892774315,3062
1421.6014679048399,3007
1423.6863015385125,3005
1425.7705904241707,3100
1427.8543348076178,3022
1429.9375349347342,3208
1432.0201910514802,3093
1434.102303403894,3088
1436.1838722380944,3165
1438.2648978002767,3051
1440.3453803367174,3113
1442.4253200937692,3107
1444.5047173178677,3158
1446.5835722555234,3201
1448.6618851533285,3194
1450.739656257952,3170
1452.8168858161434,3269
1454.8935740747306,3346
1456.96972128062,3383
1459.045327680797,3376
1461.120393522327,3324
1463.1949190523528,3406
1465.2689045180973,3432
1467.3423501668608,3551
1469.415256246024,3426
1471.4876230030463,3481
1473.559450685465,3518
1475.6307395408976,3444
1477.7014898170391,3616
1479.771701761665,3512
1481.8413756226287,3511
1483.9105116478618,3647
1485.9791100853772,3711
1488.0471711832643,3798
1490.1146951896926,3720
1492.1816823529098,3860
1494.2481329212433,3836
1496.3140471430984,3905
1498.3794252669609,3879
1500.4442675413939,3845
1502.5085742150404,3869
1504.572345536622,3938
1506.6355817549388,3979
1508.6982831188702,3949
1510.7604498773744,4024
1512.8220822794883,4017
1514.8831805743293,4094
1516.9437450110909,4061
1519.003775839048,4108
1521.0632733075522,4149
1523.1222376660367,4238
1525.1806691640113,4329
1527.2385680510652,4165
1529.2959345768668,4255
1531.3527689911643,4278
1533.4090715437833,4310
1535.4648424846291,4484
1537.5200820636855,4405
1539.5747905310159,4442
1541.6289681367616,4355
1543.6826151311434,4357
1545.7357317644614,4615
1547.7883182870937,4672
1549.8403749494987,4523
1551.8919020022113,4698
1553.9428996958477,4805
1555.9933682811015,4808
1558.0433080087469,4900
1560.0927191296346,4901
1562.1416018946961,4848
1564.1899565549415,4896
1566.2377833614592,4731
1568.2850825654164,4799
1570.3318544180606,4819
1572.3780991707158,4650
1574.423817074788,4619
1576.4690083817595,4507
1578.5136733431923,4313
1580.5578122107272,4199
1582.601425236085,4183
1584.6445126710646,3979
1586.6870747675434,3994
1588.7291117774776,3884
1590.7706239529034,3759
1592.8116115459347,3593
1594.8520748087658,3546
1596.8920139936686,3581
1598.9314293529933,3453
1600.9703211391711,3430
1603.008689604711,3374
1605.0465350022005,3435
1607.0838575843068,3321
1609.1206576037753,3334
1611.1569353134305,3261
1613.1926909661765,3282
1615.2279248149953,3195
1617.2626371129481,3135
1619.2968281131757,3064
1621.3304980688963,3135
1623.3636472334088,3174
1625.39627586009,3090
1627.428384202396,3069
1629.459972513861,3062
1631.4910410480993,3093
1633.5215900588028,2990
1635.551619799744,3042
1637.5811305247717,3041
1639.6101224878166,3008
1641.6385959428862,2956
1643.6665511440683,3027
1645.693988345528,3013
1647.7209078015112,2939
1649.7473097663405,2973
1651.7731944944203,2969
1653.7985622402307,3015
1655.823413258333,3032
1657.847747803366,2914
1659.8715661300494,2904
1661.8948684931793,2958
1663.9176551476316,2940
1665.9399263483624,2966
1667.9616823504057,2925
1669.982923408873,2971
1672.0036497789574,2973
1674.0238617159293,2921
1676.043559475138,2940
1678.0627433120121,2966
1680.081413482059,2903
1682.0995702408654,2988
1684.117213844096,2949
1686.134344547495,2911
1688.1509626068864,2939
1690.1670682781705,2962
1692.182661817329,2965
1694.1977434804217,3008
1696.2123135235875,2908
1698.226372203043,3011
1700.2399197750851,2866
1702.2529564960905,2954
1704.2654826225112,2996
1706.277498410882,2986
1708.2890041178139,2985
1710.2999999999988,2926
1712.3104863142066,2945
1714.3204633172854,2923
1716.329931266163,2960
1718.3388904178469,2915
1720.3473410294214,2850
1722.3552833580516,2951
1724.3627176609807,3002
1726.3696441955308,3031
1728.3760632191033,2918
1730.3819749891782,2953
1732.3873797633146,2872
1734.3922777991502,2925
1736.3966693544012,2892
1738.4005546868639,2933
1740.4039340544127,2962
1742.406807715001,2901
1744.4091759266616,2988
1746.4110389475054,2951
1748.4123970357223,2939
1750.413250449582,2998
1752.4135994474318,2908
1754.4134442876993,2909
1756.4127852288902,2886
1758.4116225295893,2808
1760.4099564484595,2761
1762.407787244244,2827
1764.405115175764,2964
1766.4019405019203,2891
1768.3982634816916,2833
1770.3940843741357,2792
1772.3894034383907,2786
1774.3842209336717,2789
1776.378537119274,2888
1778.372352254571,2842
1780.3656665990156,2784
1782.3584804121397,2825
1784.3507939535534,2843
1786.3426074829463,2930
1788.3339212600863,2780
1790.3247355448211,2889
1792.3150505970766,2754
1794.3048666768573,2866
1796.2941840442477,2940
1798.2830029594106,2803
1800.2713236825884,2789
1802.2591464741004,2848
1804.2464715943465,2825
1806.2332993038058,2804
1808.2196298630352,2782
1810.2054635326708,2898
1812.190800573428,2876
1814.175641246101,2936
1816.1599858115628,2854
1818.1438345307652,2824
1820.127187664738,2913
1822.1100454745924,2815
1824.092408221516,2840
1826.0742761667766,2802
1828.055649571721,2880
1830.0365286977735,2903
1832.0169138064398,2842
1833.9968051593014,2885
1835.9762030180214,2942
1837.9551076443408,2841
1839.9335193000788,2950
1841.9114382471344,2884
1843.888864747485,2893
1845.8657990631878,2933
1847.842241456378,2785
1849.8181921892697,2831
1851.7936515241558,2903
1853.7686197234098,2861
1855.7430970494815,2828
1857.7170837649014,2977
1859.6905801322787,2839
1861.6635864143004,2870
1863.6361028737338,2871
1865.608129773424,2866
1867.5796673762961,2864
1869.5507159453537,2887
1871.521275743678,2856
1873.4913470344313,2845
1875.4609300808534,2832
1877.4300251462632,2862
1879.3986324940588,2931
1881.366752387717,2870
1883.3343850907936,2813
1885.3015308669228,2915
1887.268189979819,2949
1889.2343626932739,2912
1891.2000492711595,2842
1893.1652499774254,2986
1895.1299650761011,2944
1897.0941948312952,2829
1899.0579395071945,2833
1901.0211993680641,2922
1902.98397467825,2949
1904.9462657021745,2904
1906.9080727043415,2889
1908.869395949332,2859
1910.8302357018065,2981
1912.790592226504,2971
1914.7504657882428,2869
1916.7098566519212,2860
1918.6687650825133,2838
1920.6271913450764,2984
1922.5851357047422,2741
1924.5425984267245,2872
1926.499579776314,2836
1928.4560800188833,2881
1930.4120994198802,2945
1932.367638244833,2848
1934.32269675935,2894
1936.2772752291175,2771
1938.231373919899,2869
1940.1849930975404,2926
1942.1381330279637,2783
1944.0907939771696,2822
1946.0429762112412,2877
1947.9946799963363,2849
1949.9459055986945,2947
1951.896653284633,2864
1953.8469233205478,2948
1955.7967159729142,2899
1957.7460315082863,2867
1959.6948701932974,2903
1961.6432322946594,2906
1963.5911180791632,2876
1965.5385278136787,2832
1967.4854617651545,2949
1969.4319202006182,2885
1971.377903387176,2890
1973.3234115920136,2941
1975.268445082395,2880
1977.2130041256642,2943
1979.1570889892423,2881
1981.1006999406304,2944
1983.04383724741,2944
1984.986501177238,2883
1986.928691997853,2890
1988.8704099770712,2946
1990.811655382789,2853
1992.7524284829801,2919
1994.692729545698,2908
1996.6325588390755,2848
1998.5719166313224,2826
2000.5108031907307,2966
2002.4492187856677,2891
2004.387163684583,2890
2006.3246381560011,2802
2008.2616424685298,2934
2010.1981768908527,2881
2012.1342416917332,2873
2014.069837140014,2713
2016.0049635046162,2770
2017.9396210545406,2866
2019.8738100588666,2856
2021.8075307867502,2802
2023.740783507431,2836
2025.6735684902228,2863
2027.6058860045214,2854
2029.5377363198004,2862
2031.4691197056118,2833
2033.4000364315875,2812
2035.3304867674374,2886
2037.260470982952,2877
2039.189989347998,2845
2041.1190421325232,2831
2043.047629606554,2883
2044.9757520401945,2912
2046.9034097036288,2940
2048.8306028671195,2845
2050.7573318010086,2877
2052.683596775716,2870
2054.609398061742,2841
2056.5347359296647,2860
2058.4596106501403,2933
2060.384022493906,2846
2062.3079717317764,2964
2064.231458634646,2842
2066.1544834734873,2892
2068.077046519352,2923
2069.99914804337,2893
2071.9207883167524,2909
2073.8419676107865,2879
2075.7626861968406,2915
2077.6829443463607,2849
2079.6027423308715,2955
2081.522080421977,2872
2083.440958891362,2841
2085.359378010786,2813
2087.2773380520907,2920
2089.194839287196,2845
2091.111881988101,2787
2093.0284664268825,2896
2094.9445928756973,2844
2096.86026160678,2937
2098.775472892446,2860
2100.690227005088,2858
2102.604524217178,2921
2104.5183648012676,2888
2106.431749029985,2888
2108.34467717604,2846
2110.2571495122206,2950
2112.169166311393,2882
2114.080727846503,2901
2115.9918343905747,2994
2117.902486216711,2920
2119.8126835980956,2919
2121.722426807987,2912
2123.6317161197285,2943
2125.5405518067364,2987
2127.448934142509,2861
2129.356863400624,2988
2131.264339854737,2840
2133.1713637785815,3002
2135.077935445972,2913
2136.9840551308002,2906
2138.889723107037,2958
2140.7949396487334,2974
2142.699705030018,2834
2144.6040195250994,3017
2146.507883408264,3054
2148.4112969538774,2872
2150.3142604363848,2943
2152.2167741303097,2955
2154.1188383102535,2967
2156.0204532508997,2992
2157.9216192270064,3003
2159.822336513414,3021
2161.7226053850413,3035
2163.622426116884,3003
2165.5217989840185,3000
2167.4207242616,3001
2169.319202224862,3010
2171.2172331491165,3015
2173.1148173097563,3006
2175.0119549822507,2934
2176.90864644215,3045
2178.8048919650823,2989
2180.7006918267534,3052
2182.596046302952,3052
2184.4909556695407,3031
2186.3854202024645,3007
2188.279440177746,2920
2190.173015871487,2903
2192.066147559868,3002
2193.958835519149,3052
2195.851080025667,3137
2197.7428813558417,3041
2199.6342397861667,3046
2201.5251555932186,3034
2203.415629053651,3059
2205.3056604441986,3050
2207.19525004167,2916
2209.084398122958,3053
2210.9731049650327,3123
2212.861370844941,3096
2214.749196039812,3052
2216.636580826851,3043
2218.523525483344,3145
2220.410030286655,3063
2222.296095514226,2994
2224.1817214435805,3107
2226.066908352319,3064
2227.951656518121,3017
2229.835966218746,3030
2231.71983773203,3031
2233.6032713358913,3109
2235.486267308324,3216
2237.3688259274036,3067
2239.2509474712824,3015
2241.132632218193,3059
2243.013880446447,3055
2244.8946924344323,3266
2246.7750684606203,3017
2248.6550088035574,3037
2250.534513741871,3093
2252.413583554265,3026
2254.292218519526,3068
2256.170418916517,3108
2258.0481850241786,3066
2259.925517121534,3046
2261.8024154876825,3019
2263.678880401803,3010
2265.5549121431536,3018
2267.430510991071,3034
2269.305677224971,3086
2271.180411124348,3173
2273.0547129687766,3140
2274.9285830379076,3082
2276.8020216114737,2983
2278.6750289692845,3081
2280.5476053912294,3001
2282.4197511572766,3148
2284.2914665474727,3073
2286.162751841943,3030
2288.0336073208937,3159
2289.904033264608,3110
2291.774029953448,3086
2293.6435976678554,3041
2295.5127366883517,3020
2297.381447295534,3044
2299.2497297700825,3101
2301.1175843927526,3053
2302.9850114443825,2972
2304.852011205885,2992
2306.7185839582553,2967
2308.5847299825664,2943
2310.4504495599676,3007
2312.3157429716925,2984
2314.1806104990483,2923
2316.0450524234247,2953
2317.9090690262888,2963
2319.772660589186,2937
2321.635827393742,2887
2323.498569721661,2913
2325.3608878547248,2961
2327.2227820747967,2884
2329.0842526638157,2988
2330.945299903803,2929
2332.805924076857,3009
2334.6661254651535,3015
2336.525904350951,2918
2338.3852610165827,2896
2340.244195744464,2913
2342.102708817088,2996
2343.9608005170253,2940
2345.8184711269287,2901
2347.675720929526,2977
2349.532550207628,2998
2351.38895924412,3002
2353.24494832197,2923
2355.100517724223,2972
2356.955667734004,2933
2358.810398634514,3003
2360.664710709037,2899
2362.5186042409337,2928
2364.3720795136437,2907
2366.225136810686,3009
2368.0777764156583,2948
2369.929998612237,2885
2371.7818036841777,2956
2373.633191915315,2995
2375.484163589562,3016
2377.3347189909114,2984
2379.184858403434,2973
2381.03458211128,3068
2382.8838903986775,3006
2384.732783549936,2977
2386.5812618494406,2998
2388.4293255816588,3063
2390.2769750311327,3046
2392.1242104824883,2982
2393.971032220427,3013
2395.8174405297295,3021
2397.6634356952563,3030
2399.509018001947,2958
2401.3541877348193,2955
2403.1989451789705,3007
2405.043290619576,2969
2406.8872243418905,3023
2408.730746631247,2940
2410.5738577730594,2952
2412.4165580528183,3019
2414.258847756095,3037
2416.100727168537,3086
2417.9421965758734,3040
2419.783256263912,2936
2421.623906518538,3098
2423.4641476257157,2996
2425.303979871491,2983
2427.143403541984,2974
2428.9824189233977,3082
2430.821026302012,2909
2432.6592259641866,2988
2434.497018196361,2967
2436.33440328505,2882
2438.171381516851,2973
2440.00795317844,3088
2441.844118556569,3010
2443.6798779380724,2985
2445.5152316098606,2977
2447.3501798589255,2995
2449.1847229723357,2951
2451.0188612372403,2969
2452.8525949408663,2978
2454.6859243705203,2947
2456.518849813587,2925
2458.3513715575314,3044
2460.183489889895,3044
2462.015205098301,3042
2463.8465174704493,3028
2465.67742729412,2939
2467.5079348571717,2990
2469.338040447542,3118
2471.1677443532476,3141
2472.9970468623833,3031
2474.825948263123,3061
2476.6544488437207,3017
2478.482548892508,3073
2480.310248697896,3063
2482.137548548374,3065
2483.9644487325118,3013
2485.790949538956,3018
2487.617051256433,3089
2489.44275417375,2997
2491.26805857979,3018
2493.0929647635157,3098
2494.917473013971,3055
2496.741583620276,3072
2498.5652968716304,3077
2500.3886130573137,2997
2502.2115324666834,3121
2504.0340553891765,3094
2505.856182114308,3049
2507.6779129316733,2989
2509.499248130945,2978
2511.3201880018764,3122
2513.140732834298,3111
2514.9608829181198,3055
2516.780638543331,3146
2518.6,3140
2520.418967578273,3108
2522.237541568376,3083
2524.0557222606144,3108
2525.8735099453706,3049
2527.6909049131086,3165
2529.507907454368,3136
2531.32451785977,3048
2533.140736420014,3286
2534.9565634258774,3245
2536.771999168218,3114
2538.5870439379714,3250
2540.4016980261526,3198
2542.2159617238544,3254
2544.02983532225,3142
2545.8433191125914,3237
2547.656413386209,3239
2549.4691184345115,3170
2551.2814345489874,3177
2553.093362021204,3324
2554.904901142808,3333
2556.716052205523,3292
2558.526815501153,3248
2560.3371913215824,3207
2562.147179958771,3288
2563.956781704761,3279
2565.7659968516705,3306
2567.5748256916986,3282
2569.3832685171224,3230
2571.1913256202984,3313
2572.9989972936614,3243
2574.806283829725,3239
2576.613185521084,3240
2578.4197026604074,3261
2580.2258355404483,3295
2582.031584454035,3258
2583.836949694077,3327
2585.6419315535613,3386
2587.4465303255533,3353
2589.2507463032002,3436
2591.0545797797245,3399
2592.8580310484303,3333
2594.6611004026995,3467
2596.463788135992,3417
2598.266094541849,3446
2600.0680199138874,3503
2601.869564545807,3462
2603.670728731383,3323
2605.4715127644704,3343
2607.2719169390048,3356
2609.071941548998,3456
2610.8715868885433,3408
2612.670853251811,3405
2614.469740933052,3467
2616.268250226594,3405
2618.0663814268455,3423
2619.864134828292,3420
2621.6615107255006,3382
2623.458509413115,3264
2625.2551311858597,3335
2627.0513763385347,3388
2628.8472451660223,3343
2630.6427379632833,3372
2632.4378550253564,3389
2634.232596647359,3312
2636.026963124488,3371
2637.8209547520187,3368
2639.6145718253065,3281
2641.407814639785,3282
2643.200683490966,3339
2644.9931786744414,3307
2646.7853004858807,3245
2648.577049221034,3253
2650.3684251757277,3346
2652.1594286458712,3331
2653.9500599274484,3289
2655.740319316525,3243
2657.5302071092437,3117
2659.3197236018286,3152
2661.10886909058,3265
2662.8976438718782,3181
2664.686048242183,3257
2666.4740824980327,3296
2668.2617469360443,3228
2670.0490418529134,3204
2671.8359675454153,3276
2673.622524310403,3261
2675.408712444811,3233
2677.1945322456495,3261
2678.979984010009,3125
2680.76506803506,3244
2682.5497846180497,3211
2684.334134056306,3208
2686.1181166472343,3150
2687.9017326883213,3277
2689.6849824771293,3225
2691.4678663113013,3182
2693.2503844885596,3148
2695.032537306705,3157
2696.8143250636167,3123
2698.5957480572542,3191
2700.3768065856534,3246
2702.1575009469316,3157
2703.937831439283,3136
2705.717798360982,3162
2707.4974020103837,3125
2709.276642685917,3113
2711.055520686095,3129
2712.834036309506,3132
2714.612189854819,3160
2716.389981620782,3116
2718.1674119062204,3070
2719.944481010041,3119
2721.721189231226,3084
2723.4975368688415,3100
2725.273524222027,3143
2727.0491515900053,3199
2728.824419272075,3084
2730.5993275676146,3094
2732.3738767760838,3228
2734.148067197016,3215
2735.921899130031,2996
2737.6953728748194,3072
2739.468488731156,3116
2741.2412469988926,3038
2743.0136479779617,3049
2744.785691968372,3130
2746.5573792702116,3097
2748.3287101836504,3077
2750.099685008934,3091
2751.870304046388,3135
2753.640567596418,3049
2755.4104759595057,3180
2757.1800294362156,3210
2758.949228327187,3039
2760.7180729331412,3087
2762.486563554877,3172
2764.254700493272,3194
2766.022484049284,3092
2767.789914523947,3118
2769.5569922183786,3109
2771.3237174337705,3138
2773.090090471394,3105
2774.8561116326036,3072
2776.6217812188274,3084
2778.3870995315756,3144
2780.1520668724356,3141
2781.9166835430747,3062
2783.6809498452394,3148
2785.444866080754,3121
2787.2084325515225,3051
2788.971649559527,3028
2790.73451740683,3095
2792.4970363955713,3027
2794.2592068279705,3145
2796.0210290063264,3141
2797.7825032330147,3082
2799.543629810493,3119
2801.304409041296,3217
2803.0648412280366,3112
2804.8249266734088,3093
2806.5846656801846,3136
2808.344058551212,3224
2810.1031055894246,3196
2811.8618070978273,3155
2813.6201633795085,3148
2815.378174737636,3045
2817.1358414754536,3182
2818.893163896285,3216
2820.6501423035334,3157
2822.4067770006814,3115
2824.1630682912883,3174
2825.9190164789957,3097
2827.6746218675207,3126
2829.429884760661,3137
2831.184805462294,3171
2832.9393842763743,3115
2834.693621506936,3205
2836.4475174580916,3202
2838.201072434034,3125
2839.954286739034,3164
2841.707160677441,3074
2843.459694553685,3144
2845.2118886722724,3175
2846.96374333779,3078
2848.7152588549034,3170
2850.4664355283567,3161
2852.217273662973,3106
2853.9677735636546,3113
2855.7179355353833,3111
2857.4677598832186,3137
2859.217246912299,3229
2860.9663969278427,3206
2862.715210235146,3142
2864.4636871395846,3234
2866.211827946614,3154
2867.9596329617652,3116
2869.7071024906536,3215
2871.4542368389684,3220
2873.20103631248,3182
2874.947501217038,3191
2876.6936318585695,3077
2878.4394285430812,3196
2880.1848915766604,3140
2881.9300212654707,3172
2883.6748179157553,3092
2885.4192818338374,3150
2887.1634133261173,3225
2888.907212699077,3144
2890.6506802592744,3211
2892.393816313348,3118
2894.1366211680142,3221
2895.8790951300693,3148
2897.621238506388,3233
2899.363051603925,3188
2901.1045347297118,3198
2902.8456881908596,3117
2904.58651229456,3162
2906.327007348081,3229
2908.067173658772,3187
2909.8070115340597,3160
2911.5465212814497,3112
2913.285703208527,3156
2915.0245576229563,3221
2916.7630848324807,3160
2918.5012851449196,3075
2920.2391588681758,3108
2921.976706310227,3148
2923.7139277791334,3156
2925.4508235830313,3144
2927.187394030137,3215
2928.923639428745,3299
2930.6595600872306,3203
2932.395156314046,3181
2934.1304284177218,3179
2935.8653767068713,3236
2937.6000014901815,3222
2939.3343030764227,3230
2941.068281774442,3101
2942.8019378931644,3131
2944.5352717415976,3188
2946.2682836288236,3250
2948.0009738640065,3214
2949.7333427563885,3126
2951.465390615289,3219
2953.1971177501086,3176
2954.9285244703265,3220
2956.6596110855,3266
2958.3903779052657,3115
2960.1208252393385,3114
2961.8509533975125,3150
2963.5807626896617,3222
2965.3102534257378,3187
2967.0394259157715,3198
2968.768280469873,3168
2970.496817398232,3187
2972.2250370111146,3207
2973.952939618869,3182
2975.6805255319196,3151
2977.4077950607707,3194
2979.134748516006,3246
2980.861386208289,3213
2982.587708448359,3325
2984.313715547037,3233
2986.039407815222,3225
2987.764785563891,3328
2989.489849104102,3307
2991.2145987469908,3173
2992.9390348037705,3232
2994.6631575857346,3252
2996.3869674042576,3232
2998.1104645707887,3267
2999.83364939686,3221
3001.5565221940783,3210
3003.2790832741334,3247
3005.0013329487924,3244
3006.7232715298996,3155
3008.4448993293804,3120
3010.166216659239,3149
3011.887223831558,3177
3013.607921158498,3105
3015.3283089522993,3139
3017.0483875252826,3233
3018.7681571898443,3195
3020.4876182584626,3208
3022.2067710436927,3211
3023.9256158581707,3249
3025.644153014609,3127
3027.362382825801,3218
3029.0803056046193,3167
3030.797921664012,3311
3032.5152313170106,3128
3034.2322348767225,3164
3035.9489326563353,3250
3037.665324969115,3200
3039.3814121284063,3236
3041.097194447633,3192
3042.812672240299,3184
3044.5278458199855,3164
3046.2427155003525,3304
3047.9572815951406,3232
3049.671544418167,3174
3051.38550428333,3176
3053.0991615046073,3187
3054.812516396051,3155
3056.5255692717974,3250
3058.2383204460575,3173
3059.9507702331257,3151
3061.662918947372,3146
3063.3747669032446,3298
3065.0863144152736,3288
3066.7975617980674,3152
3068.508509366309,3231
3070.219157434767,3265
3071.9295063182844,3188
3073.639556331785,3208
3075.3493077902704,3227
3077.058761008821,3219
3078.7679163025964,3257
3080.476773986837,3194
3082.1853343768594,3190
3083.89359778806,3210
3085.6015645359153,3169
3087.3092349359786,3326
3089.016609303884,3218
3090.7236879553434,3223
3092.4304712061476,3235
3094.136959372166,3307
3095.843152769349,3296
3097.5490517137237,3257
3099.2546565213966,3289
3100.959967508554,3321
3102.66498499146,3335
3104.3697092864577,3260
3106.0741407099695,3304
3107.778279578498,3255
3109.482126208622,3210
3111.1856809170004,3281
3112.8889440203716,3291
3114.5919158355528,3325
3116.294596679439,3213
3117.996986869006,3297
3119.6990867213062,3295
3121.4008965534726,3220
3123.102416682717,3331
3124.803647426329,3293
3126.5045891016784,3264
3128.205242026213,3272
3129.90560651746,3256
3131.605682893025,3197
3133.3054714705922,3291
3135.0049725679282,3278
3136.7041865028714,3340
3138.4031135933465,3262
3140.101754157353,3276
3141.800108512971,3238
3143.498176978357,3341
3145.1959598717494,3301
3146.8934575114636,3343
3148.5906702158954,3320
3150.2875983035183,3300
3151.9842420928853,3221
3153.680601902627,3268
3155.376678051456,3251
3157.07247085816,3277
3158.767980641609,3221
3160.463207720748,3324
3162.158152414606,3318
3163.8528150422862,3264
3165.5471959229726,3232
3167.2412953759303,3365
3168.9351137204976,3246
3170.628651276098,3244
3172.3219083622307,3278
3174.014885298474,3315
3175.707582404485,3397
3177.4000000000005,3329
3179.092138404835,3218
3180.7839979388846,3295
3182.47557892212,3327
3184.166881674594,3218
3185.8579065164386,3294
3187.5486537678626,3437
3189.2391237491547,3319
3190.9293167806827,3330
3192.6192331828934,3326
3194.3088732763117,3303
3195.998237381542,3232
3197.687325819268,3348
3199.376138910251,3372
3201.064676975334,3331
3202.7529403354347,3293
3204.4409293115523,3302
3206.1286442247647,3243
3207.816085396229,3249
3209.5032531471825,3284
3211.190147798936,3190
3212.8767696728846,3193
3214.5631190905015,3318
3216.2491963733373,3220
3217.9350018430214,3205
3219.6205358212637,3201
3221.305798629851,3279
3222.990790590651,3189
3224.6755120256103,3215
3226.359963256751,3214
3228.0441446061795,3125
3229.7280563960758,3168
3231.411698948703,3333
3233.0950725863995,3240
3234.778177631587,3278
3236.461014406761,3212
3238.1435832345005,3252
3239.8258844374595,3280
3241.507918338374,3308
3243.1896852600576,3308
3244.8711855254023,3261
3246.552419457381,3319
3248.233387379042,3366
3249.914089613516,3299
3251.59452648401,3293
3253.274698313813,3252
3254.95460542629,3314
3256.6342481448855,3280
3258.313626793125,3194
3259.9927416946084,3148
3261.6715931730196,3209
3263.3501815521176,3258
3265.0285071557437,3247
3266.706570307815,3373
3268.3843713323286,3296
3270.0619105533615,3338
3271.739188295068,3317
3273.4162048816834,3241
3275.0929606375184,3302
3276.769455886966,3296
3278.445690954498,3332
3280.1216661646613,3329
3281.797381842087,3318
3283.4728383114807,3427
3285.1480358976296,3305
3286.8229749253996,3217
3288.4976557197333,3252
3290.172078605655,3332
3291.846243908266,3217
3293.5201519527463,3247
3295.193803064357,3282
3296.8671975684374,3236
3298.5403357904024,3316
3300.21321805575,3330
3301.8858446900567,3152
3303.558216018975,3256
3305.23033236824,3376
3306.9021940636603,3332
3308.57380143113,3286
3310.2451547966184,3298
3311.916254486174,3305
3313.5871008259246,3298
3315.2576941420766,3308
3316.9280347609147,3265
3318.5981230088046,3289
3320.2679592121895,3275
3321.9375436975924,3272
3323.606876791612,3197
3325.27595882093,3144
3326.944790112305,3315
3328.6133709925753,3339
3330.2817017886573,3203
3331.949782827547,3287
3333.617614436319,3314
3335.2851969421245,3346
3336.952530672199,3400
3338.619615953853,3373
3340.286453114475,3380
3341.9530424815357,3211
3343.619384382583,3295
3345.2854791452437,3396
3346.951327097224,3380
3348.6169285663073,3430
3350.2822838803577,3343
3351.947393367319,3315
3353.61225735521,3343
3355.2768761721345,3359
3356.9412501462693,3283
3358.605379605873,3488
3360.2692648792827,3396
3361.9329062949146,3390
3363.596304181263,3323
