CollectionTime,7/10/2024 4:00:36 PM
ExposureUsed,3
CalibratedSpectrum
-962.7078968117929,773
-959.9714848408522,876
-957.2358232597828,872
-954.5009119013725,834
-951.7667505983302,839
-949.0333391832855,840
-946.3006774887896,853
-943.5687653473143,872
-940.837602591253,857
-938.1071890529199,866
-935.3775245645503,850
-932.6486089583007,845
-929.9204420662485,878
-927.1930237203925,892
-924.4663537526524,870
-921.7404319948689,858
-919.0152582788041,916
-916.2908324361409,899
-913.5671542984834,844
-910.8442236973568,868
-908.1220404642074,874
-905.4006044304027,847
-902.679915427231,868
-899.959973285902,876
-897.2407778375464,878
-894.5223289132158,853
-891.8046263438832,842
-889.0876699604426,861
-886.3714595937089,884
-883.6559950744183,868
-880.9412762332282,832
-878.2273029007168,856
-875.5140749073835,867
-872.8015920836489,866
-870.0898542598545,862
-867.3788612662631,870
-864.6686129330585,834
-861.9591090903457,849
-859.2503495681506,851
-856.5423341964203,853
-853.8350628050229,870
-851.1285352237478,853
-848.4227512823054,845
-845.7177108103272,885
-843.0134136373656,901
-840.3098595928943,912
-837.6070485063082,902
-834.9049802069229,920
-832.2036545239757,893
-829.5030712866244,873
-826.8032303239481,866
-824.1041314649472,898
-821.4057745385428,912
-818.7081593735775,891
-816.0112857988148,914
-813.3151536429393,929
-810.6197627345566,921
-807.9251129021936,859
-805.2312039742981,879
-802.5380357792392,896
-799.8456081453069,932
-797.1539209007124,875
-794.462973873588,879
-791.772766891987,910
-789.083299783884,885
-786.3945723771743,940
-783.7065844996748,884
-781.0193359791231,890
-778.3328266431781,900
-775.6470563194197,910
-772.9620248353489,899
-770.2777320183878,893
-767.5941776958798,889
-764.9113616950891,950
-762.2292838432011,927
-759.5479439673222,946
-756.8673418944801,889
-754.1874774516235,893
-751.5083504656222,923
-748.8299607632671,941
-746.15230817127,946
-743.475392516264,943
-740.7992136248035,942
-738.1237713233636,925
-735.4490654383407,925
-732.7750957960521,971
-730.1018622227365,949
-727.4293645445534,951
-724.7576025875837,1024
-722.0865761778291,922
-719.4162851412126,916
-716.7467293035781,977
-714.0779084906909,931
-711.409822528237,972
-708.7424712418238,968
-706.0758544569796,927
-703.4099719991541,997
-700.7448236937178,1032
-698.0804093659622,1018
-695.4167288411002,1035
-692.7537819442656,1035
-690.0915685005134,967
-687.4300883348199,984
-684.7693412720819,973
-682.1093271371178,932
-679.4500457546669,1005
-676.7914969493897,1010
-674.1336805458676,989
-671.4765963686034,1000
-668.8202442420206,998
-666.1646239904642,1022
-663.5097354382001,980
-660.8555784094151,989
-658.2021527282176,998
-655.5494582186366,993
-652.8974947046223,1012
-650.2462620100463,1042
-647.5957599587009,979
-644.9459883742998,1028
-642.2969470804776,1015
-639.6486359007902,1068
-637.0010546587141,1058
-634.3542031776476,1030
-631.7080812809096,1063
-629.0626887917401,1064
-626.4180255333008,1032
-623.7740913286734,1063
-621.1308860008619,1062
-618.4884093727904,1083
-615.8466612673046,1043
-613.2056415071715,1067
-610.5653499150785,1052
-607.9257863136347,1043
-605.28695052537,1085
-602.6488423727357,1059
-600.0114616781036,1038
-597.3748082637674,1028
-594.7388819519412,1108
-592.1036825647604,1083
-589.4692099242818,1110
-586.8354638524829,1112
-584.2024441712624,1124
-581.5701507024403,1071
-578.9385832677575,1094
-576.3077416888759,1124
-573.6776257873787,1086
-571.0482353847704,1063
-568.4195703024757,1063
-565.7916303618415,1090
-563.164415384135,1115
-560.5379251905453,1044
-557.9121596021815,1113
-555.2871184400748,1153
-552.6628015251767,1111
-550.0392086783606,1069
-547.4163397204204,1105
-544.794194472071,1146
-542.1727727539491,1152
-539.5520743866118,1143
-536.9320991905377,1200
-534.3128469861261,1159
-531.6943175936979,1169
-529.0765108334947,1194
-526.4594265256793,1250
-523.8430644903358,1315
-521.2274245474689,1422
-518.612506517005,1480
-515.9983102187913,1458
-513.3848354725959,1501
-510.77208209810846,1495
-508.16004991493924,1538
-505.5487387426199,1617
-502.9381484006032,1780
-500.3282787082628,1732
-497.71912948489364,1750
-495.1107005497117,1738
-492.5029917218539,1565
-489.8960028203786,1500
-487.28973366426493,1390
-484.68418407241325,1350
-482.07935386364494,1322
-479.47524285670266,1262
-476.87185087025,1344
-474.2691777228715,1297
-471.66722323307334,1302
-469.0659872192821,1318
-466.4654694998459,1307
-463.86566989303384,1362
-461.26658821703614,1327
-458.66822428996414,1298
-456.07057792985,1333
-453.4736489546475,1321
-450.877437182231,1334
-448.28194243039627,1288
-445.68716451686,1264
-443.09310325926003,1250
-440.49975847515555,1251
-437.9071299820263,1272
-435.31521759727354,1300
-432.72402113821954,1339
-430.13354042210767,1312
-427.5437752661022,1310
-424.95472548728867,1296
-422.36639090267386,1332
-419.7787713291855,1352
-417.1918665836721,1307
-414.60567648290385,1349
-412.0202008435715,1348
-409.4354394822874,1346
-406.8513922155845,1377
-404.26805885991723,1435
-401.685439231661,1426
-399.103533147112,1337
-396.522340422488,1347
-393.9418608739278,1342
-391.3620943174908,1312
-388.7830405691583,1330
-386.2046994448317,1291
-383.6270707603344,1258
-381.05015433141045,1162
-378.473949973725,1075
-375.8984575028645,1020
-373.32367673433623,945
-370.74960748356875,845
-368.1762495659117,788
-365.60360279663576,733
-363.03166699093265,691
-360.4604419639154,630
-357.8899275306178,574
-355.32012350599507,579
-352.7510297049233,543
-350.1826459421999,492
-347.61497203254316,476
-345.04800779059235,481
-342.4817530309082,522
-339.91620756797226,472
-337.35137121618743,492
-334.7872437898774,502
-332.22382510328725,502
-329.66111497058273,481
-327.09911320585127,493
-324.53781962310075,504
-321.9772340362607,498
-319.4173562591816,479
-316.8581861056348,441
-314.2997233893127,448
-311.7419679238294,450
-309.1849195227194,459
-306.62857799943856,479
-304.0729431673641,504
-301.51801483979375,581
-298.963792829947,545
-296.41027695096386,523
-293.85746701590574,519
-291.3053628377552,500
-288.7539642294155,542
-286.2032710037115,539
-283.65328297338897,524
-281.1039999511146,560
-278.5554217494762,614
-276.007548180983,640
-273.4603790580651,600
-270.9139141930734,605
-268.3681533982807,581
-265.8230964858798,534
-263.27874326798565,542
-260.7350935566336,549
-258.1921471637804,618
-255.6499039013039,622
-253.10836358100266,598
-250.56752601459698,591
-248.02739101372765,566
-245.48795838995704,614
-242.94922795476816,705
-240.41119951956557,629
-237.8738728956746,652
-235.33724789434166,659
-232.80132432673452,621
-230.2661020039418,584
-227.73158073697357,596
-225.19776033676033,614
-222.66464061415422,719
-220.1322213799284,725
-217.60050244477725,666
-215.06948361931552,685
-212.53916471408013,708
-210.00954553952818,799
-207.48062590603843,797
-204.9524056239104,698
-202.4248845033651,648
-199.8980623545441,692
-197.37193898751036,713
-194.84651421224817,697
-192.32178783866232,713
-189.79775967657952,686
-187.27442953574644,771
-184.7517972258321,746
-182.2298625564256,789
-179.7086253370378,773
-177.18808537710026,761
-174.66824248596583,773
-172.14909647290835,809
-169.6306471471229,872
-167.11289431772548,778
-164.59583779375328,755
-162.07947738416453,824
-159.5638128978386,862
-157.04884414357605,923
-154.53457093009854,970
-152.02099306604828,963
-149.50811035998936,872
-146.99592262040665,862
-144.48442965570587,840
-141.97363127421409,952
-139.46352728417958,1006
-136.95411749377126,992
-134.44540171107985,1010
-131.93737974411636,897
-129.43005140081357,959
-126.92341648902493,1285
-124.41747481652521,1744
-121.91222619101006,1974
-119.40767042009657,1925
-116.90380731132257,1956
-114.40063667214702,1811
-111.8981583099503,1647
-109.3963720320337,1647
-106.89527764561933,2358
-104.39487495785067,3897
-101.89516377579241,5089
-99.39614390642998,5308
-96.89781515667039,4945
-94.40017733334128,4820
-91.90323024319173,5711
-89.40697369289148,6394
-86.91140748903172,6654
-84.41653143812482,6403
-81.92234534660395,6100
-79.42884902082358,5937
-76.93604226705907,6429
-74.4439248915071,7491
-71.95249670028534,9719
-69.46175749943245,12661
-66.97170709490854,15021
-64.48234529259423,15169
-61.99367189829195,13263
-59.50568671772464,10895
-57.01838955653636,8238
-54.53178022029283,7394
-52.045858514480074,9540
-49.560624244506016,11931
-47.07607721569923,12875
-44.59221723330904,13878
-42.10904410250669,13994
-39.62655762838392,13950
-37.14475761595372,13305
-34.66364387015028,13825
-32.18321619582866,12639
-29.70347439776515,11274
-27.224418280657005,11515
-24.74604764912317,11746
-22.26836230770266,16188
-19.7913620608565,29051
-17.315046712966478,53790
-14.83941606833514,65040
-12.36446993118659,65040
-9.89020810566592,65040
-7.416630395839093,65040
-4.94373660569363,65040
-2.471526539137585,65040
-6.821210263296962E-13,65040
2.47084320796705,65040
4.941003281093458,65040
7.410480415786196,65040
9.879274808531363,65040
12.347386655893956,65040
14.814816154518212,65040
17.28156350112681,65040
19.74762889252179,65040
22.21301252558385,65040
24.67771459727237,20723
27.141735304626195,4034
29.605074844762612,2801
32.06773341487792,2497
34.52971121224755,2158
36.99100843422559,2091
39.45162527824516,2134
41.91156194181792,1814
44.370818622535126,1586
46.82939551806646,1476
49.287292826160524,1526
51.74451074464503,2098
54.201049471426245,2512
56.65690920448981,2156
59.112090141899785,1626
61.56659248179983,1276
64.02041642241159,1129
66.4735621620365,1384
68.92602989905402,1349
71.37781983192338,1267
73.82893215918205,1285
76.27936707944684,1266
78.72912479141326,1201
81.17820549385567,1150
83.62660938562783,1326
86.07433666566146,1435
88.5213875329681,1224
90.96776218663751,997
93.41346082583925,1114
95.85848364982041,1131
98.30283085790859,1170
100.7465026495089,1106
103.18949922410604,1120
105.63182078126385,1209
108.07346752062438,1066
110.51443964190923,1054
112.95473734491827,961
115.39436082953114,966
117.83331029570547,1109
120.27158594347827,1241
122.7091879729652,1265
125.1461165843615,1109
127.58237197794062,987
130.01795435405518,868
132.4528639131364,853
134.88710085569494,821
137.32066538231982,905
139.75355769367923,953
142.1857779905207,984
144.61732647366978,975
147.04820334403132,888
149.47840880258934,869
151.90794305040674,1040
154.33680628862487,1168
156.76499871846443,1224
159.19252054122433,1394
161.61937195828352,1509
164.04555317109896,1603
166.47106438120693,1851
168.89590579022217,2092
171.320077599839,2240
173.7435800118302,2443
176.16641322804742,2552
178.58857745042144,2612
181.01007288096173,2749
183.43089972175687,2805
185.85105817497413,2835
188.27054844285988,2880
190.6893707277394,2958
193.10752523201643,3120
195.5250121581745,3027
197.9418317087751,3163
200.3579840864594,3195
202.7734694939469,3185
205.18828813403627,3186
207.6024402096051,3391
210.01592592360964,3436
212.42874547908548,3279
214.84089907914665,3283
217.2523869269868,3176
219.66320922587727,3323
222.0733661791695,3233
224.48285799029293,3246
226.8916848627572,3208
229.29984700014882,3224
231.7073446061355,3287
234.11417788446204,3282
236.520347038953,3231
238.92585227351185,3383
241.33069379212054,3384
243.73487179884035,3428
246.1383864978112,3572
248.541238093252,3503
250.9434267894609,3488
253.34495279081432,3616
255.74581630176783,3476
258.1460175268563,3385
260.54555667069314,3342
262.9444339379703,3420
265.3426495334594,3324
267.7402036620107,3275
270.1370965285529,3238
272.53332833809407,3215
274.9288992957214,3162
277.32380960660055,3100
279.718059475976,3047
282.1116491091717,3078
284.5045787115897,3036
286.89684848871195,3014
289.2884586460981,3092
291.67940938938807,3073
294.0697009242996,3170
296.4593334566299,3082
298.84830719225477,3104
301.23662233712923,3065
303.6242790972866,2991
306.01127767884,3031
308.39761828798066,3032
310.78330113097934,3008
313.16832641418534,3000
315.5526943440269,3003
317.9364051270112,2935
320.3194589697242,2889
322.70185607883093,2933
325.0835966610754,2944
327.4646809232805,2952
329.8451090723478,2837
332.2248813152577,2899
334.6039978590701,2935
336.9824589109231,2861
339.36026467803447,2816
341.7374153677,2858
344.113911187295,2720
346.48975234427337,2777
348.8649390461686,2707
351.2394715005918,2817
353.61334991523415,2856
355.9865744978655,2715
358.35914545633375,2785
360.73106299856715,2749
363.10232733257146,2683
365.47293866643247,2693
367.84289720831396,2778
370.2122031664593,2843
372.5808567491905,2846
374.9488581649083,2775
377.31620762209275,2714
379.6829053293021,2676
382.0489514951745,2726
384.4143463284262,2618
386.7790900378528,2655
389.14318283232853,2632
391.50662492080653,2684
393.86941651231916,2663
396.23155781597745,2620
398.5930490409713,2702
400.9538903965696,2666
403.3140820921202,2716
405.6736243370498,2816
408.03251734086336,2650
410.3907613131465,2631
412.74835646356166,2632
415.10530300185144,2637
417.4616011378372,2565
419.81725108141893,2644
422.1722530425758,2693
424.5266072313656,2664
426.880313857925,2669
429.2333731324701,2510
431.58578526529516,2644
433.9375504667738,2627
436.2886689473588,2577
438.63914091758113,2716
440.9889665880513,2583
443.33814616945835,2572
445.68667987257015,2644
448.03456790823395,2526
450.3818104873759,2497
452.72840782100013,2601
455.07436012019105,2540
457.41966759611057,2532
459.7643304600007,2607
462.10834892318155,2644
464.4517231970525,2682
466.79445349309174,2617
469.1365400228566,2632
471.4779829979826,2606
473.81878263018564,2632
476.15893913125876,2609
478.4984527130747,2576
480.8373235875855,2642
483.17555196682144,2668
485.5131380628919,2728
487.8500820879857,2759
490.1863842543697,2943
492.52204477439034,2992
494.8570638604725,3143
497.1914417251204,3291
499.52517858091653,3596
501.85827464052306,3732
504.19073011668036,3840
506.5225452222086,3786
508.85372017000566,3662
511.18425517304956,3694
513.514150444396,3762
515.8434061971808,4168
518.1720226446176,5084
520.4999999999999,5276
522.8273384766991,4860
525.1540382881666,4664
527.480099647932,4342
529.8055227696037,3781
532.1303078668694,3245
534.454455153496,2962
536.777964843328,2733
539.1008371502907,2732
541.4230722883866,2785
543.744670471698,2641
546.0656319143858,2749
548.3859568306899,2749
550.7056454349294,2684
553.0246979415016,2637
555.3431145648834,2657
557.6608955196306,2621
559.978041020377,2589
562.2945512818363,2674
564.6104265188006,2658
566.9256669461412,2683
569.2402727788082,2676
571.5542442318302,2727
573.8675815203156,2735
576.1802848594508,2666
578.4923544645015,2695
580.8037905508126,2816
583.114593333807,2824
585.4247630289875,2724
587.7342998519354,2756
590.0432040183106,2779
592.3514757438526,2694
594.6591152443794,2708
596.9661227357875,2680
599.2724984340531,2714
601.578242555231,2812
603.8833553154542,2776
606.1878369309362,2803
608.4916876179676,2583
610.7949075929192,2705
613.0974970722403,2713
615.3994562724587,2749
617.7007854101818,2730
620.0014847020951,2676
622.3015543649641,2752
624.6009946156324,2735
626.8998056710224,2676
629.1979877481361,2720
631.4955410640538,2681
633.7924658359349,2709
636.0887622810175,2703
638.3844306166192,2778
640.6794710601358,2690
642.9738838290426,2772
645.2676691408932,2846
647.5608272133207,2781
649.853358264037,2835
652.1452625108324,2742
654.4365401715764,2808
656.7271914642178,2797
659.0172166067838,2791
661.3066158173809,2782
663.5953893141935,2794
665.8835373154867,2833
668.1710600396028,2794
670.4579577049639,2764
672.7442305300709,2819
675.0298787335033,2898
677.3149025339197,2927
679.599302150058,2820
681.8830778007342,2771
684.1662297048437,2737
686.4487580813608,2790
688.7306631493387,2811
691.0119451279091,2715
693.2926042362834,2711
695.5726406937516,2816
697.8520547196814,2805
700.1308465335215,2840
702.4090163547982,2775
704.6865644031171,2759
706.9634908981619,2807
709.2397960596965,2783
711.5154801075631,2843
713.7905432616823,2719
716.0649857420548,2880
718.3388077687592,2779
720.612009561953,2892
722.8845913418733,2889
725.1565533288352,2816
727.427895743234,2796
729.6986188055427,2848
731.9687227363137,2951
734.238207756178,2848
736.5070740858458,2797
738.7753219461066,2799
741.0429515578281,2820
743.3099631419569,2778
745.5763569195191,2815
747.8421331116193,2681
750.1072919394409,2883
752.3718336242467,2839
754.6357583873777,2799
756.8990664502545,2786
759.1617580343765,2784
761.423833361321,2816
763.6852926527457,2763
765.9461361303862,2783
768.206364016058,2840
770.4659765316536,2801
772.7249738991469,2863
774.9833563405886,2871
777.2411240781092,2845
779.4982773339183,2820
781.7548163303044,2846
784.010741289634,2887
786.2660524343538,2975
788.5207499869881,2786
790.7748341701416,2783
793.0283052064964,2820
795.2811633188143,2917
797.5334087299362,2929
799.7850416627813,2884
802.0360623403484,2840
804.2864709857143,2850
806.5362678220353,2947
808.7854530725468,2917
811.0340269605625,2883
813.2819897094754,2830
815.5293415427581,2873
817.77608268396,2957
820.0222133567116,2933
822.2677337847211,2934
824.5126441917765,2846
826.7569448017433,2879
829.0006358385675,2775
831.2437175262731,2815
833.4861900889629,2901
835.7280537508192,2875
837.9693087361026,2885
840.2099552691533,2877
842.4499935743896,2885
844.689423876309,2912
846.9282463994886,2906
849.1664613685833,2914
851.4040690083276,2922
853.6410695435349,2839
855.877463199097,2916
858.1132501999847,2844
860.3484307712487,2942
862.5830051380175,2882
864.8169735254988,2941
867.0503361589791,2892
869.2830932638243,2931
871.5152450654786,2967
873.7467917894654,2926
875.9777336613873,2956
878.2080709069252,2977
880.4378037518389,3076
882.666932421968,3029
884.8954571432301,2944
887.1233781416219,2872
889.3506956432192,2994
891.5774098741766,3004
893.803521060728,2979
896.0290294291852,3027
898.2539352059397,2951
900.4782386174619,2963
902.7019398903011,3009
904.925039251085,2856
907.147536926521,2935
909.3694331433943,2931
911.59072812857,2844
913.8114221089921,2923
916.0315153116827,2941
918.2510079637437,2981
920.4699002923547,2795
922.6881925247761,2937
924.905884888345,2881
927.1229776104793,2794
929.3394709186747,2913
931.555365040506,2870
933.7706602036275,2922
935.9853566357709,2935
938.1994545647489,2913
940.4129542184515,2935
942.6258558248488,2891
944.8381596119883,2814
947.0498658079974,2859
949.2609746410825,2858
951.4714863395287,2926
953.6814011316998,2898
955.8907192460387,2871
958.0994409110671,2880
960.3075663553858,2877
962.5150958076741,2872
964.7220294966913,2852
966.928367651274,2876
969.1341105003388,2790
971.3392582728806,2875
973.5438111979742,2886
975.747769504772,2889
977.9511334225061,2890
980.153903180487,2854
982.3560790081052,2804
984.5576611348289,2814
986.7586497902058,2792
988.9590452038618,2814
991.158847605503,2858
993.3580572249133,2770
995.5566742919558,2754
997.7546990365728,2807
999.952131688785,2737
1002.1489724786926,2686
1004.3452216364743,2686
1006.5408793923874,2699
1008.7359459767691,2700
1010.9304216200343,2639
1013.1243065526781,2658
1015.3176010052733,2642
1017.510305208472,2644
1019.7024193930064,2630
1021.8939437896848,2600
1024.0848786293977,2671
1026.2752241431122,2680
1028.4649805618747,2616
1030.6541481168115,2585
1032.842727039127,2580
1035.0307175601051,2754
1037.2181199111074,2637
1039.4049343235752,2613
1041.591161029029,2561
1043.7768002590683,2577
1045.9618522453698,2560
1048.1463172196918,2604
1050.3301954138697,2642
1052.513487059818,2636
1054.69619238953,2660
1056.8783116350783,2598
1059.0598450286152,2650
1061.2407928023704,2637
1063.4211551886528,2566
1065.6009324198508,2579
1067.780124728432,2665
1069.9587323469414,2605
1072.1367555080046,2664
1074.314194444325,2578
1076.4910493886855,2612
1078.667320573947,2622
1080.843008233051,2562
1083.0181125990161,2572
1085.1926339049414,2550
1087.3665723840027,2598
1089.5399282694575,2614
1091.7127017946405,2546
1093.8848931929647,2596
1096.0565026979243,2534
1098.2275305430899,2598
1100.3979769621128,2538
1102.567842188722,2513
1104.737126456726,2492
1106.9058300000124,2453
1109.0739530525475,2533
1111.2414958483764,2608
1113.4084586216231,2555
1115.5748416064907,2511
1117.7406450372605,2562
1119.9058691482942,2568
1122.0705141740304,2461
1124.2345803489884,2496
1126.3980679077658,2490
1128.5609770850388,2566
1130.7233081155623,2539
1132.8850612341707,2451
1135.0462366757774,2553
1137.2068346753745,2553
1139.3668554680326,2582
1141.526299288901,2508
1143.68516637321,2500
1145.8434569562655,2524
1148.001171273455,2518
1150.158309560244,2592
1152.3148720521767,2503
1154.470858984876,2517
1156.626270594044,2479
1158.7811071154629,2462
1160.9353687849912,2447
1163.089055838569,2508
1165.242168512213,2445
1167.3947070420209,2476
1169.5466716641677,2456
1171.6980626149075,2492
1173.8488801305748,2500
1175.9991244475814,2513
1178.1487958024186,2501
1180.2978944316555,2532
1182.4464205719428,2472
1184.5943744600072,2394
1186.7417563326567,2487
1188.8885664267755,2395
1191.0348049793297,2493
1193.1804722273619,2502
1195.325568407995,2461
1197.4700937584303,2454
1199.614048515948,2472
1201.7574329179074,2533
1203.900247201746,2587
1206.042491604982,2440
1208.1841663652099,2468
1210.3252717201053,2484
1212.465807907422,2522
1214.6057751649923,2519
1216.7451737307279,2529
1218.8840038426192,2538
1221.0222657387353,2491
1223.1599596572241,2528
1225.2970858363137,2641
1227.4336445143094,2486
1229.5696359295966,2552
1231.705060320639,2592
1233.8399179259786,2536
1235.9742089842384,2564
1238.107933734118,2556
1240.2410924143974,2575
1242.373685263935,2564
1244.5057125216676,2557
1246.6371744266116,2575
1248.7680712178621,2539
1250.898403134593,2623
1253.028170416058,2483
1255.1573733015875,2579
1257.2860120305932,2509
1259.4140868425648,2532
1261.54159797707,2527
1263.6685456737569,2435
1265.7949301723515,2555
1267.9207517126597,2584
1270.046010534565,2589
1272.1707068780306,2611
1274.2948409830983,2608
1276.4184130898889,2686
1278.541423438603,2575
1280.6638722695184,2661
1282.785759822993,2633
1284.9070863394636,2660
1287.0278520594447,2622
1289.1480572235314,2717
1291.2677020723963,2748
1293.3867868467923,2702
1295.5053117875495,2666
1297.623277135579,2733
1299.740683131868,2740
1301.8575300174857,2684
1303.973818033578,2785
1306.0895474213703,2726
1308.2047184221678,2788
1310.3193312773528,2754
1312.4333862283888,2693
1314.5468835168163,2724
1316.659823384255,2650
1318.7722060724045,2715
1320.8840318230418,2706
1322.9953008780249,2759
1325.1060134792888,2643
1327.2161698688478,2744
1329.3257702887959,2769
1331.4348149813054,2712
1333.5433041886276,2685
1335.6512381530933,2718
1337.7586171171101,2695
1339.8654413231675,2697
1341.9717110138317,2739
1344.0774264317488,2825
1346.1825878196432,2646
1348.2871954203192,2716
1350.3912494766587,2647
1352.4947502316231,2727
1354.5976979282532,2760
1356.7000928096686,2699
1358.8019351190665,2690
1360.9032250997243,2677
1363.0039629949988,2662
1365.1041490483235,2688
1367.2037835032133,2794
1369.3028666032606,2663
1371.401398592137,2673
1373.4993797135926,2673
1375.5968102114575,2678
1377.6936903296396,2763
1379.7900203121262,2673
1381.8858004029835,2625
1383.9810308463561,2729
1386.075711886469,2703
1388.1698437676241,2776
1390.2634267342032,2816
1392.356461030667,2755
1394.4489469015557,2776
1396.5408845914872,2856
1398.6322743451592,2818
1400.7231164073469,2797
1402.813411022907,2887
1404.903158436773,2841
1406.9923588939578,2844
1409.0810126395531,2803
1411.1691199187303,2878
1413.2566809767386,2757
1415.343696058907,2786
1417.4301654106425,2790
1419.5160892774315,2754
1421.6014679048399,2744
1423.6863015385125,2888
1425.7705904241707,2794
1427.8543348076178,2815
1429.9375349347342,2837
1432.0201910514802,2852
1434.102303403894,2814
1436.1838722380944,2856
1438.2648978002767,2888
1440.3453803367174,2872
1442.4253200937692,2945
1444.5047173178677,2954
1446.5835722555234,2975
1448.6618851533285,3009
1450.739656257952,3024
1452.8168858161434,3096
1454.8935740747306,3078
1456.96972128062,3129
1459.045327680797,3145
1461.120393522327,3072
1463.1949190523528,3117
1465.2689045180973,3164
1467.3423501668608,3222
1469.415256246024,3258
1471.4876230030463,3388
1473.559450685465,3296
1475.6307395408976,3377
1477.7014898170391,3305
1479.771701761665,3338
1481.8413756226287,3458
1483.9105116478618,3433
1485.9791100853772,3479
1488.0471711832643,3466
1490.1146951896926,3512
1492.1816823529098,3557
1494.2481329212433,3511
1496.3140471430984,3597
1498.3794252669609,3600
1500.4442675413939,3599
1502.5085742150404,3666
1504.572345536622,3755
1506.6355817549388,3685
1508.6982831188702,3695
1510.7604498773744,3712
1512.8220822794883,3753
1514.8831805743293,3807
1516.9437450110909,3848
1519.003775839048,3791
1521.0632733075522,3812
1523.1222376660367,4003
1525.1806691640113,3929
1527.2385680510652,4009
1529.2959345768668,4112
1531.3527689911643,4077
1533.4090715437833,4100
1535.4648424846291,4120
1537.5200820636855,4200
1539.5747905310159,4128
1541.6289681367616,4197
1543.6826151311434,4378
1545.7357317644614,4275
1547.7883182870937,4398
1549.8403749494987,4426
1551.8919020022113,4497
1553.9428996958477,4514
1555.9933682811015,4562
1558.0433080087469,4552
1560.0927191296346,4641
1562.1416018946961,4643
1564.1899565549415,4684
1566.2377833614592,4726
1568.2850825654164,4766
1570.3318544180606,4593
1572.3780991707158,4463
1574.423817074788,4340
1576.4690083817595,4198
1578.5136733431923,4078
1580.5578122107272,4067
1582.601425236085,4042
1584.6445126710646,3916
1586.6870747675434,3690
1588.7291117774776,3688
1590.7706239529034,3362
1592.8116115459347,3409
1594.8520748087658,3369
1596.8920139936686,3301
1598.9314293529933,3263
1600.9703211391711,3296
1603.008689604711,3204
1605.0465350022005,3119
1607.0838575843068,3082
1609.1206576037753,3041
1611.1569353134305,3105
1613.1926909661765,3030
1615.2279248149953,3010
1617.2626371129481,2988
1619.2968281131757,2920
1621.3304980688963,2915
1623.3636472334088,2862
1625.39627586009,2883
1627.428384202396,2898
1629.459972513861,2885
1631.4910410480993,2846
1633.5215900588028,2801
1635.551619799744,2761
1637.5811305247717,2832
1639.6101224878166,2777
1641.6385959428862,2788
1643.6665511440683,2769
1645.693988345528,2674
1647.7209078015112,2835
1649.7473097663405,2765
1651.7731944944203,2794
1653.7985622402307,2805
1655.823413258333,2743
1657.847747803366,2820
1659.8715661300494,2692
1661.8948684931793,2740
1663.9176551476316,2770
1665.9399263483624,2701
1667.9616823504057,2734
1669.982923408873,2686
1672.0036497789574,2789
1674.0238617159293,2786
1676.043559475138,2816
1678.0627433120121,2749
1680.081413482059,2714
1682.0995702408654,2749
1684.117213844096,2743
1686.134344547495,2720
1688.1509626068864,2781
1690.1670682781705,2773
1692.182661817329,2650
1694.1977434804217,2770
1696.2123135235875,2699
1698.226372203043,2646
1700.2399197750851,2667
1702.2529564960905,2720
1704.2654826225112,2720
1706.277498410882,2726
1708.2890041178139,2746
1710.2999999999988,2788
1712.3104863142066,2765
1714.3204633172854,2617
1716.329931266163,2649
1718.3388904178469,2666
1720.3473410294214,2621
1722.3552833580516,2744
1724.3627176609807,2650
1726.3696441955308,2722
1728.3760632191033,2691
1730.3819749891782,2793
1732.3873797633146,2612
1734.3922777991502,2720
1736.3966693544012,2625
1738.4005546868639,2622
1740.4039340544127,2654
1742.406807715001,2697
1744.4091759266616,2676
1746.4110389475054,2700
1748.4123970357223,2711
1750.413250449582,2661
1752.4135994474318,2671
1754.4134442876993,2610
1756.4127852288902,2710
1758.4116225295893,2667
1760.4099564484595,2627
1762.407787244244,2607
1764.405115175764,2699
1766.4019405019203,2590
1768.3982634816916,2685
1770.3940843741357,2595
1772.3894034383907,2625
1774.3842209336717,2685
1776.378537119274,2741
1778.372352254571,2586
1780.3656665990156,2659
1782.3584804121397,2652
1784.3507939535534,2644
1786.3426074829463,2703
1788.3339212600863,2662
1790.3247355448211,2601
1792.3150505970766,2565
1794.3048666768573,2625
1796.2941840442477,2620
1798.2830029594106,2630
1800.2713236825884,2709
1802.2591464741004,2583
1804.2464715943465,2609
1806.2332993038058,2638
1808.2196298630352,2563
1810.2054635326708,2607
1812.190800573428,2684
1814.175641246101,2558
1816.1599858115628,2573
1818.1438345307652,2721
1820.127187664738,2670
1822.1100454745924,2705
1824.092408221516,2610
1826.0742761667766,2609
1828.055649571721,2642
1830.0365286977735,2661
1832.0169138064398,2615
1833.9968051593014,2675
1835.9762030180214,2621
1837.9551076443408,2639
1839.9335193000788,2602
1841.9114382471344,2612
1843.888864747485,2596
1845.8657990631878,2619
1847.842241456378,2699
1849.8181921892697,2695
1851.7936515241558,2612
1853.7686197234098,2601
1855.7430970494815,2703
1857.7170837649014,2578
1859.6905801322787,2568
1861.6635864143004,2627
1863.6361028737338,2620
1865.608129773424,2593
1867.5796673762961,2677
1869.5507159453537,2702
1871.521275743678,2620
1873.4913470344313,2604
1875.4609300808534,2585
1877.4300251462632,2668
1879.3986324940588,2656
1881.366752387717,2682
1883.3343850907936,2666
1885.3015308669228,2680
1887.268189979819,2656
1889.2343626932739,2620
1891.2000492711595,2644
1893.1652499774254,2697
1895.1299650761011,2643
1897.0941948312952,2734
1899.0579395071945,2697
1901.0211993680641,2682
1902.98397467825,2713
1904.9462657021745,2677
1906.9080727043415,2603
1908.869395949332,2770
1910.8302357018065,2712
1912.790592226504,2692
1914.7504657882428,2646
1916.7098566519212,2600
1918.6687650825133,2690
1920.6271913450764,2623
1922.5851357047422,2739
1924.5425984267245,2635
1926.499579776314,2653
1928.4560800188833,2668
1930.4120994198802,2631
1932.367638244833,2674
1934.32269675935,2626
1936.2772752291175,2696
1938.231373919899,2720
1940.1849930975404,2709
1942.1381330279637,2617
1944.0907939771696,2665
1946.0429762112412,2630
1947.9946799963363,2578
1949.9459055986945,2689
1951.896653284633,2730
1953.8469233205478,2620
1955.7967159729142,2654
1957.7460315082863,2556
1959.6948701932974,2611
1961.6432322946594,2705
1963.5911180791632,2644
1965.5385278136787,2620
1967.4854617651545,2648
1969.4319202006182,2606
1971.377903387176,2544
1973.3234115920136,2538
1975.268445082395,2629
1977.2130041256642,2642
1979.1570889892423,2697
1981.1006999406304,2616
1983.04383724741,2650
1984.986501177238,2618
1986.928691997853,2626
1988.8704099770712,2640
1990.811655382789,2683
1992.7524284829801,2543
1994.692729545698,2603
1996.6325588390755,2492
1998.5719166313224,2629
2000.5108031907307,2695
2002.4492187856677,2589
2004.387163684583,2639
2006.3246381560011,2612
2008.2616424685298,2595
2010.1981768908527,2645
2012.1342416917332,2564
2014.069837140014,2635
2016.0049635046162,2628
2017.9396210545406,2657
2019.8738100588666,2569
2021.8075307867502,2717
2023.740783507431,2615
2025.6735684902228,2621
2027.6058860045214,2689
2029.5377363198004,2679
2031.4691197056118,2633
2033.4000364315875,2720
2035.3304867674374,2644
2037.260470982952,2575
2039.189989347998,2574
2041.1190421325232,2647
2043.047629606554,2645
2044.9757520401945,2592
2046.9034097036288,2665
2048.8306028671195,2687
2050.7573318010086,2582
2052.683596775716,2610
2054.609398061742,2631
2056.5347359296647,2605
2058.4596106501403,2662
2060.384022493906,2679
2062.3079717317764,2622
2064.231458634646,2560
2066.1544834734873,2618
2068.077046519352,2626
2069.99914804337,2656
2071.9207883167524,2627
2073.8419676107865,2617
2075.7626861968406,2615
2077.6829443463607,2673
2079.6027423308715,2629
2081.522080421977,2702
2083.440958891362,2619
2085.359378010786,2648
2087.2773380520907,2622
2089.194839287196,2603
2091.111881988101,2713
2093.0284664268825,2657
2094.9445928756973,2700
2096.86026160678,2682
2098.775472892446,2588
2100.690227005088,2600
2102.604524217178,2602
2104.5183648012676,2693
2106.431749029985,2665
2108.34467717604,2589
2110.2571495122206,2600
2112.169166311393,2594
2114.080727846503,2671
2115.9918343905747,2669
2117.902486216711,2655
2119.8126835980956,2711
2121.722426807987,2653
2123.6317161197285,2654
2125.5405518067364,2697
2127.448934142509,2618
2129.356863400624,2729
2131.264339854737,2743
2133.1713637785815,2607
2135.077935445972,2572
2136.9840551308002,2658
2138.889723107037,2601
2140.7949396487334,2708
2142.699705030018,2731
2144.6040195250994,2740
2146.507883408264,2741
2148.4112969538774,2692
2150.3142604363848,2747
2152.2167741303097,2745
2154.1188383102535,2665
2156.0204532508997,2694
2157.9216192270064,2675
2159.822336513414,2742
2161.7226053850413,2768
2163.622426116884,2722
2165.5217989840185,2829
2167.4207242616,2768
2169.319202224862,2724
2171.2172331491165,2761
2173.1148173097563,2765
2175.0119549822507,2781
2176.90864644215,2746
2178.8048919650823,2801
2180.7006918267534,2752
2182.596046302952,2759
2184.4909556695407,2760
2186.3854202024645,2721
2188.279440177746,2729
2190.173015871487,2772
2192.066147559868,2722
2193.958835519149,2762
2195.851080025667,2744
2197.7428813558417,2748
2199.6342397861667,2781
2201.5251555932186,2796
2203.415629053651,2803
2205.3056604441986,2804
2207.19525004167,2869
2209.084398122958,2792
2210.9731049650327,2766
2212.861370844941,2744
2214.749196039812,2801
2216.636580826851,2835
2218.523525483344,2815
2220.410030286655,2839
2222.296095514226,2836
2224.1817214435805,2806
2226.066908352319,2808
2227.951656518121,2854
2229.835966218746,2826
2231.71983773203,2805
2233.6032713358913,2820
2235.486267308324,2829
2237.3688259274036,2821
2239.2509474712824,2866
2241.132632218193,2854
2243.013880446447,2920
2244.8946924344323,2712
2246.7750684606203,2792
2248.6550088035574,2853
2250.534513741871,2814
2252.413583554265,2780
2254.292218519526,2718
2256.170418916517,2792
2258.0481850241786,2783
2259.925517121534,2761
2261.8024154876825,2855
2263.678880401803,2782
2265.5549121431536,2827
2267.430510991071,2774
2269.305677224971,2792
2271.180411124348,2842
2273.0547129687766,2828
2274.9285830379076,2821
2276.8020216114737,2783
2278.6750289692845,2789
2280.5476053912294,2823
2282.4197511572766,2890
2284.2914665474727,2903
2286.162751841943,2842
2288.0336073208937,2829
2289.904033264608,2815
2291.774029953448,2839
2293.6435976678554,2792
2295.5127366883517,2733
2297.381447295534,2782
2299.2497297700825,2767
2301.1175843927526,2803
2302.9850114443825,2761
2304.852011205885,2740
2306.7185839582553,2756
2308.5847299825664,2749
2310.4504495599676,2632
2312.3157429716925,2757
2314.1806104990483,2706
2316.0450524234247,2709
2317.9090690262888,2658
2319.772660589186,2717
2321.635827393742,2707
2323.498569721661,2732
2325.3608878547248,2734
2327.2227820747967,2679
2329.0842526638157,2698
2330.945299903803,2699
2332.805924076857,2720
2334.6661254651535,2735
2336.525904350951,2735
2338.3852610165827,2708
2340.244195744464,2632
2342.102708817088,2738
2343.9608005170253,2649
2345.8184711269287,2756
2347.675720929526,2664
2349.532550207628,2667
2351.38895924412,2659
2353.24494832197,2732
2355.100517724223,2670
2356.955667734004,2658
2358.810398634514,2578
2360.664710709037,2610
2362.5186042409337,2775
2364.3720795136437,2742
2366.225136810686,2730
2368.0777764156583,2745
2369.929998612237,2734
2371.7818036841777,2813
2373.633191915315,2766
2375.484163589562,2787
2377.3347189909114,2777
2379.184858403434,2700
2381.03458211128,2726
2382.8838903986775,2684
2384.732783549936,2720
2386.5812618494406,2758
2388.4293255816588,2721
2390.2769750311327,2709
2392.1242104824883,2727
2393.971032220427,2758
2395.8174405297295,2712
2397.6634356952563,2730
2399.509018001947,2667
2401.3541877348193,2665
2403.1989451789705,2641
2405.043290619576,2717
2406.8872243418905,2721
2408.730746631247,2729
2410.5738577730594,2760
2412.4165580528183,2864
2414.258847756095,2673
2416.100727168537,2716
2417.9421965758734,2758
2419.783256263912,2747
2421.623906518538,2723
2423.4641476257157,2789
2425.303979871491,2714
2427.143403541984,2735
2428.9824189233977,2723
2430.821026302012,2740
2432.6592259641866,2752
2434.497018196361,2712
2436.33440328505,2624
2438.171381516851,2728
2440.00795317844,2708
2441.844118556569,2844
2443.6798779380724,2732
2445.5152316098606,2766
2447.3501798589255,2807
2449.1847229723357,2816
2451.0188612372403,2681
2452.8525949408663,2711
2454.6859243705203,2741
2456.518849813587,2768
2458.3513715575314,2751
2460.183489889895,2791
2462.015205098301,2751
2463.8465174704493,2812
2465.67742729412,2784
2467.5079348571717,2752
2469.338040447542,2826
2471.1677443532476,2874
2472.9970468623833,2836
2474.825948263123,2805
2476.6544488437207,2864
2478.482548892508,2788
2480.310248697896,2784
2482.137548548374,2775
2483.9644487325118,2746
2485.790949538956,2731
2487.617051256433,2799
2489.44275417375,2859
2491.26805857979,2808
2493.0929647635157,2768
2494.917473013971,2814
2496.741583620276,2860
2498.5652968716304,2842
2500.3886130573137,2797
2502.2115324666834,2924
2504.0340553891765,2797
2505.856182114308,2812
2507.6779129316733,2832
2509.499248130945,2824
2511.3201880018764,2900
2513.140732834298,2855
2514.9608829181198,2853
2516.780638543331,2871
2518.6,2825
2520.418967578273,2817
2522.237541568376,2829
2524.0557222606144,2872
2525.8735099453706,2885
2527.6909049131086,2822
2529.507907454368,2914
2531.32451785977,2908
2533.140736420014,2899
2534.9565634258774,2872
2536.771999168218,2844
2538.5870439379714,2871
2540.4016980261526,2966
2542.2159617238544,2897
2544.02983532225,2972
2545.8433191125914,2965
2547.656413386209,2967
2549.4691184345115,2907
2551.2814345489874,2972
2553.093362021204,2906
2554.904901142808,2944
2556.716052205523,2908
2558.526815501153,2933
2560.3371913215824,2997
2562.147179958771,2950
2563.956781704761,3080
2565.7659968516705,2956
2567.5748256916986,2998
2569.3832685171224,3031
2571.1913256202984,2994
2572.9989972936614,3030
2574.806283829725,3042
2576.613185521084,3054
2578.4197026604074,3022
2580.2258355404483,3105
2582.031584454035,3062
2583.836949694077,3007
2585.6419315535613,2999
2587.4465303255533,3131
2589.2507463032002,3055
2591.0545797797245,3142
2592.8580310484303,2955
2594.6611004026995,3071
2596.463788135992,3185
2598.266094541849,3175
2600.0680199138874,3135
2601.869564545807,3132
2603.670728731383,3042
2605.4715127644704,3148
2607.2719169390048,3092
2609.071941548998,3106
2610.8715868885433,3211
2612.670853251811,3118
2614.469740933052,3159
2616.268250226594,3269
2618.0663814268455,3142
2619.864134828292,3000
2621.6615107255006,3130
2623.458509413115,3099
2625.2551311858597,3087
2627.0513763385347,3089
2628.8472451660223,3030
2630.6427379632833,3067
2632.4378550253564,3099
2634.232596647359,3060
2636.026963124488,3074
2637.8209547520187,3060
2639.6145718253065,3062
2641.407814639785,3028
2643.200683490966,3085
2644.9931786744414,3102
2646.7853004858807,3001
2648.577049221034,3005
2650.3684251757277,2910
2652.1594286458712,3037
2653.9500599274484,3017
2655.740319316525,2917
2657.5302071092437,2992
2659.3197236018286,2940
2661.10886909058,2960
2662.8976438718782,2994
2664.686048242183,2917
2666.4740824980327,2995
2668.2617469360443,3023
2670.0490418529134,2938
2671.8359675454153,2951
2673.622524310403,2857
2675.408712444811,2956
2677.1945322456495,2865
2678.979984010009,2845
2680.76506803506,2926
2682.5497846180497,2917
2684.334134056306,2906
2686.1181166472343,2928
2687.9017326883213,2860
2689.6849824771293,2877
2691.4678663113013,2870
2693.2503844885596,2907
2695.032537306705,2935
2696.8143250636167,2872
2698.5957480572542,2865
2700.3768065856534,2846
2702.1575009469316,2878
2703.937831439283,2818
2705.717798360982,2892
2707.4974020103837,2838
2709.276642685917,2912
2711.055520686095,2880
2712.834036309506,2828
2714.612189854819,2782
2716.389981620782,2849
2718.1674119062204,2802
2719.944481010041,2774
2721.721189231226,2871
2723.4975368688415,2842
2725.273524222027,2850
2727.0491515900053,2802
2728.824419272075,2818
2730.5993275676146,2834
2732.3738767760838,2826
2734.148067197016,2845
2735.921899130031,2798
2737.6953728748194,2773
2739.468488731156,2938
2741.2412469988926,2842
2743.0136479779617,2873
2744.785691968372,2847
2746.5573792702116,2837
2748.3287101836504,2787
2750.099685008934,2864
2751.870304046388,2824
2753.640567596418,2860
2755.4104759595057,2856
2757.1800294362156,2788
2758.949228327187,2758
2760.7180729331412,2811
2762.486563554877,2816
2764.254700493272,2928
2766.022484049284,2841
2767.789914523947,2876
2769.5569922183786,2776
2771.3237174337705,2785
2773.090090471394,2770
2774.8561116326036,2785
2776.6217812188274,2804
2778.3870995315756,2820
2780.1520668724356,2782
2781.9166835430747,2873
2783.6809498452394,2877
2785.444866080754,2813
2787.2084325515225,2818
2788.971649559527,2792
2790.73451740683,2769
2792.4970363955713,2900
2794.2592068279705,2914
2796.0210290063264,2835
2797.7825032330147,2797
2799.543629810493,2848
2801.304409041296,2838
2803.0648412280366,2876
2804.8249266734088,2852
2806.5846656801846,2813
2808.344058551212,2863
2810.1031055894246,2840
2811.8618070978273,2835
2813.6201633795085,2880
2815.378174737636,2838
2817.1358414754536,2840
2818.893163896285,2865
2820.6501423035334,2888
2822.4067770006814,2891
2824.1630682912883,2873
2825.9190164789957,2813
2827.6746218675207,2908
2829.429884760661,2852
2831.184805462294,2977
2832.9393842763743,2903
2834.693621506936,2845
2836.4475174580916,2848
2838.201072434034,2787
2839.954286739034,2853
2841.707160677441,2901
2843.459694553685,2791
2845.2118886722724,2849
2846.96374333779,2921
2848.7152588549034,2884
2850.4664355283567,2952
2852.217273662973,2940
2853.9677735636546,2850
2855.7179355353833,2864
2857.4677598832186,2936
2859.217246912299,2930
2860.9663969278427,2889
2862.715210235146,2981
2864.4636871395846,2870
2866.211827946614,2911
2867.9596329617652,2837
2869.7071024906536,2792
2871.4542368389684,2860
2873.20103631248,2889
2874.947501217038,2924
2876.6936318585695,2867
2878.4394285430812,2916
2880.1848915766604,2829
2881.9300212654707,2868
2883.6748179157553,2887
2885.4192818338374,2805
2887.1634133261173,2878
2888.907212699077,2892
2890.6506802592744,2910
2892.393816313348,2802
2894.1366211680142,2951
2895.8790951300693,2879
2897.621238506388,2884
2899.363051603925,2776
2901.1045347297118,2905
2902.8456881908596,2827
2904.58651229456,2829
2906.327007348081,2850
2908.067173658772,2935
2909.8070115340597,2892
2911.5465212814497,2810
2913.285703208527,2811
2915.0245576229563,2806
2916.7630848324807,2840
2918.5012851449196,2748
2920.2391588681758,2804
2921.976706310227,2820
2923.7139277791334,2816
2925.4508235830313,2919
2927.187394030137,2826
2928.923639428745,2922
2930.6595600872306,2781
2932.395156314046,2857
2934.1304284177218,2883
2935.8653767068713,2878
2937.6000014901815,2904
2939.3343030764227,2860
2941.068281774442,2907
2942.8019378931644,2868
2944.5352717415976,2891
2946.2682836288236,2913
2948.0009738640065,2911
2949.7333427563885,2878
2951.465390615289,2789
2953.1971177501086,2914
2954.9285244703265,2831
2956.6596110855,2863
2958.3903779052657,2935
2960.1208252393385,2849
2961.8509533975125,2888
2963.5807626896617,2755
2965.3102534257378,2848
2967.0394259157715,2935
2968.768280469873,2859
2970.496817398232,2944
2972.2250370111146,2865
2973.952939618869,2910
2975.6805255319196,2862
2977.4077950607707,2984
2979.134748516006,2886
2980.861386208289,2906
2982.587708448359,2984
2984.313715547037,2963
2986.039407815222,2904
2987.764785563891,2948
2989.489849104102,2924
2991.2145987469908,2941
2992.9390348037705,2976
2994.6631575857346,2886
2996.3869674042576,2859
2998.1104645707887,2952
2999.83364939686,2996
3001.5565221940783,2907
3003.2790832741334,2843
3005.0013329487924,2915
3006.7232715298996,2866
3008.4448993293804,2858
3010.166216659239,2769
3011.887223831558,2902
3013.607921158498,2940
3015.3283089522993,2945
3017.0483875252826,2938
3018.7681571898443,2901
3020.4876182584626,2856
3022.2067710436927,2843
3023.9256158581707,2980
3025.644153014609,2941
3027.362382825801,2916
3029.0803056046193,2894
3030.797921664012,2921
3032.5152313170106,2898
3034.2322348767225,2831
3035.9489326563353,2866
3037.665324969115,2996
3039.3814121284063,2869
3041.097194447633,3014
3042.812672240299,2936
3044.5278458199855,2975
3046.2427155003525,3017
3047.9572815951406,2889
3049.671544418167,2964
3051.38550428333,2947
3053.0991615046073,2992
3054.812516396051,2923
3056.5255692717974,2875
3058.2383204460575,2885
3059.9507702331257,2936
3061.662918947372,2824
3063.3747669032446,2883
3065.0863144152736,2869
3066.7975617980674,2917
3068.508509366309,2822
3070.219157434767,2971
3071.9295063182844,2991
3073.639556331785,2906
3075.3493077902704,2964
3077.058761008821,2942
3078.7679163025964,2825
3080.476773986837,3031
3082.1853343768594,2944
3083.89359778806,2900
3085.6015645359153,2893
3087.3092349359786,2960
3089.016609303884,2895
3090.7236879553434,2860
3092.4304712061476,3081
3094.136959372166,2983
3095.843152769349,2902
3097.5490517137237,2920
3099.2546565213966,2971
3100.959967508554,2972
3102.66498499146,2980
3104.3697092864577,3013
3106.0741407099695,2990
3107.778279578498,2996
3109.482126208622,2883
3111.1856809170004,2951
3112.8889440203716,3010
3114.5919158355528,2957
3116.294596679439,2950
3117.996986869006,3009
3119.6990867213062,2919
3121.4008965534726,2952
3123.102416682717,3000
3124.803647426329,3013
3126.5045891016784,3021
3128.205242026213,2961
3129.90560651746,3023
3131.605682893025,3012
3133.3054714705922,2968
3135.0049725679282,2985
3136.7041865028714,3017
3138.4031135933465,2952
3140.101754157353,3024
3141.800108512971,2944
3143.498176978357,2914
3145.1959598717494,3109
3146.8934575114636,2950
3148.5906702158954,3011
3150.2875983035183,2991
3151.9842420928853,2975
3153.680601902627,2955
3155.376678051456,2920
3157.07247085816,2970
3158.767980641609,2909
3160.463207720748,2961
3162.158152414606,2972
3163.8528150422862,3059
3165.5471959229726,2955
3167.2412953759303,2994
3168.9351137204976,2987
3170.628651276098,2970
3172.3219083622307,2984
3174.014885298474,2966
3175.707582404485,3081
3177.4000000000005,2991
3179.092138404835,3020
3180.7839979388846,3042
3182.47557892212,3063
3184.166881674594,3113
3185.8579065164386,3026
3187.5486537678626,2991
3189.2391237491547,3014
3190.9293167806827,2988
3192.6192331828934,3076
3194.3088732763117,2941
3195.998237381542,2984
3197.687325819268,2997
3199.376138910251,2939
3201.064676975334,3006
3202.7529403354347,2932
3204.4409293115523,2997
3206.1286442247647,2998
3207.816085396229,2971
3209.5032531471825,2936
3211.190147798936,2933
3212.8767696728846,3041
3214.5631190905015,2948
3216.2491963733373,2907
3217.9350018430214,2915
3219.6205358212637,2893
3221.305798629851,2945
3222.990790590651,2876
3224.6755120256103,3022
3226.359963256751,2941
3228.0441446061795,2791
3229.7280563960758,2957
3231.411698948703,2940
3233.0950725863995,2899
3234.778177631587,2929
3236.461014406761,3031
3238.1435832345005,2955
3239.8258844374595,2966
3241.507918338374,3045
3243.1896852600576,3135
3244.8711855254023,3004
3246.552419457381,3064
3248.233387379042,2984
3249.914089613516,3083
3251.59452648401,3028
3253.274698313813,2981
3254.95460542629,2994
3256.6342481448855,2958
3258.313626793125,3019
3259.9927416946084,2962
3261.6715931730196,2925
3263.3501815521176,2939
3265.0285071557437,2886
3266.706570307815,2924
3268.3843713323286,2949
3270.0619105533615,3004
3271.739188295068,2933
3273.4162048816834,3006
3275.0929606375184,2932
3276.769455886966,3050
3278.445690954498,3000
3280.1216661646613,2941
3281.797381842087,2976
3283.4728383114807,3058
3285.1480358976296,2990
3286.8229749253996,2931
3288.4976557197333,2947
3290.172078605655,2937
3291.846243908266,3005
3293.5201519527463,2946
3295.193803064357,2916
3296.8671975684374,2897
3298.5403357904024,2959
3300.21321805575,2926
3301.8858446900567,2963
3303.558216018975,3013
3305.23033236824,3008
3306.9021940636603,3065
3308.57380143113,3017
3310.2451547966184,3039
3311.916254486174,3051
3313.5871008259246,3006
3315.2576941420766,2937
3316.9280347609147,3024
3318.5981230088046,2989
3320.2679592121895,2909
3321.9375436975924,2953
3323.606876791612,2912
3325.27595882093,2892
3326.944790112305,3008
3328.6133709925753,2871
3330.2817017886573,2923
3331.949782827547,2976
3333.617614436319,2961
3335.2851969421245,3002
3336.952530672199,3020
3338.619615953853,3074
3340.286453114475,3075
3341.9530424815357,3004
3343.619384382583,3088
3345.2854791452437,2986
3346.951327097224,3009
3348.6169285663073,2994
3350.2822838803577,3010
3351.947393367319,3067
3353.61225735521,3085
3355.2768761721345,3040
3356.9412501462693,2940
3358.605379605873,3050
3360.2692648792827,3001
3361.9329062949146,3031
3363.596304181263,2922
