CollectionTime,7/10/2024 3:59:07 PM
ExposureUsed,3
CalibratedSpectrum
-962.7078968117929,660
-959.9714848408522,723
-957.2358232597828,713
-954.5009119013725,757
-951.7667505983302,735
-949.0333391832855,729
-946.3006774887896,696
-943.5687653473143,742
-940.837602591253,713
-938.1071890529199,715
-935.3775245645503,734
-932.6486089583007,794
-929.9204420662485,728
-927.1930237203925,757
-924.4663537526524,735
-921.7404319948689,691
-919.0152582788041,736
-916.2908324361409,741
-913.5671542984834,765
-910.8442236973568,735
-908.1220404642074,723
-905.4006044304027,758
-902.679915427231,764
-899.959973285902,730
-897.2407778375464,697
-894.5223289132158,729
-891.8046263438832,735
-889.0876699604426,698
-886.3714595937089,710
-883.6559950744183,706
-880.9412762332282,723
-878.2273029007168,718
-875.5140749073835,701
-872.8015920836489,724
-870.0898542598545,728
-867.3788612662631,746
-864.6686129330585,746
-861.9591090903457,716
-859.2503495681506,747
-856.5423341964203,722
-853.8350628050229,723
-851.1285352237478,715
-848.4227512823054,794
-845.7177108103272,740
-843.0134136373656,738
-840.3098595928943,737
-837.6070485063082,728
-834.9049802069229,775
-832.2036545239757,734
-829.5030712866244,731
-826.8032303239481,754
-824.1041314649472,757
-821.4057745385428,741
-818.7081593735775,692
-816.0112857988148,759
-813.3151536429393,766
-810.6197627345566,723
-807.9251129021936,801
-805.2312039742981,745
-802.5380357792392,720
-799.8456081453069,704
-797.1539209007124,757
-794.462973873588,762
-791.772766891987,773
-789.083299783884,787
-786.3945723771743,787
-783.7065844996748,734
-781.0193359791231,747
-778.3328266431781,735
-775.6470563194197,773
-772.9620248353489,770
-770.2777320183878,715
-767.5941776958798,788
-764.9113616950891,759
-762.2292838432011,762
-759.5479439673222,770
-756.8673418944801,750
-754.1874774516235,740
-751.5083504656222,808
-748.8299607632671,806
-746.15230817127,775
-743.475392516264,779
-740.7992136248035,798
-738.1237713233636,783
-735.4490654383407,763
-732.7750957960521,790
-730.1018622227365,774
-727.4293645445534,794
-724.7576025875837,784
-722.0865761778291,819
-719.4162851412126,788
-716.7467293035781,795
-714.0779084906909,796
-711.409822528237,808
-708.7424712418238,806
-706.0758544569796,835
-703.4099719991541,839
-700.7448236937178,830
-698.0804093659622,874
-695.4167288411002,807
-692.7537819442656,813
-690.0915685005134,807
-687.4300883348199,817
-684.7693412720819,810
-682.1093271371178,807
-679.4500457546669,801
-676.7914969493897,850
-674.1336805458676,864
-671.4765963686034,796
-668.8202442420206,834
-666.1646239904642,883
-663.5097354382001,832
-660.8555784094151,858
-658.2021527282176,866
-655.5494582186366,844
-652.8974947046223,874
-650.2462620100463,844
-647.5957599587009,863
-644.9459883742998,881
-642.2969470804776,868
-639.6486359007902,862
-637.0010546587141,857
-634.3542031776476,878
-631.7080812809096,864
-629.0626887917401,905
-626.4180255333008,878
-623.7740913286734,852
-621.1308860008619,854
-618.4884093727904,899
-615.8466612673046,872
-613.2056415071715,848
-610.5653499150785,879
-607.9257863136347,912
-605.28695052537,907
-602.6488423727357,912
-600.0114616781036,899
-597.3748082637674,893
-594.7388819519412,843
-592.1036825647604,904
-589.4692099242818,914
-586.8354638524829,939
-584.2024441712624,923
-581.5701507024403,910
-578.9385832677575,949
-576.3077416888759,933
-573.6776257873787,887
-571.0482353847704,914
-568.4195703024757,944
-565.7916303618415,914
-563.164415384135,879
-560.5379251905453,883
-557.9121596021815,891
-555.2871184400748,946
-552.6628015251767,922
-550.0392086783606,945
-547.4163397204204,967
-544.794194472071,938
-542.1727727539491,931
-539.5520743866118,918
-536.9320991905377,991
-534.3128469861261,992
-531.6943175936979,945
-529.0765108334947,996
-526.4594265256793,997
-523.8430644903358,1146
-521.2274245474689,1243
-518.612506517005,1337
-515.9983102187913,1268
-513.3848354725959,1303
-510.77208209810846,1288
-508.16004991493924,1380
-505.5487387426199,1469
-502.9381484006032,1625
-500.3282787082628,1650
-497.71912948489364,1666
-495.1107005497117,1581
-492.5029917218539,1485
-489.8960028203786,1427
-487.28973366426493,1261
-484.68418407241325,1211
-482.07935386364494,1135
-479.47524285670266,1144
-476.87185087025,1111
-474.2691777228715,1153
-471.66722323307334,1155
-469.0659872192821,1102
-466.4654694998459,1080
-463.86566989303384,1058
-461.26658821703614,1126
-458.66822428996414,1143
-456.07057792985,1109
-453.4736489546475,1136
-450.877437182231,1107
-448.28194243039627,1089
-445.68716451686,1046
-443.09310325926003,1103
-440.49975847515555,1119
-437.9071299820263,1114
-435.31521759727354,1143
-432.72402113821954,1137
-430.13354042210767,1126
-427.5437752661022,1149
-424.95472548728867,1145
-422.36639090267386,1168
-419.7787713291855,1132
-417.1918665836721,1180
-414.60567648290385,1198
-412.0202008435715,1173
-409.4354394822874,1197
-406.8513922155845,1220
-404.26805885991723,1202
-401.685439231661,1230
-399.103533147112,1178
-396.522340422488,1178
-393.9418608739278,1164
-391.3620943174908,1219
-388.7830405691583,1212
-386.2046994448317,1139
-383.6270707603344,1050
-381.05015433141045,1015
-378.473949973725,958
-375.8984575028645,894
-373.32367673433623,824
-370.74960748356875,766
-368.1762495659117,707
-365.60360279663576,677
-363.03166699093265,608
-360.4604419639154,560
-357.8899275306178,561
-355.32012350599507,517
-352.7510297049233,521
-350.1826459421999,477
-347.61497203254316,459
-345.04800779059235,468
-342.4817530309082,460
-339.91620756797226,470
-337.35137121618743,449
-334.7872437898774,465
-332.22382510328725,464
-329.66111497058273,458
-327.09911320585127,491
-324.53781962310075,517
-321.9772340362607,499
-319.4173562591816,467
-316.8581861056348,444
-314.2997233893127,459
-311.7419679238294,465
-309.1849195227194,483
-306.62857799943856,493
-304.0729431673641,509
-301.51801483979375,561
-298.963792829947,533
-296.41027695096386,499
-293.85746701590574,501
-291.3053628377552,506
-288.7539642294155,532
-286.2032710037115,536
-283.65328297338897,555
-281.1039999511146,534
-278.5554217494762,599
-276.007548180983,688
-273.4603790580651,667
-270.9139141930734,646
-268.3681533982807,607
-265.8230964858798,550
-263.27874326798565,556
-260.7350935566336,558
-258.1921471637804,583
-255.6499039013039,605
-253.10836358100266,603
-250.56752601459698,540
-248.02739101372765,553
-245.48795838995704,610
-242.94922795476816,680
-240.41119951956557,617
-237.8738728956746,641
-235.33724789434166,737
-232.80132432673452,688
-230.2661020039418,608
-227.73158073697357,582
-225.19776033676033,665
-222.66464061415422,705
-220.1322213799284,714
-217.60050244477725,698
-215.06948361931552,633
-212.53916471408013,720
-210.00954553952818,739
-207.48062590603843,736
-204.9524056239104,687
-202.4248845033651,679
-199.8980623545441,723
-197.37193898751036,752
-194.84651421224817,691
-192.32178783866232,657
-189.79775967657952,666
-187.27442953574644,757
-184.7517972258321,781
-182.2298625564256,816
-179.7086253370378,797
-177.18808537710026,761
-174.66824248596583,839
-172.14909647290835,795
-169.6306471471229,843
-167.11289431772548,798
-164.59583779375328,851
-162.07947738416453,868
-159.5638128978386,837
-157.04884414357605,912
-154.53457093009854,969
-152.02099306604828,929
-149.50811035998936,957
-146.99592262040665,867
-144.48442965570587,829
-141.97363127421409,955
-139.46352728417958,1130
-136.95411749377126,1009
-134.44540171107985,915
-131.93737974411636,907
-129.43005140081357,839
-126.92341648902493,1059
-124.41747481652521,1591
-121.91222619101006,2086
-119.40767042009657,2389
-116.90380731132257,2332
-114.40063667214702,2257
-111.8981583099503,1963
-109.3963720320337,1900
-106.89527764561933,2007
-104.39487495785067,2599
-101.89516377579241,3262
-99.39614390642998,3181
-96.89781515667039,2709
-94.40017733334128,2459
-91.90323024319173,2838
-89.40697369289148,3685
-86.91140748903172,4713
-84.41653143812482,5300
-81.92234534660395,5675
-79.42884902082358,5100
-76.93604226705907,3688
-74.4439248915071,3875
-71.95249670028534,5490
-69.46175749943245,9213
-66.97170709490854,12796
-64.48234529259423,14207
-61.99367189829195,12588
-59.50568671772464,10363
-57.01838955653636,7741
-54.53178022029283,7213
-52.045858514480074,8928
-49.560624244506016,11070
-47.07607721569923,12216
-44.59221723330904,13660
-42.10904410250669,14710
-39.62655762838392,15122
-37.14475761595372,14803
-34.66364387015028,14461
-32.18321619582866,13939
-29.70347439776515,11989
-27.224418280657005,11348
-24.74604764912317,11114
-22.26836230770266,15353
-19.7913620608565,27213
-17.315046712966478,48584
-14.83941606833514,65039
-12.36446993118659,65039
-9.89020810566592,65039
-7.416630395839093,65039
-4.94373660569363,65039
-2.471526539137585,65039
-6.821210263296962E-13,65039
2.47084320796705,65039
4.941003281093458,65039
7.410480415786196,65039
9.879274808531363,65039
12.347386655893956,65039
14.814816154518212,65039
17.28156350112681,65039
19.74762889252179,65039
22.21301252558385,65039
24.67771459727237,20450
27.141735304626195,4101
29.605074844762612,2686
32.06773341487792,2198
34.52971121224755,1824
36.99100843422559,1856
39.45162527824516,2187
41.91156194181792,1888
44.370818622535126,1699
46.82939551806646,1580
49.287292826160524,1606
51.74451074464503,1881
54.201049471426245,2248
56.65690920448981,2179
59.112090141899785,1470
61.56659248179983,1216
64.02041642241159,1146
66.4735621620365,1223
68.92602989905402,1110
71.37781983192338,1075
73.82893215918205,1159
76.27936707944684,1191
78.72912479141326,1243
81.17820549385567,1126
83.62660938562783,1338
86.07433666566146,1462
88.5213875329681,1335
90.96776218663751,1085
93.41346082583925,1010
95.85848364982041,948
98.30283085790859,1016
100.7465026495089,1098
103.18949922410604,1178
105.63182078126385,1184
108.07346752062438,1000
110.51443964190923,1006
112.95473734491827,929
115.39436082953114,956
117.83331029570547,1080
120.27158594347827,1334
122.7091879729652,1324
125.1461165843615,1165
127.58237197794062,931
130.01795435405518,837
132.4528639131364,819
134.88710085569494,878
137.32066538231982,948
139.75355769367923,991
142.1857779905207,932
144.61732647366978,871
147.04820334403132,825
149.47840880258934,917
151.90794305040674,1033
154.33680628862487,1187
156.76499871846443,1241
159.19252054122433,1367
161.61937195828352,1559
164.04555317109896,1616
166.47106438120693,1853
168.89590579022217,1997
171.320077599839,2151
173.7435800118302,2208
176.16641322804742,2408
178.58857745042144,2519
181.01007288096173,2604
183.43089972175687,2651
185.85105817497413,2593
188.27054844285988,2643
190.6893707277394,2771
193.10752523201643,2743
195.5250121581745,2797
197.9418317087751,2851
200.3579840864594,2779
202.7734694939469,2919
205.18828813403627,3008
207.6024402096051,3143
210.01592592360964,3130
212.42874547908548,2924
214.84089907914665,3061
217.2523869269868,3158
219.66320922587727,2981
222.0733661791695,3011
224.48285799029293,2942
226.8916848627572,2972
229.29984700014882,2988
231.7073446061355,3034
234.11417788446204,2970
236.520347038953,3100
238.92585227351185,3112
241.33069379212054,3115
243.73487179884035,3270
246.1383864978112,3231
248.541238093252,3269
250.9434267894609,3247
253.34495279081432,3311
255.74581630176783,3147
258.1460175268563,3195
260.54555667069314,3128
262.9444339379703,3189
265.3426495334594,3168
267.7402036620107,3084
270.1370965285529,3026
272.53332833809407,2998
274.9288992957214,2942
277.32380960660055,2935
279.718059475976,2762
282.1116491091717,2785
284.5045787115897,2769
286.89684848871195,2779
289.2884586460981,2740
291.67940938938807,2891
294.0697009242996,2861
296.4593334566299,2874
298.84830719225477,2823
301.23662233712923,2743
303.6242790972866,2770
306.01127767884,2675
308.39761828798066,2667
310.78330113097934,2633
313.16832641418534,2640
315.5526943440269,2620
317.9364051270112,2461
320.3194589697242,2471
322.70185607883093,2664
325.0835966610754,2535
327.4646809232805,2503
329.8451090723478,2494
332.2248813152577,2510
334.6039978590701,2529
336.9824589109231,2481
339.36026467803447,2526
341.7374153677,2425
344.113911187295,2522
346.48975234427337,2407
348.8649390461686,2511
351.2394715005918,2388
353.61334991523415,2414
355.9865744978655,2430
358.35914545633375,2391
360.73106299856715,2510
363.10232733257146,2421
365.47293866643247,2374
367.84289720831396,2400
370.2122031664593,2373
372.5808567491905,2387
374.9488581649083,2340
377.31620762209275,2327
379.6829053293021,2350
382.0489514951745,2292
384.4143463284262,2374
386.7790900378528,2302
389.14318283232853,2328
391.50662492080653,2388
393.86941651231916,2371
396.23155781597745,2343
398.5930490409713,2322
400.9538903965696,2323
403.3140820921202,2404
405.6736243370498,2365
408.03251734086336,2308
410.3907613131465,2277
412.74835646356166,2226
415.10530300185144,2278
417.4616011378372,2295
419.81725108141893,2241
422.1722530425758,2314
424.5266072313656,2235
426.880313857925,2239
429.2333731324701,2275
431.58578526529516,2234
433.9375504667738,2282
436.2886689473588,2251
438.63914091758113,2225
440.9889665880513,2302
443.33814616945835,2219
445.68667987257015,2202
448.03456790823395,2183
450.3818104873759,2228
452.72840782100013,2249
455.07436012019105,2183
457.41966759611057,2201
459.7643304600007,2258
462.10834892318155,2318
464.4517231970525,2211
466.79445349309174,2193
469.1365400228566,2197
471.4779829979826,2185
473.81878263018564,2297
476.15893913125876,2207
478.4984527130747,2214
480.8373235875855,2258
483.17555196682144,2313
485.5131380628919,2356
487.8500820879857,2340
490.1863842543697,2530
492.52204477439034,2646
494.8570638604725,2835
497.1914417251204,3055
499.52517858091653,3290
501.85827464052306,3470
504.19073011668036,3556
506.5225452222086,3438
508.85372017000566,3418
511.18425517304956,3349
513.514150444396,3414
515.8434061971808,3922
518.1720226446176,4746
520.4999999999999,4961
522.8273384766991,4808
525.1540382881666,4477
527.480099647932,4083
529.8055227696037,3574
532.1303078668694,2995
534.454455153496,2592
536.777964843328,2422
539.1008371502907,2445
541.4230722883866,2368
543.744670471698,2401
546.0656319143858,2385
548.3859568306899,2335
550.7056454349294,2367
553.0246979415016,2313
555.3431145648834,2324
557.6608955196306,2264
559.978041020377,2219
562.2945512818363,2256
564.6104265188006,2253
566.9256669461412,2260
569.2402727788082,2320
571.5542442318302,2284
573.8675815203156,2328
576.1802848594508,2299
578.4923544645015,2365
580.8037905508126,2363
583.114593333807,2327
585.4247630289875,2348
587.7342998519354,2311
590.0432040183106,2350
592.3514757438526,2354
594.6591152443794,2300
596.9661227357875,2259
599.2724984340531,2379
601.578242555231,2372
603.8833553154542,2325
606.1878369309362,2221
608.4916876179676,2423
610.7949075929192,2318
613.0974970722403,2240
615.3994562724587,2338
617.7007854101818,2245
620.0014847020951,2344
622.3015543649641,2294
624.6009946156324,2375
626.8998056710224,2352
629.1979877481361,2272
631.4955410640538,2398
633.7924658359349,2331
636.0887622810175,2352
638.3844306166192,2299
640.6794710601358,2296
642.9738838290426,2321
645.2676691408932,2395
647.5608272133207,2419
649.853358264037,2454
652.1452625108324,2358
654.4365401715764,2335
656.7271914642178,2355
659.0172166067838,2362
661.3066158173809,2318
663.5953893141935,2427
665.8835373154867,2401
668.1710600396028,2343
670.4579577049639,2387
672.7442305300709,2372
675.0298787335033,2316
677.3149025339197,2314
679.599302150058,2356
681.8830778007342,2291
684.1662297048437,2345
686.4487580813608,2345
688.7306631493387,2360
691.0119451279091,2261
693.2926042362834,2378
695.5726406937516,2379
697.8520547196814,2271
700.1308465335215,2360
702.4090163547982,2348
704.6865644031171,2367
706.9634908981619,2413
709.2397960596965,2273
711.5154801075631,2293
713.7905432616823,2330
716.0649857420548,2361
718.3388077687592,2333
720.612009561953,2339
722.8845913418733,2288
725.1565533288352,2339
727.427895743234,2352
729.6986188055427,2366
731.9687227363137,2327
734.238207756178,2324
736.5070740858458,2349
738.7753219461066,2376
741.0429515578281,2286
743.3099631419569,2319
745.5763569195191,2298
747.8421331116193,2387
750.1072919394409,2327
752.3718336242467,2425
754.6357583873777,2368
756.8990664502545,2357
759.1617580343765,2329
761.423833361321,2335
763.6852926527457,2324
765.9461361303862,2356
768.206364016058,2358
770.4659765316536,2330
772.7249738991469,2261
774.9833563405886,2380
777.2411240781092,2401
779.4982773339183,2319
781.7548163303044,2311
784.010741289634,2370
786.2660524343538,2453
788.5207499869881,2346
790.7748341701416,2291
793.0283052064964,2422
795.2811633188143,2438
797.5334087299362,2467
799.7850416627813,2391
802.0360623403484,2447
804.2864709857143,2435
806.5362678220353,2403
808.7854530725468,2281
811.0340269605625,2460
813.2819897094754,2414
815.5293415427581,2366
817.77608268396,2395
820.0222133567116,2387
822.2677337847211,2428
824.5126441917765,2355
826.7569448017433,2422
829.0006358385675,2474
831.2437175262731,2340
833.4861900889629,2384
835.7280537508192,2326
837.9693087361026,2389
840.2099552691533,2403
842.4499935743896,2409
844.689423876309,2413
846.9282463994886,2352
849.1664613685833,2418
851.4040690083276,2422
853.6410695435349,2346
855.877463199097,2366
858.1132501999847,2398
860.3484307712487,2393
862.5830051380175,2369
864.8169735254988,2350
867.0503361589791,2403
869.2830932638243,2443
871.5152450654786,2481
873.7467917894654,2454
875.9777336613873,2467
878.2080709069252,2439
880.4378037518389,2405
882.666932421968,2442
884.8954571432301,2516
887.1233781416219,2503
889.3506956432192,2455
891.5774098741766,2440
893.803521060728,2508
896.0290294291852,2548
898.2539352059397,2517
900.4782386174619,2493
902.7019398903011,2456
904.925039251085,2456
907.147536926521,2506
909.3694331433943,2478
911.59072812857,2478
913.8114221089921,2359
916.0315153116827,2370
918.2510079637437,2384
920.4699002923547,2374
922.6881925247761,2419
924.905884888345,2408
927.1229776104793,2377
929.3394709186747,2383
931.555365040506,2330
933.7706602036275,2451
935.9853566357709,2335
938.1994545647489,2339
940.4129542184515,2367
942.6258558248488,2406
944.8381596119883,2412
947.0498658079974,2324
949.2609746410825,2365
951.4714863395287,2404
953.6814011316998,2435
955.8907192460387,2317
958.0994409110671,2405
960.3075663553858,2316
962.5150958076741,2303
964.7220294966913,2341
966.928367651274,2288
969.1341105003388,2339
971.3392582728806,2277
973.5438111979742,2227
975.747769504772,2385
977.9511334225061,2268
980.153903180487,2349
982.3560790081052,2345
984.5576611348289,2252
986.7586497902058,2235
988.9590452038618,2278
991.158847605503,2238
993.3580572249133,2226
995.5566742919558,2214
997.7546990365728,2179
999.952131688785,2222
1002.1489724786926,2128
1004.3452216364743,2124
1006.5408793923874,2054
1008.7359459767691,2076
1010.9304216200343,2092
1013.1243065526781,2139
1015.3176010052733,2107
1017.510305208472,2107
1019.7024193930064,2103
1021.8939437896848,2054
1024.0848786293977,2053
1026.2752241431122,2071
1028.4649805618747,2074
1030.6541481168115,2136
1032.842727039127,2042
1035.0307175601051,2116
1037.2181199111074,2030
1039.4049343235752,2054
1041.591161029029,2092
1043.7768002590683,2082
1045.9618522453698,2063
1048.1463172196918,2148
1050.3301954138697,2052
1052.513487059818,2023
1054.69619238953,2048
1056.8783116350783,2006
1059.0598450286152,2041
1061.2407928023704,2071
1063.4211551886528,1989
1065.6009324198508,2117
1067.780124728432,2012
1069.9587323469414,2072
1072.1367555080046,2049
1074.314194444325,2014
1076.4910493886855,1963
1078.667320573947,2075
1080.843008233051,1991
1083.0181125990161,2027
1085.1926339049414,2004
1087.3665723840027,1943
1089.5399282694575,2093
1091.7127017946405,2007
1093.8848931929647,2014
1096.0565026979243,2015
1098.2275305430899,2042
1100.3979769621128,2033
1102.567842188722,1980
1104.737126456726,2009
1106.9058300000124,1926
1109.0739530525475,1919
1111.2414958483764,1878
1113.4084586216231,1996
1115.5748416064907,1950
1117.7406450372605,1966
1119.9058691482942,1917
1122.0705141740304,1937
1124.2345803489884,1991
1126.3980679077658,1942
1128.5609770850388,1967
1130.7233081155623,1949
1132.8850612341707,1897
1135.0462366757774,1978
1137.2068346753745,1961
1139.3668554680326,1884
1141.526299288901,1961
1143.68516637321,1906
1145.8434569562655,1947
1148.001171273455,1942
1150.158309560244,1937
1152.3148720521767,1944
1154.470858984876,2041
1156.626270594044,1924
1158.7811071154629,1905
1160.9353687849912,1973
1163.089055838569,1912
1165.242168512213,1938
1167.3947070420209,1943
1169.5466716641677,1898
1171.6980626149075,1948
1173.8488801305748,1942
1175.9991244475814,1902
1178.1487958024186,1929
1180.2978944316555,1927
1182.4464205719428,1859
1184.5943744600072,1839
1186.7417563326567,1886
1188.8885664267755,1859
1191.0348049793297,1878
1193.1804722273619,1891
1195.325568407995,1890
1197.4700937584303,1901
1199.614048515948,1859
1201.7574329179074,1890
1203.900247201746,1888
1206.042491604982,1904
1208.1841663652099,1975
1210.3252717201053,2007
1212.465807907422,1891
1214.6057751649923,1925
1216.7451737307279,1948
1218.8840038426192,1923
1221.0222657387353,2033
1223.1599596572241,2008
1225.2970858363137,1893
1227.4336445143094,1927
1229.5696359295966,1952
1231.705060320639,1936
1233.8399179259786,1939
1235.9742089842384,1958
1238.107933734118,1959
1240.2410924143974,1946
1242.373685263935,2010
1244.5057125216676,1892
1246.6371744266116,1926
1248.7680712178621,2018
1250.898403134593,1983
1253.028170416058,2006
1255.1573733015875,1935
1257.2860120305932,1997
1259.4140868425648,1909
1261.54159797707,1934
1263.6685456737569,1967
1265.7949301723515,1995
1267.9207517126597,2011
1270.046010534565,1984
1272.1707068780306,2004
1274.2948409830983,2004
1276.4184130898889,1938
1278.541423438603,2056
1280.6638722695184,2003
1282.785759822993,2017
1284.9070863394636,1994
1287.0278520594447,2109
1289.1480572235314,2059
1291.2677020723963,2021
1293.3867868467923,2058
1295.5053117875495,2038
1297.623277135579,2066
1299.740683131868,2109
1301.8575300174857,2123
1303.973818033578,2081
1306.0895474213703,2138
1308.2047184221678,2071
1310.3193312773528,2118
1312.4333862283888,2118
1314.5468835168163,2118
1316.659823384255,2159
1318.7722060724045,2111
1320.8840318230418,2152
1322.9953008780249,2216
1325.1060134792888,2110
1327.2161698688478,2078
1329.3257702887959,2147
1331.4348149813054,2091
1333.5433041886276,2100
1335.6512381530933,2139
1337.7586171171101,2067
1339.8654413231675,2122
1341.9717110138317,2075
1344.0774264317488,2062
1346.1825878196432,2063
1348.2871954203192,2137
1350.3912494766587,2123
1352.4947502316231,2079
1354.5976979282532,2122
1356.7000928096686,2115
1358.8019351190665,2099
1360.9032250997243,2106
1363.0039629949988,2089
1365.1041490483235,2112
1367.2037835032133,2148
1369.3028666032606,2020
1371.401398592137,2091
1373.4993797135926,2118
1375.5968102114575,2050
1377.6936903296396,2085
1379.7900203121262,2067
1381.8858004029835,2113
1383.9810308463561,2085
1386.075711886469,2143
1388.1698437676241,2091
1390.2634267342032,2132
1392.356461030667,2155
1394.4489469015557,2184
1396.5408845914872,2167
1398.6322743451592,2152
1400.7231164073469,2177
1402.813411022907,2175
1404.903158436773,2207
1406.9923588939578,2225
1409.0810126395531,2170
1411.1691199187303,2158
1413.2566809767386,2152
1415.343696058907,2210
1417.4301654106425,2155
1419.5160892774315,2246
1421.6014679048399,2204
1423.6863015385125,2235
1425.7705904241707,2219
1427.8543348076178,2269
1429.9375349347342,2242
1432.0201910514802,2174
1434.102303403894,2247
1436.1838722380944,2314
1438.2648978002767,2299
1440.3453803367174,2242
1442.4253200937692,2362
1444.5047173178677,2303
1446.5835722555234,2364
1448.6618851533285,2462
1450.739656257952,2450
1452.8168858161434,2427
1454.8935740747306,2432
1456.96972128062,2460
1459.045327680797,2412
1461.120393522327,2474
1463.1949190523528,2529
1465.2689045180973,2599
1467.3423501668608,2591
1469.415256246024,2627
1471.4876230030463,2643
1473.559450685465,2707
1475.6307395408976,2679
1477.7014898170391,2738
1479.771701761665,2843
1481.8413756226287,2820
1483.9105116478618,2855
1485.9791100853772,2915
1488.0471711832643,2904
1490.1146951896926,2869
1492.1816823529098,2819
1494.2481329212433,3028
1496.3140471430984,2954
1498.3794252669609,3071
1500.4442675413939,3054
1502.5085742150404,3072
1504.572345536622,3099
1506.6355817549388,3088
1508.6982831188702,3079
1510.7604498773744,3135
1512.8220822794883,3228
1514.8831805743293,3212
1516.9437450110909,3324
1519.003775839048,3242
1521.0632733075522,3295
1523.1222376660367,3322
1525.1806691640113,3417
1527.2385680510652,3426
1529.2959345768668,3428
1531.3527689911643,3469
1533.4090715437833,3467
1535.4648424846291,3522
1537.5200820636855,3612
1539.5747905310159,3758
1541.6289681367616,3614
1543.6826151311434,3645
1545.7357317644614,3672
1547.7883182870937,3763
1549.8403749494987,3753
1551.8919020022113,3765
1553.9428996958477,3796
1555.9933682811015,3868
1558.0433080087469,3974
1560.0927191296346,4119
1562.1416018946961,4066
1564.1899565549415,4081
1566.2377833614592,4083
1568.2850825654164,4060
1570.3318544180606,3994
1572.3780991707158,3813
1574.423817074788,3735
1576.4690083817595,3677
1578.5136733431923,3536
1580.5578122107272,3377
1582.601425236085,3333
1584.6445126710646,3221
1586.6870747675434,3074
1588.7291117774776,3004
1590.7706239529034,2863
1592.8116115459347,2749
1594.8520748087658,2777
1596.8920139936686,2736
1598.9314293529933,2673
1600.9703211391711,2564
1603.008689604711,2568
1605.0465350022005,2511
1607.0838575843068,2362
1609.1206576037753,2363
1611.1569353134305,2364
1613.1926909661765,2274
1615.2279248149953,2314
1617.2626371129481,2279
1619.2968281131757,2308
1621.3304980688963,2277
1623.3636472334088,2260
1625.39627586009,2241
1627.428384202396,2267
1629.459972513861,2224
1631.4910410480993,2143
1633.5215900588028,2185
1635.551619799744,2136
1637.5811305247717,2128
1639.6101224878166,2160
1641.6385959428862,2148
1643.6665511440683,2098
1645.693988345528,2126
1647.7209078015112,2072
1649.7473097663405,2120
1651.7731944944203,2090
1653.7985622402307,2077
1655.823413258333,2016
1657.847747803366,2067
1659.8715661300494,2034
1661.8948684931793,2138
1663.9176551476316,2055
1665.9399263483624,2024
1667.9616823504057,2150
1669.982923408873,2116
1672.0036497789574,2067
1674.0238617159293,2084
1676.043559475138,2021
1678.0627433120121,2140
1680.081413482059,2084
1682.0995702408654,2085
1684.117213844096,2073
1686.134344547495,2091
1688.1509626068864,2077
1690.1670682781705,2079
1692.182661817329,2011
1694.1977434804217,2079
1696.2123135235875,2096
1698.226372203043,2012
1700.2399197750851,2079
1702.2529564960905,2054
1704.2654826225112,2046
1706.277498410882,2022
1708.2890041178139,2151
1710.2999999999988,2061
1712.3104863142066,2103
1714.3204633172854,2015
1716.329931266163,2015
1718.3388904178469,2098
1720.3473410294214,2010
1722.3552833580516,2055
1724.3627176609807,1980
1726.3696441955308,2015
1728.3760632191033,2129
1730.3819749891782,2025
1732.3873797633146,2019
1734.3922777991502,2026
1736.3966693544012,2055
1738.4005546868639,1956
1740.4039340544127,2034
1742.406807715001,1994
1744.4091759266616,2029
1746.4110389475054,1944
1748.4123970357223,2092
1750.413250449582,1919
1752.4135994474318,1995
1754.4134442876993,1996
1756.4127852288902,2025
1758.4116225295893,1960
1760.4099564484595,1978
1762.407787244244,1949
1764.405115175764,1942
1766.4019405019203,1908
1768.3982634816916,2018
1770.3940843741357,1983
1772.3894034383907,1965
1774.3842209336717,1933
1776.378537119274,1989
1778.372352254571,2053
1780.3656665990156,1936
1782.3584804121397,1929
1784.3507939535534,1955
1786.3426074829463,2015
1788.3339212600863,1951
1790.3247355448211,1990
1792.3150505970766,1970
1794.3048666768573,1907
1796.2941840442477,1863
1798.2830029594106,1917
1800.2713236825884,1973
1802.2591464741004,1998
1804.2464715943465,2027
1806.2332993038058,1982
1808.2196298630352,1936
1810.2054635326708,1983
1812.190800573428,1998
1814.175641246101,1996
1816.1599858115628,1961
1818.1438345307652,1985
1820.127187664738,1974
1822.1100454745924,1980
1824.092408221516,1959
1826.0742761667766,1929
1828.055649571721,1974
1830.0365286977735,2008
1832.0169138064398,1984
1833.9968051593014,1968
1835.9762030180214,1928
1837.9551076443408,1876
1839.9335193000788,1959
1841.9114382471344,1980
1843.888864747485,1984
1845.8657990631878,1951
1847.842241456378,1949
1849.8181921892697,1918
1851.7936515241558,1918
1853.7686197234098,1954
1855.7430970494815,1940
1857.7170837649014,1943
1859.6905801322787,1884
1861.6635864143004,1989
1863.6361028737338,1954
1865.608129773424,1983
1867.5796673762961,1965
1869.5507159453537,1939
1871.521275743678,1898
1873.4913470344313,2030
1875.4609300808534,2038
1877.4300251462632,1959
1879.3986324940588,2021
1881.366752387717,1911
1883.3343850907936,2016
1885.3015308669228,2025
1887.268189979819,1958
1889.2343626932739,2026
1891.2000492711595,1978
1893.1652499774254,2007
1895.1299650761011,1990
1897.0941948312952,1988
1899.0579395071945,1983
1901.0211993680641,2058
1902.98397467825,2005
1904.9462657021745,1925
1906.9080727043415,1934
1908.869395949332,2055
1910.8302357018065,2017
1912.790592226504,1997
1914.7504657882428,1921
1916.7098566519212,1965
1918.6687650825133,1938
1920.6271913450764,2050
1922.5851357047422,1948
1924.5425984267245,1971
1926.499579776314,1974
1928.4560800188833,1963
1930.4120994198802,1949
1932.367638244833,1983
1934.32269675935,1994
1936.2772752291175,1992
1938.231373919899,1981
1940.1849930975404,1970
1942.1381330279637,1937
1944.0907939771696,2040
1946.0429762112412,1942
1947.9946799963363,1984
1949.9459055986945,1967
1951.896653284633,1970
1953.8469233205478,1963
1955.7967159729142,1923
1957.7460315082863,1984
1959.6948701932974,1947
1961.6432322946594,1916
1963.5911180791632,1942
1965.5385278136787,2009
1967.4854617651545,1924
1969.4319202006182,1950
1971.377903387176,1944
1973.3234115920136,2025
1975.268445082395,1951
1977.2130041256642,1977
1979.1570889892423,1960
1981.1006999406304,1952
1983.04383724741,1912
1984.986501177238,1910
1986.928691997853,1928
1988.8704099770712,1914
1990.811655382789,1917
1992.7524284829801,1969
1994.692729545698,1906
1996.6325588390755,1950
1998.5719166313224,1900
2000.5108031907307,1975
2002.4492187856677,1887
2004.387163684583,1968
2006.3246381560011,1852
2008.2616424685298,1900
2010.1981768908527,2010
2012.1342416917332,1867
2014.069837140014,1882
2016.0049635046162,1918
2017.9396210545406,1938
2019.8738100588666,1889
2021.8075307867502,1979
2023.740783507431,1907
2025.6735684902228,1972
2027.6058860045214,1907
2029.5377363198004,1912
2031.4691197056118,1897
2033.4000364315875,1914
2035.3304867674374,1905
2037.260470982952,1942
2039.189989347998,1942
2041.1190421325232,1897
2043.047629606554,1967
2044.9757520401945,1824
2046.9034097036288,1913
2048.8306028671195,1894
2050.7573318010086,1899
2052.683596775716,1902
2054.609398061742,1864
2056.5347359296647,1931
2058.4596106501403,1930
2060.384022493906,1847
2062.3079717317764,1866
2064.231458634646,1894
2066.1544834734873,1927
2068.077046519352,1925
2069.99914804337,1925
2071.9207883167524,1925
2073.8419676107865,1911
2075.7626861968406,1886
2077.6829443463607,1900
2079.6027423308715,1933
2081.522080421977,1907
2083.440958891362,1926
2085.359378010786,1945
2087.2773380520907,1973
2089.194839287196,1999
2091.111881988101,1958
2093.0284664268825,1949
2094.9445928756973,1878
2096.86026160678,1917
2098.775472892446,1986
2100.690227005088,1917
2102.604524217178,1894
2104.5183648012676,1865
2106.431749029985,1964
2108.34467717604,1964
2110.2571495122206,1936
2112.169166311393,1855
2114.080727846503,1974
2115.9918343905747,1930
2117.902486216711,1966
2119.8126835980956,2019
2121.722426807987,2009
2123.6317161197285,1974
2125.5405518067364,1958
2127.448934142509,1946
2129.356863400624,1889
2131.264339854737,1976
2133.1713637785815,1993
2135.077935445972,1978
2136.9840551308002,1907
2138.889723107037,1985
2140.7949396487334,1930
2142.699705030018,1948
2144.6040195250994,1917
2146.507883408264,1988
2148.4112969538774,1862
2150.3142604363848,1997
2152.2167741303097,1930
2154.1188383102535,1974
2156.0204532508997,1984
2157.9216192270064,1971
2159.822336513414,1946
2161.7226053850413,1986
2163.622426116884,1984
2165.5217989840185,1989
2167.4207242616,1896
2169.319202224862,2052
2171.2172331491165,2003
2173.1148173097563,1999
2175.0119549822507,2009
2176.90864644215,2045
2178.8048919650823,1963
2180.7006918267534,1988
2182.596046302952,1989
2184.4909556695407,1991
2186.3854202024645,2013
2188.279440177746,2000
2190.173015871487,1938
2192.066147559868,1945
2193.958835519149,1995
2195.851080025667,2022
2197.7428813558417,2075
2199.6342397861667,2016
2201.5251555932186,1973
2203.415629053651,2023
2205.3056604441986,2036
2207.19525004167,1961
2209.084398122958,1951
2210.9731049650327,2045
2212.861370844941,2012
2214.749196039812,1997
2216.636580826851,2042
2218.523525483344,2073
2220.410030286655,2102
2222.296095514226,1978
2224.1817214435805,2028
2226.066908352319,2019
2227.951656518121,2134
2229.835966218746,2107
2231.71983773203,1984
2233.6032713358913,2043
2235.486267308324,2079
2237.3688259274036,2055
2239.2509474712824,2060
2241.132632218193,2035
2243.013880446447,2066
2244.8946924344323,2024
2246.7750684606203,2062
2248.6550088035574,2052
2250.534513741871,2076
2252.413583554265,1985
2254.292218519526,2065
2256.170418916517,2043
2258.0481850241786,2047
2259.925517121534,2108
2261.8024154876825,2069
2263.678880401803,2058
2265.5549121431536,2018
2267.430510991071,2034
2269.305677224971,2009
2271.180411124348,1991
2273.0547129687766,2059
2274.9285830379076,2059
2276.8020216114737,1986
2278.6750289692845,2059
2280.5476053912294,2024
2282.4197511572766,2028
2284.2914665474727,2076
2286.162751841943,2041
2288.0336073208937,2106
2289.904033264608,2076
2291.774029953448,2083
2293.6435976678554,2030
2295.5127366883517,2145
2297.381447295534,2053
2299.2497297700825,1992
2301.1175843927526,1984
2302.9850114443825,1960
2304.852011205885,1882
2306.7185839582553,1965
2308.5847299825664,1910
2310.4504495599676,1909
2312.3157429716925,1902
2314.1806104990483,1909
2316.0450524234247,1844
2317.9090690262888,1899
2319.772660589186,1896
2321.635827393742,1964
2323.498569721661,1885
2325.3608878547248,1886
2327.2227820747967,1845
2329.0842526638157,1938
2330.945299903803,1918
2332.805924076857,1884
2334.6661254651535,1861
2336.525904350951,1855
2338.3852610165827,1903
2340.244195744464,1876
2342.102708817088,1859
2343.9608005170253,1906
2345.8184711269287,1885
2347.675720929526,1893
2349.532550207628,1886
2351.38895924412,1877
2353.24494832197,1830
2355.100517724223,1930
2356.955667734004,1927
2358.810398634514,1951
2360.664710709037,1950
2362.5186042409337,1907
2364.3720795136437,1837
2366.225136810686,1881
2368.0777764156583,1860
2369.929998612237,1911
2371.7818036841777,1948
2373.633191915315,1910
2375.484163589562,1884
2377.3347189909114,1888
2379.184858403434,1856
2381.03458211128,1870
2382.8838903986775,1890
2384.732783549936,1916
2386.5812618494406,1903
2388.4293255816588,1934
2390.2769750311327,1875
2392.1242104824883,1885
2393.971032220427,1858
2395.8174405297295,1887
2397.6634356952563,1926
2399.509018001947,1892
2401.3541877348193,1893
2403.1989451789705,1947
2405.043290619576,1924
2406.8872243418905,1946
2408.730746631247,1943
2410.5738577730594,1911
2412.4165580528183,1926
2414.258847756095,1920
2416.100727168537,1900
2417.9421965758734,1859
2419.783256263912,1921
2421.623906518538,1847
2423.4641476257157,1891
2425.303979871491,1938
2427.143403541984,1920
2428.9824189233977,1885
2430.821026302012,1861
2432.6592259641866,1991
2434.497018196361,1964
2436.33440328505,1945
2438.171381516851,1865
2440.00795317844,1881
2441.844118556569,1890
2443.6798779380724,1935
2445.5152316098606,1928
2447.3501798589255,1862
2449.1847229723357,1858
2451.0188612372403,1938
2452.8525949408663,1965
2454.6859243705203,1821
2456.518849813587,1945
2458.3513715575314,1895
2460.183489889895,1939
2462.015205098301,1953
2463.8465174704493,1891
2465.67742729412,1904
2467.5079348571717,1942
2469.338040447542,2015
2471.1677443532476,1940
2472.9970468623833,1937
2474.825948263123,1943
2476.6544488437207,1945
2478.482548892508,1884
2480.310248697896,1965
2482.137548548374,1952
2483.9644487325118,1965
2485.790949538956,1985
2487.617051256433,2059
2489.44275417375,2015
2491.26805857979,1948
2493.0929647635157,1956
2494.917473013971,1991
2496.741583620276,1979
2498.5652968716304,1989
2500.3886130573137,2003
2502.2115324666834,1983
2504.0340553891765,1922
2505.856182114308,2015
2507.6779129316733,1964
2509.499248130945,1944
2511.3201880018764,2041
2513.140732834298,1977
2514.9608829181198,2009
2516.780638543331,1998
2518.6,2023
2520.418967578273,2050
2522.237541568376,1966
2524.0557222606144,1974
2525.8735099453706,2016
2527.6909049131086,1990
2529.507907454368,2007
2531.32451785977,2082
2533.140736420014,2054
2534.9565634258774,1977
2536.771999168218,2104
2538.5870439379714,2110
2540.4016980261526,2096
2542.2159617238544,1998
2544.02983532225,2102
2545.8433191125914,2084
2547.656413386209,2021
2549.4691184345115,2151
2551.2814345489874,2106
2553.093362021204,2098
2554.904901142808,2054
2556.716052205523,2160
2558.526815501153,2107
2560.3371913215824,2081
2562.147179958771,2115
2563.956781704761,2149
2565.7659968516705,2131
2567.5748256916986,2160
2569.3832685171224,2203
2571.1913256202984,2156
2572.9989972936614,2171
2574.806283829725,2086
2576.613185521084,2229
2578.4197026604074,2181
2580.2258355404483,2232
2582.031584454035,2190
2583.836949694077,2238
2585.6419315535613,2213
2587.4465303255533,2237
2589.2507463032002,2245
2591.0545797797245,2230
2592.8580310484303,2238
2594.6611004026995,2261
2596.463788135992,2270
2598.266094541849,2307
2600.0680199138874,2249
2601.869564545807,2242
2603.670728731383,2290
2605.4715127644704,2258
2607.2719169390048,2236
2609.071941548998,2192
2610.8715868885433,2235
2612.670853251811,2296
2614.469740933052,2259
2616.268250226594,2199
2618.0663814268455,2255
2619.864134828292,2260
2621.6615107255006,2233
2623.458509413115,2258
2625.2551311858597,2259
2627.0513763385347,2199
2628.8472451660223,2316
2630.6427379632833,2233
2632.4378550253564,2238
2634.232596647359,2231
2636.026963124488,2218
2637.8209547520187,2199
2639.6145718253065,2219
2641.407814639785,2255
2643.200683490966,2183
2644.9931786744414,2134
2646.7853004858807,2207
2648.577049221034,2193
2650.3684251757277,2124
2652.1594286458712,2123
2653.9500599274484,2123
2655.740319316525,2080
2657.5302071092437,2175
2659.3197236018286,2155
2661.10886909058,2105
2662.8976438718782,2117
2664.686048242183,2119
2666.4740824980327,2136
2668.2617469360443,2082
2670.0490418529134,2022
2671.8359675454153,2046
2673.622524310403,2114
2675.408712444811,2081
2677.1945322456495,2066
2678.979984010009,2010
2680.76506803506,1987
2682.5497846180497,2013
2684.334134056306,2031
2686.1181166472343,2004
2687.9017326883213,2043
2689.6849824771293,1995
2691.4678663113013,2012
2693.2503844885596,1999
2695.032537306705,2016
2696.8143250636167,2019
2698.5957480572542,1966
2700.3768065856534,2001
2702.1575009469316,2005
2703.937831439283,1934
2705.717798360982,1942
2707.4974020103837,1951
2709.276642685917,2004
2711.055520686095,1948
2712.834036309506,1968
2714.612189854819,1961
2716.389981620782,1987
2718.1674119062204,1948
2719.944481010041,2000
2721.721189231226,1928
2723.4975368688415,1864
2725.273524222027,1914
2727.0491515900053,1978
2728.824419272075,1966
2730.5993275676146,1945
2732.3738767760838,1946
2734.148067197016,1875
2735.921899130031,1900
2737.6953728748194,1900
2739.468488731156,1965
2741.2412469988926,1945
2743.0136479779617,1922
2744.785691968372,1968
2746.5573792702116,1933
2748.3287101836504,1920
2750.099685008934,1981
2751.870304046388,1884
2753.640567596418,1911
2755.4104759595057,1902
2757.1800294362156,1959
2758.949228327187,1880
2760.7180729331412,1956
2762.486563554877,1901
2764.254700493272,1906
2766.022484049284,1926
2767.789914523947,1923
2769.5569922183786,1945
2771.3237174337705,1949
2773.090090471394,1983
2774.8561116326036,2023
2776.6217812188274,1889
2778.3870995315756,2001
2780.1520668724356,1930
2781.9166835430747,1954
2783.6809498452394,1956
2785.444866080754,1899
2787.2084325515225,1959
2788.971649559527,1877
2790.73451740683,1933
2792.4970363955713,1980
2794.2592068279705,1916
2796.0210290063264,1972
2797.7825032330147,1964
2799.543629810493,1911
2801.304409041296,1879
2803.0648412280366,1875
2804.8249266734088,1902
2806.5846656801846,1886
2808.344058551212,1967
2810.1031055894246,1943
2811.8618070978273,1895
2813.6201633795085,1973
2815.378174737636,1899
2817.1358414754536,1917
2818.893163896285,1915
2820.6501423035334,2027
2822.4067770006814,1866
2824.1630682912883,1980
2825.9190164789957,1926
2827.6746218675207,1946
2829.429884760661,2003
2831.184805462294,1930
2832.9393842763743,1861
2834.693621506936,1872
2836.4475174580916,1901
2838.201072434034,2004
2839.954286739034,1977
2841.707160677441,1933
2843.459694553685,2012
2845.2118886722724,1945
2846.96374333779,1974
2848.7152588549034,1988
2850.4664355283567,1989
2852.217273662973,1946
2853.9677735636546,1964
2855.7179355353833,1931
2857.4677598832186,1918
2859.217246912299,1896
2860.9663969278427,1947
2862.715210235146,1965
2864.4636871395846,1930
2866.211827946614,1936
2867.9596329617652,1892
2869.7071024906536,1945
2871.4542368389684,1883
2873.20103631248,1957
2874.947501217038,1927
2876.6936318585695,1912
2878.4394285430812,1906
2880.1848915766604,1976
2881.9300212654707,1851
2883.6748179157553,1916
2885.4192818338374,1911
2887.1634133261173,1981
2888.907212699077,1821
2890.6506802592744,1898
2892.393816313348,1925
2894.1366211680142,1941
2895.8790951300693,1962
2897.621238506388,2039
2899.363051603925,1929
2901.1045347297118,1934
2902.8456881908596,2001
2904.58651229456,1979
2906.327007348081,1915
2908.067173658772,1942
2909.8070115340597,1915
2911.5465212814497,1929
2913.285703208527,1974
2915.0245576229563,1966
2916.7630848324807,1904
2918.5012851449196,1951
2920.2391588681758,1935
2921.976706310227,1928
2923.7139277791334,1920
2925.4508235830313,1948
2927.187394030137,1914
2928.923639428745,1934
2930.6595600872306,1982
2932.395156314046,1938
2934.1304284177218,1952
2935.8653767068713,1912
2937.6000014901815,2008
2939.3343030764227,1933
2941.068281774442,1931
2942.8019378931644,1947
2944.5352717415976,1958
2946.2682836288236,1928
2948.0009738640065,1980
2949.7333427563885,1987
2951.465390615289,1971
2953.1971177501086,1955
2954.9285244703265,1932
2956.6596110855,1979
2958.3903779052657,1902
2960.1208252393385,1910
2961.8509533975125,1945
2963.5807626896617,1941
2965.3102534257378,1956
2967.0394259157715,1940
2968.768280469873,1954
2970.496817398232,1941
2972.2250370111146,1965
2973.952939618869,1974
2975.6805255319196,1949
2977.4077950607707,1986
2979.134748516006,1984
2980.861386208289,2002
2982.587708448359,1936
2984.313715547037,1978
2986.039407815222,1931
2987.764785563891,1923
2989.489849104102,1985
2991.2145987469908,1826
2992.9390348037705,1948
2994.6631575857346,1937
2996.3869674042576,1995
2998.1104645707887,1980
2999.83364939686,1947
3001.5565221940783,1932
3003.2790832741334,1901
3005.0013329487924,1907
3006.7232715298996,1973
3008.4448993293804,2006
3010.166216659239,1840
3011.887223831558,1952
3013.607921158498,1916
3015.3283089522993,1898
3017.0483875252826,1941
3018.7681571898443,1916
3020.4876182584626,1938
3022.2067710436927,1900
3023.9256158581707,1912
3025.644153014609,1868
3027.362382825801,1893
3029.0803056046193,1902
3030.797921664012,1924
3032.5152313170106,1888
3034.2322348767225,1911
3035.9489326563353,1925
3037.665324969115,1891
3039.3814121284063,1978
3041.097194447633,1867
3042.812672240299,1949
3044.5278458199855,1919
3046.2427155003525,1902
3047.9572815951406,1920
3049.671544418167,1915
3051.38550428333,1908
3053.0991615046073,1944
3054.812516396051,1948
3056.5255692717974,1909
3058.2383204460575,1947
3059.9507702331257,1897
3061.662918947372,1939
3063.3747669032446,1895
3065.0863144152736,1914
3066.7975617980674,1884
3068.508509366309,1932
3070.219157434767,2012
3071.9295063182844,2019
3073.639556331785,1951
3075.3493077902704,1955
3077.058761008821,1922
3078.7679163025964,1977
3080.476773986837,1920
3082.1853343768594,2013
3083.89359778806,1976
3085.6015645359153,1919
3087.3092349359786,1908
3089.016609303884,1947
3090.7236879553434,1931
3092.4304712061476,1967
3094.136959372166,1978
3095.843152769349,1897
3097.5490517137237,1925
3099.2546565213966,1949
3100.959967508554,2029
3102.66498499146,1968
3104.3697092864577,1982
3106.0741407099695,2024
3107.778279578498,1990
3109.482126208622,2003
3111.1856809170004,1979
3112.8889440203716,2016
3114.5919158355528,1979
3116.294596679439,1976
3117.996986869006,1941
3119.6990867213062,1968
3121.4008965534726,1981
3123.102416682717,2012
3124.803647426329,2005
3126.5045891016784,1972
3128.205242026213,2013
3129.90560651746,1947
3131.605682893025,1919
3133.3054714705922,1914
3135.0049725679282,2036
3136.7041865028714,1938
3138.4031135933465,1966
3140.101754157353,2027
3141.800108512971,1973
3143.498176978357,1896
3145.1959598717494,1987
3146.8934575114636,1925
3148.5906702158954,1937
3150.2875983035183,1948
3151.9842420928853,1856
3153.680601902627,1874
3155.376678051456,1944
3157.07247085816,1957
3158.767980641609,1923
3160.463207720748,1966
3162.158152414606,1918
3163.8528150422862,1920
3165.5471959229726,1916
3167.2412953759303,1949
3168.9351137204976,1969
3170.628651276098,1869
3172.3219083622307,1951
3174.014885298474,2027
3175.707582404485,1979
3177.4000000000005,1959
3179.092138404835,1988
3180.7839979388846,1979
3182.47557892212,2001
3184.166881674594,1915
3185.8579065164386,1925
3187.5486537678626,1938
3189.2391237491547,2000
3190.9293167806827,1977
3192.6192331828934,1941
3194.3088732763117,1973
3195.998237381542,1910
3197.687325819268,2000
3199.376138910251,1928
3201.064676975334,1960
3202.7529403354347,1958
3204.4409293115523,1963
3206.1286442247647,1972
3207.816085396229,1937
3209.5032531471825,1919
3211.190147798936,1920
3212.8767696728846,1990
3214.5631190905015,1878
3216.2491963733373,1856
3217.9350018430214,1869
3219.6205358212637,1912
3221.305798629851,1876
3222.990790590651,1881
3224.6755120256103,1856
3226.359963256751,1939
3228.0441446061795,1883
3229.7280563960758,1910
3231.411698948703,1942
3233.0950725863995,2000
3234.778177631587,1932
3236.461014406761,1961
3238.1435832345005,1945
3239.8258844374595,1919
3241.507918338374,2036
3243.1896852600576,1920
3244.8711855254023,1949
3246.552419457381,1997
3248.233387379042,1940
3249.914089613516,1929
3251.59452648401,1934
3253.274698313813,1955
3254.95460542629,1875
3256.6342481448855,1921
3258.313626793125,1873
3259.9927416946084,1951
3261.6715931730196,1902
3263.3501815521176,1900
3265.0285071557437,1846
3266.706570307815,1899
3268.3843713323286,1974
3270.0619105533615,1883
3271.739188295068,1896
3273.4162048816834,1882
3275.0929606375184,1918
3276.769455886966,2017
3278.445690954498,1998
3280.1216661646613,1951
3281.797381842087,1949
3283.4728383114807,1967
3285.1480358976296,2007
3286.8229749253996,1913
3288.4976557197333,1884
3290.172078605655,1899
3291.846243908266,1973
3293.5201519527463,1859
3295.193803064357,1921
3296.8671975684374,1893
3298.5403357904024,1977
3300.21321805575,1929
3301.8858446900567,1940
3303.558216018975,1900
3305.23033236824,1920
3306.9021940636603,1989
3308.57380143113,1938
3310.2451547966184,1959
3311.916254486174,1945
3313.5871008259246,1925
3315.2576941420766,1887
3316.9280347609147,1956
3318.5981230088046,1884
3320.2679592121895,1950
3321.9375436975924,1948
3323.606876791612,1905
3325.27595882093,1860
3326.944790112305,1890
3328.6133709925753,1865
3330.2817017886573,1889
3331.949782827547,1911
3333.617614436319,1913
3335.2851969421245,1875
3336.952530672199,1939
3338.619615953853,1882
3340.286453114475,1945
3341.9530424815357,1909
3343.619384382583,1956
3345.2854791452437,1929
3346.951327097224,1976
3348.6169285663073,1958
3350.2822838803577,2025
3351.947393367319,1980
3353.61225735521,1959
3355.2768761721345,1918
3356.9412501462693,1999
3358.605379605873,1956
3360.2692648792827,1983
3361.9329062949146,1968
3363.596304181263,1991
