CollectionTime,7/10/2024 3:59:59 PM
ExposureUsed,3
CalibratedSpectrum
-962.7078968117929,947
-959.9714848408522,1001
-957.2358232597828,1004
-954.5009119013725,1021
-951.7667505983302,1078
-949.0333391832855,1038
-946.3006774887896,1040
-943.5687653473143,1066
-940.837602591253,1079
-938.1071890529199,1042
-935.3775245645503,1027
-932.6486089583007,1023
-929.9204420662485,1084
-927.1930237203925,1070
-924.4663537526524,1047
-921.7404319948689,1077
-919.0152582788041,1087
-916.2908324361409,1081
-913.5671542984834,1075
-910.8442236973568,1084
-908.1220404642074,1051
-905.4006044304027,1082
-902.679915427231,1173
-899.959973285902,1084
-897.2407778375464,1114
-894.5223289132158,1015
-891.8046263438832,1109
-889.0876699604426,992
-886.3714595937089,1052
-883.6559950744183,1080
-880.9412762332282,1084
-878.2273029007168,1086
-875.5140749073835,1049
-872.8015920836489,1052
-870.0898542598545,1055
-867.3788612662631,1011
-864.6686129330585,1102
-861.9591090903457,1045
-859.2503495681506,1062
-856.5423341964203,1056
-853.8350628050229,1079
-851.1285352237478,1055
-848.4227512823054,1107
-845.7177108103272,1123
-843.0134136373656,1130
-840.3098595928943,1118
-837.6070485063082,1107
-834.9049802069229,1055
-832.2036545239757,1099
-829.5030712866244,1075
-826.8032303239481,1071
-824.1041314649472,1128
-821.4057745385428,1129
-818.7081593735775,1056
-816.0112857988148,1022
-813.3151536429393,1092
-810.6197627345566,1095
-807.9251129021936,1054
-805.2312039742981,1132
-802.5380357792392,1060
-799.8456081453069,1095
-797.1539209007124,1101
-794.462973873588,1121
-791.772766891987,1119
-789.083299783884,1054
-786.3945723771743,1083
-783.7065844996748,1066
-781.0193359791231,1119
-778.3328266431781,1072
-775.6470563194197,1070
-772.9620248353489,1068
-770.2777320183878,1054
-767.5941776958798,1091
-764.9113616950891,1072
-762.2292838432011,1061
-759.5479439673222,1083
-756.8673418944801,1050
-754.1874774516235,1069
-751.5083504656222,1072
-748.8299607632671,1075
-746.15230817127,1119
-743.475392516264,1061
-740.7992136248035,1112
-738.1237713233636,1101
-735.4490654383407,1109
-732.7750957960521,1069
-730.1018622227365,1051
-727.4293645445534,1099
-724.7576025875837,1084
-722.0865761778291,1093
-719.4162851412126,1118
-716.7467293035781,1158
-714.0779084906909,1154
-711.409822528237,1143
-708.7424712418238,1120
-706.0758544569796,1102
-703.4099719991541,1157
-700.7448236937178,1125
-698.0804093659622,1116
-695.4167288411002,1145
-692.7537819442656,1143
-690.0915685005134,1097
-687.4300883348199,1132
-684.7693412720819,1107
-682.1093271371178,1091
-679.4500457546669,1143
-676.7914969493897,1115
-674.1336805458676,1172
-671.4765963686034,1114
-668.8202442420206,1172
-666.1646239904642,1128
-663.5097354382001,1134
-660.8555784094151,1145
-658.2021527282176,1122
-655.5494582186366,1152
-652.8974947046223,1122
-650.2462620100463,1171
-647.5957599587009,1200
-644.9459883742998,1132
-642.2969470804776,1147
-639.6486359007902,1117
-637.0010546587141,1161
-634.3542031776476,1196
-631.7080812809096,1188
-629.0626887917401,1214
-626.4180255333008,1133
-623.7740913286734,1204
-621.1308860008619,1222
-618.4884093727904,1232
-615.8466612673046,1249
-613.2056415071715,1200
-610.5653499150785,1192
-607.9257863136347,1184
-605.28695052537,1189
-602.6488423727357,1280
-600.0114616781036,1203
-597.3748082637674,1207
-594.7388819519412,1212
-592.1036825647604,1202
-589.4692099242818,1280
-586.8354638524829,1303
-584.2024441712624,1284
-581.5701507024403,1311
-578.9385832677575,1264
-576.3077416888759,1240
-573.6776257873787,1278
-571.0482353847704,1243
-568.4195703024757,1294
-565.7916303618415,1249
-563.164415384135,1254
-560.5379251905453,1255
-557.9121596021815,1302
-555.2871184400748,1275
-552.6628015251767,1270
-550.0392086783606,1255
-547.4163397204204,1286
-544.794194472071,1304
-542.1727727539491,1232
-539.5520743866118,1329
-536.9320991905377,1312
-534.3128469861261,1333
-531.6943175936979,1329
-529.0765108334947,1419
-526.4594265256793,1456
-523.8430644903358,1526
-521.2274245474689,1612
-518.612506517005,1716
-515.9983102187913,1718
-513.3848354725959,1675
-510.77208209810846,1738
-508.16004991493924,1828
-505.5487387426199,1930
-502.9381484006032,2052
-500.3282787082628,2076
-497.71912948489364,2064
-495.1107005497117,2015
-492.5029917218539,1819
-489.8960028203786,1706
-487.28973366426493,1667
-484.68418407241325,1584
-482.07935386364494,1613
-479.47524285670266,1523
-476.87185087025,1525
-474.2691777228715,1548
-471.66722323307334,1569
-469.0659872192821,1570
-466.4654694998459,1545
-463.86566989303384,1490
-461.26658821703614,1587
-458.66822428996414,1528
-456.07057792985,1570
-453.4736489546475,1616
-450.877437182231,1582
-448.28194243039627,1571
-445.68716451686,1555
-443.09310325926003,1562
-440.49975847515555,1464
-437.9071299820263,1461
-435.31521759727354,1522
-432.72402113821954,1491
-430.13354042210767,1483
-427.5437752661022,1543
-424.95472548728867,1492
-422.36639090267386,1485
-419.7787713291855,1561
-417.1918665836721,1576
-414.60567648290385,1585
-412.0202008435715,1551
-409.4354394822874,1535
-406.8513922155845,1623
-404.26805885991723,1577
-401.685439231661,1616
-399.103533147112,1578
-396.522340422488,1595
-393.9418608739278,1598
-391.3620943174908,1522
-388.7830405691583,1615
-386.2046994448317,1439
-383.6270707603344,1497
-381.05015433141045,1360
-378.473949973725,1281
-375.8984575028645,1171
-373.32367673433623,1038
-370.74960748356875,951
-368.1762495659117,882
-365.60360279663576,801
-363.03166699093265,702
-360.4604419639154,666
-357.8899275306178,583
-355.32012350599507,561
-352.7510297049233,552
-350.1826459421999,500
-347.61497203254316,458
-345.04800779059235,470
-342.4817530309082,460
-339.91620756797226,488
-337.35137121618743,490
-334.7872437898774,478
-332.22382510328725,500
-329.66111497058273,467
-327.09911320585127,503
-324.53781962310075,502
-321.9772340362607,504
-319.4173562591816,481
-316.8581861056348,484
-314.2997233893127,509
-311.7419679238294,508
-309.1849195227194,498
-306.62857799943856,507
-304.0729431673641,516
-301.51801483979375,561
-298.963792829947,528
-296.41027695096386,543
-293.85746701590574,609
-291.3053628377552,642
-288.7539642294155,587
-286.2032710037115,582
-283.65328297338897,534
-281.1039999511146,508
-278.5554217494762,592
-276.007548180983,671
-273.4603790580651,729
-270.9139141930734,664
-268.3681533982807,674
-265.8230964858798,673
-263.27874326798565,616
-260.7350935566336,663
-258.1921471637804,691
-255.6499039013039,640
-253.10836358100266,637
-250.56752601459698,669
-248.02739101372765,607
-245.48795838995704,639
-242.94922795476816,704
-240.41119951956557,722
-237.8738728956746,716
-235.33724789434166,838
-232.80132432673452,731
-230.2661020039418,642
-227.73158073697357,679
-225.19776033676033,666
-222.66464061415422,782
-220.1322213799284,752
-217.60050244477725,698
-215.06948361931552,713
-212.53916471408013,691
-210.00954553952818,720
-207.48062590603843,768
-204.9524056239104,758
-202.4248845033651,761
-199.8980623545441,815
-197.37193898751036,796
-194.84651421224817,768
-192.32178783866232,713
-189.79775967657952,728
-187.27442953574644,756
-184.7517972258321,789
-182.2298625564256,787
-179.7086253370378,718
-177.18808537710026,774
-174.66824248596583,761
-172.14909647290835,848
-169.6306471471229,899
-167.11289431772548,839
-164.59583779375328,918
-162.07947738416453,1031
-159.5638128978386,1049
-157.04884414357605,905
-154.53457093009854,961
-152.02099306604828,958
-149.50811035998936,999
-146.99592262040665,1034
-144.48442965570587,970
-141.97363127421409,1040
-139.46352728417958,1212
-136.95411749377126,1310
-134.44540171107985,1255
-131.93737974411636,1063
-129.43005140081357,992
-126.92341648902493,1075
-124.41747481652521,1590
-121.91222619101006,2079
-119.40767042009657,2306
-116.90380731132257,2261
-114.40063667214702,2228
-111.8981583099503,2155
-109.3963720320337,2278
-106.89527764561933,2320
-104.39487495785067,2932
-101.89516377579241,3235
-99.39614390642998,3133
-96.89781515667039,2597
-94.40017733334128,2453
-91.90323024319173,3086
-89.40697369289148,4153
-86.91140748903172,4935
-84.41653143812482,5637
-81.92234534660395,5912
-79.42884902082358,5177
-76.93604226705907,3786
-74.4439248915071,3803
-71.95249670028534,5306
-69.46175749943245,8575
-66.97170709490854,12075
-64.48234529259423,13195
-61.99367189829195,11678
-59.50568671772464,9947
-57.01838955653636,7863
-54.53178022029283,7681
-52.045858514480074,8178
-49.560624244506016,8197
-47.07607721569923,8514
-44.59221723330904,10234
-42.10904410250669,11312
-39.62655762838392,12329
-37.14475761595372,14012
-34.66364387015028,15244
-32.18321619582866,14206
-29.70347439776515,12441
-27.224418280657005,12605
-24.74604764912317,12292
-22.26836230770266,15589
-19.7913620608565,27413
-17.315046712966478,49541
-14.83941606833514,65039
-12.36446993118659,65039
-9.89020810566592,65039
-7.416630395839093,65039
-4.94373660569363,65039
-2.471526539137585,65039
-6.821210263296962E-13,65039
2.47084320796705,65039
4.941003281093458,65039
7.410480415786196,65039
9.879274808531363,65039
12.347386655893956,65039
14.814816154518212,65039
17.28156350112681,65039
19.74762889252179,65039
22.21301252558385,65039
24.67771459727237,20804
27.141735304626195,4261
29.605074844762612,2693
32.06773341487792,2357
34.52971121224755,2120
36.99100843422559,2096
39.45162527824516,2548
41.91156194181792,2333
44.370818622535126,2097
46.82939551806646,1657
49.287292826160524,1802
51.74451074464503,1891
54.201049471426245,2344
56.65690920448981,2629
59.112090141899785,2012
61.56659248179983,1323
64.02041642241159,1134
66.4735621620365,1120
68.92602989905402,1302
71.37781983192338,1268
73.82893215918205,1419
76.27936707944684,1424
78.72912479141326,1529
81.17820549385567,1311
83.62660938562783,1191
86.07433666566146,1390
88.5213875329681,1389
90.96776218663751,1311
93.41346082583925,1193
95.85848364982041,1129
98.30283085790859,1187
100.7465026495089,1293
103.18949922410604,1396
105.63182078126385,1362
108.07346752062438,1399
110.51443964190923,1379
112.95473734491827,1217
115.39436082953114,958
117.83331029570547,1100
120.27158594347827,1471
122.7091879729652,1648
125.1461165843615,1683
127.58237197794062,1384
130.01795435405518,1067
132.4528639131364,1017
134.88710085569494,997
137.32066538231982,1007
139.75355769367923,1074
142.1857779905207,1013
144.61732647366978,1049
147.04820334403132,931
149.47840880258934,914
151.90794305040674,1046
154.33680628862487,1331
156.76499871846443,1460
159.19252054122433,1624
161.61937195828352,1719
164.04555317109896,1786
166.47106438120693,1991
168.89590579022217,2242
171.320077599839,2476
173.7435800118302,2565
176.16641322804742,2513
178.58857745042144,2744
181.01007288096173,2760
183.43089972175687,2857
185.85105817497413,2826
188.27054844285988,2942
190.6893707277394,3012
193.10752523201643,3191
195.5250121581745,3288
197.9418317087751,3376
200.3579840864594,3283
202.7734694939469,3336
205.18828813403627,3283
207.6024402096051,3425
210.01592592360964,3488
212.42874547908548,3386
214.84089907914665,3355
217.2523869269868,3367
219.66320922587727,3342
222.0733661791695,3417
224.48285799029293,3403
226.8916848627572,3395
229.29984700014882,3381
231.7073446061355,3463
234.11417788446204,3392
236.520347038953,3515
238.92585227351185,3560
241.33069379212054,3687
243.73487179884035,3642
246.1383864978112,3769
248.541238093252,3699
250.9434267894609,3542
253.34495279081432,3654
255.74581630176783,3627
258.1460175268563,3632
260.54555667069314,3608
262.9444339379703,3490
265.3426495334594,3561
267.7402036620107,3408
270.1370965285529,3435
272.53332833809407,3542
274.9288992957214,3348
277.32380960660055,3329
279.718059475976,3206
282.1116491091717,3169
284.5045787115897,3162
286.89684848871195,3140
289.2884586460981,3194
291.67940938938807,3211
294.0697009242996,3158
296.4593334566299,3214
298.84830719225477,3217
301.23662233712923,3165
303.6242790972866,3200
306.01127767884,3106
308.39761828798066,3017
310.78330113097934,3191
313.16832641418534,3010
315.5526943440269,3017
317.9364051270112,2947
320.3194589697242,2971
322.70185607883093,2977
325.0835966610754,3007
327.4646809232805,2954
329.8451090723478,2989
332.2248813152577,2990
334.6039978590701,2884
336.9824589109231,2972
339.36026467803447,2886
341.7374153677,2842
344.113911187295,2836
346.48975234427337,2853
348.8649390461686,2845
351.2394715005918,2966
353.61334991523415,2884
355.9865744978655,2887
358.35914545633375,2792
360.73106299856715,2747
363.10232733257146,2745
365.47293866643247,2818
367.84289720831396,2831
370.2122031664593,2881
372.5808567491905,2729
374.9488581649083,2723
377.31620762209275,2725
379.6829053293021,2746
382.0489514951745,2710
384.4143463284262,2717
386.7790900378528,2747
389.14318283232853,2721
391.50662492080653,2718
393.86941651231916,2655
396.23155781597745,2761
398.5930490409713,2729
400.9538903965696,2763
403.3140820921202,2775
405.6736243370498,2693
408.03251734086336,2772
410.3907613131465,2622
412.74835646356166,2597
415.10530300185144,2650
417.4616011378372,2695
419.81725108141893,2695
422.1722530425758,2692
424.5266072313656,2536
426.880313857925,2675
429.2333731324701,2650
431.58578526529516,2665
433.9375504667738,2618
436.2886689473588,2650
438.63914091758113,2498
440.9889665880513,2656
443.33814616945835,2589
445.68667987257015,2556
448.03456790823395,2559
450.3818104873759,2579
452.72840782100013,2575
455.07436012019105,2544
457.41966759611057,2616
459.7643304600007,2585
462.10834892318155,2554
464.4517231970525,2563
466.79445349309174,2544
469.1365400228566,2606
471.4779829979826,2582
473.81878263018564,2583
476.15893913125876,2569
478.4984527130747,2652
480.8373235875855,2567
483.17555196682144,2725
485.5131380628919,2665
487.8500820879857,2794
490.1863842543697,2806
492.52204477439034,2949
494.8570638604725,3089
497.1914417251204,3369
499.52517858091653,3525
501.85827464052306,3748
504.19073011668036,3849
506.5225452222086,3884
508.85372017000566,3796
511.18425517304956,3738
513.514150444396,3765
515.8434061971808,4247
518.1720226446176,4932
520.4999999999999,5090
522.8273384766991,4932
525.1540382881666,4641
527.480099647932,4258
529.8055227696037,3694
532.1303078668694,3320
534.454455153496,2992
536.777964843328,2803
539.1008371502907,2807
541.4230722883866,2654
543.744670471698,2655
546.0656319143858,2668
548.3859568306899,2663
550.7056454349294,2629
553.0246979415016,2610
555.3431145648834,2584
557.6608955196306,2604
559.978041020377,2541
562.2945512818363,2638
564.6104265188006,2690
566.9256669461412,2685
569.2402727788082,2629
571.5542442318302,2700
573.8675815203156,2618
576.1802848594508,2630
578.4923544645015,2590
580.8037905508126,2695
583.114593333807,2601
585.4247630289875,2699
587.7342998519354,2649
590.0432040183106,2631
592.3514757438526,2747
594.6591152443794,2744
596.9661227357875,2713
599.2724984340531,2668
601.578242555231,2643
603.8833553154542,2652
606.1878369309362,2722
608.4916876179676,2702
610.7949075929192,2640
613.0974970722403,2698
615.3994562724587,2692
617.7007854101818,2720
620.0014847020951,2687
622.3015543649641,2700
624.6009946156324,2756
626.8998056710224,2779
629.1979877481361,2736
631.4955410640538,2826
633.7924658359349,2746
636.0887622810175,2764
638.3844306166192,2711
640.6794710601358,2658
642.9738838290426,2747
645.2676691408932,2800
647.5608272133207,2841
649.853358264037,2746
652.1452625108324,2826
654.4365401715764,2785
656.7271914642178,2815
659.0172166067838,2798
661.3066158173809,2871
663.5953893141935,2746
665.8835373154867,2795
668.1710600396028,2698
670.4579577049639,2803
672.7442305300709,2832
675.0298787335033,2890
677.3149025339197,2787
679.599302150058,2798
681.8830778007342,2920
684.1662297048437,2841
686.4487580813608,2754
688.7306631493387,2838
691.0119451279091,2688
693.2926042362834,2811
695.5726406937516,2747
697.8520547196814,2774
700.1308465335215,2930
702.4090163547982,2805
704.6865644031171,2818
706.9634908981619,2764
709.2397960596965,2781
711.5154801075631,2843
713.7905432616823,2776
716.0649857420548,2808
718.3388077687592,2836
720.612009561953,2898
722.8845913418733,2769
725.1565533288352,2846
727.427895743234,2879
729.6986188055427,2901
731.9687227363137,2788
734.238207756178,2794
736.5070740858458,2803
738.7753219461066,2871
741.0429515578281,2778
743.3099631419569,2912
745.5763569195191,2827
747.8421331116193,2735
750.1072919394409,2791
752.3718336242467,2800
754.6357583873777,2782
756.8990664502545,2762
759.1617580343765,2786
761.423833361321,2743
763.6852926527457,2857
765.9461361303862,2905
768.206364016058,2841
770.4659765316536,2887
772.7249738991469,2707
774.9833563405886,2864
777.2411240781092,2931
779.4982773339183,2877
781.7548163303044,2801
784.010741289634,2873
786.2660524343538,2899
788.5207499869881,2880
790.7748341701416,2806
793.0283052064964,2730
795.2811633188143,2869
797.5334087299362,2815
799.7850416627813,2889
802.0360623403484,2808
804.2864709857143,2768
806.5362678220353,2876
808.7854530725468,2805
811.0340269605625,2842
813.2819897094754,2809
815.5293415427581,2784
817.77608268396,2756
820.0222133567116,2824
822.2677337847211,2776
824.5126441917765,2815
826.7569448017433,2889
829.0006358385675,2803
831.2437175262731,2774
833.4861900889629,2716
835.7280537508192,2724
837.9693087361026,2904
840.2099552691533,2857
842.4499935743896,2797
844.689423876309,2857
846.9282463994886,2795
849.1664613685833,2823
851.4040690083276,2790
853.6410695435349,2800
855.877463199097,2830
858.1132501999847,2817
860.3484307712487,2788
862.5830051380175,2762
864.8169735254988,2797
867.0503361589791,2752
869.2830932638243,2917
871.5152450654786,2810
873.7467917894654,2718
875.9777336613873,2890
878.2080709069252,2815
880.4378037518389,2841
882.666932421968,2911
884.8954571432301,2778
887.1233781416219,2822
889.3506956432192,2792
891.5774098741766,2827
893.803521060728,2864
896.0290294291852,2843
898.2539352059397,2803
900.4782386174619,2749
902.7019398903011,2851
904.925039251085,2881
907.147536926521,2841
909.3694331433943,2722
911.59072812857,2753
913.8114221089921,2779
916.0315153116827,2687
918.2510079637437,2752
920.4699002923547,2736
922.6881925247761,2761
924.905884888345,2682
927.1229776104793,2775
929.3394709186747,2698
931.555365040506,2752
933.7706602036275,2811
935.9853566357709,2763
938.1994545647489,2782
940.4129542184515,2715
942.6258558248488,2740
944.8381596119883,2750
947.0498658079974,2768
949.2609746410825,2737
951.4714863395287,2681
953.6814011316998,2763
955.8907192460387,2761
958.0994409110671,2757
960.3075663553858,2731
962.5150958076741,2715
964.7220294966913,2721
966.928367651274,2729
969.1341105003388,2771
971.3392582728806,2661
973.5438111979742,2651
975.747769504772,2775
977.9511334225061,2732
980.153903180487,2633
982.3560790081052,2691
984.5576611348289,2666
986.7586497902058,2578
988.9590452038618,2624
991.158847605503,2652
993.3580572249133,2614
995.5566742919558,2651
997.7546990365728,2531
999.952131688785,2519
1002.1489724786926,2567
1004.3452216364743,2534
1006.5408793923874,2606
1008.7359459767691,2567
1010.9304216200343,2541
1013.1243065526781,2524
1015.3176010052733,2639
1017.510305208472,2476
1019.7024193930064,2501
1021.8939437896848,2547
1024.0848786293977,2537
1026.2752241431122,2531
1028.4649805618747,2503
1030.6541481168115,2513
1032.842727039127,2481
1035.0307175601051,2527
1037.2181199111074,2410
1039.4049343235752,2479
1041.591161029029,2460
1043.7768002590683,2452
1045.9618522453698,2542
1048.1463172196918,2473
1050.3301954138697,2581
1052.513487059818,2522
1054.69619238953,2554
1056.8783116350783,2500
1059.0598450286152,2509
1061.2407928023704,2541
1063.4211551886528,2565
1065.6009324198508,2554
1067.780124728432,2569
1069.9587323469414,2510
1072.1367555080046,2581
1074.314194444325,2487
1076.4910493886855,2524
1078.667320573947,2573
1080.843008233051,2495
1083.0181125990161,2550
1085.1926339049414,2462
1087.3665723840027,2604
1089.5399282694575,2539
1091.7127017946405,2535
1093.8848931929647,2478
1096.0565026979243,2523
1098.2275305430899,2473
1100.3979769621128,2434
1102.567842188722,2488
1104.737126456726,2464
1106.9058300000124,2456
1109.0739530525475,2476
1111.2414958483764,2405
1113.4084586216231,2527
1115.5748416064907,2409
1117.7406450372605,2489
1119.9058691482942,2464
1122.0705141740304,2483
1124.2345803489884,2541
1126.3980679077658,2487
1128.5609770850388,2496
1130.7233081155623,2549
1132.8850612341707,2456
1135.0462366757774,2557
1137.2068346753745,2492
1139.3668554680326,2469
1141.526299288901,2470
1143.68516637321,2568
1145.8434569562655,2568
1148.001171273455,2492
1150.158309560244,2400
1152.3148720521767,2447
1154.470858984876,2562
1156.626270594044,2536
1158.7811071154629,2492
1160.9353687849912,2490
1163.089055838569,2465
1165.242168512213,2533
1167.3947070420209,2418
1169.5466716641677,2377
1171.6980626149075,2462
1173.8488801305748,2457
1175.9991244475814,2538
1178.1487958024186,2494
1180.2978944316555,2518
1182.4464205719428,2542
1184.5943744600072,2463
1186.7417563326567,2526
1188.8885664267755,2363
1191.0348049793297,2382
1193.1804722273619,2437
1195.325568407995,2416
1197.4700937584303,2453
1199.614048515948,2457
1201.7574329179074,2430
1203.900247201746,2432
1206.042491604982,2421
1208.1841663652099,2354
1210.3252717201053,2466
1212.465807907422,2446
1214.6057751649923,2500
1216.7451737307279,2437
1218.8840038426192,2431
1221.0222657387353,2472
1223.1599596572241,2427
1225.2970858363137,2483
1227.4336445143094,2361
1229.5696359295966,2518
1231.705060320639,2426
1233.8399179259786,2502
1235.9742089842384,2468
1238.107933734118,2433
1240.2410924143974,2405
1242.373685263935,2443
1244.5057125216676,2378
1246.6371744266116,2471
1248.7680712178621,2446
1250.898403134593,2465
1253.028170416058,2403
1255.1573733015875,2423
1257.2860120305932,2417
1259.4140868425648,2463
1261.54159797707,2433
1263.6685456737569,2508
1265.7949301723515,2464
1267.9207517126597,2438
1270.046010534565,2433
1272.1707068780306,2431
1274.2948409830983,2399
1276.4184130898889,2459
1278.541423438603,2596
1280.6638722695184,2494
1282.785759822993,2425
1284.9070863394636,2430
1287.0278520594447,2473
1289.1480572235314,2465
1291.2677020723963,2437
1293.3867868467923,2490
1295.5053117875495,2536
1297.623277135579,2460
1299.740683131868,2432
1301.8575300174857,2502
1303.973818033578,2480
1306.0895474213703,2500
1308.2047184221678,2595
1310.3193312773528,2451
1312.4333862283888,2460
1314.5468835168163,2569
1316.659823384255,2499
1318.7722060724045,2538
1320.8840318230418,2507
1322.9953008780249,2445
1325.1060134792888,2499
1327.2161698688478,2560
1329.3257702887959,2538
1331.4348149813054,2522
1333.5433041886276,2442
1335.6512381530933,2417
1337.7586171171101,2459
1339.8654413231675,2442
1341.9717110138317,2436
1344.0774264317488,2387
1346.1825878196432,2395
1348.2871954203192,2449
1350.3912494766587,2513
1352.4947502316231,2532
1354.5976979282532,2398
1356.7000928096686,2400
1358.8019351190665,2542
1360.9032250997243,2518
1363.0039629949988,2464
1365.1041490483235,2511
1367.2037835032133,2488
1369.3028666032606,2543
1371.401398592137,2428
1373.4993797135926,2470
1375.5968102114575,2419
1377.6936903296396,2434
1379.7900203121262,2451
1381.8858004029835,2484
1383.9810308463561,2483
1386.075711886469,2477
1388.1698437676241,2492
1390.2634267342032,2475
1392.356461030667,2577
1394.4489469015557,2470
1396.5408845914872,2490
1398.6322743451592,2473
1400.7231164073469,2503
1402.813411022907,2578
1404.903158436773,2561
1406.9923588939578,2573
1409.0810126395531,2626
1411.1691199187303,2538
1413.2566809767386,2638
1415.343696058907,2540
1417.4301654106425,2649
1419.5160892774315,2631
1421.6014679048399,2562
1423.6863015385125,2521
1425.7705904241707,2547
1427.8543348076178,2668
1429.9375349347342,2620
1432.0201910514802,2619
1434.102303403894,2667
1436.1838722380944,2724
1438.2648978002767,2729
1440.3453803367174,2791
1442.4253200937692,2783
1444.5047173178677,2650
1446.5835722555234,2798
1448.6618851533285,2818
1450.739656257952,2768
1452.8168858161434,2865
1454.8935740747306,2916
1456.96972128062,2979
1459.045327680797,2954
1461.120393522327,2966
1463.1949190523528,3049
1465.2689045180973,3030
1467.3423501668608,2949
1469.415256246024,3027
1471.4876230030463,3158
1473.559450685465,3236
1475.6307395408976,3179
1477.7014898170391,3252
1479.771701761665,3289
1481.8413756226287,3307
1483.9105116478618,3311
1485.9791100853772,3428
1488.0471711832643,3415
1490.1146951896926,3447
1492.1816823529098,3537
1494.2481329212433,3423
1496.3140471430984,3508
1498.3794252669609,3625
1500.4442675413939,3579
1502.5085742150404,3525
1504.572345536622,3617
1506.6355817549388,3674
1508.6982831188702,3611
1510.7604498773744,3717
1512.8220822794883,3685
1514.8831805743293,3743
1516.9437450110909,3874
1519.003775839048,3810
1521.0632733075522,3873
1523.1222376660367,3814
1525.1806691640113,3879
1527.2385680510652,3984
1529.2959345768668,3928
1531.3527689911643,3941
1533.4090715437833,3989
1535.4648424846291,4058
1537.5200820636855,4131
1539.5747905310159,4191
1541.6289681367616,4156
1543.6826151311434,4144
1545.7357317644614,4318
1547.7883182870937,4263
1549.8403749494987,4300
1551.8919020022113,4480
1553.9428996958477,4466
1555.9933682811015,4502
1558.0433080087469,4620
1560.0927191296346,4589
1562.1416018946961,4592
1564.1899565549415,4672
1566.2377833614592,4668
1568.2850825654164,4685
1570.3318544180606,4467
1572.3780991707158,4336
1574.423817074788,4360
1576.4690083817595,4251
1578.5136733431923,4063
1580.5578122107272,4122
1582.601425236085,3859
1584.6445126710646,3826
1586.6870747675434,3598
1588.7291117774776,3505
1590.7706239529034,3478
1592.8116115459347,3379
1594.8520748087658,3277
1596.8920139936686,3251
1598.9314293529933,3162
1600.9703211391711,3127
1603.008689604711,3067
1605.0465350022005,2974
1607.0838575843068,2911
1609.1206576037753,2924
1611.1569353134305,2973
1613.1926909661765,2910
1615.2279248149953,2883
1617.2626371129481,2901
1619.2968281131757,2805
1621.3304980688963,2790
1623.3636472334088,2740
1625.39627586009,2691
1627.428384202396,2695
1629.459972513861,2720
1631.4910410480993,2677
1633.5215900588028,2707
1635.551619799744,2675
1637.5811305247717,2627
1639.6101224878166,2676
1641.6385959428862,2588
1643.6665511440683,2555
1645.693988345528,2653
1647.7209078015112,2570
1649.7473097663405,2594
1651.7731944944203,2513
1653.7985622402307,2694
1655.823413258333,2647
1657.847747803366,2670
1659.8715661300494,2585
1661.8948684931793,2552
1663.9176551476316,2503
1665.9399263483624,2586
1667.9616823504057,2475
1669.982923408873,2542
1672.0036497789574,2472
1674.0238617159293,2514
1676.043559475138,2522
1678.0627433120121,2500
1680.081413482059,2515
1682.0995702408654,2509
1684.117213844096,2507
1686.134344547495,2468
1688.1509626068864,2438
1690.1670682781705,2497
1692.182661817329,2473
1694.1977434804217,2460
1696.2123135235875,2430
1698.226372203043,2397
1700.2399197750851,2460
1702.2529564960905,2452
1704.2654826225112,2446
1706.277498410882,2464
1708.2890041178139,2367
1710.2999999999988,2454
1712.3104863142066,2380
1714.3204633172854,2337
1716.329931266163,2435
1718.3388904178469,2450
1720.3473410294214,2348
1722.3552833580516,2403
1724.3627176609807,2412
1726.3696441955308,2393
1728.3760632191033,2532
1730.3819749891782,2308
1732.3873797633146,2392
1734.3922777991502,2349
1736.3966693544012,2330
1738.4005546868639,2382
1740.4039340544127,2309
1742.406807715001,2321
1744.4091759266616,2375
1746.4110389475054,2285
1748.4123970357223,2347
1750.413250449582,2289
1752.4135994474318,2279
1754.4134442876993,2427
1756.4127852288902,2318
1758.4116225295893,2279
1760.4099564484595,2233
1762.407787244244,2293
1764.405115175764,2296
1766.4019405019203,2299
1768.3982634816916,2297
1770.3940843741357,2274
1772.3894034383907,2213
1774.3842209336717,2267
1776.378537119274,2274
1778.372352254571,2248
1780.3656665990156,2293
1782.3584804121397,2220
1784.3507939535534,2290
1786.3426074829463,2265
1788.3339212600863,2271
1790.3247355448211,2248
1792.3150505970766,2258
1794.3048666768573,2273
1796.2941840442477,2231
1798.2830029594106,2227
1800.2713236825884,2226
1802.2591464741004,2262
1804.2464715943465,2263
1806.2332993038058,2256
1808.2196298630352,2263
1810.2054635326708,2249
1812.190800573428,2274
1814.175641246101,2229
1816.1599858115628,2273
1818.1438345307652,2341
1820.127187664738,2225
1822.1100454745924,2285
1824.092408221516,2226
1826.0742761667766,2288
1828.055649571721,2280
1830.0365286977735,2308
1832.0169138064398,2288
1833.9968051593014,2262
1835.9762030180214,2255
1837.9551076443408,2305
1839.9335193000788,2276
1841.9114382471344,2321
1843.888864747485,2286
1845.8657990631878,2279
1847.842241456378,2210
1849.8181921892697,2237
1851.7936515241558,2315
1853.7686197234098,2224
1855.7430970494815,2261
1857.7170837649014,2278
1859.6905801322787,2304
1861.6635864143004,2270
1863.6361028737338,2323
1865.608129773424,2354
1867.5796673762961,2336
1869.5507159453537,2278
1871.521275743678,2303
1873.4913470344313,2341
1875.4609300808534,2345
1877.4300251462632,2353
1879.3986324940588,2346
1881.366752387717,2447
1883.3343850907936,2378
1885.3015308669228,2355
1887.268189979819,2404
1889.2343626932739,2384
1891.2000492711595,2500
1893.1652499774254,2471
1895.1299650761011,2381
1897.0941948312952,2322
1899.0579395071945,2435
1901.0211993680641,2444
1902.98397467825,2464
1904.9462657021745,2411
1906.9080727043415,2351
1908.869395949332,2419
1910.8302357018065,2482
1912.790592226504,2390
1914.7504657882428,2376
1916.7098566519212,2398
1918.6687650825133,2491
1920.6271913450764,2489
1922.5851357047422,2369
1924.5425984267245,2461
1926.499579776314,2510
1928.4560800188833,2413
1930.4120994198802,2391
1932.367638244833,2394
1934.32269675935,2424
1936.2772752291175,2464
1938.231373919899,2380
1940.1849930975404,2505
1942.1381330279637,2455
1944.0907939771696,2439
1946.0429762112412,2455
1947.9946799963363,2445
1949.9459055986945,2408
1951.896653284633,2556
1953.8469233205478,2469
1955.7967159729142,2493
1957.7460315082863,2472
1959.6948701932974,2482
1961.6432322946594,2434
1963.5911180791632,2481
1965.5385278136787,2458
1967.4854617651545,2534
1969.4319202006182,2412
1971.377903387176,2459
1973.3234115920136,2540
1975.268445082395,2547
1977.2130041256642,2514
1979.1570889892423,2464
1981.1006999406304,2504
1983.04383724741,2498
1984.986501177238,2487
1986.928691997853,2489
1988.8704099770712,2420
1990.811655382789,2528
1992.7524284829801,2526
1994.692729545698,2441
1996.6325588390755,2494
1998.5719166313224,2461
2000.5108031907307,2464
2002.4492187856677,2489
2004.387163684583,2443
2006.3246381560011,2418
2008.2616424685298,2433
2010.1981768908527,2470
2012.1342416917332,2411
2014.069837140014,2454
2016.0049635046162,2384
2017.9396210545406,2459
2019.8738100588666,2404
2021.8075307867502,2463
2023.740783507431,2353
2025.6735684902228,2409
2027.6058860045214,2443
2029.5377363198004,2478
2031.4691197056118,2390
2033.4000364315875,2420
2035.3304867674374,2463
2037.260470982952,2356
2039.189989347998,2473
2041.1190421325232,2415
2043.047629606554,2409
2044.9757520401945,2418
2046.9034097036288,2355
2048.8306028671195,2375
2050.7573318010086,2383
2052.683596775716,2404
2054.609398061742,2387
2056.5347359296647,2373
2058.4596106501403,2316
2060.384022493906,2464
2062.3079717317764,2400
2064.231458634646,2459
2066.1544834734873,2388
2068.077046519352,2357
2069.99914804337,2273
2071.9207883167524,2404
2073.8419676107865,2391
2075.7626861968406,2331
2077.6829443463607,2407
2079.6027423308715,2331
2081.522080421977,2341
2083.440958891362,2332
2085.359378010786,2313
2087.2773380520907,2382
2089.194839287196,2307
2091.111881988101,2341
2093.0284664268825,2398
2094.9445928756973,2336
2096.86026160678,2346
2098.775472892446,2311
2100.690227005088,2309
2102.604524217178,2333
2104.5183648012676,2294
2106.431749029985,2344
2108.34467717604,2347
2110.2571495122206,2309
2112.169166311393,2251
2114.080727846503,2376
2115.9918343905747,2302
2117.902486216711,2327
2119.8126835980956,2333
2121.722426807987,2320
2123.6317161197285,2288
2125.5405518067364,2263
2127.448934142509,2359
2129.356863400624,2330
2131.264339854737,2342
2133.1713637785815,2276
2135.077935445972,2301
2136.9840551308002,2314
2138.889723107037,2245
2140.7949396487334,2307
2142.699705030018,2340
2144.6040195250994,2296
2146.507883408264,2227
2148.4112969538774,2301
2150.3142604363848,2309
2152.2167741303097,2284
2154.1188383102535,2309
2156.0204532508997,2284
2157.9216192270064,2247
2159.822336513414,2270
2161.7226053850413,2268
2163.622426116884,2363
2165.5217989840185,2327
2167.4207242616,2258
2169.319202224862,2299
2171.2172331491165,2307
2173.1148173097563,2282
2175.0119549822507,2264
2176.90864644215,2245
2178.8048919650823,2359
2180.7006918267534,2301
2182.596046302952,2247
2184.4909556695407,2246
2186.3854202024645,2310
2188.279440177746,2240
2190.173015871487,2305
2192.066147559868,2298
2193.958835519149,2318
2195.851080025667,2207
2197.7428813558417,2293
2199.6342397861667,2295
2201.5251555932186,2257
2203.415629053651,2342
2205.3056604441986,2272
2207.19525004167,2352
2209.084398122958,2320
2210.9731049650327,2280
2212.861370844941,2289
2214.749196039812,2304
2216.636580826851,2317
2218.523525483344,2344
2220.410030286655,2303
2222.296095514226,2336
2224.1817214435805,2370
2226.066908352319,2316
2227.951656518121,2360
2229.835966218746,2276
2231.71983773203,2369
2233.6032713358913,2356
2235.486267308324,2328
2237.3688259274036,2271
2239.2509474712824,2340
2241.132632218193,2308
2243.013880446447,2296
2244.8946924344323,2395
2246.7750684606203,2438
2248.6550088035574,2266
2250.534513741871,2284
2252.413583554265,2298
2254.292218519526,2302
2256.170418916517,2289
2258.0481850241786,2419
2259.925517121534,2377
2261.8024154876825,2420
2263.678880401803,2327
2265.5549121431536,2387
2267.430510991071,2363
2269.305677224971,2400
2271.180411124348,2398
2273.0547129687766,2338
2274.9285830379076,2303
2276.8020216114737,2317
2278.6750289692845,2339
2280.5476053912294,2387
2282.4197511572766,2438
2284.2914665474727,2298
2286.162751841943,2446
2288.0336073208937,2405
2289.904033264608,2363
2291.774029953448,2403
2293.6435976678554,2425
2295.5127366883517,2385
2297.381447295534,2458
2299.2497297700825,2372
2301.1175843927526,2401
2302.9850114443825,2324
2304.852011205885,2387
2306.7185839582553,2331
2308.5847299825664,2278
2310.4504495599676,2239
2312.3157429716925,2315
2314.1806104990483,2327
2316.0450524234247,2313
2317.9090690262888,2339
2319.772660589186,2347
2321.635827393742,2368
2323.498569721661,2342
2325.3608878547248,2315
2327.2227820747967,2302
2329.0842526638157,2328
2330.945299903803,2301
2332.805924076857,2371
2334.6661254651535,2387
2336.525904350951,2342
2338.3852610165827,2302
2340.244195744464,2311
2342.102708817088,2407
2343.9608005170253,2340
2345.8184711269287,2340
2347.675720929526,2383
2349.532550207628,2387
2351.38895924412,2358
2353.24494832197,2468
2355.100517724223,2400
2356.955667734004,2343
2358.810398634514,2478
2360.664710709037,2435
2362.5186042409337,2418
2364.3720795136437,2363
2366.225136810686,2455
2368.0777764156583,2444
2369.929998612237,2452
2371.7818036841777,2406
2373.633191915315,2377
2375.484163589562,2441
2377.3347189909114,2395
2379.184858403434,2497
2381.03458211128,2416
2382.8838903986775,2413
2384.732783549936,2399
2386.5812618494406,2385
2388.4293255816588,2459
2390.2769750311327,2407
2392.1242104824883,2465
2393.971032220427,2423
2395.8174405297295,2526
2397.6634356952563,2418
2399.509018001947,2423
2401.3541877348193,2488
2403.1989451789705,2386
2405.043290619576,2427
2406.8872243418905,2423
2408.730746631247,2434
2410.5738577730594,2335
2412.4165580528183,2393
2414.258847756095,2500
2416.100727168537,2462
2417.9421965758734,2454
2419.783256263912,2431
2421.623906518538,2441
2423.4641476257157,2397
2425.303979871491,2425
2427.143403541984,2444
2428.9824189233977,2472
2430.821026302012,2453
2432.6592259641866,2447
2434.497018196361,2443
2436.33440328505,2424
2438.171381516851,2420
2440.00795317844,2441
2441.844118556569,2446
2443.6798779380724,2411
2445.5152316098606,2445
2447.3501798589255,2415
2449.1847229723357,2454
2451.0188612372403,2475
2452.8525949408663,2438
2454.6859243705203,2393
2456.518849813587,2413
2458.3513715575314,2399
2460.183489889895,2447
2462.015205098301,2402
2463.8465174704493,2425
2465.67742729412,2397
2467.5079348571717,2443
2469.338040447542,2469
2471.1677443532476,2428
2472.9970468623833,2488
2474.825948263123,2451
2476.6544488437207,2439
2478.482548892508,2428
2480.310248697896,2409
2482.137548548374,2494
2483.9644487325118,2393
2485.790949538956,2353
2487.617051256433,2383
2489.44275417375,2393
2491.26805857979,2339
2493.0929647635157,2337
2494.917473013971,2388
2496.741583620276,2403
2498.5652968716304,2373
2500.3886130573137,2407
2502.2115324666834,2429
2504.0340553891765,2394
2505.856182114308,2368
2507.6779129316733,2380
2509.499248130945,2362
2511.3201880018764,2451
2513.140732834298,2396
2514.9608829181198,2380
2516.780638543331,2347
2518.6,2385
2520.418967578273,2346
2522.237541568376,2332
2524.0557222606144,2396
2525.8735099453706,2445
2527.6909049131086,2347
2529.507907454368,2430
2531.32451785977,2400
2533.140736420014,2431
2534.9565634258774,2404
2536.771999168218,2472
2538.5870439379714,2403
2540.4016980261526,2403
2542.2159617238544,2467
2544.02983532225,2414
2545.8433191125914,2432
2547.656413386209,2463
2549.4691184345115,2457
2551.2814345489874,2451
2553.093362021204,2387
2554.904901142808,2414
2556.716052205523,2446
2558.526815501153,2434
2560.3371913215824,2364
2562.147179958771,2412
2563.956781704761,2463
2565.7659968516705,2446
2567.5748256916986,2482
2569.3832685171224,2403
2571.1913256202984,2507
2572.9989972936614,2454
2574.806283829725,2461
2576.613185521084,2537
2578.4197026604074,2504
2580.2258355404483,2479
2582.031584454035,2477
2583.836949694077,2470
2585.6419315535613,2474
2587.4465303255533,2519
2589.2507463032002,2478
2591.0545797797245,2476
2592.8580310484303,2458
2594.6611004026995,2476
2596.463788135992,2512
2598.266094541849,2561
2600.0680199138874,2565
2601.869564545807,2491
2603.670728731383,2526
2605.4715127644704,2472
2607.2719169390048,2583
2609.071941548998,2552
2610.8715868885433,2585
2612.670853251811,2501
2614.469740933052,2562
2616.268250226594,2462
2618.0663814268455,2473
2619.864134828292,2647
2621.6615107255006,2521
2623.458509413115,2557
2625.2551311858597,2502
2627.0513763385347,2492
2628.8472451660223,2496
2630.6427379632833,2514
2632.4378550253564,2443
2634.232596647359,2454
2636.026963124488,2550
2637.8209547520187,2495
2639.6145718253065,2567
2641.407814639785,2451
2643.200683490966,2425
2644.9931786744414,2380
2646.7853004858807,2352
2648.577049221034,2460
2650.3684251757277,2313
2652.1594286458712,2368
2653.9500599274484,2394
2655.740319316525,2334
2657.5302071092437,2412
2659.3197236018286,2338
2661.10886909058,2343
2662.8976438718782,2364
2664.686048242183,2428
2666.4740824980327,2312
2668.2617469360443,2370
2670.0490418529134,2353
2671.8359675454153,2336
2673.622524310403,2262
2675.408712444811,2307
2677.1945322456495,2335
2678.979984010009,2389
2680.76506803506,2253
2682.5497846180497,2337
2684.334134056306,2271
2686.1181166472343,2240
2687.9017326883213,2301
2689.6849824771293,2287
2691.4678663113013,2287
2693.2503844885596,2356
2695.032537306705,2339
2696.8143250636167,2303
2698.5957480572542,2271
2700.3768065856534,2291
2702.1575009469316,2394
2703.937831439283,2431
2705.717798360982,2290
2707.4974020103837,2285
2709.276642685917,2314
2711.055520686095,2278
2712.834036309506,2298
2714.612189854819,2342
2716.389981620782,2329
2718.1674119062204,2356
2719.944481010041,2288
2721.721189231226,2290
2723.4975368688415,2282
2725.273524222027,2275
2727.0491515900053,2309
2728.824419272075,2318
2730.5993275676146,2359
2732.3738767760838,2411
2734.148067197016,2273
2735.921899130031,2242
2737.6953728748194,2277
2739.468488731156,2359
2741.2412469988926,2395
2743.0136479779617,2334
2744.785691968372,2328
2746.5573792702116,2330
2748.3287101836504,2288
2750.099685008934,2325
2751.870304046388,2338
2753.640567596418,2260
2755.4104759595057,2309
2757.1800294362156,2357
2758.949228327187,2277
2760.7180729331412,2310
2762.486563554877,2286
2764.254700493272,2328
2766.022484049284,2362
2767.789914523947,2397
2769.5569922183786,2326
2771.3237174337705,2370
2773.090090471394,2380
2774.8561116326036,2430
2776.6217812188274,2378
2778.3870995315756,2361
2780.1520668724356,2405
2781.9166835430747,2310
2783.6809498452394,2285
2785.444866080754,2379
2787.2084325515225,2308
2788.971649559527,2293
2790.73451740683,2370
2792.4970363955713,2342
2794.2592068279705,2436
2796.0210290063264,2384
2797.7825032330147,2411
2799.543629810493,2365
2801.304409041296,2357
2803.0648412280366,2405
2804.8249266734088,2414
2806.5846656801846,2348
2808.344058551212,2360
2810.1031055894246,2347
2811.8618070978273,2345
2813.6201633795085,2317
2815.378174737636,2350
2817.1358414754536,2427
2818.893163896285,2367
2820.6501423035334,2365
2822.4067770006814,2431
2824.1630682912883,2437
2825.9190164789957,2379
2827.6746218675207,2469
2829.429884760661,2432
2831.184805462294,2385
2832.9393842763743,2442
2834.693621506936,2379
2836.4475174580916,2377
2838.201072434034,2350
2839.954286739034,2368
2841.707160677441,2305
2843.459694553685,2436
2845.2118886722724,2421
2846.96374333779,2338
2848.7152588549034,2425
2850.4664355283567,2424
2852.217273662973,2407
2853.9677735636546,2325
2855.7179355353833,2343
2857.4677598832186,2412
2859.217246912299,2348
2860.9663969278427,2398
2862.715210235146,2330
2864.4636871395846,2253
2866.211827946614,2407
2867.9596329617652,2341
2869.7071024906536,2355
2871.4542368389684,2295
2873.20103631248,2424
2874.947501217038,2350
2876.6936318585695,2355
2878.4394285430812,2298
2880.1848915766604,2292
2881.9300212654707,2357
2883.6748179157553,2280
2885.4192818338374,2297
2887.1634133261173,2298
2888.907212699077,2297
2890.6506802592744,2352
2892.393816313348,2271
2894.1366211680142,2253
2895.8790951300693,2274
2897.621238506388,2304
2899.363051603925,2312
2901.1045347297118,2246
2902.8456881908596,2247
2904.58651229456,2270
2906.327007348081,2276
2908.067173658772,2323
2909.8070115340597,2283
2911.5465212814497,2345
2913.285703208527,2326
2915.0245576229563,2252
2916.7630848324807,2191
2918.5012851449196,2243
2920.2391588681758,2168
2921.976706310227,2195
2923.7139277791334,2295
2925.4508235830313,2291
2927.187394030137,2217
2928.923639428745,2301
2930.6595600872306,2247
2932.395156314046,2230
2934.1304284177218,2225
2935.8653767068713,2273
2937.6000014901815,2304
2939.3343030764227,2300
2941.068281774442,2328
2942.8019378931644,2247
2944.5352717415976,2236
2946.2682836288236,2330
2948.0009738640065,2210
2949.7333427563885,2228
2951.465390615289,2273
2953.1971177501086,2230
2954.9285244703265,2215
2956.6596110855,2200
2958.3903779052657,2241
2960.1208252393385,2227
2961.8509533975125,2252
2963.5807626896617,2225
2965.3102534257378,2141
2967.0394259157715,2166
2968.768280469873,2200
2970.496817398232,2179
2972.2250370111146,2225
2973.952939618869,2204
2975.6805255319196,2140
2977.4077950607707,2234
2979.134748516006,2195
2980.861386208289,2111
2982.587708448359,2181
2984.313715547037,2258
2986.039407815222,2186
2987.764785563891,2085
2989.489849104102,2168
2991.2145987469908,2231
2992.9390348037705,2161
2994.6631575857346,2175
2996.3869674042576,2137
2998.1104645707887,2186
2999.83364939686,2133
3001.5565221940783,2163
3003.2790832741334,2189
3005.0013329487924,2278
3006.7232715298996,2132
3008.4448993293804,2177
3010.166216659239,2106
3011.887223831558,2194
3013.607921158498,2158
3015.3283089522993,2146
3017.0483875252826,2150
3018.7681571898443,2108
3020.4876182584626,2185
3022.2067710436927,2161
3023.9256158581707,2180
3025.644153014609,2117
3027.362382825801,2136
3029.0803056046193,2106
3030.797921664012,2174
3032.5152313170106,2151
3034.2322348767225,2187
3035.9489326563353,2116
3037.665324969115,2125
3039.3814121284063,2162
3041.097194447633,2144
3042.812672240299,2187
3044.5278458199855,2123
3046.2427155003525,2154
3047.9572815951406,2238
3049.671544418167,2184
3051.38550428333,2140
3053.0991615046073,2174
3054.812516396051,2117
3056.5255692717974,2182
3058.2383204460575,2230
3059.9507702331257,2183
3061.662918947372,2175
3063.3747669032446,2240
3065.0863144152736,2183
3066.7975617980674,2156
3068.508509366309,2118
3070.219157434767,2151
3071.9295063182844,2100
3073.639556331785,2128
3075.3493077902704,2134
3077.058761008821,2164
3078.7679163025964,2172
3080.476773986837,2182
3082.1853343768594,2226
3083.89359778806,2158
3085.6015645359153,2278
3087.3092349359786,2243
3089.016609303884,2207
3090.7236879553434,2178
3092.4304712061476,2162
3094.136959372166,2146
3095.843152769349,2211
3097.5490517137237,2184
3099.2546565213966,2264
3100.959967508554,2242
3102.66498499146,2250
3104.3697092864577,2211
3106.0741407099695,2245
3107.778279578498,2170
3109.482126208622,2259
3111.1856809170004,2290
3112.8889440203716,2263
3114.5919158355528,2243
3116.294596679439,2265
3117.996986869006,2258
3119.6990867213062,2276
3121.4008965534726,2317
3123.102416682717,2231
3124.803647426329,2293
3126.5045891016784,2292
3128.205242026213,2341
3129.90560651746,2319
3131.605682893025,2178
3133.3054714705922,2302
3135.0049725679282,2296
3136.7041865028714,2319
3138.4031135933465,2255
3140.101754157353,2279
3141.800108512971,2276
3143.498176978357,2275
3145.1959598717494,2264
3146.8934575114636,2333
3148.5906702158954,2264
3150.2875983035183,2233
3151.9842420928853,2243
3153.680601902627,2303
3155.376678051456,2218
3157.07247085816,2279
3158.767980641609,2300
3160.463207720748,2257
3162.158152414606,2174
3163.8528150422862,2307
3165.5471959229726,2290
3167.2412953759303,2257
3168.9351137204976,2323
3170.628651276098,2332
3172.3219083622307,2332
3174.014885298474,2370
3175.707582404485,2298
3177.4000000000005,2319
3179.092138404835,2332
3180.7839979388846,2312
3182.47557892212,2309
3184.166881674594,2326
3185.8579065164386,2349
3187.5486537678626,2316
3189.2391237491547,2370
3190.9293167806827,2308
3192.6192331828934,2372
3194.3088732763117,2283
3195.998237381542,2331
3197.687325819268,2385
3199.376138910251,2331
3201.064676975334,2328
3202.7529403354347,2246
3204.4409293115523,2320
3206.1286442247647,2286
3207.816085396229,2329
3209.5032531471825,2415
3211.190147798936,2322
3212.8767696728846,2273
3214.5631190905015,2342
3216.2491963733373,2295
3217.9350018430214,2196
3219.6205358212637,2239
3221.305798629851,2199
3222.990790590651,2208
3224.6755120256103,2302
3226.359963256751,2305
3228.0441446061795,2285
3229.7280563960758,2253
3231.411698948703,2357
3233.0950725863995,2249
3234.778177631587,2246
3236.461014406761,2297
3238.1435832345005,2296
3239.8258844374595,2294
3241.507918338374,2344
3243.1896852600576,2315
3244.8711855254023,2274
3246.552419457381,2340
3248.233387379042,2317
3249.914089613516,2335
3251.59452648401,2367
3253.274698313813,2338
3254.95460542629,2276
3256.6342481448855,2254
3258.313626793125,2342
3259.9927416946084,2291
3261.6715931730196,2235
3263.3501815521176,2264
3265.0285071557437,2280
3266.706570307815,2273
3268.3843713323286,2228
3270.0619105533615,2228
3271.739188295068,2295
3273.4162048816834,2231
3275.0929606375184,2247
3276.769455886966,2269
3278.445690954498,2290
3280.1216661646613,2392
3281.797381842087,2269
3283.4728383114807,2261
3285.1480358976296,2276
3286.8229749253996,2186
3288.4976557197333,2305
3290.172078605655,2251
3291.846243908266,2255
3293.5201519527463,2252
3295.193803064357,2225
3296.8671975684374,2130
3298.5403357904024,2187
3300.21321805575,2239
3301.8858446900567,2228
3303.558216018975,2251
3305.23033236824,2184
3306.9021940636603,2305
3308.57380143113,2258
3310.2451547966184,2278
3311.916254486174,2242
3313.5871008259246,2153
3315.2576941420766,2234
3316.9280347609147,2258
3318.5981230088046,2235
3320.2679592121895,2168
3321.9375436975924,2115
3323.606876791612,2212
3325.27595882093,2163
3326.944790112305,2183
3328.6133709925753,2193
3330.2817017886573,2198
3331.949782827547,2165
3333.617614436319,2154
3335.2851969421245,2189
3336.952530672199,2236
3338.619615953853,2227
3340.286453114475,2195
3341.9530424815357,2218
3343.619384382583,2150
3345.2854791452437,2209
3346.951327097224,2198
3348.6169285663073,2260
3350.2822838803577,2165
3351.947393367319,2194
3353.61225735521,2207
3355.2768761721345,2253
3356.9412501462693,2233
3358.605379605873,2152
3360.2692648792827,2186
3361.9329062949146,2202
3363.596304181263,2157
