CollectionTime,7/10/2024 3:58:11 PM
ExposureUsed,3
CalibratedSpectrum
-962.7078968117929,1618
-959.9714848408522,1766
-957.2358232597828,1689
-954.5009119013725,1803
-951.7667505983302,1784
-949.0333391832855,1710
-946.3006774887896,1787
-943.5687653473143,1819
-940.837602591253,1804
-938.1071890529199,1781
-935.3775245645503,1703
-932.6486089583007,1816
-929.9204420662485,1861
-927.1930237203925,1818
-924.4663537526524,1853
-921.7404319948689,1746
-919.0152582788041,1836
-916.2908324361409,1815
-913.5671542984834,1864
-910.8442236973568,1706
-908.1220404642074,1808
-905.4006044304027,1807
-902.679915427231,1826
-899.959973285902,1824
-897.2407778375464,1761
-894.5223289132158,1839
-891.8046263438832,1763
-889.0876699604426,1800
-886.3714595937089,1801
-883.6559950744183,1821
-880.9412762332282,1824
-878.2273029007168,1832
-875.5140749073835,1768
-872.8015920836489,1787
-870.0898542598545,1787
-867.3788612662631,1779
-864.6686129330585,1813
-861.9591090903457,1819
-859.2503495681506,1853
-856.5423341964203,1867
-853.8350628050229,1769
-851.1285352237478,1801
-848.4227512823054,1840
-845.7177108103272,1859
-843.0134136373656,1876
-840.3098595928943,1840
-837.6070485063082,1940
-834.9049802069229,1877
-832.2036545239757,1875
-829.5030712866244,1914
-826.8032303239481,1920
-824.1041314649472,1831
-821.4057745385428,1874
-818.7081593735775,1920
-816.0112857988148,1907
-813.3151536429393,1915
-810.6197627345566,1879
-807.9251129021936,1927
-805.2312039742981,1938
-802.5380357792392,1887
-799.8456081453069,1884
-797.1539209007124,1851
-794.462973873588,1828
-791.772766891987,1921
-789.083299783884,2000
-786.3945723771743,1917
-783.7065844996748,1992
-781.0193359791231,1967
-778.3328266431781,1915
-775.6470563194197,1998
-772.9620248353489,1980
-770.2777320183878,1911
-767.5941776958798,1899
-764.9113616950891,1918
-762.2292838432011,1955
-759.5479439673222,1962
-756.8673418944801,1932
-754.1874774516235,1934
-751.5083504656222,1968
-748.8299607632671,2043
-746.15230817127,1959
-743.475392516264,2015
-740.7992136248035,1964
-738.1237713233636,1984
-735.4490654383407,1994
-732.7750957960521,2015
-730.1018622227365,1974
-727.4293645445534,2046
-724.7576025875837,2037
-722.0865761778291,2022
-719.4162851412126,2008
-716.7467293035781,1988
-714.0779084906909,2066
-711.409822528237,2006
-708.7424712418238,2073
-706.0758544569796,2076
-703.4099719991541,2055
-700.7448236937178,2076
-698.0804093659622,2046
-695.4167288411002,2072
-692.7537819442656,2056
-690.0915685005134,2051
-687.4300883348199,2068
-684.7693412720819,2095
-682.1093271371178,2061
-679.4500457546669,2050
-676.7914969493897,2070
-674.1336805458676,2103
-671.4765963686034,2084
-668.8202442420206,2209
-666.1646239904642,2113
-663.5097354382001,2123
-660.8555784094151,2122
-658.2021527282176,2102
-655.5494582186366,2055
-652.8974947046223,2171
-650.2462620100463,2086
-647.5957599587009,2140
-644.9459883742998,2154
-642.2969470804776,2176
-639.6486359007902,2190
-637.0010546587141,2123
-634.3542031776476,2112
-631.7080812809096,2186
-629.0626887917401,2195
-626.4180255333008,2177
-623.7740913286734,2189
-621.1308860008619,2224
-618.4884093727904,2141
-615.8466612673046,2182
-613.2056415071715,2155
-610.5653499150785,2110
-607.9257863136347,2216
-605.28695052537,2265
-602.6488423727357,2280
-600.0114616781036,2212
-597.3748082637674,2199
-594.7388819519412,2210
-592.1036825647604,2228
-589.4692099242818,2334
-586.8354638524829,2254
-584.2024441712624,2279
-581.5701507024403,2271
-578.9385832677575,2360
-576.3077416888759,2203
-573.6776257873787,2268
-571.0482353847704,2250
-568.4195703024757,2218
-565.7916303618415,2312
-563.164415384135,2224
-560.5379251905453,2257
-557.9121596021815,2253
-555.2871184400748,2311
-552.6628015251767,2284
-550.0392086783606,2278
-547.4163397204204,2270
-544.794194472071,2268
-542.1727727539491,2251
-539.5520743866118,2321
-536.9320991905377,2388
-534.3128469861261,2385
-531.6943175936979,2412
-529.0765108334947,2437
-526.4594265256793,2411
-523.8430644903358,2570
-521.2274245474689,2692
-518.612506517005,2641
-515.9983102187913,2667
-513.3848354725959,2729
-510.77208209810846,2770
-508.16004991493924,2815
-505.5487387426199,2911
-502.9381484006032,3056
-500.3282787082628,3087
-497.71912948489364,3075
-495.1107005497117,2973
-492.5029917218539,3018
-489.8960028203786,2839
-487.28973366426493,2808
-484.68418407241325,2734
-482.07935386364494,2587
-479.47524285670266,2560
-476.87185087025,2573
-474.2691777228715,2563
-471.66722323307334,2573
-469.0659872192821,2581
-466.4654694998459,2538
-463.86566989303384,2543
-461.26658821703614,2611
-458.66822428996414,2612
-456.07057792985,2627
-453.4736489546475,2577
-450.877437182231,2569
-448.28194243039627,2576
-445.68716451686,2563
-443.09310325926003,2486
-440.49975847515555,2559
-437.9071299820263,2522
-435.31521759727354,2482
-432.72402113821954,2622
-430.13354042210767,2569
-427.5437752661022,2535
-424.95472548728867,2529
-422.36639090267386,2506
-419.7787713291855,2604
-417.1918665836721,2520
-414.60567648290385,2695
-412.0202008435715,2602
-409.4354394822874,2652
-406.8513922155845,2653
-404.26805885991723,2674
-401.685439231661,2630
-399.103533147112,2688
-396.522340422488,2608
-393.9418608739278,2607
-391.3620943174908,2583
-388.7830405691583,2519
-386.2046994448317,2334
-383.6270707603344,2294
-381.05015433141045,2138
-378.473949973725,1979
-375.8984575028645,1833
-373.32367673433623,1650
-370.74960748356875,1506
-368.1762495659117,1267
-365.60360279663576,1162
-363.03166699093265,978
-360.4604419639154,826
-357.8899275306178,740
-355.32012350599507,639
-352.7510297049233,564
-350.1826459421999,524
-347.61497203254316,499
-345.04800779059235,513
-342.4817530309082,520
-339.91620756797226,502
-337.35137121618743,486
-334.7872437898774,504
-332.22382510328725,488
-329.66111497058273,485
-327.09911320585127,498
-324.53781962310075,496
-321.9772340362607,462
-319.4173562591816,454
-316.8581861056348,440
-314.2997233893127,454
-311.7419679238294,454
-309.1849195227194,445
-306.62857799943856,481
-304.0729431673641,489
-301.51801483979375,557
-298.963792829947,540
-296.41027695096386,488
-293.85746701590574,562
-291.3053628377552,529
-288.7539642294155,550
-286.2032710037115,554
-283.65328297338897,549
-281.1039999511146,534
-278.5554217494762,550
-276.007548180983,617
-273.4603790580651,607
-270.9139141930734,627
-268.3681533982807,600
-265.8230964858798,553
-263.27874326798565,571
-260.7350935566336,550
-258.1921471637804,574
-255.6499039013039,588
-253.10836358100266,589
-250.56752601459698,608
-248.02739101372765,570
-245.48795838995704,615
-242.94922795476816,638
-240.41119951956557,602
-237.8738728956746,643
-235.33724789434166,748
-232.80132432673452,679
-230.2661020039418,608
-227.73158073697357,577
-225.19776033676033,643
-222.66464061415422,710
-220.1322213799284,736
-217.60050244477725,661
-215.06948361931552,662
-212.53916471408013,673
-210.00954553952818,719
-207.48062590603843,735
-204.9524056239104,688
-202.4248845033651,715
-199.8980623545441,695
-197.37193898751036,779
-194.84651421224817,753
-192.32178783866232,735
-189.79775967657952,699
-187.27442953574644,754
-184.7517972258321,782
-182.2298625564256,860
-179.7086253370378,823
-177.18808537710026,786
-174.66824248596583,795
-172.14909647290835,794
-169.6306471471229,853
-167.11289431772548,798
-164.59583779375328,823
-162.07947738416453,846
-159.5638128978386,816
-157.04884414357605,874
-154.53457093009854,893
-152.02099306604828,907
-149.50811035998936,858
-146.99592262040665,737
-144.48442965570587,812
-141.97363127421409,927
-139.46352728417958,957
-136.95411749377126,902
-134.44540171107985,889
-131.93737974411636,850
-129.43005140081357,844
-126.92341648902493,1068
-124.41747481652521,1543
-121.91222619101006,1856
-119.40767042009657,1854
-116.90380731132257,1921
-114.40063667214702,1857
-111.8981583099503,1741
-109.3963720320337,1576
-106.89527764561933,1566
-104.39487495785067,1787
-101.89516377579241,2281
-99.39614390642998,2611
-96.89781515667039,2444
-94.40017733334128,2257
-91.90323024319173,2233
-89.40697369289148,2715
-86.91140748903172,4144
-84.41653143812482,5115
-81.92234534660395,4977
-79.42884902082358,4588
-76.93604226705907,4786
-74.4439248915071,8227
-71.95249670028534,13400
-69.46175749943245,19139
-66.97170709490854,21563
-64.48234529259423,20709
-61.99367189829195,17217
-59.50568671772464,13334
-57.01838955653636,9377
-54.53178022029283,8541
-52.045858514480074,10225
-49.560624244506016,12948
-47.07607721569923,13577
-44.59221723330904,14718
-42.10904410250669,15427
-39.62655762838392,16059
-37.14475761595372,15313
-34.66364387015028,15642
-32.18321619582866,14250
-29.70347439776515,11953
-27.224418280657005,11096
-24.74604764912317,11113
-22.26836230770266,15438
-19.7913620608565,26153
-17.315046712966478,44532
-14.83941606833514,60905
-12.36446993118659,65039
-9.89020810566592,65039
-7.416630395839093,65039
-4.94373660569363,65039
-2.471526539137585,65039
-6.821210263296962E-13,65039
2.47084320796705,65039
4.941003281093458,65039
7.410480415786196,65039
9.879274808531363,65039
12.347386655893956,65039
14.814816154518212,65039
17.28156350112681,65039
19.74762889252179,65039
22.21301252558385,65039
24.67771459727237,20572
27.141735304626195,4461
29.605074844762612,3071
32.06773341487792,2523
34.52971121224755,1862
36.99100843422559,1988
39.45162527824516,2264
41.91156194181792,1930
44.370818622535126,1711
46.82939551806646,1572
49.287292826160524,1513
51.74451074464503,1999
54.201049471426245,2375
56.65690920448981,2085
59.112090141899785,1537
61.56659248179983,1228
64.02041642241159,1220
66.4735621620365,1246
68.92602989905402,1115
71.37781983192338,1075
73.82893215918205,1165
76.27936707944684,1247
78.72912479141326,1211
81.17820549385567,1336
83.62660938562783,1592
86.07433666566146,1507
88.5213875329681,1275
90.96776218663751,1055
93.41346082583925,949
95.85848364982041,934
98.30283085790859,1086
100.7465026495089,1178
103.18949922410604,1265
105.63182078126385,1212
108.07346752062438,1102
110.51443964190923,1055
112.95473734491827,957
115.39436082953114,965
117.83331029570547,1070
120.27158594347827,1233
122.7091879729652,1244
125.1461165843615,1155
127.58237197794062,973
130.01795435405518,794
132.4528639131364,811
134.88710085569494,928
137.32066538231982,1032
139.75355769367923,938
142.1857779905207,857
144.61732647366978,919
147.04820334403132,874
149.47840880258934,945
151.90794305040674,1092
154.33680628862487,1217
156.76499871846443,1395
159.19252054122433,1609
161.61937195828352,1816
164.04555317109896,2012
166.47106438120693,2248
168.89590579022217,2560
171.320077599839,2804
173.7435800118302,2993
176.16641322804742,3222
178.58857745042144,3315
181.01007288096173,3493
183.43089972175687,3650
185.85105817497413,3602
188.27054844285988,3842
190.6893707277394,3999
193.10752523201643,4206
195.5250121581745,4161
197.9418317087751,4312
200.3579840864594,4317
202.7734694939469,4348
205.18828813403627,4614
207.6024402096051,4739
210.01592592360964,4597
212.42874547908548,4480
214.84089907914665,4631
217.2523869269868,4600
219.66320922587727,4614
222.0733661791695,4636
224.48285799029293,4524
226.8916848627572,4572
229.29984700014882,4660
231.7073446061355,4576
234.11417788446204,4633
236.520347038953,4614
238.92585227351185,4740
241.33069379212054,4603
243.73487179884035,4816
246.1383864978112,4688
248.541238093252,4780
250.9434267894609,4748
253.34495279081432,4776
255.74581630176783,4787
258.1460175268563,4736
260.54555667069314,4762
262.9444339379703,4731
265.3426495334594,4715
267.7402036620107,4597
270.1370965285529,4631
272.53332833809407,4660
274.9288992957214,4526
277.32380960660055,4413
279.718059475976,4346
282.1116491091717,4367
284.5045787115897,4445
286.89684848871195,4351
289.2884586460981,4309
291.67940938938807,4259
294.0697009242996,4304
296.4593334566299,4452
298.84830719225477,4387
301.23662233712923,4233
303.6242790972866,4263
306.01127767884,4192
308.39761828798066,4252
310.78330113097934,4240
313.16832641418534,4191
315.5526943440269,4185
317.9364051270112,4054
320.3194589697242,4181
322.70185607883093,4178
325.0835966610754,4053
327.4646809232805,4097
329.8451090723478,4108
332.2248813152577,4083
334.6039978590701,4059
336.9824589109231,4077
339.36026467803447,4077
341.7374153677,4066
344.113911187295,4011
346.48975234427337,3978
348.8649390461686,3830
351.2394715005918,3949
353.61334991523415,4012
355.9865744978655,4022
358.35914545633375,3967
360.73106299856715,4065
363.10232733257146,3959
365.47293866643247,4001
367.84289720831396,4041
370.2122031664593,4002
372.5808567491905,3989
374.9488581649083,3943
377.31620762209275,3955
379.6829053293021,3795
382.0489514951745,4012
384.4143463284262,3957
386.7790900378528,3758
389.14318283232853,3836
391.50662492080653,3858
393.86941651231916,3862
396.23155781597745,3902
398.5930490409713,3971
400.9538903965696,3955
403.3140820921202,3837
405.6736243370498,3795
408.03251734086336,3745
410.3907613131465,3826
412.74835646356166,3857
415.10530300185144,3719
417.4616011378372,3736
419.81725108141893,3875
422.1722530425758,3838
424.5266072313656,3804
426.880313857925,3865
429.2333731324701,3770
431.58578526529516,3725
433.9375504667738,3703
436.2886689473588,3757
438.63914091758113,3752
440.9889665880513,3723
443.33814616945835,3864
445.68667987257015,3739
448.03456790823395,3729
450.3818104873759,3655
452.72840782100013,3744
455.07436012019105,3699
457.41966759611057,3713
459.7643304600007,3691
462.10834892318155,3752
464.4517231970525,3691
466.79445349309174,3740
469.1365400228566,3776
471.4779829979826,3851
473.81878263018564,3768
476.15893913125876,3687
478.4984527130747,3727
480.8373235875855,3790
483.17555196682144,3854
485.5131380628919,3861
487.8500820879857,3871
490.1863842543697,3971
492.52204477439034,4159
494.8570638604725,4422
497.1914417251204,4638
499.52517858091653,4897
501.85827464052306,5089
504.19073011668036,5113
506.5225452222086,5157
508.85372017000566,5013
511.18425517304956,5012
513.514150444396,4915
515.8434061971808,5493
518.1720226446176,6296
520.4999999999999,6447
522.8273384766991,6284
525.1540382881666,5920
527.480099647932,5403
529.8055227696037,5013
532.1303078668694,4417
534.454455153496,4085
536.777964843328,4025
539.1008371502907,4012
541.4230722883866,3860
543.744670471698,3931
546.0656319143858,3850
548.3859568306899,3885
550.7056454349294,3861
553.0246979415016,3739
555.3431145648834,3862
557.6608955196306,3654
559.978041020377,3739
562.2945512818363,3837
564.6104265188006,3896
566.9256669461412,3917
569.2402727788082,3715
571.5542442318302,3782
573.8675815203156,3834
576.1802848594508,3862
578.4923544645015,3959
580.8037905508126,3886
583.114593333807,3886
585.4247630289875,3791
587.7342998519354,3694
590.0432040183106,3858
592.3514757438526,3810
594.6591152443794,3815
596.9661227357875,3779
599.2724984340531,3895
601.578242555231,3869
603.8833553154542,3671
606.1878369309362,3905
608.4916876179676,3735
610.7949075929192,3761
613.0974970722403,3784
615.3994562724587,3874
617.7007854101818,3815
620.0014847020951,3882
622.3015543649641,3839
624.6009946156324,3757
626.8998056710224,3726
629.1979877481361,3757
631.4955410640538,3873
633.7924658359349,3832
636.0887622810175,3854
638.3844306166192,3824
640.6794710601358,3799
642.9738838290426,3820
645.2676691408932,3833
647.5608272133207,3884
649.853358264037,3756
652.1452625108324,3865
654.4365401715764,3842
656.7271914642178,3870
659.0172166067838,3831
661.3066158173809,3876
663.5953893141935,3809
665.8835373154867,3856
668.1710600396028,3871
670.4579577049639,3801
672.7442305300709,3788
675.0298787335033,3806
677.3149025339197,3835
679.599302150058,3797
681.8830778007342,3756
684.1662297048437,3815
686.4487580813608,3816
688.7306631493387,3904
691.0119451279091,3848
693.2926042362834,3840
695.5726406937516,3786
697.8520547196814,3788
700.1308465335215,3729
702.4090163547982,3795
704.6865644031171,3798
706.9634908981619,3770
709.2397960596965,3835
711.5154801075631,3700
713.7905432616823,3775
716.0649857420548,3857
718.3388077687592,3807
720.612009561953,3795
722.8845913418733,3839
725.1565533288352,3706
727.427895743234,3942
729.6986188055427,3785
731.9687227363137,3848
734.238207756178,3854
736.5070740858458,3833
738.7753219461066,3835
741.0429515578281,3877
743.3099631419569,3811
745.5763569195191,3765
747.8421331116193,3731
750.1072919394409,3767
752.3718336242467,3759
754.6357583873777,3692
756.8990664502545,3686
759.1617580343765,3739
761.423833361321,3780
763.6852926527457,3829
765.9461361303862,3763
768.206364016058,3741
770.4659765316536,3861
772.7249738991469,3762
774.9833563405886,3898
777.2411240781092,3895
779.4982773339183,3702
781.7548163303044,3753
784.010741289634,3793
786.2660524343538,3909
788.5207499869881,3775
790.7748341701416,3811
793.0283052064964,3803
795.2811633188143,3862
797.5334087299362,3934
799.7850416627813,3816
802.0360623403484,3852
804.2864709857143,3862
806.5362678220353,3895
808.7854530725468,3874
811.0340269605625,3850
813.2819897094754,3763
815.5293415427581,3712
817.77608268396,3795
820.0222133567116,3827
822.2677337847211,3915
824.5126441917765,3870
826.7569448017433,3798
829.0006358385675,3810
831.2437175262731,3817
833.4861900889629,3825
835.7280537508192,3763
837.9693087361026,3925
840.2099552691533,3850
842.4499935743896,3832
844.689423876309,3771
846.9282463994886,3683
849.1664613685833,3767
851.4040690083276,3759
853.6410695435349,3691
855.877463199097,3862
858.1132501999847,3779
860.3484307712487,3828
862.5830051380175,3867
864.8169735254988,3884
867.0503361589791,3893
869.2830932638243,3848
871.5152450654786,3949
873.7467917894654,3871
875.9777336613873,3883
878.2080709069252,3877
880.4378037518389,3953
882.666932421968,3952
884.8954571432301,3898
887.1233781416219,3909
889.3506956432192,3899
891.5774098741766,3821
893.803521060728,3865
896.0290294291852,3903
898.2539352059397,3903
900.4782386174619,3859
902.7019398903011,3848
904.925039251085,3867
907.147536926521,3891
909.3694331433943,3886
911.59072812857,3815
913.8114221089921,3876
916.0315153116827,3963
918.2510079637437,3830
920.4699002923547,3853
922.6881925247761,3783
924.905884888345,3790
927.1229776104793,3701
929.3394709186747,3830
931.555365040506,3781
933.7706602036275,3849
935.9853566357709,3833
938.1994545647489,3875
940.4129542184515,3783
942.6258558248488,3784
944.8381596119883,3850
947.0498658079974,3702
949.2609746410825,3838
951.4714863395287,3794
953.6814011316998,3772
955.8907192460387,3715
958.0994409110671,3699
960.3075663553858,3839
962.5150958076741,3803
964.7220294966913,3751
966.928367651274,3753
969.1341105003388,3712
971.3392582728806,3686
973.5438111979742,3712
975.747769504772,3621
977.9511334225061,3595
980.153903180487,3605
982.3560790081052,3640
984.5576611348289,3639
986.7586497902058,3570
988.9590452038618,3619
991.158847605503,3691
993.3580572249133,3765
995.5566742919558,3680
997.7546990365728,3646
999.952131688785,3700
1002.1489724786926,3597
1004.3452216364743,3583
1006.5408793923874,3502
1008.7359459767691,3547
1010.9304216200343,3435
1013.1243065526781,3429
1015.3176010052733,3529
1017.510305208472,3466
1019.7024193930064,3552
1021.8939437896848,3462
1024.0848786293977,3393
1026.2752241431122,3425
1028.4649805618747,3391
1030.6541481168115,3491
1032.842727039127,3354
1035.0307175601051,3389
1037.2181199111074,3463
1039.4049343235752,3425
1041.591161029029,3408
1043.7768002590683,3376
1045.9618522453698,3400
1048.1463172196918,3321
1050.3301954138697,3500
1052.513487059818,3474
1054.69619238953,3396
1056.8783116350783,3428
1059.0598450286152,3368
1061.2407928023704,3429
1063.4211551886528,3455
1065.6009324198508,3459
1067.780124728432,3397
1069.9587323469414,3412
1072.1367555080046,3516
1074.314194444325,3411
1076.4910493886855,3424
1078.667320573947,3413
1080.843008233051,3332
1083.0181125990161,3382
1085.1926339049414,3370
1087.3665723840027,3358
1089.5399282694575,3375
1091.7127017946405,3396
1093.8848931929647,3318
1096.0565026979243,3445
1098.2275305430899,3295
1100.3979769621128,3363
1102.567842188722,3353
1104.737126456726,3348
1106.9058300000124,3308
1109.0739530525475,3366
1111.2414958483764,3335
1113.4084586216231,3221
1115.5748416064907,3276
1117.7406450372605,3240
1119.9058691482942,3287
1122.0705141740304,3327
1124.2345803489884,3398
1126.3980679077658,3384
1128.5609770850388,3351
1130.7233081155623,3270
1132.8850612341707,3274
1135.0462366757774,3346
1137.2068346753745,3305
1139.3668554680326,3328
1141.526299288901,3287
1143.68516637321,3328
1145.8434569562655,3288
1148.001171273455,3212
1150.158309560244,3287
1152.3148720521767,3314
1154.470858984876,3289
1156.626270594044,3304
1158.7811071154629,3355
1160.9353687849912,3363
1163.089055838569,3261
1165.242168512213,3249
1167.3947070420209,3266
1169.5466716641677,3289
1171.6980626149075,3334
1173.8488801305748,3210
1175.9991244475814,3253
1178.1487958024186,3254
1180.2978944316555,3244
1182.4464205719428,3260
1184.5943744600072,3319
1186.7417563326567,3236
1188.8885664267755,3269
1191.0348049793297,3266
1193.1804722273619,3302
1195.325568407995,3274
1197.4700937584303,3271
1199.614048515948,3241
1201.7574329179074,3376
1203.900247201746,3323
1206.042491604982,3418
1208.1841663652099,3253
1210.3252717201053,3264
1212.465807907422,3331
1214.6057751649923,3319
1216.7451737307279,3401
1218.8840038426192,3299
1221.0222657387353,3347
1223.1599596572241,3383
1225.2970858363137,3399
1227.4336445143094,3339
1229.5696359295966,3431
1231.705060320639,3379
1233.8399179259786,3302
1235.9742089842384,3322
1238.107933734118,3368
1240.2410924143974,3377
1242.373685263935,3387
1244.5057125216676,3414
1246.6371744266116,3327
1248.7680712178621,3392
1250.898403134593,3395
1253.028170416058,3349
1255.1573733015875,3379
1257.2860120305932,3365
1259.4140868425648,3459
1261.54159797707,3328
1263.6685456737569,3395
1265.7949301723515,3400
1267.9207517126597,3485
1270.046010534565,3429
1272.1707068780306,3337
1274.2948409830983,3369
1276.4184130898889,3447
1278.541423438603,3331
1280.6638722695184,3379
1282.785759822993,3451
1284.9070863394636,3365
1287.0278520594447,3444
1289.1480572235314,3455
1291.2677020723963,3443
1293.3867868467923,3481
1295.5053117875495,3473
1297.623277135579,3532
1299.740683131868,3458
1301.8575300174857,3451
1303.973818033578,3544
1306.0895474213703,3559
1308.2047184221678,3615
1310.3193312773528,3482
1312.4333862283888,3474
1314.5468835168163,3542
1316.659823384255,3598
1318.7722060724045,3586
1320.8840318230418,3490
1322.9953008780249,3434
1325.1060134792888,3527
1327.2161698688478,3540
1329.3257702887959,3617
1331.4348149813054,3497
1333.5433041886276,3469
1335.6512381530933,3586
1337.7586171171101,3477
1339.8654413231675,3514
1341.9717110138317,3418
1344.0774264317488,3455
1346.1825878196432,3543
1348.2871954203192,3471
1350.3912494766587,3495
1352.4947502316231,3470
1354.5976979282532,3443
1356.7000928096686,3522
1358.8019351190665,3458
1360.9032250997243,3477
1363.0039629949988,3534
1365.1041490483235,3518
1367.2037835032133,3539
1369.3028666032606,3536
1371.401398592137,3492
1373.4993797135926,3508
1375.5968102114575,3550
1377.6936903296396,3591
1379.7900203121262,3494
1381.8858004029835,3559
1383.9810308463561,3618
1386.075711886469,3541
1388.1698437676241,3550
1390.2634267342032,3468
1392.356461030667,3582
1394.4489469015557,3556
1396.5408845914872,3636
1398.6322743451592,3548
1400.7231164073469,3605
1402.813411022907,3512
1404.903158436773,3600
1406.9923588939578,3622
1409.0810126395531,3676
1411.1691199187303,3618
1413.2566809767386,3641
1415.343696058907,3675
1417.4301654106425,3656
1419.5160892774315,3646
1421.6014679048399,3686
1423.6863015385125,3721
1425.7705904241707,3702
1427.8543348076178,3650
1429.9375349347342,3699
1432.0201910514802,3650
1434.102303403894,3703
1436.1838722380944,3710
1438.2648978002767,3800
1440.3453803367174,3712
1442.4253200937692,3787
1444.5047173178677,3772
1446.5835722555234,3822
1448.6618851533285,3818
1450.739656257952,3954
1452.8168858161434,3828
1454.8935740747306,3819
1456.96972128062,3932
1459.045327680797,3979
1461.120393522327,3935
1463.1949190523528,4007
1465.2689045180973,4059
1467.3423501668608,4089
1469.415256246024,4039
1471.4876230030463,4056
1473.559450685465,4029
1475.6307395408976,4161
1477.7014898170391,4223
1479.771701761665,4170
1481.8413756226287,4244
1483.9105116478618,4342
1485.9791100853772,4448
1488.0471711832643,4300
1490.1146951896926,4428
1492.1816823529098,4417
1494.2481329212433,4399
1496.3140471430984,4396
1498.3794252669609,4307
1500.4442675413939,4555
1502.5085742150404,4496
1504.572345536622,4522
1506.6355817549388,4595
1508.6982831188702,4595
1510.7604498773744,4613
1512.8220822794883,4638
1514.8831805743293,4712
1516.9437450110909,4688
1519.003775839048,4632
1521.0632733075522,4598
1523.1222376660367,4738
1525.1806691640113,4704
1527.2385680510652,4821
1529.2959345768668,4838
1531.3527689911643,4831
1533.4090715437833,4938
1535.4648424846291,4949
1537.5200820636855,5061
1539.5747905310159,4955
1541.6289681367616,4949
1543.6826151311434,5151
1545.7357317644614,5176
1547.7883182870937,5213
1549.8403749494987,5111
1551.8919020022113,5271
1553.9428996958477,5417
1555.9933682811015,5383
1558.0433080087469,5379
1560.0927191296346,5426
1562.1416018946961,5415
1564.1899565549415,5507
1566.2377833614592,5527
1568.2850825654164,5496
1570.3318544180606,5349
1572.3780991707158,5304
1574.423817074788,5164
1576.4690083817595,4988
1578.5136733431923,4926
1580.5578122107272,4947
1582.601425236085,4661
1584.6445126710646,4510
1586.6870747675434,4580
1588.7291117774776,4326
1590.7706239529034,4352
1592.8116115459347,4282
1594.8520748087658,4110
1596.8920139936686,4153
1598.9314293529933,4010
1600.9703211391711,4005
1603.008689604711,3938
1605.0465350022005,3897
1607.0838575843068,3903
1609.1206576037753,3846
1611.1569353134305,3805
1613.1926909661765,3762
1615.2279248149953,3874
1617.2626371129481,3679
1619.2968281131757,3741
1621.3304980688963,3704
1623.3636472334088,3746
1625.39627586009,3865
1627.428384202396,3705
1629.459972513861,3718
1631.4910410480993,3636
1633.5215900588028,3640
1635.551619799744,3622
1637.5811305247717,3542
1639.6101224878166,3644
1641.6385959428862,3613
1643.6665511440683,3495
1645.693988345528,3612
1647.7209078015112,3487
1649.7473097663405,3593
1651.7731944944203,3628
1653.7985622402307,3495
1655.823413258333,3539
1657.847747803366,3540
1659.8715661300494,3548
1661.8948684931793,3558
1663.9176551476316,3561
1665.9399263483624,3525
1667.9616823504057,3487
1669.982923408873,3533
1672.0036497789574,3556
1674.0238617159293,3671
1676.043559475138,3452
1678.0627433120121,3575
1680.081413482059,3584
1682.0995702408654,3547
1684.117213844096,3475
1686.134344547495,3510
1688.1509626068864,3627
1690.1670682781705,3427
1692.182661817329,3536
1694.1977434804217,3444
1696.2123135235875,3482
1698.226372203043,3572
1700.2399197750851,3421
1702.2529564960905,3539
1704.2654826225112,3502
1706.277498410882,3536
1708.2890041178139,3444
1710.2999999999988,3439
1712.3104863142066,3506
1714.3204633172854,3468
1716.329931266163,3584
1718.3388904178469,3570
1720.3473410294214,3486
1722.3552833580516,3437
1724.3627176609807,3455
1726.3696441955308,3456
1728.3760632191033,3583
1730.3819749891782,3598
1732.3873797633146,3507
1734.3922777991502,3445
1736.3966693544012,3399
1738.4005546868639,3449
1740.4039340544127,3418
1742.406807715001,3486
1744.4091759266616,3423
1746.4110389475054,3528
1748.4123970357223,3458
1750.413250449582,3345
1752.4135994474318,3364
1754.4134442876993,3490
1756.4127852288902,3420
1758.4116225295893,3392
1760.4099564484595,3469
1762.407787244244,3376
1764.405115175764,3430
1766.4019405019203,3438
1768.3982634816916,3422
1770.3940843741357,3427
1772.3894034383907,3450
1774.3842209336717,3485
1776.378537119274,3495
1778.372352254571,3370
1780.3656665990156,3402
1782.3584804121397,3387
1784.3507939535534,3423
1786.3426074829463,3463
1788.3339212600863,3397
1790.3247355448211,3427
1792.3150505970766,3411
1794.3048666768573,3392
1796.2941840442477,3453
1798.2830029594106,3372
1800.2713236825884,3439
1802.2591464741004,3513
1804.2464715943465,3369
1806.2332993038058,3349
1808.2196298630352,3420
1810.2054635326708,3392
1812.190800573428,3506
1814.175641246101,3521
1816.1599858115628,3476
1818.1438345307652,3360
1820.127187664738,3460
1822.1100454745924,3434
1824.092408221516,3474
1826.0742761667766,3455
1828.055649571721,3535
1830.0365286977735,3309
1832.0169138064398,3452
1833.9968051593014,3382
1835.9762030180214,3442
1837.9551076443408,3419
1839.9335193000788,3384
1841.9114382471344,3394
1843.888864747485,3407
1845.8657990631878,3424
1847.842241456378,3452
1849.8181921892697,3438
1851.7936515241558,3420
1853.7686197234098,3386
1855.7430970494815,3446
1857.7170837649014,3363
1859.6905801322787,3417
1861.6635864143004,3336
1863.6361028737338,3357
1865.608129773424,3390
1867.5796673762961,3419
1869.5507159453537,3425
1871.521275743678,3426
1873.4913470344313,3382
1875.4609300808534,3415
1877.4300251462632,3398
1879.3986324940588,3393
1881.366752387717,3393
1883.3343850907936,3514
1885.3015308669228,3505
1887.268189979819,3422
1889.2343626932739,3444
1891.2000492711595,3395
1893.1652499774254,3398
1895.1299650761011,3426
1897.0941948312952,3445
1899.0579395071945,3387
1901.0211993680641,3477
1902.98397467825,3398
1904.9462657021745,3466
1906.9080727043415,3482
1908.869395949332,3454
1910.8302357018065,3401
1912.790592226504,3450
1914.7504657882428,3486
1916.7098566519212,3425
1918.6687650825133,3480
1920.6271913450764,3366
1922.5851357047422,3460
1924.5425984267245,3530
1926.499579776314,3343
1928.4560800188833,3413
1930.4120994198802,3367
1932.367638244833,3328
1934.32269675935,3374
1936.2772752291175,3418
1938.231373919899,3510
1940.1849930975404,3521
1942.1381330279637,3351
1944.0907939771696,3326
1946.0429762112412,3388
1947.9946799963363,3321
1949.9459055986945,3386
1951.896653284633,3362
1953.8469233205478,3327
1955.7967159729142,3376
1957.7460315082863,3494
1959.6948701932974,3479
1961.6432322946594,3378
1963.5911180791632,3432
1965.5385278136787,3399
1967.4854617651545,3457
1969.4319202006182,3474
1971.377903387176,3472
1973.3234115920136,3434
1975.268445082395,3430
1977.2130041256642,3441
1979.1570889892423,3385
1981.1006999406304,3416
1983.04383724741,3403
1984.986501177238,3335
1986.928691997853,3482
1988.8704099770712,3346
1990.811655382789,3451
1992.7524284829801,3401
1994.692729545698,3326
1996.6325588390755,3388
1998.5719166313224,3394
2000.5108031907307,3360
2002.4492187856677,3448
2004.387163684583,3446
2006.3246381560011,3409
2008.2616424685298,3408
2010.1981768908527,3356
2012.1342416917332,3358
2014.069837140014,3304
2016.0049635046162,3404
2017.9396210545406,3391
2019.8738100588666,3337
2021.8075307867502,3371
2023.740783507431,3467
2025.6735684902228,3414
2027.6058860045214,3287
2029.5377363198004,3341
2031.4691197056118,3340
2033.4000364315875,3241
2035.3304867674374,3363
2037.260470982952,3365
2039.189989347998,3322
2041.1190421325232,3397
2043.047629606554,3365
2044.9757520401945,3306
2046.9034097036288,3425
2048.8306028671195,3344
2050.7573318010086,3288
2052.683596775716,3411
2054.609398061742,3441
2056.5347359296647,3293
2058.4596106501403,3369
2060.384022493906,3339
2062.3079717317764,3303
2064.231458634646,3436
2066.1544834734873,3420
2068.077046519352,3437
2069.99914804337,3402
2071.9207883167524,3327
2073.8419676107865,3391
2075.7626861968406,3340
2077.6829443463607,3391
2079.6027423308715,3376
2081.522080421977,3386
2083.440958891362,3398
2085.359378010786,3310
2087.2773380520907,3354
2089.194839287196,3324
2091.111881988101,3403
2093.0284664268825,3329
2094.9445928756973,3287
2096.86026160678,3329
2098.775472892446,3407
2100.690227005088,3459
2102.604524217178,3337
2104.5183648012676,3374
2106.431749029985,3391
2108.34467717604,3323
2110.2571495122206,3438
2112.169166311393,3342
2114.080727846503,3354
2115.9918343905747,3375
2117.902486216711,3379
2119.8126835980956,3336
2121.722426807987,3346
2123.6317161197285,3379
2125.5405518067364,3277
2127.448934142509,3324
2129.356863400624,3332
2131.264339854737,3371
2133.1713637785815,3447
2135.077935445972,3407
2136.9840551308002,3388
2138.889723107037,3448
2140.7949396487334,3505
2142.699705030018,3457
2144.6040195250994,3350
2146.507883408264,3526
2148.4112969538774,3348
2150.3142604363848,3496
2152.2167741303097,3300
2154.1188383102535,3362
2156.0204532508997,3372
2157.9216192270064,3417
2159.822336513414,3368
2161.7226053850413,3448
2163.622426116884,3369
2165.5217989840185,3375
2167.4207242616,3453
2169.319202224862,3482
2171.2172331491165,3496
2173.1148173097563,3522
2175.0119549822507,3503
2176.90864644215,3444
2178.8048919650823,3421
2180.7006918267534,3400
2182.596046302952,3486
2184.4909556695407,3391
2186.3854202024645,3429
2188.279440177746,3376
2190.173015871487,3423
2192.066147559868,3499
2193.958835519149,3419
2195.851080025667,3410
2197.7428813558417,3422
2199.6342397861667,3442
2201.5251555932186,3452
2203.415629053651,3592
2205.3056604441986,3497
2207.19525004167,3451
2209.084398122958,3527
2210.9731049650327,3469
2212.861370844941,3541
2214.749196039812,3522
2216.636580826851,3463
2218.523525483344,3499
2220.410030286655,3538
2222.296095514226,3473
2224.1817214435805,3563
2226.066908352319,3632
2227.951656518121,3527
2229.835966218746,3476
2231.71983773203,3508
2233.6032713358913,3564
2235.486267308324,3519
2237.3688259274036,3511
2239.2509474712824,3520
2241.132632218193,3470
2243.013880446447,3518
2244.8946924344323,3454
2246.7750684606203,3551
2248.6550088035574,3427
2250.534513741871,3531
2252.413583554265,3538
2254.292218519526,3441
2256.170418916517,3507
2258.0481850241786,3476
2259.925517121534,3489
2261.8024154876825,3461
2263.678880401803,3618
2265.5549121431536,3523
2267.430510991071,3514
2269.305677224971,3505
2271.180411124348,3493
2273.0547129687766,3495
2274.9285830379076,3454
2276.8020216114737,3464
2278.6750289692845,3387
2280.5476053912294,3431
2282.4197511572766,3553
2284.2914665474727,3376
2286.162751841943,3525
2288.0336073208937,3539
2289.904033264608,3488
2291.774029953448,3618
2293.6435976678554,3622
2295.5127366883517,3503
2297.381447295534,3436
2299.2497297700825,3508
2301.1175843927526,3502
2302.9850114443825,3363
2304.852011205885,3403
2306.7185839582553,3359
2308.5847299825664,3319
2310.4504495599676,3308
2312.3157429716925,3332
2314.1806104990483,3289
2316.0450524234247,3319
2317.9090690262888,3347
2319.772660589186,3312
2321.635827393742,3322
2323.498569721661,3381
2325.3608878547248,3440
2327.2227820747967,3327
2329.0842526638157,3372
2330.945299903803,3298
2332.805924076857,3348
2334.6661254651535,3350
2336.525904350951,3237
2338.3852610165827,3211
2340.244195744464,3281
2342.102708817088,3312
2343.9608005170253,3339
2345.8184711269287,3260
2347.675720929526,3253
2349.532550207628,3350
2351.38895924412,3208
2353.24494832197,3233
2355.100517724223,3302
2356.955667734004,3325
2358.810398634514,3272
2360.664710709037,3333
2362.5186042409337,3285
2364.3720795136437,3310
2366.225136810686,3270
2368.0777764156583,3279
2369.929998612237,3391
2371.7818036841777,3351
2373.633191915315,3357
2375.484163589562,3304
2377.3347189909114,3333
2379.184858403434,3212
2381.03458211128,3265
2382.8838903986775,3277
2384.732783549936,3277
2386.5812618494406,3284
2388.4293255816588,3225
2390.2769750311327,3266
2392.1242104824883,3359
2393.971032220427,3328
2395.8174405297295,3363
2397.6634356952563,3300
2399.509018001947,3328
2401.3541877348193,3308
2403.1989451789705,3326
2405.043290619576,3354
2406.8872243418905,3301
2408.730746631247,3316
2410.5738577730594,3324
2412.4165580528183,3327
2414.258847756095,3350
2416.100727168537,3324
2417.9421965758734,3314
2419.783256263912,3319
2421.623906518538,3307
2423.4641476257157,3267
2425.303979871491,3251
2427.143403541984,3274
2428.9824189233977,3300
2430.821026302012,3315
2432.6592259641866,3286
2434.497018196361,3322
2436.33440328505,3343
2438.171381516851,3384
2440.00795317844,3352
2441.844118556569,3285
2443.6798779380724,3296
2445.5152316098606,3251
2447.3501798589255,3344
2449.1847229723357,3384
2451.0188612372403,3309
2452.8525949408663,3296
2454.6859243705203,3402
2456.518849813587,3351
2458.3513715575314,3359
2460.183489889895,3319
2462.015205098301,3442
2463.8465174704493,3301
2465.67742729412,3317
2467.5079348571717,3322
2469.338040447542,3341
2471.1677443532476,3362
2472.9970468623833,3406
2474.825948263123,3274
2476.6544488437207,3330
2478.482548892508,3268
2480.310248697896,3298
2482.137548548374,3336
2483.9644487325118,3313
2485.790949538956,3292
2487.617051256433,3346
2489.44275417375,3354
2491.26805857979,3294
2493.0929647635157,3325
2494.917473013971,3384
2496.741583620276,3319
2498.5652968716304,3350
2500.3886130573137,3381
2502.2115324666834,3386
2504.0340553891765,3446
2505.856182114308,3312
2507.6779129316733,3455
2509.499248130945,3394
2511.3201880018764,3355
2513.140732834298,3377
2514.9608829181198,3358
2516.780638543331,3373
2518.6,3323
2520.418967578273,3367
2522.237541568376,3446
2524.0557222606144,3324
2525.8735099453706,3360
2527.6909049131086,3390
2529.507907454368,3354
2531.32451785977,3377
2533.140736420014,3313
2534.9565634258774,3373
2536.771999168218,3409
2538.5870439379714,3311
2540.4016980261526,3437
2542.2159617238544,3364
2544.02983532225,3370
2545.8433191125914,3439
2547.656413386209,3452
2549.4691184345115,3524
2551.2814345489874,3513
2553.093362021204,3468
2554.904901142808,3476
2556.716052205523,3535
2558.526815501153,3451
2560.3371913215824,3506
2562.147179958771,3451
2563.956781704761,3484
2565.7659968516705,3513
2567.5748256916986,3494
2569.3832685171224,3528
2571.1913256202984,3444
2572.9989972936614,3456
2574.806283829725,3542
2576.613185521084,3559
2578.4197026604074,3580
2580.2258355404483,3459
2582.031584454035,3629
2583.836949694077,3598
2585.6419315535613,3495
2587.4465303255533,3543
2589.2507463032002,3613
2591.0545797797245,3638
2592.8580310484303,3568
2594.6611004026995,3510
2596.463788135992,3639
2598.266094541849,3586
2600.0680199138874,3568
2601.869564545807,3630
2603.670728731383,3592
2605.4715127644704,3569
2607.2719169390048,3537
2609.071941548998,3667
2610.8715868885433,3583
2612.670853251811,3629
2614.469740933052,3608
2616.268250226594,3598
2618.0663814268455,3542
2619.864134828292,3520
2621.6615107255006,3597
2623.458509413115,3591
2625.2551311858597,3513
2627.0513763385347,3598
2628.8472451660223,3546
2630.6427379632833,3615
2632.4378550253564,3583
2634.232596647359,3530
2636.026963124488,3472
2637.8209547520187,3525
2639.6145718253065,3515
2641.407814639785,3479
2643.200683490966,3593
2644.9931786744414,3434
2646.7853004858807,3604
2648.577049221034,3510
2650.3684251757277,3401
2652.1594286458712,3381
2653.9500599274484,3347
2655.740319316525,3431
2657.5302071092437,3517
2659.3197236018286,3487
2661.10886909058,3362
2662.8976438718782,3518
2664.686048242183,3352
2666.4740824980327,3333
2668.2617469360443,3388
2670.0490418529134,3457
2671.8359675454153,3348
2673.622524310403,3438
2675.408712444811,3417
2677.1945322456495,3409
2678.979984010009,3385
2680.76506803506,3402
2682.5497846180497,3346
2684.334134056306,3389
2686.1181166472343,3344
2687.9017326883213,3300
2689.6849824771293,3366
2691.4678663113013,3404
2693.2503844885596,3354
2695.032537306705,3288
2696.8143250636167,3303
2698.5957480572542,3312
2700.3768065856534,3288
2702.1575009469316,3359
2703.937831439283,3276
2705.717798360982,3347
2707.4974020103837,3297
2709.276642685917,3205
2711.055520686095,3322
2712.834036309506,3258
2714.612189854819,3242
2716.389981620782,3242
2718.1674119062204,3239
2719.944481010041,3244
2721.721189231226,3192
2723.4975368688415,3291
2725.273524222027,3238
2727.0491515900053,3303
2728.824419272075,3224
2730.5993275676146,3242
2732.3738767760838,3187
2734.148067197016,3284
2735.921899130031,3235
2737.6953728748194,3151
2739.468488731156,3192
2741.2412469988926,3164
2743.0136479779617,3202
2744.785691968372,3196
2746.5573792702116,3299
2748.3287101836504,3194
2750.099685008934,3208
2751.870304046388,3274
2753.640567596418,3269
2755.4104759595057,3290
2757.1800294362156,3229
2758.949228327187,3204
2760.7180729331412,3272
2762.486563554877,3353
2764.254700493272,3167
2766.022484049284,3327
2767.789914523947,3286
2769.5569922183786,3182
2771.3237174337705,3251
2773.090090471394,3323
2774.8561116326036,3175
2776.6217812188274,3142
2778.3870995315756,3165
2780.1520668724356,3239
2781.9166835430747,3188
2783.6809498452394,3254
2785.444866080754,3179
2787.2084325515225,3221
2788.971649559527,3192
2790.73451740683,3187
2792.4970363955713,3284
2794.2592068279705,3308
2796.0210290063264,3185
2797.7825032330147,3212
2799.543629810493,3157
2801.304409041296,3286
2803.0648412280366,3194
2804.8249266734088,3298
2806.5846656801846,3358
2808.344058551212,3261
2810.1031055894246,3233
2811.8618070978273,3285
2813.6201633795085,3299
2815.378174737636,3277
2817.1358414754536,3283
2818.893163896285,3222
2820.6501423035334,3214
2822.4067770006814,3204
2824.1630682912883,3236
2825.9190164789957,3160
2827.6746218675207,3294
2829.429884760661,3273
2831.184805462294,3254
2832.9393842763743,3284
2834.693621506936,3174
2836.4475174580916,3205
2838.201072434034,3199
2839.954286739034,3305
2841.707160677441,3252
2843.459694553685,3291
2845.2118886722724,3297
2846.96374333779,3230
2848.7152588549034,3234
2850.4664355283567,3265
2852.217273662973,3288
2853.9677735636546,3251
2855.7179355353833,3259
2857.4677598832186,3197
2859.217246912299,3269
2860.9663969278427,3299
2862.715210235146,3314
2864.4636871395846,3249
2866.211827946614,3213
2867.9596329617652,3124
2869.7071024906536,3289
2871.4542368389684,3200
2873.20103631248,3219
2874.947501217038,3243
2876.6936318585695,3194
2878.4394285430812,3312
2880.1848915766604,3262
2881.9300212654707,3215
2883.6748179157553,3212
2885.4192818338374,3296
2887.1634133261173,3199
2888.907212699077,3203
2890.6506802592744,3255
2892.393816313348,3223
2894.1366211680142,3209
2895.8790951300693,3318
2897.621238506388,3257
2899.363051603925,3271
2901.1045347297118,3195
2902.8456881908596,3212
2904.58651229456,3121
2906.327007348081,3283
2908.067173658772,3247
2909.8070115340597,3175
2911.5465212814497,3249
2913.285703208527,3260
2915.0245576229563,3173
2916.7630848324807,3179
2918.5012851449196,3167
2920.2391588681758,3213
2921.976706310227,3234
2923.7139277791334,3158
2925.4508235830313,3232
2927.187394030137,3285
2928.923639428745,3204
2930.6595600872306,3214
2932.395156314046,3195
2934.1304284177218,3147
2935.8653767068713,3290
2937.6000014901815,3223
2939.3343030764227,3274
2941.068281774442,3181
2942.8019378931644,3120
2944.5352717415976,3193
2946.2682836288236,3232
2948.0009738640065,3218
2949.7333427563885,3257
2951.465390615289,3306
2953.1971177501086,3231
2954.9285244703265,3200
2956.6596110855,3237
2958.3903779052657,3264
2960.1208252393385,3235
2961.8509533975125,3146
2963.5807626896617,3229
2965.3102534257378,3159
2967.0394259157715,3115
2968.768280469873,3186
2970.496817398232,3212
2972.2250370111146,3224
2973.952939618869,3201
2975.6805255319196,3126
2977.4077950607707,3297
2979.134748516006,3314
2980.861386208289,3216
2982.587708448359,3264
2984.313715547037,3249
2986.039407815222,3221
2987.764785563891,3219
2989.489849104102,3227
2991.2145987469908,3211
2992.9390348037705,3229
2994.6631575857346,3197
2996.3869674042576,3159
2998.1104645707887,3191
2999.83364939686,3236
3001.5565221940783,3142
3003.2790832741334,3171
3005.0013329487924,3227
3006.7232715298996,3106
3008.4448993293804,3237
3010.166216659239,3210
3011.887223831558,3208
3013.607921158498,3131
3015.3283089522993,3182
3017.0483875252826,3146
3018.7681571898443,3162
3020.4876182584626,3178
3022.2067710436927,3107
3023.9256158581707,3177
3025.644153014609,3239
3027.362382825801,3197
3029.0803056046193,3206
3030.797921664012,3160
3032.5152313170106,3212
3034.2322348767225,3220
3035.9489326563353,3235
3037.665324969115,3248
3039.3814121284063,3078
3041.097194447633,3189
3042.812672240299,3257
3044.5278458199855,3235
3046.2427155003525,3143
3047.9572815951406,3146
3049.671544418167,3217
3051.38550428333,3197
3053.0991615046073,3213
3054.812516396051,3187
3056.5255692717974,3148
3058.2383204460575,3106
3059.9507702331257,3109
3061.662918947372,3157
3063.3747669032446,3224
3065.0863144152736,3101
3066.7975617980674,3143
3068.508509366309,3192
3070.219157434767,3309
3071.9295063182844,3162
3073.639556331785,3167
3075.3493077902704,3154
3077.058761008821,3282
3078.7679163025964,3181
3080.476773986837,3202
3082.1853343768594,3189
3083.89359778806,3231
3085.6015645359153,3243
3087.3092349359786,3147
3089.016609303884,3312
3090.7236879553434,3230
3092.4304712061476,3249
3094.136959372166,3154
3095.843152769349,3148
3097.5490517137237,3165
3099.2546565213966,3223
3100.959967508554,3194
3102.66498499146,3202
3104.3697092864577,3190
3106.0741407099695,3225
3107.778279578498,3185
3109.482126208622,3203
3111.1856809170004,3286
3112.8889440203716,3311
3114.5919158355528,3239
3116.294596679439,3267
3117.996986869006,3232
3119.6990867213062,3239
3121.4008965534726,3207
3123.102416682717,3243
3124.803647426329,3216
3126.5045891016784,3228
3128.205242026213,3249
3129.90560651746,3245
3131.605682893025,3301
3133.3054714705922,3270
3135.0049725679282,3239
3136.7041865028714,3259
3138.4031135933465,3250
3140.101754157353,3265
3141.800108512971,3244
3143.498176978357,3223
3145.1959598717494,3180
3146.8934575114636,3195
3148.5906702158954,3125
3150.2875983035183,3104
3151.9842420928853,3138
3153.680601902627,3140
3155.376678051456,3166
3157.07247085816,3130
3158.767980641609,3174
3160.463207720748,3184
3162.158152414606,3088
3163.8528150422862,3188
3165.5471959229726,3180
3167.2412953759303,3199
3168.9351137204976,3159
3170.628651276098,3154
3172.3219083622307,3239
3174.014885298474,3151
3175.707582404485,3200
3177.4000000000005,3245
3179.092138404835,3181
3180.7839979388846,3260
3182.47557892212,3194
3184.166881674594,3184
3185.8579065164386,3139
3187.5486537678626,3163
3189.2391237491547,3235
3190.9293167806827,3246
3192.6192331828934,3190
3194.3088732763117,3128
3195.998237381542,3143
3197.687325819268,3188
3199.376138910251,3231
3201.064676975334,3161
3202.7529403354347,3170
3204.4409293115523,3299
3206.1286442247647,3207
3207.816085396229,3130
3209.5032531471825,3178
3211.190147798936,3292
3212.8767696728846,3140
3214.5631190905015,3105
3216.2491963733373,3116
3217.9350018430214,3150
3219.6205358212637,3191
3221.305798629851,3204
3222.990790590651,3035
3224.6755120256103,3128
3226.359963256751,3075
3228.0441446061795,3106
3229.7280563960758,3148
3231.411698948703,3155
3233.0950725863995,3140
3234.778177631587,3255
3236.461014406761,3204
3238.1435832345005,3230
3239.8258844374595,3223
3241.507918338374,3223
3243.1896852600576,3187
3244.8711855254023,3299
3246.552419457381,3184
3248.233387379042,3267
3249.914089613516,3172
3251.59452648401,3241
3253.274698313813,3163
3254.95460542629,3243
3256.6342481448855,3129
3258.313626793125,3087
3259.9927416946084,3061
3261.6715931730196,3160
3263.3501815521176,3064
3265.0285071557437,3108
3266.706570307815,3170
3268.3843713323286,3190
3270.0619105533615,3142
3271.739188295068,3105
3273.4162048816834,3168
3275.0929606375184,3228
3276.769455886966,3107
3278.445690954498,3154
3280.1216661646613,3198
3281.797381842087,3263
3283.4728383114807,3245
3285.1480358976296,3069
3286.8229749253996,3143
3288.4976557197333,3072
3290.172078605655,3103
3291.846243908266,3124
3293.5201519527463,3155
3295.193803064357,2993
3296.8671975684374,3046
3298.5403357904024,3116
3300.21321805575,3159
3301.8858446900567,3154
3303.558216018975,3137
3305.23033236824,3044
3306.9021940636603,3190
3308.57380143113,3145
3310.2451547966184,3166
3311.916254486174,3088
3313.5871008259246,3125
3315.2576941420766,3123
3316.9280347609147,3171
3318.5981230088046,3114
3320.2679592121895,3187
3321.9375436975924,3018
3323.606876791612,3177
3325.27595882093,3093
3326.944790112305,2989
3328.6133709925753,3169
3330.2817017886573,3108
3331.949782827547,3199
3333.617614436319,3072
3335.2851969421245,3082
3336.952530672199,3133
3338.619615953853,3169
3340.286453114475,3210
3341.9530424815357,3169
3343.619384382583,3245
3345.2854791452437,3209
3346.951327097224,3230
3348.6169285663073,3143
3350.2822838803577,3116
3351.947393367319,3147
3353.61225735521,3270
3355.2768761721345,3201
3356.9412501462693,3102
3358.605379605873,3156
3360.2692648792827,3172
3361.9329062949146,3068
3363.596304181263,3218
