CollectionTime,7/10/2024 3:58:53 PM
ExposureUsed,3
CalibratedSpectrum
-962.7078968117929,682
-959.9714848408522,684
-957.2358232597828,722
-954.5009119013725,736
-951.7667505983302,755
-949.0333391832855,702
-946.3006774887896,738
-943.5687653473143,772
-940.837602591253,750
-938.1071890529199,749
-935.3775245645503,724
-932.6486089583007,735
-929.9204420662485,758
-927.1930237203925,823
-924.4663537526524,747
-921.7404319948689,765
-919.0152582788041,797
-916.2908324361409,830
-913.5671542984834,783
-910.8442236973568,728
-908.1220404642074,780
-905.4006044304027,742
-902.679915427231,751
-899.959973285902,728
-897.2407778375464,752
-894.5223289132158,746
-891.8046263438832,762
-889.0876699604426,716
-886.3714595937089,689
-883.6559950744183,730
-880.9412762332282,742
-878.2273029007168,699
-875.5140749073835,730
-872.8015920836489,732
-870.0898542598545,737
-867.3788612662631,700
-864.6686129330585,712
-861.9591090903457,749
-859.2503495681506,759
-856.5423341964203,744
-853.8350628050229,756
-851.1285352237478,746
-848.4227512823054,753
-845.7177108103272,759
-843.0134136373656,761
-840.3098595928943,780
-837.6070485063082,753
-834.9049802069229,736
-832.2036545239757,737
-829.5030712866244,769
-826.8032303239481,784
-824.1041314649472,783
-821.4057745385428,744
-818.7081593735775,766
-816.0112857988148,775
-813.3151536429393,736
-810.6197627345566,768
-807.9251129021936,781
-805.2312039742981,800
-802.5380357792392,748
-799.8456081453069,767
-797.1539209007124,808
-794.462973873588,754
-791.772766891987,812
-789.083299783884,770
-786.3945723771743,781
-783.7065844996748,765
-781.0193359791231,760
-778.3328266431781,719
-775.6470563194197,778
-772.9620248353489,747
-770.2777320183878,740
-767.5941776958798,790
-764.9113616950891,798
-762.2292838432011,781
-759.5479439673222,758
-756.8673418944801,767
-754.1874774516235,782
-751.5083504656222,821
-748.8299607632671,789
-746.15230817127,820
-743.475392516264,764
-740.7992136248035,786
-738.1237713233636,770
-735.4490654383407,814
-732.7750957960521,750
-730.1018622227365,800
-727.4293645445534,828
-724.7576025875837,820
-722.0865761778291,812
-719.4162851412126,760
-716.7467293035781,813
-714.0779084906909,854
-711.409822528237,855
-708.7424712418238,823
-706.0758544569796,808
-703.4099719991541,840
-700.7448236937178,842
-698.0804093659622,843
-695.4167288411002,856
-692.7537819442656,870
-690.0915685005134,861
-687.4300883348199,858
-684.7693412720819,840
-682.1093271371178,798
-679.4500457546669,824
-676.7914969493897,886
-674.1336805458676,861
-671.4765963686034,861
-668.8202442420206,823
-666.1646239904642,912
-663.5097354382001,904
-660.8555784094151,838
-658.2021527282176,915
-655.5494582186366,883
-652.8974947046223,860
-650.2462620100463,935
-647.5957599587009,882
-644.9459883742998,866
-642.2969470804776,848
-639.6486359007902,875
-637.0010546587141,910
-634.3542031776476,914
-631.7080812809096,851
-629.0626887917401,896
-626.4180255333008,892
-623.7740913286734,883
-621.1308860008619,908
-618.4884093727904,919
-615.8466612673046,875
-613.2056415071715,878
-610.5653499150785,853
-607.9257863136347,890
-605.28695052537,920
-602.6488423727357,953
-600.0114616781036,934
-597.3748082637674,873
-594.7388819519412,907
-592.1036825647604,937
-589.4692099242818,952
-586.8354638524829,960
-584.2024441712624,907
-581.5701507024403,906
-578.9385832677575,940
-576.3077416888759,944
-573.6776257873787,959
-571.0482353847704,937
-568.4195703024757,907
-565.7916303618415,936
-563.164415384135,938
-560.5379251905453,922
-557.9121596021815,939
-555.2871184400748,981
-552.6628015251767,910
-550.0392086783606,941
-547.4163397204204,966
-544.794194472071,991
-542.1727727539491,961
-539.5520743866118,943
-536.9320991905377,1031
-534.3128469861261,1007
-531.6943175936979,1000
-529.0765108334947,1044
-526.4594265256793,1107
-523.8430644903358,1147
-521.2274245474689,1317
-518.612506517005,1345
-515.9983102187913,1350
-513.3848354725959,1351
-510.77208209810846,1353
-508.16004991493924,1409
-505.5487387426199,1554
-502.9381484006032,1630
-500.3282787082628,1659
-497.71912948489364,1681
-495.1107005497117,1625
-492.5029917218539,1533
-489.8960028203786,1402
-487.28973366426493,1331
-484.68418407241325,1264
-482.07935386364494,1146
-479.47524285670266,1181
-476.87185087025,1175
-474.2691777228715,1113
-471.66722323307334,1176
-469.0659872192821,1127
-466.4654694998459,1128
-463.86566989303384,1131
-461.26658821703614,1115
-458.66822428996414,1136
-456.07057792985,1139
-453.4736489546475,1178
-450.877437182231,1115
-448.28194243039627,1092
-445.68716451686,1163
-443.09310325926003,1062
-440.49975847515555,1132
-437.9071299820263,1156
-435.31521759727354,1125
-432.72402113821954,1116
-430.13354042210767,1163
-427.5437752661022,1155
-424.95472548728867,1128
-422.36639090267386,1220
-419.7787713291855,1115
-417.1918665836721,1172
-414.60567648290385,1201
-412.0202008435715,1181
-409.4354394822874,1154
-406.8513922155845,1169
-404.26805885991723,1210
-401.685439231661,1228
-399.103533147112,1205
-396.522340422488,1189
-393.9418608739278,1211
-391.3620943174908,1251
-388.7830405691583,1266
-386.2046994448317,1216
-383.6270707603344,1150
-381.05015433141045,1066
-378.473949973725,924
-375.8984575028645,866
-373.32367673433623,844
-370.74960748356875,792
-368.1762495659117,751
-365.60360279663576,728
-363.03166699093265,608
-360.4604419639154,625
-357.8899275306178,538
-355.32012350599507,541
-352.7510297049233,485
-350.1826459421999,496
-347.61497203254316,500
-345.04800779059235,475
-342.4817530309082,476
-339.91620756797226,474
-337.35137121618743,480
-334.7872437898774,461
-332.22382510328725,498
-329.66111497058273,495
-327.09911320585127,513
-324.53781962310075,501
-321.9772340362607,497
-319.4173562591816,509
-316.8581861056348,489
-314.2997233893127,481
-311.7419679238294,492
-309.1849195227194,477
-306.62857799943856,484
-304.0729431673641,510
-301.51801483979375,569
-298.963792829947,542
-296.41027695096386,536
-293.85746701590574,610
-291.3053628377552,606
-288.7539642294155,554
-286.2032710037115,534
-283.65328297338897,527
-281.1039999511146,532
-278.5554217494762,648
-276.007548180983,746
-273.4603790580651,714
-270.9139141930734,729
-268.3681533982807,640
-265.8230964858798,631
-263.27874326798565,636
-260.7350935566336,633
-258.1921471637804,618
-255.6499039013039,615
-253.10836358100266,606
-250.56752601459698,582
-248.02739101372765,580
-245.48795838995704,632
-242.94922795476816,713
-240.41119951956557,730
-237.8738728956746,684
-235.33724789434166,769
-232.80132432673452,733
-230.2661020039418,650
-227.73158073697357,626
-225.19776033676033,647
-222.66464061415422,706
-220.1322213799284,726
-217.60050244477725,673
-215.06948361931552,678
-212.53916471408013,677
-210.00954553952818,719
-207.48062590603843,754
-204.9524056239104,761
-202.4248845033651,767
-199.8980623545441,766
-197.37193898751036,753
-194.84651421224817,707
-192.32178783866232,673
-189.79775967657952,677
-187.27442953574644,801
-184.7517972258321,848
-182.2298625564256,834
-179.7086253370378,763
-177.18808537710026,769
-174.66824248596583,818
-172.14909647290835,805
-169.6306471471229,841
-167.11289431772548,815
-164.59583779375328,925
-162.07947738416453,989
-159.5638128978386,914
-157.04884414357605,904
-154.53457093009854,1000
-152.02099306604828,928
-149.50811035998936,978
-146.99592262040665,995
-144.48442965570587,894
-141.97363127421409,968
-139.46352728417958,1216
-136.95411749377126,1186
-134.44540171107985,1109
-131.93737974411636,996
-129.43005140081357,922
-126.92341648902493,1042
-124.41747481652521,1582
-121.91222619101006,2093
-119.40767042009657,2207
-116.90380731132257,2267
-114.40063667214702,2246
-111.8981583099503,2235
-109.3963720320337,2184
-106.89527764561933,2203
-104.39487495785067,2693
-101.89516377579241,3212
-99.39614390642998,3096
-96.89781515667039,2539
-94.40017733334128,2309
-91.90323024319173,2767
-89.40697369289148,3766
-86.91140748903172,4959
-84.41653143812482,5744
-81.92234534660395,6205
-79.42884902082358,5292
-76.93604226705907,3795
-74.4439248915071,4356
-71.95249670028534,6912
-69.46175749943245,11095
-66.97170709490854,14643
-64.48234529259423,15776
-61.99367189829195,13188
-59.50568671772464,10510
-57.01838955653636,7564
-54.53178022029283,6947
-52.045858514480074,8249
-49.560624244506016,9308
-47.07607721569923,10466
-44.59221723330904,13241
-42.10904410250669,14613
-39.62655762838392,15509
-37.14475761595372,15820
-34.66364387015028,15981
-32.18321619582866,14654
-29.70347439776515,12848
-27.224418280657005,12050
-24.74604764912317,10660
-22.26836230770266,13404
-19.7913620608565,23905
-17.315046712966478,42037
-14.83941606833514,58230
-12.36446993118659,65040
-9.89020810566592,65040
-7.416630395839093,65040
-4.94373660569363,65040
-2.471526539137585,65040
-6.821210263296962E-13,65040
2.47084320796705,65040
4.941003281093458,65040
7.410480415786196,65040
9.879274808531363,65040
12.347386655893956,65040
14.814816154518212,65040
17.28156350112681,65040
19.74762889252179,65040
22.21301252558385,65040
24.67771459727237,20713
27.141735304626195,4152
29.605074844762612,2665
32.06773341487792,2383
34.52971121224755,2126
36.99100843422559,2195
39.45162527824516,2634
41.91156194181792,2140
44.370818622535126,1935
46.82939551806646,1707
49.287292826160524,1774
51.74451074464503,1989
54.201049471426245,2478
56.65690920448981,2579
59.112090141899785,1783
61.56659248179983,1244
64.02041642241159,1141
66.4735621620365,1254
68.92602989905402,1282
71.37781983192338,1200
73.82893215918205,1265
76.27936707944684,1318
78.72912479141326,1346
81.17820549385567,1160
83.62660938562783,1215
86.07433666566146,1513
88.5213875329681,1443
90.96776218663751,1281
93.41346082583925,1155
95.85848364982041,1118
98.30283085790859,1224
100.7465026495089,1349
103.18949922410604,1447
105.63182078126385,1333
108.07346752062438,1222
110.51443964190923,1158
112.95473734491827,1037
115.39436082953114,952
117.83331029570547,1138
120.27158594347827,1497
122.7091879729652,1666
125.1461165843615,1555
127.58237197794062,1157
130.01795435405518,955
132.4528639131364,950
134.88710085569494,957
137.32066538231982,995
139.75355769367923,1081
142.1857779905207,1034
144.61732647366978,1013
147.04820334403132,947
149.47840880258934,933
151.90794305040674,1040
154.33680628862487,1336
156.76499871846443,1412
159.19252054122433,1521
161.61937195828352,1604
164.04555317109896,1594
166.47106438120693,1886
168.89590579022217,2073
171.320077599839,2333
173.7435800118302,2426
176.16641322804742,2416
178.58857745042144,2432
181.01007288096173,2567
183.43089972175687,2685
185.85105817497413,2666
188.27054844285988,2753
190.6893707277394,2838
193.10752523201643,2828
195.5250121581745,2912
197.9418317087751,2946
200.3579840864594,2917
202.7734694939469,2972
205.18828813403627,2945
207.6024402096051,3079
210.01592592360964,3093
212.42874547908548,3011
214.84089907914665,3014
217.2523869269868,3012
219.66320922587727,3094
222.0733661791695,2936
224.48285799029293,3016
226.8916848627572,2981
229.29984700014882,3052
231.7073446061355,3132
234.11417788446204,2953
236.520347038953,3102
238.92585227351185,3251
241.33069379212054,3247
243.73487179884035,3253
246.1383864978112,3335
248.541238093252,3339
250.9434267894609,3237
253.34495279081432,3281
255.74581630176783,3304
258.1460175268563,3205
260.54555667069314,3296
262.9444339379703,3303
265.3426495334594,3313
267.7402036620107,3110
270.1370965285529,3054
272.53332833809407,3186
274.9288992957214,3026
277.32380960660055,2849
279.718059475976,2862
282.1116491091717,2842
284.5045787115897,2826
286.89684848871195,2687
289.2884586460981,2848
291.67940938938807,2863
294.0697009242996,2877
296.4593334566299,2923
298.84830719225477,2813
301.23662233712923,2729
303.6242790972866,2716
306.01127767884,2736
308.39761828798066,2804
310.78330113097934,2705
313.16832641418534,2661
315.5526943440269,2687
317.9364051270112,2572
320.3194589697242,2639
322.70185607883093,2680
325.0835966610754,2600
327.4646809232805,2687
329.8451090723478,2678
332.2248813152577,2501
334.6039978590701,2552
336.9824589109231,2610
339.36026467803447,2563
341.7374153677,2491
344.113911187295,2536
346.48975234427337,2582
348.8649390461686,2462
351.2394715005918,2489
353.61334991523415,2457
355.9865744978655,2505
358.35914545633375,2554
360.73106299856715,2480
363.10232733257146,2496
365.47293866643247,2481
367.84289720831396,2491
370.2122031664593,2487
372.5808567491905,2551
374.9488581649083,2438
377.31620762209275,2383
379.6829053293021,2449
382.0489514951745,2392
384.4143463284262,2369
386.7790900378528,2380
389.14318283232853,2335
391.50662492080653,2306
393.86941651231916,2300
396.23155781597745,2461
398.5930490409713,2318
400.9538903965696,2338
403.3140820921202,2413
405.6736243370498,2375
408.03251734086336,2333
410.3907613131465,2283
412.74835646356166,2302
415.10530300185144,2357
417.4616011378372,2393
419.81725108141893,2268
422.1722530425758,2348
424.5266072313656,2353
426.880313857925,2301
429.2333731324701,2291
431.58578526529516,2289
433.9375504667738,2317
436.2886689473588,2303
438.63914091758113,2255
440.9889665880513,2256
443.33814616945835,2321
445.68667987257015,2218
448.03456790823395,2280
450.3818104873759,2257
452.72840782100013,2235
455.07436012019105,2244
457.41966759611057,2235
459.7643304600007,2214
462.10834892318155,2305
464.4517231970525,2222
466.79445349309174,2231
469.1365400228566,2293
471.4779829979826,2222
473.81878263018564,2272
476.15893913125876,2264
478.4984527130747,2400
480.8373235875855,2325
483.17555196682144,2345
485.5131380628919,2417
487.8500820879857,2487
490.1863842543697,2586
492.52204477439034,2666
494.8570638604725,2859
497.1914417251204,3143
499.52517858091653,3382
501.85827464052306,3484
504.19073011668036,3538
506.5225452222086,3598
508.85372017000566,3525
511.18425517304956,3588
513.514150444396,3531
515.8434061971808,3863
518.1720226446176,4603
520.4999999999999,4841
522.8273384766991,4811
525.1540382881666,4397
527.480099647932,4155
529.8055227696037,3399
532.1303078668694,2964
534.454455153496,2697
536.777964843328,2528
539.1008371502907,2608
541.4230722883866,2435
543.744670471698,2366
546.0656319143858,2355
548.3859568306899,2423
550.7056454349294,2380
553.0246979415016,2329
555.3431145648834,2341
557.6608955196306,2342
559.978041020377,2389
562.2945512818363,2288
564.6104265188006,2371
566.9256669461412,2386
569.2402727788082,2350
571.5542442318302,2300
573.8675815203156,2391
576.1802848594508,2351
578.4923544645015,2359
580.8037905508126,2368
583.114593333807,2389
585.4247630289875,2354
587.7342998519354,2404
590.0432040183106,2342
592.3514757438526,2348
594.6591152443794,2418
596.9661227357875,2446
599.2724984340531,2343
601.578242555231,2403
603.8833553154542,2396
606.1878369309362,2444
608.4916876179676,2413
610.7949075929192,2336
613.0974970722403,2440
615.3994562724587,2372
617.7007854101818,2348
620.0014847020951,2290
622.3015543649641,2328
624.6009946156324,2361
626.8998056710224,2342
629.1979877481361,2377
631.4955410640538,2458
633.7924658359349,2487
636.0887622810175,2375
638.3844306166192,2389
640.6794710601358,2399
642.9738838290426,2351
645.2676691408932,2482
647.5608272133207,2435
649.853358264037,2371
652.1452625108324,2419
654.4365401715764,2402
656.7271914642178,2408
659.0172166067838,2502
661.3066158173809,2444
663.5953893141935,2428
665.8835373154867,2397
668.1710600396028,2429
670.4579577049639,2399
672.7442305300709,2494
675.0298787335033,2400
677.3149025339197,2462
679.599302150058,2447
681.8830778007342,2417
684.1662297048437,2459
686.4487580813608,2398
688.7306631493387,2427
691.0119451279091,2365
693.2926042362834,2410
695.5726406937516,2374
697.8520547196814,2416
700.1308465335215,2344
702.4090163547982,2407
704.6865644031171,2377
706.9634908981619,2462
709.2397960596965,2370
711.5154801075631,2411
713.7905432616823,2420
716.0649857420548,2433
718.3388077687592,2467
720.612009561953,2412
722.8845913418733,2388
725.1565533288352,2363
727.427895743234,2418
729.6986188055427,2432
731.9687227363137,2387
734.238207756178,2284
736.5070740858458,2325
738.7753219461066,2444
741.0429515578281,2422
743.3099631419569,2434
745.5763569195191,2397
747.8421331116193,2415
750.1072919394409,2396
752.3718336242467,2468
754.6357583873777,2344
756.8990664502545,2500
759.1617580343765,2362
761.423833361321,2295
763.6852926527457,2415
765.9461361303862,2432
768.206364016058,2466
770.4659765316536,2431
772.7249738991469,2405
774.9833563405886,2470
777.2411240781092,2471
779.4982773339183,2463
781.7548163303044,2403
784.010741289634,2378
786.2660524343538,2464
788.5207499869881,2442
790.7748341701416,2432
793.0283052064964,2472
795.2811633188143,2465
797.5334087299362,2484
799.7850416627813,2387
802.0360623403484,2427
804.2864709857143,2433
806.5362678220353,2455
808.7854530725468,2460
811.0340269605625,2487
813.2819897094754,2460
815.5293415427581,2374
817.77608268396,2398
820.0222133567116,2413
822.2677337847211,2486
824.5126441917765,2477
826.7569448017433,2372
829.0006358385675,2413
831.2437175262731,2419
833.4861900889629,2385
835.7280537508192,2451
837.9693087361026,2496
840.2099552691533,2429
842.4499935743896,2495
844.689423876309,2435
846.9282463994886,2521
849.1664613685833,2494
851.4040690083276,2400
853.6410695435349,2489
855.877463199097,2481
858.1132501999847,2408
860.3484307712487,2433
862.5830051380175,2434
864.8169735254988,2483
867.0503361589791,2550
869.2830932638243,2523
871.5152450654786,2543
873.7467917894654,2471
875.9777336613873,2561
878.2080709069252,2483
880.4378037518389,2487
882.666932421968,2538
884.8954571432301,2530
887.1233781416219,2508
889.3506956432192,2509
891.5774098741766,2546
893.803521060728,2654
896.0290294291852,2470
898.2539352059397,2429
900.4782386174619,2540
902.7019398903011,2471
904.925039251085,2509
907.147536926521,2520
909.3694331433943,2505
911.59072812857,2520
913.8114221089921,2567
916.0315153116827,2500
918.2510079637437,2582
920.4699002923547,2548
922.6881925247761,2468
924.905884888345,2330
927.1229776104793,2548
929.3394709186747,2443
931.555365040506,2413
933.7706602036275,2484
935.9853566357709,2518
938.1994545647489,2402
940.4129542184515,2455
942.6258558248488,2486
944.8381596119883,2494
947.0498658079974,2384
949.2609746410825,2445
951.4714863395287,2422
953.6814011316998,2444
955.8907192460387,2430
958.0994409110671,2443
960.3075663553858,2478
962.5150958076741,2406
964.7220294966913,2359
966.928367651274,2351
969.1341105003388,2332
971.3392582728806,2394
973.5438111979742,2407
975.747769504772,2378
977.9511334225061,2385
980.153903180487,2354
982.3560790081052,2300
984.5576611348289,2300
986.7586497902058,2322
988.9590452038618,2275
991.158847605503,2287
993.3580572249133,2339
995.5566742919558,2226
997.7546990365728,2203
999.952131688785,2210
1002.1489724786926,2199
1004.3452216364743,2188
1006.5408793923874,2213
1008.7359459767691,2227
1010.9304216200343,2149
1013.1243065526781,2193
1015.3176010052733,2217
1017.510305208472,2148
1019.7024193930064,2182
1021.8939437896848,2111
1024.0848786293977,2140
1026.2752241431122,2139
1028.4649805618747,2112
1030.6541481168115,2137
1032.842727039127,2142
1035.0307175601051,2104
1037.2181199111074,2079
1039.4049343235752,2141
1041.591161029029,2097
1043.7768002590683,2077
1045.9618522453698,2086
1048.1463172196918,2074
1050.3301954138697,2083
1052.513487059818,2181
1054.69619238953,2071
1056.8783116350783,2056
1059.0598450286152,2126
1061.2407928023704,2106
1063.4211551886528,2125
1065.6009324198508,2143
1067.780124728432,2093
1069.9587323469414,2069
1072.1367555080046,2145
1074.314194444325,2110
1076.4910493886855,2059
1078.667320573947,2100
1080.843008233051,2085
1083.0181125990161,2060
1085.1926339049414,2002
1087.3665723840027,2073
1089.5399282694575,2043
1091.7127017946405,2038
1093.8848931929647,2030
1096.0565026979243,2095
1098.2275305430899,2055
1100.3979769621128,2071
1102.567842188722,2050
1104.737126456726,2033
1106.9058300000124,1990
1109.0739530525475,1954
1111.2414958483764,2029
1113.4084586216231,2024
1115.5748416064907,1989
1117.7406450372605,2039
1119.9058691482942,1991
1122.0705141740304,2076
1124.2345803489884,2020
1126.3980679077658,2045
1128.5609770850388,2001
1130.7233081155623,2013
1132.8850612341707,2054
1135.0462366757774,2009
1137.2068346753745,1965
1139.3668554680326,1987
1141.526299288901,2038
1143.68516637321,2007
1145.8434569562655,1951
1148.001171273455,1956
1150.158309560244,1969
1152.3148720521767,1936
1154.470858984876,1980
1156.626270594044,2051
1158.7811071154629,1931
1160.9353687849912,1946
1163.089055838569,1962
1165.242168512213,2010
1167.3947070420209,1983
1169.5466716641677,1943
1171.6980626149075,1914
1173.8488801305748,1949
1175.9991244475814,1956
1178.1487958024186,1986
1180.2978944316555,1937
1182.4464205719428,1943
1184.5943744600072,1996
1186.7417563326567,1986
1188.8885664267755,1970
1191.0348049793297,1916
1193.1804722273619,1960
1195.325568407995,1992
1197.4700937584303,1940
1199.614048515948,1938
1201.7574329179074,1988
1203.900247201746,1998
1206.042491604982,1998
1208.1841663652099,1983
1210.3252717201053,1979
1212.465807907422,1984
1214.6057751649923,1970
1216.7451737307279,2017
1218.8840038426192,2017
1221.0222657387353,1961
1223.1599596572241,1997
1225.2970858363137,2020
1227.4336445143094,2063
1229.5696359295966,2019
1231.705060320639,2032
1233.8399179259786,1969
1235.9742089842384,2009
1238.107933734118,2028
1240.2410924143974,1973
1242.373685263935,2024
1244.5057125216676,2071
1246.6371744266116,2041
1248.7680712178621,2035
1250.898403134593,2018
1253.028170416058,2015
1255.1573733015875,2067
1257.2860120305932,2050
1259.4140868425648,1996
1261.54159797707,1968
1263.6685456737569,2062
1265.7949301723515,2112
1267.9207517126597,1990
1270.046010534565,2127
1272.1707068780306,1973
1274.2948409830983,2041
1276.4184130898889,2082
1278.541423438603,2039
1280.6638722695184,2072
1282.785759822993,2094
1284.9070863394636,2091
1287.0278520594447,2083
1289.1480572235314,2109
1291.2677020723963,2067
1293.3867868467923,2137
1295.5053117875495,2178
1297.623277135579,2139
1299.740683131868,2120
1301.8575300174857,2048
1303.973818033578,2131
1306.0895474213703,2132
1308.2047184221678,2182
1310.3193312773528,2091
1312.4333862283888,2107
1314.5468835168163,2194
1316.659823384255,2100
1318.7722060724045,2228
1320.8840318230418,2127
1322.9953008780249,2172
1325.1060134792888,2331
1327.2161698688478,2175
1329.3257702887959,2153
1331.4348149813054,2149
1333.5433041886276,2127
1335.6512381530933,2171
1337.7586171171101,2170
1339.8654413231675,2131
1341.9717110138317,2191
1344.0774264317488,2218
1346.1825878196432,2205
1348.2871954203192,2120
1350.3912494766587,2114
1352.4947502316231,2132
1354.5976979282532,2174
1356.7000928096686,2132
1358.8019351190665,2202
1360.9032250997243,2117
1363.0039629949988,2080
1365.1041490483235,2159
1367.2037835032133,2084
1369.3028666032606,2124
1371.401398592137,2198
1373.4993797135926,2214
1375.5968102114575,2163
1377.6936903296396,2189
1379.7900203121262,2147
1381.8858004029835,2093
1383.9810308463561,2182
1386.075711886469,2206
1388.1698437676241,2189
1390.2634267342032,2219
1392.356461030667,2183
1394.4489469015557,2219
1396.5408845914872,2205
1398.6322743451592,2142
1400.7231164073469,2276
1402.813411022907,2267
1404.903158436773,2234
1406.9923588939578,2164
1409.0810126395531,2204
1411.1691199187303,2219
1413.2566809767386,2280
1415.343696058907,2262
1417.4301654106425,2293
1419.5160892774315,2213
1421.6014679048399,2255
1423.6863015385125,2346
1425.7705904241707,2346
1427.8543348076178,2208
1429.9375349347342,2303
1432.0201910514802,2295
1434.102303403894,2311
1436.1838722380944,2322
1438.2648978002767,2399
1440.3453803367174,2318
1442.4253200937692,2323
1444.5047173178677,2433
1446.5835722555234,2439
1448.6618851533285,2445
1450.739656257952,2459
1452.8168858161434,2406
1454.8935740747306,2490
1456.96972128062,2467
1459.045327680797,2591
1461.120393522327,2581
1463.1949190523528,2594
1465.2689045180973,2557
1467.3423501668608,2705
1469.415256246024,2711
1471.4876230030463,2735
1473.559450685465,2788
1475.6307395408976,2834
1477.7014898170391,2866
1479.771701761665,2861
1481.8413756226287,2908
1483.9105116478618,2935
1485.9791100853772,2946
1488.0471711832643,2873
1490.1146951896926,2968
1492.1816823529098,3002
1494.2481329212433,3048
1496.3140471430984,3100
1498.3794252669609,3139
1500.4442675413939,3074
1502.5085742150404,3133
1504.572345536622,3172
1506.6355817549388,3151
1508.6982831188702,3228
1510.7604498773744,3266
1512.8220822794883,3201
1514.8831805743293,3275
1516.9437450110909,3292
1519.003775839048,3368
1521.0632733075522,3265
1523.1222376660367,3392
1525.1806691640113,3363
1527.2385680510652,3443
1529.2959345768668,3484
1531.3527689911643,3484
1533.4090715437833,3633
1535.4648424846291,3621
1537.5200820636855,3679
1539.5747905310159,3689
1541.6289681367616,3685
1543.6826151311434,3604
1545.7357317644614,3752
1547.7883182870937,3785
1549.8403749494987,3919
1551.8919020022113,3882
1553.9428996958477,3932
1555.9933682811015,3950
1558.0433080087469,4029
1560.0927191296346,4232
1562.1416018946961,4092
1564.1899565549415,4196
1566.2377833614592,4133
1568.2850825654164,4051
1570.3318544180606,3985
1572.3780991707158,3996
1574.423817074788,3828
1576.4690083817595,3727
1578.5136733431923,3565
1580.5578122107272,3473
1582.601425236085,3344
1584.6445126710646,3218
1586.6870747675434,3153
1588.7291117774776,3029
1590.7706239529034,2991
1592.8116115459347,2877
1594.8520748087658,2835
1596.8920139936686,2798
1598.9314293529933,2737
1600.9703211391711,2600
1603.008689604711,2602
1605.0465350022005,2548
1607.0838575843068,2465
1609.1206576037753,2401
1611.1569353134305,2459
1613.1926909661765,2410
1615.2279248149953,2421
1617.2626371129481,2402
1619.2968281131757,2424
1621.3304980688963,2355
1623.3636472334088,2247
1625.39627586009,2260
1627.428384202396,2282
1629.459972513861,2223
1631.4910410480993,2200
1633.5215900588028,2295
1635.551619799744,2210
1637.5811305247717,2176
1639.6101224878166,2164
1641.6385959428862,2240
1643.6665511440683,2172
1645.693988345528,2205
1647.7209078015112,2164
1649.7473097663405,2148
1651.7731944944203,2202
1653.7985622402307,2223
1655.823413258333,2194
1657.847747803366,2090
1659.8715661300494,2148
1661.8948684931793,2120
1663.9176551476316,2168
1665.9399263483624,2187
1667.9616823504057,2187
1669.982923408873,2041
1672.0036497789574,2169
1674.0238617159293,2169
1676.043559475138,2135
1678.0627433120121,2164
1680.081413482059,2089
1682.0995702408654,2115
1684.117213844096,2129
1686.134344547495,2137
1688.1509626068864,2118
1690.1670682781705,2197
1692.182661817329,2165
1694.1977434804217,2201
1696.2123135235875,2141
1698.226372203043,2172
1700.2399197750851,2088
1702.2529564960905,2170
1704.2654826225112,2071
1706.277498410882,2171
1708.2890041178139,2153
1710.2999999999988,2183
1712.3104863142066,2154
1714.3204633172854,2161
1716.329931266163,2108
1718.3388904178469,2063
1720.3473410294214,2139
1722.3552833580516,2073
1724.3627176609807,2104
1726.3696441955308,2111
1728.3760632191033,2116
1730.3819749891782,2107
1732.3873797633146,2138
1734.3922777991502,2100
1736.3966693544012,2069
1738.4005546868639,2150
1740.4039340544127,2131
1742.406807715001,2118
1744.4091759266616,2056
1746.4110389475054,2148
1748.4123970357223,2060
1750.413250449582,2072
1752.4135994474318,2064
1754.4134442876993,2101
1756.4127852288902,2171
1758.4116225295893,2088
1760.4099564484595,2043
1762.407787244244,2033
1764.405115175764,2047
1766.4019405019203,2136
1768.3982634816916,2043
1770.3940843741357,2087
1772.3894034383907,2017
1774.3842209336717,2011
1776.378537119274,1987
1778.372352254571,2031
1780.3656665990156,2038
1782.3584804121397,2069
1784.3507939535534,2027
1786.3426074829463,2077
1788.3339212600863,2021
1790.3247355448211,2065
1792.3150505970766,2051
1794.3048666768573,2065
1796.2941840442477,2031
1798.2830029594106,2002
1800.2713236825884,2024
1802.2591464741004,2081
1804.2464715943465,2078
1806.2332993038058,2001
1808.2196298630352,2075
1810.2054635326708,2101
1812.190800573428,2020
1814.175641246101,2099
1816.1599858115628,2095
1818.1438345307652,2023
1820.127187664738,2090
1822.1100454745924,2140
1824.092408221516,2103
1826.0742761667766,2055
1828.055649571721,2081
1830.0365286977735,2005
1832.0169138064398,1995
1833.9968051593014,1954
1835.9762030180214,2056
1837.9551076443408,2073
1839.9335193000788,2065
1841.9114382471344,2015
1843.888864747485,2000
1845.8657990631878,2066
1847.842241456378,2102
1849.8181921892697,2029
1851.7936515241558,1985
1853.7686197234098,1994
1855.7430970494815,2091
1857.7170837649014,2062
1859.6905801322787,2042
1861.6635864143004,2075
1863.6361028737338,2097
1865.608129773424,2019
1867.5796673762961,1995
1869.5507159453537,2015
1871.521275743678,2084
1873.4913470344313,2077
1875.4609300808534,2049
1877.4300251462632,2010
1879.3986324940588,2072
1881.366752387717,2060
1883.3343850907936,2193
1885.3015308669228,2022
1887.268189979819,2056
1889.2343626932739,2033
1891.2000492711595,2025
1893.1652499774254,2028
1895.1299650761011,2007
1897.0941948312952,2040
1899.0579395071945,1992
1901.0211993680641,2099
1902.98397467825,2036
1904.9462657021745,2065
1906.9080727043415,2067
1908.869395949332,2048
1910.8302357018065,2084
1912.790592226504,2100
1914.7504657882428,1995
1916.7098566519212,1994
1918.6687650825133,1983
1920.6271913450764,2024
1922.5851357047422,2117
1924.5425984267245,2073
1926.499579776314,2066
1928.4560800188833,1995
1930.4120994198802,2029
1932.367638244833,1986
1934.32269675935,2051
1936.2772752291175,1989
1938.231373919899,2061
1940.1849930975404,2072
1942.1381330279637,2034
1944.0907939771696,1980
1946.0429762112412,2060
1947.9946799963363,2009
1949.9459055986945,2040
1951.896653284633,1972
1953.8469233205478,1988
1955.7967159729142,2073
1957.7460315082863,2083
1959.6948701932974,2040
1961.6432322946594,2010
1963.5911180791632,2036
1965.5385278136787,2001
1967.4854617651545,2008
1969.4319202006182,1961
1971.377903387176,2111
1973.3234115920136,1984
1975.268445082395,2007
1977.2130041256642,2097
1979.1570889892423,2084
1981.1006999406304,2059
1983.04383724741,2078
1984.986501177238,2072
1986.928691997853,1960
1988.8704099770712,1918
1990.811655382789,2019
1992.7524284829801,2071
1994.692729545698,2072
1996.6325588390755,1999
1998.5719166313224,2041
2000.5108031907307,2034
2002.4492187856677,2020
2004.387163684583,1977
2006.3246381560011,1980
2008.2616424685298,2026
2010.1981768908527,2063
2012.1342416917332,1947
2014.069837140014,2004
2016.0049635046162,1996
2017.9396210545406,1977
2019.8738100588666,1969
2021.8075307867502,2038
2023.740783507431,1952
2025.6735684902228,2034
2027.6058860045214,2048
2029.5377363198004,1951
2031.4691197056118,1978
2033.4000364315875,1964
2035.3304867674374,1998
2037.260470982952,1979
2039.189989347998,1990
2041.1190421325232,1954
2043.047629606554,1996
2044.9757520401945,2004
2046.9034097036288,1939
2048.8306028671195,1968
2050.7573318010086,1989
2052.683596775716,1994
2054.609398061742,1997
2056.5347359296647,1997
2058.4596106501403,2001
2060.384022493906,1945
2062.3079717317764,2003
2064.231458634646,2042
2066.1544834734873,1963
2068.077046519352,1994
2069.99914804337,1990
2071.9207883167524,2047
2073.8419676107865,1988
2075.7626861968406,2021
2077.6829443463607,2027
2079.6027423308715,1983
2081.522080421977,2014
2083.440958891362,1892
2085.359378010786,2046
2087.2773380520907,1957
2089.194839287196,1973
2091.111881988101,1989
2093.0284664268825,1957
2094.9445928756973,1978
2096.86026160678,1963
2098.775472892446,2025
2100.690227005088,1984
2102.604524217178,1986
2104.5183648012676,2003
2106.431749029985,2032
2108.34467717604,1965
2110.2571495122206,2018
2112.169166311393,2033
2114.080727846503,1985
2115.9918343905747,2028
2117.902486216711,2028
2119.8126835980956,1971
2121.722426807987,1969
2123.6317161197285,1931
2125.5405518067364,1982
2127.448934142509,2049
2129.356863400624,2011
2131.264339854737,2013
2133.1713637785815,2043
2135.077935445972,1988
2136.9840551308002,2029
2138.889723107037,2062
2140.7949396487334,2049
2142.699705030018,2076
2144.6040195250994,2108
2146.507883408264,2024
2148.4112969538774,1995
2150.3142604363848,2066
2152.2167741303097,1973
2154.1188383102535,2028
2156.0204532508997,2077
2157.9216192270064,2005
2159.822336513414,2081
2161.7226053850413,2003
2163.622426116884,2046
2165.5217989840185,2098
2167.4207242616,2101
2169.319202224862,2107
2171.2172331491165,2124
2173.1148173097563,2076
2175.0119549822507,2078
2176.90864644215,2104
2178.8048919650823,2099
2180.7006918267534,2099
2182.596046302952,2099
2184.4909556695407,2025
2186.3854202024645,2082
2188.279440177746,2106
2190.173015871487,2111
2192.066147559868,2100
2193.958835519149,2088
2195.851080025667,2104
2197.7428813558417,2102
2199.6342397861667,2111
2201.5251555932186,2148
2203.415629053651,2126
2205.3056604441986,2150
2207.19525004167,2120
2209.084398122958,2111
2210.9731049650327,2103
2212.861370844941,2106
2214.749196039812,2217
2216.636580826851,2170
2218.523525483344,2133
2220.410030286655,2104
2222.296095514226,2133
2224.1817214435805,2234
2226.066908352319,2056
2227.951656518121,2096
2229.835966218746,2145
2231.71983773203,2028
2233.6032713358913,2084
2235.486267308324,2162
2237.3688259274036,2053
2239.2509474712824,2052
2241.132632218193,2137
2243.013880446447,2158
2244.8946924344323,2111
2246.7750684606203,2122
2248.6550088035574,2062
2250.534513741871,2113
2252.413583554265,2150
2254.292218519526,2036
2256.170418916517,2166
2258.0481850241786,2073
2259.925517121534,2092
2261.8024154876825,2150
2263.678880401803,2150
2265.5549121431536,2140
2267.430510991071,2197
2269.305677224971,2111
2271.180411124348,2157
2273.0547129687766,2144
2274.9285830379076,2028
2276.8020216114737,2106
2278.6750289692845,2119
2280.5476053912294,2078
2282.4197511572766,2182
2284.2914665474727,2133
2286.162751841943,2164
2288.0336073208937,2201
2289.904033264608,2230
2291.774029953448,2238
2293.6435976678554,2150
2295.5127366883517,2091
2297.381447295534,2157
2299.2497297700825,2074
2301.1175843927526,2056
2302.9850114443825,2142
2304.852011205885,2002
2306.7185839582553,2017
2308.5847299825664,1997
2310.4504495599676,1980
2312.3157429716925,1923
2314.1806104990483,2036
2316.0450524234247,1938
2317.9090690262888,1911
2319.772660589186,1949
2321.635827393742,2025
2323.498569721661,2002
2325.3608878547248,1915
2327.2227820747967,1972
2329.0842526638157,2009
2330.945299903803,1955
2332.805924076857,1875
2334.6661254651535,1943
2336.525904350951,2005
2338.3852610165827,1957
2340.244195744464,1913
2342.102708817088,1913
2343.9608005170253,1933
2345.8184711269287,1948
2347.675720929526,1978
2349.532550207628,2028
2351.38895924412,1994
2353.24494832197,1884
2355.100517724223,2005
2356.955667734004,1956
2358.810398634514,1976
2360.664710709037,1978
2362.5186042409337,2003
2364.3720795136437,2003
2366.225136810686,1924
2368.0777764156583,1941
2369.929998612237,1981
2371.7818036841777,1959
2373.633191915315,1976
2375.484163589562,2058
2377.3347189909114,1971
2379.184858403434,1932
2381.03458211128,1958
2382.8838903986775,2036
2384.732783549936,1998
2386.5812618494406,1982
2388.4293255816588,2005
2390.2769750311327,1961
2392.1242104824883,2056
2393.971032220427,2001
2395.8174405297295,1867
2397.6634356952563,2057
2399.509018001947,1989
2401.3541877348193,1986
2403.1989451789705,2022
2405.043290619576,2016
2406.8872243418905,2089
2408.730746631247,1973
2410.5738577730594,2008
2412.4165580528183,1998
2414.258847756095,1994
2416.100727168537,1992
2417.9421965758734,1973
2419.783256263912,1980
2421.623906518538,2012
2423.4641476257157,2018
2425.303979871491,2057
2427.143403541984,2071
2428.9824189233977,2012
2430.821026302012,1989
2432.6592259641866,1890
2434.497018196361,1998
2436.33440328505,2031
2438.171381516851,2012
2440.00795317844,1997
2441.844118556569,2016
2443.6798779380724,2029
2445.5152316098606,2033
2447.3501798589255,1980
2449.1847229723357,2095
2451.0188612372403,1981
2452.8525949408663,1969
2454.6859243705203,2030
2456.518849813587,2001
2458.3513715575314,2064
2460.183489889895,2010
2462.015205098301,2049
2463.8465174704493,2014
2465.67742729412,2051
2467.5079348571717,1994
2469.338040447542,2009
2471.1677443532476,2103
2472.9970468623833,2039
2474.825948263123,2060
2476.6544488437207,1988
2478.482548892508,2091
2480.310248697896,2021
2482.137548548374,2049
2483.9644487325118,2010
2485.790949538956,1908
2487.617051256433,1994
2489.44275417375,2037
2491.26805857979,2018
2493.0929647635157,2095
2494.917473013971,2055
2496.741583620276,2070
2498.5652968716304,2048
2500.3886130573137,2098
2502.2115324666834,2039
2504.0340553891765,2035
2505.856182114308,2146
2507.6779129316733,2028
2509.499248130945,2071
2511.3201880018764,1982
2513.140732834298,2073
2514.9608829181198,2047
2516.780638543331,2054
2518.6,2151
2520.418967578273,1971
2522.237541568376,2070
2524.0557222606144,2055
2525.8735099453706,2127
2527.6909049131086,2100
2529.507907454368,2144
2531.32451785977,2190
2533.140736420014,2169
2534.9565634258774,2142
2536.771999168218,2118
2538.5870439379714,2135
2540.4016980261526,2136
2542.2159617238544,2188
2544.02983532225,2156
2545.8433191125914,2167
2547.656413386209,2182
2549.4691184345115,2152
2551.2814345489874,2174
2553.093362021204,2147
2554.904901142808,2226
2556.716052205523,2120
2558.526815501153,2193
2560.3371913215824,2158
2562.147179958771,2261
2563.956781704761,2286
2565.7659968516705,2254
2567.5748256916986,2269
2569.3832685171224,2290
2571.1913256202984,2168
2572.9989972936614,2273
2574.806283829725,2312
2576.613185521084,2252
2578.4197026604074,2278
2580.2258355404483,2296
2582.031584454035,2278
2583.836949694077,2330
2585.6419315535613,2362
2587.4465303255533,2294
2589.2507463032002,2304
2591.0545797797245,2240
2592.8580310484303,2334
2594.6611004026995,2340
2596.463788135992,2351
2598.266094541849,2280
2600.0680199138874,2314
2601.869564545807,2328
2603.670728731383,2374
2605.4715127644704,2379
2607.2719169390048,2361
2609.071941548998,2357
2610.8715868885433,2364
2612.670853251811,2339
2614.469740933052,2380
2616.268250226594,2357
2618.0663814268455,2385
2619.864134828292,2395
2621.6615107255006,2394
2623.458509413115,2276
2625.2551311858597,2332
2627.0513763385347,2342
2628.8472451660223,2374
2630.6427379632833,2302
2632.4378550253564,2309
2634.232596647359,2304
2636.026963124488,2289
2637.8209547520187,2272
2639.6145718253065,2293
2641.407814639785,2332
2643.200683490966,2302
2644.9931786744414,2264
2646.7853004858807,2324
2648.577049221034,2230
2650.3684251757277,2201
2652.1594286458712,2305
2653.9500599274484,2181
2655.740319316525,2153
2657.5302071092437,2172
2659.3197236018286,2144
2661.10886909058,2120
2662.8976438718782,2104
2664.686048242183,2122
2666.4740824980327,2151
2668.2617469360443,2229
2670.0490418529134,2198
2671.8359675454153,2218
2673.622524310403,2181
2675.408712444811,2099
2677.1945322456495,2076
2678.979984010009,2122
2680.76506803506,2120
2682.5497846180497,2099
2684.334134056306,2082
2686.1181166472343,2117
2687.9017326883213,2131
2689.6849824771293,2083
2691.4678663113013,2070
2693.2503844885596,2112
2695.032537306705,2035
2696.8143250636167,2045
2698.5957480572542,2064
2700.3768065856534,2058
2702.1575009469316,2107
2703.937831439283,2097
2705.717798360982,2076
2707.4974020103837,2078
2709.276642685917,2165
2711.055520686095,2081
2712.834036309506,2026
2714.612189854819,2007
2716.389981620782,2019
2718.1674119062204,2087
2719.944481010041,2032
2721.721189231226,1923
2723.4975368688415,2044
2725.273524222027,2015
2727.0491515900053,2097
2728.824419272075,2050
2730.5993275676146,1994
2732.3738767760838,2027
2734.148067197016,2039
2735.921899130031,2079
2737.6953728748194,2040
2739.468488731156,2013
2741.2412469988926,1984
2743.0136479779617,2015
2744.785691968372,1976
2746.5573792702116,2067
2748.3287101836504,1990
2750.099685008934,2022
2751.870304046388,2027
2753.640567596418,2103
2755.4104759595057,2069
2757.1800294362156,2037
2758.949228327187,2025
2760.7180729331412,2037
2762.486563554877,2043
2764.254700493272,2063
2766.022484049284,2037
2767.789914523947,2055
2769.5569922183786,1996
2771.3237174337705,2054
2773.090090471394,2099
2774.8561116326036,2039
2776.6217812188274,2066
2778.3870995315756,1943
2780.1520668724356,2048
2781.9166835430747,2092
2783.6809498452394,2023
2785.444866080754,2059
2787.2084325515225,1996
2788.971649559527,2012
2790.73451740683,2031
2792.4970363955713,2019
2794.2592068279705,1994
2796.0210290063264,1971
2797.7825032330147,1976
2799.543629810493,2080
2801.304409041296,1994
2803.0648412280366,2050
2804.8249266734088,2004
2806.5846656801846,2051
2808.344058551212,2055
2810.1031055894246,2039
2811.8618070978273,2016
2813.6201633795085,1997
2815.378174737636,2010
2817.1358414754536,2043
2818.893163896285,2023
2820.6501423035334,2032
2822.4067770006814,2017
2824.1630682912883,2075
2825.9190164789957,2002
2827.6746218675207,2022
2829.429884760661,2004
2831.184805462294,2008
2832.9393842763743,2004
2834.693621506936,2041
2836.4475174580916,2022
2838.201072434034,2053
2839.954286739034,2019
2841.707160677441,1998
2843.459694553685,2033
2845.2118886722724,2044
2846.96374333779,2021
2848.7152588549034,2008
2850.4664355283567,2102
2852.217273662973,2059
2853.9677735636546,2082
2855.7179355353833,2076
2857.4677598832186,2023
2859.217246912299,2040
2860.9663969278427,2017
2862.715210235146,2052
2864.4636871395846,2048
2866.211827946614,2047
2867.9596329617652,2015
2869.7071024906536,2021
2871.4542368389684,2072
2873.20103631248,1986
2874.947501217038,2035
2876.6936318585695,1985
2878.4394285430812,1988
2880.1848915766604,2037
2881.9300212654707,1980
2883.6748179157553,1998
2885.4192818338374,2036
2887.1634133261173,2023
2888.907212699077,2033
2890.6506802592744,2002
2892.393816313348,2047
2894.1366211680142,1963
2895.8790951300693,2032
2897.621238506388,2069
2899.363051603925,2053
2901.1045347297118,2062
2902.8456881908596,2028
2904.58651229456,2010
2906.327007348081,2004
2908.067173658772,2055
2909.8070115340597,2045
2911.5465212814497,1966
2913.285703208527,1999
2915.0245576229563,1986
2916.7630848324807,2072
2918.5012851449196,1892
2920.2391588681758,2028
2921.976706310227,2036
2923.7139277791334,1956
2925.4508235830313,1930
2927.187394030137,2023
2928.923639428745,2019
2930.6595600872306,2030
2932.395156314046,2040
2934.1304284177218,2018
2935.8653767068713,1994
2937.6000014901815,2061
2939.3343030764227,2027
2941.068281774442,2048
2942.8019378931644,2038
2944.5352717415976,2056
2946.2682836288236,2101
2948.0009738640065,2076
2949.7333427563885,2073
2951.465390615289,2035
2953.1971177501086,2088
2954.9285244703265,2169
2956.6596110855,2037
2958.3903779052657,2106
2960.1208252393385,2002
2961.8509533975125,2001
2963.5807626896617,2086
2965.3102534257378,2088
2967.0394259157715,1995
2968.768280469873,2021
2970.496817398232,2024
2972.2250370111146,2045
2973.952939618869,2029
2975.6805255319196,2046
2977.4077950607707,2098
2979.134748516006,2055
2980.861386208289,1969
2982.587708448359,2049
2984.313715547037,2006
2986.039407815222,2119
2987.764785563891,2077
2989.489849104102,2113
2991.2145987469908,2051
2992.9390348037705,2012
2994.6631575857346,2028
2996.3869674042576,2008
2998.1104645707887,2080
2999.83364939686,1983
3001.5565221940783,2020
3003.2790832741334,1982
3005.0013329487924,2007
3006.7232715298996,2044
3008.4448993293804,2020
3010.166216659239,1973
3011.887223831558,2002
3013.607921158498,1958
3015.3283089522993,2057
3017.0483875252826,2016
3018.7681571898443,2040
3020.4876182584626,1948
3022.2067710436927,2010
3023.9256158581707,2075
3025.644153014609,2080
3027.362382825801,2084
3029.0803056046193,2009
3030.797921664012,1978
3032.5152313170106,2063
3034.2322348767225,2005
3035.9489326563353,2021
3037.665324969115,2002
3039.3814121284063,2065
3041.097194447633,2048
3042.812672240299,2077
3044.5278458199855,2069
3046.2427155003525,2037
3047.9572815951406,2070
3049.671544418167,2025
3051.38550428333,2010
3053.0991615046073,2152
3054.812516396051,2110
3056.5255692717974,2022
3058.2383204460575,2053
3059.9507702331257,2002
3061.662918947372,2113
3063.3747669032446,1978
3065.0863144152736,1999
3066.7975617980674,2012
3068.508509366309,2030
3070.219157434767,2086
3071.9295063182844,2016
3073.639556331785,2112
3075.3493077902704,2077
3077.058761008821,2045
3078.7679163025964,2038
3080.476773986837,2008
3082.1853343768594,2044
3083.89359778806,2129
3085.6015645359153,2072
3087.3092349359786,2026
3089.016609303884,2034
3090.7236879553434,2053
3092.4304712061476,2034
3094.136959372166,1954
3095.843152769349,2050
3097.5490517137237,2020
3099.2546565213966,2082
3100.959967508554,2097
3102.66498499146,2074
3104.3697092864577,1969
3106.0741407099695,2060
3107.778279578498,2105
3109.482126208622,2059
3111.1856809170004,2035
3112.8889440203716,2082
3114.5919158355528,2079
3116.294596679439,2128
3117.996986869006,2078
3119.6990867213062,2031
3121.4008965534726,2097
3123.102416682717,2075
3124.803647426329,2087
3126.5045891016784,2125
3128.205242026213,2095
3129.90560651746,2162
3131.605682893025,2142
3133.3054714705922,2139
3135.0049725679282,2081
3136.7041865028714,2111
3138.4031135933465,2062
3140.101754157353,2055
3141.800108512971,2040
3143.498176978357,2068
3145.1959598717494,2014
3146.8934575114636,2038
3148.5906702158954,2049
3150.2875983035183,2045
3151.9842420928853,2043
3153.680601902627,1998
3155.376678051456,2013
3157.07247085816,2034
3158.767980641609,1959
3160.463207720748,2066
3162.158152414606,2114
3163.8528150422862,2065
3165.5471959229726,2038
3167.2412953759303,2077
3168.9351137204976,2080
3170.628651276098,2072
3172.3219083622307,2041
3174.014885298474,2072
3175.707582404485,2101
3177.4000000000005,1976
3179.092138404835,2155
3180.7839979388846,2116
3182.47557892212,2123
3184.166881674594,2092
3185.8579065164386,2100
3187.5486537678626,2040
3189.2391237491547,2048
3190.9293167806827,2072
3192.6192331828934,2026
3194.3088732763117,2031
3195.998237381542,2052
3197.687325819268,2014
3199.376138910251,2040
3201.064676975334,2072
3202.7529403354347,2049
3204.4409293115523,2040
3206.1286442247647,2041
3207.816085396229,2037
3209.5032531471825,2047
3211.190147798936,2054
3212.8767696728846,2011
3214.5631190905015,2005
3216.2491963733373,1969
3217.9350018430214,2017
3219.6205358212637,2048
3221.305798629851,2063
3222.990790590651,1993
3224.6755120256103,1996
3226.359963256751,2068
3228.0441446061795,1927
3229.7280563960758,1999
3231.411698948703,2005
3233.0950725863995,1932
3234.778177631587,1990
3236.461014406761,2069
3238.1435832345005,2060
3239.8258844374595,2059
3241.507918338374,2034
3243.1896852600576,2017
3244.8711855254023,2047
3246.552419457381,2105
3248.233387379042,2098
3249.914089613516,2021
3251.59452648401,2094
3253.274698313813,2028
3254.95460542629,1976
3256.6342481448855,1984
3258.313626793125,2061
3259.9927416946084,1973
3261.6715931730196,2016
3263.3501815521176,2052
3265.0285071557437,1984
3266.706570307815,2023
3268.3843713323286,1960
3270.0619105533615,1980
3271.739188295068,2016
3273.4162048816834,1948
3275.0929606375184,2020
3276.769455886966,2005
3278.445690954498,2045
3280.1216661646613,2073
3281.797381842087,2029
3283.4728383114807,2087
3285.1480358976296,2028
3286.8229749253996,2060
3288.4976557197333,2016
3290.172078605655,2057
3291.846243908266,2006
3293.5201519527463,2065
3295.193803064357,2008
3296.8671975684374,2046
3298.5403357904024,1928
3300.21321805575,1996
3301.8858446900567,2043
3303.558216018975,2090
3305.23033236824,2074
3306.9021940636603,2075
3308.57380143113,2068
3310.2451547966184,2033
3311.916254486174,2040
3313.5871008259246,2031
3315.2576941420766,2031
3316.9280347609147,2059
3318.5981230088046,1961
3320.2679592121895,2030
3321.9375436975924,1993
3323.606876791612,2026
3325.27595882093,2001
3326.944790112305,1962
3328.6133709925753,1972
3330.2817017886573,1960
3331.949782827547,2010
3333.617614436319,2040
3335.2851969421245,2067
3336.952530672199,2075
3338.619615953853,2065
3340.286453114475,2035
3341.9530424815357,2031
3343.619384382583,2056
3345.2854791452437,2125
3346.951327097224,2061
3348.6169285663073,2043
3350.2822838803577,2090
3351.947393367319,2121
3353.61225735521,2107
3355.2768761721345,2017
3356.9412501462693,2057
3358.605379605873,2063
3360.2692648792827,2130
3361.9329062949146,2076
3363.596304181263,2028
