CollectionTime,6/26/2024 2:44:12 PM
ExposureUsed,3
CalibratedSpectrum
-962.7078968117929,3135
-959.9714848408522,3378
-957.2358232597828,3458
-954.5009119013725,3450
-951.7667505983302,3484
-949.0333391832855,3421
-946.3006774887896,3479
-943.5687653473143,3486
-940.837602591253,3440
-938.1071890529199,3513
-935.3775245645503,3508
-932.6486089583007,3465
-929.9204420662485,3528
-927.1930237203925,3447
-924.4663537526524,3440
-921.7404319948689,3404
-919.0152582788041,3549
-916.2908324361409,3566
-913.5671542984834,3501
-910.8442236973568,3491
-908.1220404642074,3459
-905.4006044304027,3536
-902.679915427231,3535
-899.959973285902,3484
-897.2407778375464,3580
-894.5223289132158,3601
-891.8046263438832,3479
-889.0876699604426,3414
-886.3714595937089,3385
-883.6559950744183,3382
-880.9412762332282,3503
-878.2273029007168,3483
-875.5140749073835,3487
-872.8015920836489,3438
-870.0898542598545,3468
-867.3788612662631,3440
-864.6686129330585,3489
-861.9591090903457,3471
-859.2503495681506,3515
-856.5423341964203,3527
-853.8350628050229,3548
-851.1285352237478,3526
-848.4227512823054,3552
-845.7177108103272,3620
-843.0134136373656,3519
-840.3098595928943,3472
-837.6070485063082,3540
-834.9049802069229,3553
-832.2036545239757,3636
-829.5030712866244,3539
-826.8032303239481,3567
-824.1041314649472,3609
-821.4057745385428,3561
-818.7081593735775,3535
-816.0112857988148,3499
-813.3151536429393,3595
-810.6197627345566,3551
-807.9251129021936,3508
-805.2312039742981,3571
-802.5380357792392,3535
-799.8456081453069,3506
-797.1539209007124,3668
-794.462973873588,3398
-791.772766891987,3531
-789.083299783884,3486
-786.3945723771743,3574
-783.7065844996748,3556
-781.0193359791231,3594
-778.3328266431781,3552
-775.6470563194197,3606
-772.9620248353489,3479
-770.2777320183878,3596
-767.5941776958798,3552
-764.9113616950891,3554
-762.2292838432011,3539
-759.5479439673222,3622
-756.8673418944801,3562
-754.1874774516235,3597
-751.5083504656222,3427
-748.8299607632671,3636
-746.15230817127,3513
-743.475392516264,3632
-740.7992136248035,3525
-738.1237713233636,3525
-735.4490654383407,3672
-732.7750957960521,3542
-730.1018622227365,3564
-727.4293645445534,3643
-724.7576025875837,3672
-722.0865761778291,3630
-719.4162851412126,3643
-716.7467293035781,3687
-714.0779084906909,3669
-711.409822528237,3764
-708.7424712418238,3754
-706.0758544569796,3659
-703.4099719991541,3619
-700.7448236937178,3705
-698.0804093659622,3704
-695.4167288411002,3720
-692.7537819442656,3587
-690.0915685005134,3710
-687.4300883348199,3647
-684.7693412720819,3736
-682.1093271371178,3614
-679.4500457546669,3708
-676.7914969493897,3742
-674.1336805458676,3733
-671.4765963686034,3730
-668.8202442420206,3775
-666.1646239904642,3658
-663.5097354382001,3826
-660.8555784094151,3794
-658.2021527282176,3648
-655.5494582186366,3822
-652.8974947046223,3805
-650.2462620100463,3739
-647.5957599587009,3864
-644.9459883742998,3949
-642.2969470804776,3790
-639.6486359007902,3789
-637.0010546587141,3816
-634.3542031776476,3855
-631.7080812809096,3848
-629.0626887917401,3775
-626.4180255333008,3700
-623.7740913286734,3847
-621.1308860008619,3740
-618.4884093727904,3832
-615.8466612673046,3769
-613.2056415071715,3837
-610.5653499150785,3765
-607.9257863136347,3723
-605.28695052537,3893
-602.6488423727357,3840
-600.0114616781036,3794
-597.3748082637674,3762
-594.7388819519412,3836
-592.1036825647604,3780
-589.4692099242818,3775
-586.8354638524829,3838
-584.2024441712624,3853
-581.5701507024403,3789
-578.9385832677575,3887
-576.3077416888759,3809
-573.6776257873787,3790
-571.0482353847704,3828
-568.4195703024757,3866
-565.7916303618415,3917
-563.164415384135,3858
-560.5379251905453,3919
-557.9121596021815,3837
-555.2871184400748,3820
-552.6628015251767,3794
-550.0392086783606,3762
-547.4163397204204,3914
-544.794194472071,3804
-542.1727727539491,3916
-539.5520743866118,3846
-536.9320991905377,3812
-534.3128469861261,4012
-531.6943175936979,3879
-529.0765108334947,3928
-526.4594265256793,4059
-523.8430644903358,4160
-521.2274245474689,4200
-518.612506517005,4452
-515.9983102187913,4432
-513.3848354725959,4522
-510.77208209810846,4595
-508.16004991493924,4794
-505.5487387426199,4755
-502.9381484006032,4834
-500.3282787082628,4832
-497.71912948489364,4991
-495.1107005497117,4860
-492.5029917218539,4829
-489.8960028203786,4679
-487.28973366426493,4507
-484.68418407241325,4411
-482.07935386364494,4308
-479.47524285670266,4287
-476.87185087025,4226
-474.2691777228715,4300
-471.66722323307334,4258
-469.0659872192821,4302
-466.4654694998459,4176
-463.86566989303384,4128
-461.26658821703614,4169
-458.66822428996414,4138
-456.07057792985,4123
-453.4736489546475,4253
-450.877437182231,4228
-448.28194243039627,4166
-445.68716451686,4134
-443.09310325926003,4038
-440.49975847515555,3985
-437.9071299820263,3999
-435.31521759727354,4004
-432.72402113821954,3963
-430.13354042210767,4038
-427.5437752661022,4033
-424.95472548728867,4141
-422.36639090267386,4134
-419.7787713291855,4120
-417.1918665836721,4267
-414.60567648290385,4063
-412.0202008435715,4072
-409.4354394822874,4083
-406.8513922155845,4168
-404.26805885991723,4057
-401.685439231661,4120
-399.103533147112,4052
-396.522340422488,4026
-393.9418608739278,4093
-391.3620943174908,3986
-388.7830405691583,3853
-386.2046994448317,3763
-383.6270707603344,3505
-381.05015433141045,3278
-378.473949973725,2962
-375.8984575028645,2695
-373.32367673433623,2378
-370.74960748356875,2150
-368.1762495659117,1853
-365.60360279663576,1644
-363.03166699093265,1418
-360.4604419639154,1284
-357.8899275306178,1122
-355.32012350599507,931
-352.7510297049233,856
-350.1826459421999,753
-347.61497203254316,769
-345.04800779059235,696
-342.4817530309082,693
-339.91620756797226,669
-337.35137121618743,626
-334.7872437898774,587
-332.22382510328725,584
-329.66111497058273,592
-327.09911320585127,612
-324.53781962310075,583
-321.9772340362607,629
-319.4173562591816,762
-316.8581861056348,782
-314.2997233893127,697
-311.7419679238294,634
-309.1849195227194,684
-306.62857799943856,703
-304.0729431673641,661
-301.51801483979375,585
-298.963792829947,605
-296.41027695096386,599
-293.85746701590574,638
-291.3053628377552,646
-288.7539642294155,698
-286.2032710037115,792
-283.65328297338897,765
-281.1039999511146,700
-278.5554217494762,760
-276.007548180983,802
-273.4603790580651,860
-270.9139141930734,918
-268.3681533982807,879
-265.8230964858798,778
-263.27874326798565,718
-260.7350935566336,746
-258.1921471637804,834
-255.6499039013039,927
-253.10836358100266,827
-250.56752601459698,772
-248.02739101372765,767
-245.48795838995704,843
-242.94922795476816,994
-240.41119951956557,868
-237.8738728956746,922
-235.33724789434166,1065
-232.80132432673452,1354
-230.2661020039418,1219
-227.73158073697357,950
-225.19776033676033,832
-222.66464061415422,900
-220.1322213799284,906
-217.60050244477725,843
-215.06948361931552,912
-212.53916471408013,938
-210.00954553952818,925
-207.48062590603843,1009
-204.9524056239104,1018
-202.4248845033651,895
-199.8980623545441,958
-197.37193898751036,963
-194.84651421224817,1003
-192.32178783866232,973
-189.79775967657952,981
-187.27442953574644,988
-184.7517972258321,1198
-182.2298625564256,1363
-179.7086253370378,1370
-177.18808537710026,1343
-174.66824248596583,1302
-172.14909647290835,1294
-169.6306471471229,1361
-167.11289431772548,1308
-164.59583779375328,1353
-162.07947738416453,1300
-159.5638128978386,1371
-157.04884414357605,1464
-154.53457093009854,1771
-152.02099306604828,1511
-149.50811035998936,1387
-146.99592262040665,1364
-144.48442965570587,1438
-141.97363127421409,1636
-139.46352728417958,1715
-136.95411749377126,1869
-134.44540171107985,2001
-131.93737974411636,1882
-129.43005140081357,1792
-126.92341648902493,1908
-124.41747481652521,2169
-121.91222619101006,1867
-119.40767042009657,1781
-116.90380731132257,1794
-114.40063667214702,1973
-111.8981583099503,2321
-109.3963720320337,2427
-106.89527764561933,2488
-104.39487495785067,2154
-101.89516377579241,2396
-99.39614390642998,2338
-96.89781515667039,2285
-94.40017733334128,2707
-91.90323024319173,2693
-89.40697369289148,2759
-86.91140748903172,2479
-84.41653143812482,2466
-81.92234534660395,2787
-79.42884902082358,2934
-76.93604226705907,3050
-74.4439248915071,3086
-71.95249670028534,3443
-69.46175749943245,3515
-66.97170709490854,3491
-64.48234529259423,3976
-61.99367189829195,4558
-59.50568671772464,3749
-57.01838955653636,3749
-54.53178022029283,4304
-52.045858514480074,4413
-49.560624244506016,4640
-47.07607721569923,4433
-44.59221723330904,4293
-42.10904410250669,4625
-39.62655762838392,4981
-37.14475761595372,6089
-34.66364387015028,8487
-32.18321619582866,8577
-29.70347439776515,9652
-27.224418280657005,12551
-24.74604764912317,14938
-22.26836230770266,19024
-19.7913620608565,35411
-17.315046712966478,50790
-14.83941606833514,56783
-12.36446993118659,65039
-9.89020810566592,65039
-7.416630395839093,65039
-4.94373660569363,65039
-2.471526539137585,65039
-6.821210263296962E-13,65039
2.47084320796705,65039
4.941003281093458,65039
7.410480415786196,65039
9.879274808531363,65039
12.347386655893956,65039
14.814816154518212,65039
17.28156350112681,65039
19.74762889252179,65039
22.21301252558385,65039
24.67771459727237,65039
27.141735304626195,48900
29.605074844762612,21561
32.06773341487792,12321
34.52971121224755,9193
36.99100843422559,12157
39.45162527824516,19604
41.91156194181792,22369
44.370818622535126,28736
46.82939551806646,34922
49.287292826160524,28669
51.74451074464503,20264
54.201049471426245,12010
56.65690920448981,5993
59.112090141899785,4291
61.56659248179983,4307
64.02041642241159,4343
66.4735621620365,4568
68.92602989905402,3945
71.37781983192338,2993
73.82893215918205,3301
76.27936707944684,3125
78.72912479141326,3681
81.17820549385567,4193
83.62660938562783,3629
86.07433666566146,3521
88.5213875329681,3172
90.96776218663751,2874
93.41346082583925,3787
95.85848364982041,3453
98.30283085790859,2786
100.7465026495089,2736
103.18949922410604,2842
105.63182078126385,2672
108.07346752062438,2910
110.51443964190923,2950
112.95473734491827,2685
115.39436082953114,2344
117.83331029570547,2380
120.27158594347827,2594
122.7091879729652,2350
125.1461165843615,2373
127.58237197794062,2192
130.01795435405518,1844
132.4528639131364,1899
134.88710085569494,2225
137.32066538231982,2586
139.75355769367923,2165
142.1857779905207,1894
144.61732647366978,1888
147.04820334403132,1883
149.47840880258934,2031
151.90794305040674,2198
154.33680628862487,2197
156.76499871846443,2410
159.19252054122433,2611
161.61937195828352,2863
164.04555317109896,3006
166.47106438120693,3569
168.89590579022217,4085
171.320077599839,4383
173.7435800118302,4395
176.16641322804742,4613
178.58857745042144,5194
181.01007288096173,5715
183.43089972175687,5756
185.85105817497413,5837
188.27054844285988,5966
190.6893707277394,6355
193.10752523201643,6254
195.5250121581745,6490
197.9418317087751,6510
200.3579840864594,6484
202.7734694939469,6735
205.18828813403627,6557
207.6024402096051,6675
210.01592592360964,6529
212.42874547908548,6579
214.84089907914665,6457
217.2523869269868,6583
219.66320922587727,6489
222.0733661791695,6689
224.48285799029293,6766
226.8916848627572,6726
229.29984700014882,6763
231.7073446061355,6728
234.11417788446204,6835
236.520347038953,6969
238.92585227351185,7076
241.33069379212054,7301
243.73487179884035,7149
246.1383864978112,7044
248.541238093252,6964
250.9434267894609,7192
253.34495279081432,7135
255.74581630176783,7148
258.1460175268563,7101
260.54555667069314,6972
262.9444339379703,6837
265.3426495334594,7100
267.7402036620107,6895
270.1370965285529,6770
272.53332833809407,6870
274.9288992957214,6863
277.32380960660055,6823
279.718059475976,6797
282.1116491091717,6698
284.5045787115897,6591
286.89684848871195,6668
289.2884586460981,6631
291.67940938938807,6613
294.0697009242996,6720
296.4593334566299,6518
298.84830719225477,6651
301.23662233712923,6658
303.6242790972866,6597
306.01127767884,6637
308.39761828798066,6843
310.78330113097934,6664
313.16832641418534,6584
315.5526943440269,6491
317.9364051270112,6448
320.3194589697242,6411
322.70185607883093,6458
325.0835966610754,6356
327.4646809232805,6445
329.8451090723478,6446
332.2248813152577,6487
334.6039978590701,6319
336.9824589109231,6373
339.36026467803447,6337
341.7374153677,6321
344.113911187295,6263
346.48975234427337,6353
348.8649390461686,6311
351.2394715005918,6338
353.61334991523415,6202
355.9865744978655,6351
358.35914545633375,6330
360.73106299856715,6431
363.10232733257146,6317
365.47293866643247,6247
367.84289720831396,6323
370.2122031664593,6338
372.5808567491905,6280
374.9488581649083,6296
377.31620762209275,6332
379.6829053293021,6397
382.0489514951745,6208
384.4143463284262,6220
386.7790900378528,6262
389.14318283232853,6323
391.50662492080653,6264
393.86941651231916,6235
396.23155781597745,6411
398.5930490409713,6113
400.9538903965696,6360
403.3140820921202,6275
405.6736243370498,6315
408.03251734086336,6208
410.3907613131465,6141
412.74835646356166,6176
415.10530300185144,6315
417.4616011378372,6252
419.81725108141893,6355
422.1722530425758,6200
424.5266072313656,6236
426.880313857925,6136
429.2333731324701,6190
431.58578526529516,6162
433.9375504667738,6136
436.2886689473588,6190
438.63914091758113,6183
440.9889665880513,6205
443.33814616945835,6087
445.68667987257015,6352
448.03456790823395,6195
450.3818104873759,6196
452.72840782100013,6201
455.07436012019105,6334
457.41966759611057,6395
459.7643304600007,6229
462.10834892318155,6087
464.4517231970525,6343
466.79445349309174,6206
469.1365400228566,6138
471.4779829979826,6220
473.81878263018564,6146
476.15893913125876,6240
478.4984527130747,6255
480.8373235875855,6120
483.17555196682144,6239
485.5131380628919,6356
487.8500820879857,6410
490.1863842543697,6514
492.52204477439034,6653
494.8570638604725,6928
497.1914417251204,7114
499.52517858091653,7218
501.85827464052306,7307
504.19073011668036,7379
506.5225452222086,7462
508.85372017000566,7472
511.18425517304956,7425
513.514150444396,7455
515.8434061971808,7989
518.1720226446176,8400
520.4999999999999,8967
522.8273384766991,9227
525.1540382881666,9382
527.480099647932,9375
529.8055227696037,8555
532.1303078668694,7376
534.454455153496,6721
536.777964843328,6400
539.1008371502907,6351
541.4230722883866,6217
543.744670471698,6205
546.0656319143858,6056
548.3859568306899,6050
550.7056454349294,6169
553.0246979415016,6120
555.3431145648834,6134
557.6608955196306,6185
559.978041020377,6246
562.2945512818363,6093
564.6104265188006,6131
566.9256669461412,6192
569.2402727788082,6051
571.5542442318302,6307
573.8675815203156,6204
576.1802848594508,6272
578.4923544645015,6123
580.8037905508126,6224
583.114593333807,6170
585.4247630289875,6146
587.7342998519354,6102
590.0432040183106,6145
592.3514757438526,6188
594.6591152443794,6111
596.9661227357875,6181
599.2724984340531,6271
601.578242555231,6121
603.8833553154542,6160
606.1878369309362,6173
608.4916876179676,6379
610.7949075929192,6238
613.0974970722403,6237
615.3994562724587,6158
617.7007854101818,6171
620.0014847020951,6296
622.3015543649641,6255
624.6009946156324,6193
626.8998056710224,6231
629.1979877481361,6278
631.4955410640538,6285
633.7924658359349,6345
636.0887622810175,6264
638.3844306166192,6240
640.6794710601358,6135
642.9738838290426,6241
645.2676691408932,6249
647.5608272133207,6294
649.853358264037,6266
652.1452625108324,6122
654.4365401715764,6249
656.7271914642178,6358
659.0172166067838,6315
661.3066158173809,6182
663.5953893141935,6227
665.8835373154867,6285
668.1710600396028,6288
670.4579577049639,6304
672.7442305300709,6314
675.0298787335033,6278
677.3149025339197,6347
679.599302150058,6434
681.8830778007342,6432
684.1662297048437,6250
686.4487580813608,6470
688.7306631493387,6306
691.0119451279091,6455
693.2926042362834,6425
695.5726406937516,6452
697.8520547196814,6295
700.1308465335215,6360
702.4090163547982,6346
704.6865644031171,6294
706.9634908981619,6340
709.2397960596965,6263
711.5154801075631,6377
713.7905432616823,6272
716.0649857420548,6379
718.3388077687592,6395
720.612009561953,6336
722.8845913418733,6408
725.1565533288352,6344
727.427895743234,6331
729.6986188055427,6300
731.9687227363137,6233
734.238207756178,6400
736.5070740858458,6376
738.7753219461066,6399
741.0429515578281,6266
743.3099631419569,6392
745.5763569195191,6423
747.8421331116193,6479
750.1072919394409,6460
752.3718336242467,6392
754.6357583873777,6434
756.8990664502545,6412
759.1617580343765,6363
761.423833361321,6524
763.6852926527457,6325
765.9461361303862,6337
768.206364016058,6389
770.4659765316536,6376
772.7249738991469,6422
774.9833563405886,6453
777.2411240781092,6426
779.4982773339183,6458
781.7548163303044,6550
784.010741289634,6473
786.2660524343538,6570
788.5207499869881,6375
790.7748341701416,6478
793.0283052064964,6491
795.2811633188143,6298
797.5334087299362,6403
799.7850416627813,6338
802.0360623403484,6404
804.2864709857143,6540
806.5362678220353,6417
808.7854530725468,6427
811.0340269605625,6498
813.2819897094754,6545
815.5293415427581,6389
817.77608268396,6538
820.0222133567116,6477
822.2677337847211,6414
824.5126441917765,6357
826.7569448017433,6414
829.0006358385675,6379
831.2437175262731,6478
833.4861900889629,6428
835.7280537508192,6179
837.9693087361026,6427
840.2099552691533,6424
842.4499935743896,6522
844.689423876309,6524
846.9282463994886,6458
849.1664613685833,6315
851.4040690083276,6502
853.6410695435349,6482
855.877463199097,6368
858.1132501999847,6555
860.3484307712487,6526
862.5830051380175,6391
864.8169735254988,6359
867.0503361589791,6586
869.2830932638243,6458
871.5152450654786,6449
873.7467917894654,6460
875.9777336613873,6486
878.2080709069252,6468
880.4378037518389,6601
882.666932421968,6552
884.8954571432301,6561
887.1233781416219,6621
889.3506956432192,6549
891.5774098741766,6627
893.803521060728,6426
896.0290294291852,6515
898.2539352059397,6480
900.4782386174619,6513
902.7019398903011,6560
904.925039251085,6553
907.147536926521,6419
909.3694331433943,6471
911.59072812857,6461
913.8114221089921,6540
916.0315153116827,6494
918.2510079637437,6353
920.4699002923547,6617
922.6881925247761,6456
924.905884888345,6481
927.1229776104793,6537
929.3394709186747,6368
931.555365040506,6400
933.7706602036275,6515
935.9853566357709,6445
938.1994545647489,6360
940.4129542184515,6439
942.6258558248488,6429
944.8381596119883,6526
947.0498658079974,6403
949.2609746410825,6416
951.4714863395287,6413
953.6814011316998,6570
955.8907192460387,6485
958.0994409110671,6593
960.3075663553858,6489
962.5150958076741,6435
964.7220294966913,6528
966.928367651274,6468
969.1341105003388,6455
971.3392582728806,6366
973.5438111979742,6467
975.747769504772,6471
977.9511334225061,6459
980.153903180487,6459
982.3560790081052,6330
984.5576611348289,6466
986.7586497902058,6424
988.9590452038618,6549
991.158847605503,6299
993.3580572249133,6450
995.5566742919558,6332
997.7546990365728,6263
999.952131688785,6279
1002.1489724786926,6293
1004.3452216364743,6195
1006.5408793923874,6223
1008.7359459767691,6271
1010.9304216200343,6076
1013.1243065526781,6129
1015.3176010052733,6240
1017.510305208472,6050
1019.7024193930064,6285
1021.8939437896848,6171
1024.0848786293977,6118
1026.2752241431122,6079
1028.4649805618747,5963
1030.6541481168115,6152
1032.842727039127,6134
1035.0307175601051,6181
1037.2181199111074,6273
1039.4049343235752,6166
1041.591161029029,6184
1043.7768002590683,6197
1045.9618522453698,6137
1048.1463172196918,6128
1050.3301954138697,6224
1052.513487059818,6170
1054.69619238953,6212
1056.8783116350783,6195
1059.0598450286152,6151
1061.2407928023704,6165
1063.4211551886528,6224
1065.6009324198508,6290
1067.780124728432,6159
1069.9587323469414,6301
1072.1367555080046,6138
1074.314194444325,6141
1076.4910493886855,6200
1078.667320573947,6272
1080.843008233051,6096
1083.0181125990161,6159
1085.1926339049414,6202
1087.3665723840027,6035
1089.5399282694575,5914
1091.7127017946405,6105
1093.8848931929647,6082
1096.0565026979243,6081
1098.2275305430899,6088
1100.3979769621128,6065
1102.567842188722,6071
1104.737126456726,6087
1106.9058300000124,6138
1109.0739530525475,6016
1111.2414958483764,6151
1113.4084586216231,6083
1115.5748416064907,6083
1117.7406450372605,6028
1119.9058691482942,6158
1122.0705141740304,6131
1124.2345803489884,6107
1126.3980679077658,6309
1128.5609770850388,6067
1130.7233081155623,6144
1132.8850612341707,6149
1135.0462366757774,6133
1137.2068346753745,6066
1139.3668554680326,6174
1141.526299288901,6098
1143.68516637321,6028
1145.8434569562655,6062
1148.001171273455,6023
1150.158309560244,6060
1152.3148720521767,6154
1154.470858984876,6073
1156.626270594044,6127
1158.7811071154629,6110
1160.9353687849912,6012
1163.089055838569,6274
1165.242168512213,6155
1167.3947070420209,6001
1169.5466716641677,6195
1171.6980626149075,6164
1173.8488801305748,6096
1175.9991244475814,5897
1178.1487958024186,6088
1180.2978944316555,5887
1182.4464205719428,6037
1184.5943744600072,6032
1186.7417563326567,5991
1188.8885664267755,5909
1191.0348049793297,6097
1193.1804722273619,6107
1195.325568407995,6052
1197.4700937584303,5986
1199.614048515948,5918
1201.7574329179074,6128
1203.900247201746,6061
1206.042491604982,5991
1208.1841663652099,5941
1210.3252717201053,6059
1212.465807907422,6073
1214.6057751649923,6019
1216.7451737307279,6063
1218.8840038426192,6088
1221.0222657387353,6012
1223.1599596572241,6170
1225.2970858363137,5973
1227.4336445143094,6182
1229.5696359295966,6021
1231.705060320639,5931
1233.8399179259786,6085
1235.9742089842384,6013
1238.107933734118,6057
1240.2410924143974,6132
1242.373685263935,6111
1244.5057125216676,6020
1246.6371744266116,6006
1248.7680712178621,5993
1250.898403134593,6079
1253.028170416058,6125
1255.1573733015875,6161
1257.2860120305932,6107
1259.4140868425648,6058
1261.54159797707,6045
1263.6685456737569,6127
1265.7949301723515,6085
1267.9207517126597,6034
1270.046010534565,6136
1272.1707068780306,6053
1274.2948409830983,6154
1276.4184130898889,6159
1278.541423438603,6014
1280.6638722695184,6062
1282.785759822993,5945
1284.9070863394636,6131
1287.0278520594447,6204
1289.1480572235314,6269
1291.2677020723963,6318
1293.3867868467923,6202
1295.5053117875495,6316
1297.623277135579,6355
1299.740683131868,6205
1301.8575300174857,6243
1303.973818033578,6286
1306.0895474213703,6258
1308.2047184221678,6170
1310.3193312773528,6232
1312.4333862283888,6287
1314.5468835168163,6345
1316.659823384255,6223
1318.7722060724045,6193
1320.8840318230418,6271
1322.9953008780249,6173
1325.1060134792888,6330
1327.2161698688478,6249
1329.3257702887959,6272
1331.4348149813054,6287
1333.5433041886276,6306
1335.6512381530933,6133
1337.7586171171101,6367
1339.8654413231675,6224
1341.9717110138317,6148
1344.0774264317488,6121
1346.1825878196432,6159
1348.2871954203192,6233
1350.3912494766587,6184
1352.4947502316231,6291
1354.5976979282532,6153
1356.7000928096686,6196
1358.8019351190665,6004
1360.9032250997243,6136
1363.0039629949988,6198
1365.1041490483235,6222
1367.2037835032133,6349
1369.3028666032606,6123
1371.401398592137,6062
1373.4993797135926,6141
1375.5968102114575,6179
1377.6936903296396,6156
1379.7900203121262,6117
1381.8858004029835,6214
1383.9810308463561,6152
1386.075711886469,6225
1388.1698437676241,6184
1390.2634267342032,6198
1392.356461030667,6220
1394.4489469015557,6354
1396.5408845914872,6263
1398.6322743451592,6203
1400.7231164073469,6230
1402.813411022907,6316
1404.903158436773,6132
1406.9923588939578,6193
1409.0810126395531,6211
1411.1691199187303,6252
1413.2566809767386,6171
1415.343696058907,6143
1417.4301654106425,6103
1419.5160892774315,6195
1421.6014679048399,6017
1423.6863015385125,6305
1425.7705904241707,6121
1427.8543348076178,6198
1429.9375349347342,6210
1432.0201910514802,6091
1434.102303403894,6044
1436.1838722380944,6226
1438.2648978002767,6129
1440.3453803367174,6178
1442.4253200937692,6205
1444.5047173178677,6204
1446.5835722555234,6225
1448.6618851533285,6244
1450.739656257952,6260
1452.8168858161434,6225
1454.8935740747306,6226
1456.96972128062,6356
1459.045327680797,6394
1461.120393522327,6444
1463.1949190523528,6511
1465.2689045180973,6355
1467.3423501668608,6342
1469.415256246024,6443
1471.4876230030463,6563
1473.559450685465,6643
1475.6307395408976,6538
1477.7014898170391,6404
1479.771701761665,6575
1481.8413756226287,6568
1483.9105116478618,6442
1485.9791100853772,6601
1488.0471711832643,6766
1490.1146951896926,6681
1492.1816823529098,6593
1494.2481329212433,6822
1496.3140471430984,6689
1498.3794252669609,6897
1500.4442675413939,6772
1502.5085742150404,6851
1504.572345536622,6842
1506.6355817549388,6969
1508.6982831188702,6924
1510.7604498773744,6779
1512.8220822794883,6819
1514.8831805743293,6802
1516.9437450110909,6987
1519.003775839048,7116
1521.0632733075522,6948
1523.1222376660367,7185
1525.1806691640113,6989
1527.2385680510652,7130
1529.2959345768668,7198
1531.3527689911643,7263
1533.4090715437833,7264
1535.4648424846291,7220
1537.5200820636855,7253
1539.5747905310159,7477
1541.6289681367616,7428
1543.6826151311434,7447
1545.7357317644614,7462
1547.7883182870937,7567
1549.8403749494987,7504
1551.8919020022113,7723
1553.9428996958477,7671
1555.9933682811015,7718
1558.0433080087469,7743
1560.0927191296346,7897
1562.1416018946961,7922
1564.1899565549415,7900
1566.2377833614592,7909
1568.2850825654164,7835
1570.3318544180606,7871
1572.3780991707158,7807
1574.423817074788,7655
1576.4690083817595,7341
1578.5136733431923,7409
1580.5578122107272,7180
1582.601425236085,7114
1584.6445126710646,7048
1586.6870747675434,7000
1588.7291117774776,6849
1590.7706239529034,6744
1592.8116115459347,6483
1594.8520748087658,6587
1596.8920139936686,6435
1598.9314293529933,6368
1600.9703211391711,6335
1603.008689604711,6296
1605.0465350022005,6308
1607.0838575843068,6274
1609.1206576037753,6197
1611.1569353134305,6221
1613.1926909661765,6085
1615.2279248149953,6058
1617.2626371129481,6079
1619.2968281131757,6079
1621.3304980688963,5960
1623.3636472334088,6075
1625.39627586009,6092
1627.428384202396,6062
1629.459972513861,6092
1631.4910410480993,6098
1633.5215900588028,6054
1635.551619799744,5982
1637.5811305247717,5980
1639.6101224878166,6004
1641.6385959428862,5930
1643.6665511440683,5907
1645.693988345528,5916
1647.7209078015112,5878
1649.7473097663405,5906
1651.7731944944203,5971
1653.7985622402307,6015
1655.823413258333,5828
1657.847747803366,5884
1659.8715661300494,5919
1661.8948684931793,5941
1663.9176551476316,5967
1665.9399263483624,5866
1667.9616823504057,5777
1669.982923408873,5906
1672.0036497789574,5833
1674.0238617159293,5784
1676.043559475138,5893
1678.0627433120121,5768
1680.081413482059,5791
1682.0995702408654,5775
1684.117213844096,5716
1686.134344547495,5719
1688.1509626068864,5736
1690.1670682781705,5762
1692.182661817329,5877
1694.1977434804217,5822
1696.2123135235875,5876
1698.226372203043,5925
1700.2399197750851,5792
1702.2529564960905,5834
1704.2654826225112,5826
1706.277498410882,5724
1708.2890041178139,5715
1710.2999999999988,5801
1712.3104863142066,5841
1714.3204633172854,5705
1716.329931266163,5707
1718.3388904178469,5804
1720.3473410294214,5872
1722.3552833580516,5663
1724.3627176609807,5809
1726.3696441955308,5629
1728.3760632191033,5597
1730.3819749891782,5731
1732.3873797633146,5704
1734.3922777991502,5731
1736.3966693544012,5596
1738.4005546868639,5645
1740.4039340544127,5667
1742.406807715001,5690
1744.4091759266616,5779
1746.4110389475054,5619
1748.4123970357223,5670
1750.413250449582,5607
1752.4135994474318,5737
1754.4134442876993,5751
1756.4127852288902,5606
1758.4116225295893,5549
1760.4099564484595,5556
1762.407787244244,5611
1764.405115175764,5603
1766.4019405019203,5637
1768.3982634816916,5493
1770.3940843741357,5602
1772.3894034383907,5563
1774.3842209336717,5645
1776.378537119274,5571
1778.372352254571,5555
1780.3656665990156,5619
1782.3584804121397,5675
1784.3507939535534,5701
1786.3426074829463,5591
1788.3339212600863,5711
1790.3247355448211,5597
1792.3150505970766,5531
1794.3048666768573,5579
1796.2941840442477,5678
1798.2830029594106,5554
1800.2713236825884,5481
1802.2591464741004,5647
1804.2464715943465,5655
1806.2332993038058,5701
1808.2196298630352,5573
1810.2054635326708,5591
1812.190800573428,5496
1814.175641246101,5596
1816.1599858115628,5486
1818.1438345307652,5576
1820.127187664738,5501
1822.1100454745924,5559
1824.092408221516,5638
1826.0742761667766,5537
1828.055649571721,5543
1830.0365286977735,5581
1832.0169138064398,5629
1833.9968051593014,5592
1835.9762030180214,5531
1837.9551076443408,5567
1839.9335193000788,5535
1841.9114382471344,5564
1843.888864747485,5395
1845.8657990631878,5362
1847.842241456378,5405
1849.8181921892697,5527
1851.7936515241558,5432
1853.7686197234098,5396
1855.7430970494815,5404
1857.7170837649014,5474
1859.6905801322787,5533
1861.6635864143004,5505
1863.6361028737338,5502
1865.608129773424,5453
1867.5796673762961,5508
1869.5507159453537,5492
1871.521275743678,5375
1873.4913470344313,5582
1875.4609300808534,5486
1877.4300251462632,5420
1879.3986324940588,5446
1881.366752387717,5420
1883.3343850907936,5347
1885.3015308669228,5540
1887.268189979819,5470
1889.2343626932739,5438
1891.2000492711595,5592
1893.1652499774254,5414
1895.1299650761011,5420
1897.0941948312952,5492
1899.0579395071945,5507
1901.0211993680641,5531
1902.98397467825,5453
1904.9462657021745,5449
1906.9080727043415,5457
1908.869395949332,5431
1910.8302357018065,5471
1912.790592226504,5356
1914.7504657882428,5441
1916.7098566519212,5440
1918.6687650825133,5379
1920.6271913450764,5424
1922.5851357047422,5421
1924.5425984267245,5329
1926.499579776314,5487
1928.4560800188833,5445
1930.4120994198802,5383
1932.367638244833,5247
1934.32269675935,5450
1936.2772752291175,5423
1938.231373919899,5488
1940.1849930975404,5432
1942.1381330279637,5431
1944.0907939771696,5483
1946.0429762112412,5403
1947.9946799963363,5335
1949.9459055986945,5413
1951.896653284633,5404
1953.8469233205478,5345
1955.7967159729142,5331
1957.7460315082863,5271
1959.6948701932974,5440
1961.6432322946594,5480
1963.5911180791632,5362
1965.5385278136787,5320
1967.4854617651545,5364
1969.4319202006182,5353
1971.377903387176,5250
1973.3234115920136,5395
1975.268445082395,5436
1977.2130041256642,5388
1979.1570889892423,5318
1981.1006999406304,5286
1983.04383724741,5427
1984.986501177238,5338
1986.928691997853,5270
1988.8704099770712,5404
1990.811655382789,5366
1992.7524284829801,5358
1994.692729545698,5383
1996.6325588390755,5312
1998.5719166313224,5425
2000.5108031907307,5191
2002.4492187856677,5343
2004.387163684583,5215
2006.3246381560011,5362
2008.2616424685298,5141
2010.1981768908527,5153
2012.1342416917332,5332
2014.069837140014,5196
2016.0049635046162,5255
2017.9396210545406,5245
2019.8738100588666,5264
2021.8075307867502,5282
2023.740783507431,5354
2025.6735684902228,5288
2027.6058860045214,5316
2029.5377363198004,5209
2031.4691197056118,5193
2033.4000364315875,5304
2035.3304867674374,5223
2037.260470982952,5329
2039.189989347998,5144
2041.1190421325232,5157
2043.047629606554,5200
2044.9757520401945,5277
2046.9034097036288,5066
2048.8306028671195,5314
2050.7573318010086,5173
2052.683596775716,5204
2054.609398061742,5165
2056.5347359296647,5204
2058.4596106501403,5166
2060.384022493906,5097
2062.3079717317764,5101
2064.231458634646,5157
2066.1544834734873,5225
2068.077046519352,5279
2069.99914804337,5201
2071.9207883167524,5224
2073.8419676107865,5171
2075.7626861968406,5208
2077.6829443463607,5286
2079.6027423308715,5135
2081.522080421977,5189
2083.440958891362,5227
2085.359378010786,5190
2087.2773380520907,5071
2089.194839287196,5112
2091.111881988101,5206
2093.0284664268825,5188
2094.9445928756973,5202
2096.86026160678,5195
2098.775472892446,5122
2100.690227005088,5135
2102.604524217178,5125
2104.5183648012676,5072
2106.431749029985,5086
2108.34467717604,5078
2110.2571495122206,5113
2112.169166311393,5113
2114.080727846503,5161
2115.9918343905747,5150
2117.902486216711,5199
2119.8126835980956,5159
2121.722426807987,5174
2123.6317161197285,5095
2125.5405518067364,5158
2127.448934142509,5196
2129.356863400624,5082
2131.264339854737,5031
2133.1713637785815,5160
2135.077935445972,5076
2136.9840551308002,5150
2138.889723107037,5120
2140.7949396487334,5178
2142.699705030018,5151
2144.6040195250994,5010
2146.507883408264,5044
2148.4112969538774,5156
2150.3142604363848,4939
2152.2167741303097,5058
2154.1188383102535,5063
2156.0204532508997,5163
2157.9216192270064,5129
2159.822336513414,5085
2161.7226053850413,5090
2163.622426116884,5085
2165.5217989840185,5086
2167.4207242616,5037
2169.319202224862,5074
2171.2172331491165,5112
2173.1148173097563,5058
2175.0119549822507,5136
2176.90864644215,5035
2178.8048919650823,5087
2180.7006918267534,5006
2182.596046302952,5003
2184.4909556695407,4956
2186.3854202024645,5091
2188.279440177746,4974
2190.173015871487,5091
2192.066147559868,4937
2193.958835519149,4950
2195.851080025667,5050
2197.7428813558417,5002
2199.6342397861667,4926
2201.5251555932186,5014
2203.415629053651,5074
2205.3056604441986,5051
2207.19525004167,5063
2209.084398122958,5066
2210.9731049650327,5073
2212.861370844941,5097
2214.749196039812,4931
2216.636580826851,5061
2218.523525483344,5136
2220.410030286655,5058
2222.296095514226,5121
2224.1817214435805,5147
2226.066908352319,5037
2227.951656518121,4970
2229.835966218746,4985
2231.71983773203,4889
2233.6032713358913,4964
2235.486267308324,4915
2237.3688259274036,4969
2239.2509474712824,5024
2241.132632218193,4894
2243.013880446447,4905
2244.8946924344323,4944
2246.7750684606203,4969
2248.6550088035574,4990
2250.534513741871,5047
2252.413583554265,5004
2254.292218519526,4943
2256.170418916517,5016
2258.0481850241786,4975
2259.925517121534,4958
2261.8024154876825,4899
2263.678880401803,4916
2265.5549121431536,5008
2267.430510991071,4996
2269.305677224971,4929
2271.180411124348,5006
2273.0547129687766,5001
2274.9285830379076,4916
2276.8020216114737,4889
2278.6750289692845,4927
2280.5476053912294,4951
2282.4197511572766,5118
2284.2914665474727,4918
2286.162751841943,4960
2288.0336073208937,4796
2289.904033264608,5116
2291.774029953448,4982
2293.6435976678554,4890
2295.5127366883517,4982
2297.381447295534,4908
2299.2497297700825,5021
2301.1175843927526,4933
2302.9850114443825,4876
2304.852011205885,4995
2306.7185839582553,4830
2308.5847299825664,5032
2310.4504495599676,4977
2312.3157429716925,4941
2314.1806104990483,5031
2316.0450524234247,5046
2317.9090690262888,4943
2319.772660589186,5086
2321.635827393742,5044
2323.498569721661,5025
2325.3608878547248,4853
2327.2227820747967,5016
2329.0842526638157,4968
2330.945299903803,4885
2332.805924076857,4968
2334.6661254651535,4988
2336.525904350951,4972
2338.3852610165827,5104
2340.244195744464,4939
2342.102708817088,4851
2343.9608005170253,4877
2345.8184711269287,4876
2347.675720929526,4916
2349.532550207628,5041
2351.38895924412,4864
2353.24494832197,4922
2355.100517724223,5020
2356.955667734004,4836
2358.810398634514,4903
2360.664710709037,4947
2362.5186042409337,4980
2364.3720795136437,4982
2366.225136810686,4990
2368.0777764156583,4997
2369.929998612237,4699
2371.7818036841777,4913
2373.633191915315,4958
2375.484163589562,4948
2377.3347189909114,4999
2379.184858403434,4965
2381.03458211128,4915
2382.8838903986775,4971
2384.732783549936,4776
2386.5812618494406,4969
2388.4293255816588,4896
2390.2769750311327,4974
2392.1242104824883,4887
2393.971032220427,5004
2395.8174405297295,4956
2397.6634356952563,4886
2399.509018001947,4952
2401.3541877348193,4929
2403.1989451789705,4921
2405.043290619576,4852
2406.8872243418905,4947
2408.730746631247,4878
2410.5738577730594,4893
2412.4165580528183,4800
2414.258847756095,5106
2416.100727168537,4909
2417.9421965758734,5084
2419.783256263912,4859
2421.623906518538,4997
2423.4641476257157,4905
2425.303979871491,5018
2427.143403541984,4918
2428.9824189233977,4872
2430.821026302012,4847
2432.6592259641866,5110
2434.497018196361,5054
2436.33440328505,5074
2438.171381516851,4895
2440.00795317844,4948
2441.844118556569,4912
2443.6798779380724,4884
2445.5152316098606,4931
2447.3501798589255,4835
2449.1847229723357,4876
2451.0188612372403,4967
2452.8525949408663,4970
2454.6859243705203,4903
2456.518849813587,4899
2458.3513715575314,4827
2460.183489889895,4888
2462.015205098301,4879
2463.8465174704493,4872
2465.67742729412,4849
2467.5079348571717,4939
2469.338040447542,4910
2471.1677443532476,5040
2472.9970468623833,4939
2474.825948263123,4814
2476.6544488437207,4879
2478.482548892508,4822
2480.310248697896,4942
2482.137548548374,4824
2483.9644487325118,4786
2485.790949538956,4810
2487.617051256433,4877
2489.44275417375,4941
2491.26805857979,4881
2493.0929647635157,4992
2494.917473013971,4930
2496.741583620276,4944
2498.5652968716304,4938
2500.3886130573137,4949
2502.2115324666834,4916
2504.0340553891765,5049
2505.856182114308,4993
2507.6779129316733,4850
2509.499248130945,4924
2511.3201880018764,4872
2513.140732834298,4938
2514.9608829181198,4838
2516.780638543331,4999
2518.6,4886
2520.418967578273,4821
2522.237541568376,4833
2524.0557222606144,4851
2525.8735099453706,4927
2527.6909049131086,4929
2529.507907454368,5011
2531.32451785977,4887
2533.140736420014,4912
2534.9565634258774,4843
2536.771999168218,5002
2538.5870439379714,4939
2540.4016980261526,4916
2542.2159617238544,4935
2544.02983532225,4901
2545.8433191125914,5012
2547.656413386209,5003
2549.4691184345115,4902
2551.2814345489874,4927
2553.093362021204,4917
2554.904901142808,5079
2556.716052205523,4982
2558.526815501153,4821
2560.3371913215824,4995
2562.147179958771,5108
2563.956781704761,4966
2565.7659968516705,5057
2567.5748256916986,5055
2569.3832685171224,5047
2571.1913256202984,4923
2572.9989972936614,4993
2574.806283829725,5035
2576.613185521084,4966
2578.4197026604074,4959
2580.2258355404483,4882
2582.031584454035,5031
2583.836949694077,5112
2585.6419315535613,5041
2587.4465303255533,4999
2589.2507463032002,5069
2591.0545797797245,4984
2592.8580310484303,5046
2594.6611004026995,5090
2596.463788135992,5114
2598.266094541849,5062
2600.0680199138874,5113
2601.869564545807,5162
2603.670728731383,4955
2605.4715127644704,5045
2607.2719169390048,5270
2609.071941548998,5088
2610.8715868885433,5064
2612.670853251811,5020
2614.469740933052,4937
2616.268250226594,5053
2618.0663814268455,5026
2619.864134828292,4979
2621.6615107255006,5063
2623.458509413115,4983
2625.2551311858597,5016
2627.0513763385347,5074
2628.8472451660223,5087
2630.6427379632833,4929
2632.4378550253564,5031
2634.232596647359,5018
2636.026963124488,5004
2637.8209547520187,5046
2639.6145718253065,5002
2641.407814639785,4885
2643.200683490966,4906
2644.9931786744414,5124
2646.7853004858807,4950
2648.577049221034,5053
2650.3684251757277,5075
2652.1594286458712,5029
2653.9500599274484,4965
2655.740319316525,5003
2657.5302071092437,5078
2659.3197236018286,4985
2661.10886909058,4958
2662.8976438718782,4930
2664.686048242183,4917
2666.4740824980327,5110
2668.2617469360443,4897
2670.0490418529134,4935
2671.8359675454153,4851
2673.622524310403,4868
2675.408712444811,4870
2677.1945322456495,4930
2678.979984010009,4951
2680.76506803506,4901
2682.5497846180497,4815
2684.334134056306,4896
2686.1181166472343,4823
2687.9017326883213,4867
2689.6849824771293,4896
2691.4678663113013,4944
2693.2503844885596,4958
2695.032537306705,4876
2696.8143250636167,4860
2698.5957480572542,4859
2700.3768065856534,4793
2702.1575009469316,4810
2703.937831439283,4749
2705.717798360982,4918
2707.4974020103837,4841
2709.276642685917,4747
2711.055520686095,4788
2712.834036309506,4764
2714.612189854819,4819
2716.389981620782,4783
2718.1674119062204,4634
2719.944481010041,4730
2721.721189231226,4741
2723.4975368688415,4759
2725.273524222027,4816
2727.0491515900053,4724
2728.824419272075,4823
2730.5993275676146,4703
2732.3738767760838,4797
2734.148067197016,4703
2735.921899130031,4737
2737.6953728748194,4777
2739.468488731156,4729
2741.2412469988926,4794
2743.0136479779617,4738
2744.785691968372,4743
2746.5573792702116,4811
2748.3287101836504,4716
2750.099685008934,4787
2751.870304046388,4827
2753.640567596418,4629
2755.4104759595057,4785
2757.1800294362156,4754
2758.949228327187,4851
2760.7180729331412,4694
2762.486563554877,4808
2764.254700493272,4698
2766.022484049284,4827
2767.789914523947,4739
2769.5569922183786,4776
2771.3237174337705,4751
2773.090090471394,4785
2774.8561116326036,4780
2776.6217812188274,4694
2778.3870995315756,4838
2780.1520668724356,4707
2781.9166835430747,4700
2783.6809498452394,4726
2785.444866080754,4872
2787.2084325515225,4735
2788.971649559527,4729
2790.73451740683,4829
2792.4970363955713,4695
2794.2592068279705,4779
2796.0210290063264,4762
2797.7825032330147,4737
2799.543629810493,4848
2801.304409041296,4750
2803.0648412280366,4739
2804.8249266734088,4700
2806.5846656801846,4897
2808.344058551212,4596
2810.1031055894246,4757
2811.8618070978273,4869
2813.6201633795085,4827
2815.378174737636,4853
2817.1358414754536,4748
2818.893163896285,4754
2820.6501423035334,4802
2822.4067770006814,4765
2824.1630682912883,4837
2825.9190164789957,4785
2827.6746218675207,4778
2829.429884760661,4793
2831.184805462294,4775
2832.9393842763743,4857
2834.693621506936,4762
2836.4475174580916,4787
2838.201072434034,4750
2839.954286739034,4793
2841.707160677441,4846
2843.459694553685,4811
2845.2118886722724,4832
2846.96374333779,4752
2848.7152588549034,4727
2850.4664355283567,4731
2852.217273662973,4795
2853.9677735636546,4687
2855.7179355353833,4792
2857.4677598832186,4804
2859.217246912299,4728
2860.9663969278427,4921
2862.715210235146,4709
2864.4636871395846,4764
2866.211827946614,4725
2867.9596329617652,4734
2869.7071024906536,4780
2871.4542368389684,4879
2873.20103631248,4811
2874.947501217038,4772
2876.6936318585695,4897
2878.4394285430812,4811
2880.1848915766604,4810
2881.9300212654707,4758
2883.6748179157553,4798
2885.4192818338374,4788
2887.1634133261173,4715
2888.907212699077,4878
2890.6506802592744,4782
2892.393816313348,4872
2894.1366211680142,4731
2895.8790951300693,4831
2897.621238506388,4758
2899.363051603925,4832
2901.1045347297118,4865
2902.8456881908596,4756
2904.58651229456,4792
2906.327007348081,4873
2908.067173658772,4746
2909.8070115340597,4839
2911.5465212814497,4708
2913.285703208527,4863
2915.0245576229563,4750
2916.7630848324807,4649
2918.5012851449196,4727
2920.2391588681758,4718
2921.976706310227,4791
2923.7139277791334,4858
2925.4508235830313,4821
2927.187394030137,4784
2928.923639428745,4737
2930.6595600872306,4673
2932.395156314046,4793
2934.1304284177218,4736
2935.8653767068713,4839
2937.6000014901815,4897
2939.3343030764227,4891
2941.068281774442,4792
2942.8019378931644,4756
2944.5352717415976,4767
2946.2682836288236,4817
2948.0009738640065,4834
2949.7333427563885,4780
2951.465390615289,4672
2953.1971177501086,4695
2954.9285244703265,4718
2956.6596110855,4653
2958.3903779052657,4615
2960.1208252393385,4672
2961.8509533975125,4662
2963.5807626896617,4831
2965.3102534257378,4764
2967.0394259157715,4783
2968.768280469873,4774
2970.496817398232,4881
2972.2250370111146,4770
2973.952939618869,4725
2975.6805255319196,4749
2977.4077950607707,4825
2979.134748516006,4726
2980.861386208289,4709
2982.587708448359,4832
2984.313715547037,4828
2986.039407815222,4876
2987.764785563891,4821
2989.489849104102,4848
2991.2145987469908,4826
2992.9390348037705,4795
2994.6631575857346,5058
2996.3869674042576,4837
2998.1104645707887,4885
2999.83364939686,4751
3001.5565221940783,4803
3003.2790832741334,4766
3005.0013329487924,4849
3006.7232715298996,4693
3008.4448993293804,4702
3010.166216659239,4736
3011.887223831558,4752
3013.607921158498,4745
3015.3283089522993,4785
3017.0483875252826,4804
3018.7681571898443,4816
3020.4876182584626,4707
3022.2067710436927,4792
3023.9256158581707,4715
3025.644153014609,4770
3027.362382825801,4717
3029.0803056046193,4710
3030.797921664012,4810
3032.5152313170106,4796
3034.2322348767225,4655
3035.9489326563353,4730
3037.665324969115,4764
3039.3814121284063,4873
3041.097194447633,4805
3042.812672240299,4928
3044.5278458199855,4898
3046.2427155003525,4797
3047.9572815951406,4751
3049.671544418167,4824
3051.38550428333,4734
3053.0991615046073,4774
3054.812516396051,4716
3056.5255692717974,4841
3058.2383204460575,4783
3059.9507702331257,4753
3061.662918947372,4822
3063.3747669032446,4927
3065.0863144152736,4885
3066.7975617980674,4766
3068.508509366309,4876
3070.219157434767,4782
3071.9295063182844,4844
3073.639556331785,4838
3075.3493077902704,4775
3077.058761008821,4709
3078.7679163025964,4802
3080.476773986837,4880
3082.1853343768594,4761
3083.89359778806,4839
3085.6015645359153,4636
3087.3092349359786,4819
3089.016609303884,4649
3090.7236879553434,4798
3092.4304712061476,4766
3094.136959372166,4737
3095.843152769349,4777
3097.5490517137237,4797
3099.2546565213966,4827
3100.959967508554,4838
3102.66498499146,4760
3104.3697092864577,4849
3106.0741407099695,4866
3107.778279578498,4897
3109.482126208622,4678
3111.1856809170004,4880
3112.8889440203716,4947
3114.5919158355528,4925
3116.294596679439,4856
3117.996986869006,4727
3119.6990867213062,4848
3121.4008965534726,4891
3123.102416682717,4828
3124.803647426329,4864
3126.5045891016784,4915
3128.205242026213,4810
3129.90560651746,4838
3131.605682893025,4919
3133.3054714705922,4952
3135.0049725679282,4924
3136.7041865028714,4843
3138.4031135933465,4757
3140.101754157353,4803
3141.800108512971,4812
3143.498176978357,4906
3145.1959598717494,4830
3146.8934575114636,4790
3148.5906702158954,4763
3150.2875983035183,4728
3151.9842420928853,4650
3153.680601902627,4807
3155.376678051456,4790
3157.07247085816,4603
3158.767980641609,4816
3160.463207720748,4757
3162.158152414606,4897
3163.8528150422862,4828
3165.5471959229726,4728
3167.2412953759303,4760
3168.9351137204976,4869
3170.628651276098,4894
3172.3219083622307,4859
3174.014885298474,4897
3175.707582404485,4927
3177.4000000000005,4904
3179.092138404835,4905
3180.7839979388846,4875
3182.47557892212,4886
3184.166881674594,4753
3185.8579065164386,4830
3187.5486537678626,4856
3189.2391237491547,4815
3190.9293167806827,4845
3192.6192331828934,4886
3194.3088732763117,4890
3195.998237381542,4855
3197.687325819268,4865
3199.376138910251,4943
3201.064676975334,4889
3202.7529403354347,4855
3204.4409293115523,4827
3206.1286442247647,4787
3207.816085396229,4729
3209.5032531471825,4811
3211.190147798936,4768
3212.8767696728846,4824
3214.5631190905015,4845
3216.2491963733373,4846
3217.9350018430214,4860
3219.6205358212637,4721
3221.305798629851,4711
3222.990790590651,4617
3224.6755120256103,4728
3226.359963256751,4695
3228.0441446061795,4719
3229.7280563960758,4898
3231.411698948703,4811
3233.0950725863995,4869
3234.778177631587,4830
3236.461014406761,4932
3238.1435832345005,4798
3239.8258844374595,4978
3241.507918338374,4880
3243.1896852600576,4844
3244.8711855254023,4916
3246.552419457381,4831
3248.233387379042,4787
3249.914089613516,4829
3251.59452648401,4786
3253.274698313813,4747
3254.95460542629,4788
3256.6342481448855,4810
3258.313626793125,4744
3259.9927416946084,4559
3261.6715931730196,4607
3263.3501815521176,4661
3265.0285071557437,4842
3266.706570307815,4730
3268.3843713323286,4786
3270.0619105533615,4749
3271.739188295068,4759
3273.4162048816834,4700
3275.0929606375184,4980
3276.769455886966,4737
3278.445690954498,4851
3280.1216661646613,4780
3281.797381842087,4733
3283.4728383114807,4795
3285.1480358976296,4808
3286.8229749253996,4805
3288.4976557197333,4800
3290.172078605655,4843
3291.846243908266,4740
3293.5201519527463,4730
3295.193803064357,4639
3296.8671975684374,4638
3298.5403357904024,4618
3300.21321805575,4707
3301.8858446900567,4768
3303.558216018975,4816
3305.23033236824,4912
3306.9021940636603,4743
3308.57380143113,4753
3310.2451547966184,4734
3311.916254486174,4698
3313.5871008259246,4711
3315.2576941420766,4741
3316.9280347609147,4801
3318.5981230088046,4786
3320.2679592121895,4771
3321.9375436975924,4832
3323.606876791612,4654
3325.27595882093,4694
3326.944790112305,4789
3328.6133709925753,4775
3330.2817017886573,4739
3331.949782827547,4662
3333.617614436319,4690
3335.2851969421245,4808
3336.952530672199,4800
3338.619615953853,4839
3340.286453114475,4904
3341.9530424815357,4809
3343.619384382583,4803
3345.2854791452437,4875
3346.951327097224,4817
3348.6169285663073,4838
3350.2822838803577,4784
3351.947393367319,4891
3353.61225735521,4856
3355.2768761721345,4821
3356.9412501462693,4916
3358.605379605873,4852
3360.2692648792827,4805
3361.9329062949146,4804
3363.596304181263,4692
