CollectionTime,6/26/2024 2:44:09 PM
ExposureUsed,3
CalibratedSpectrum
-962.7078968117929,3219
-959.9714848408522,3437
-957.2358232597828,3363
-954.5009119013725,3379
-951.7667505983302,3433
-949.0333391832855,3501
-946.3006774887896,3451
-943.5687653473143,3504
-940.837602591253,3580
-938.1071890529199,3564
-935.3775245645503,3528
-932.6486089583007,3520
-929.9204420662485,3588
-927.1930237203925,3525
-924.4663537526524,3484
-921.7404319948689,3543
-919.0152582788041,3447
-916.2908324361409,3532
-913.5671542984834,3547
-910.8442236973568,3611
-908.1220404642074,3491
-905.4006044304027,3561
-902.679915427231,3519
-899.959973285902,3531
-897.2407778375464,3376
-894.5223289132158,3511
-891.8046263438832,3497
-889.0876699604426,3485
-886.3714595937089,3559
-883.6559950744183,3471
-880.9412762332282,3507
-878.2273029007168,3486
-875.5140749073835,3568
-872.8015920836489,3492
-870.0898542598545,3521
-867.3788612662631,3514
-864.6686129330585,3506
-861.9591090903457,3462
-859.2503495681506,3485
-856.5423341964203,3488
-853.8350628050229,3510
-851.1285352237478,3543
-848.4227512823054,3632
-845.7177108103272,3587
-843.0134136373656,3516
-840.3098595928943,3614
-837.6070485063082,3671
-834.9049802069229,3603
-832.2036545239757,3485
-829.5030712866244,3546
-826.8032303239481,3593
-824.1041314649472,3542
-821.4057745385428,3485
-818.7081593735775,3583
-816.0112857988148,3658
-813.3151536429393,3575
-810.6197627345566,3616
-807.9251129021936,3649
-805.2312039742981,3698
-802.5380357792392,3544
-799.8456081453069,3582
-797.1539209007124,3590
-794.462973873588,3636
-791.772766891987,3546
-789.083299783884,3509
-786.3945723771743,3578
-783.7065844996748,3557
-781.0193359791231,3580
-778.3328266431781,3665
-775.6470563194197,3652
-772.9620248353489,3614
-770.2777320183878,3568
-767.5941776958798,3626
-764.9113616950891,3565
-762.2292838432011,3566
-759.5479439673222,3588
-756.8673418944801,3613
-754.1874774516235,3706
-751.5083504656222,3514
-748.8299607632671,3638
-746.15230817127,3617
-743.475392516264,3739
-740.7992136248035,3569
-738.1237713233636,3673
-735.4490654383407,3613
-732.7750957960521,3592
-730.1018622227365,3550
-727.4293645445534,3674
-724.7576025875837,3595
-722.0865761778291,3659
-719.4162851412126,3729
-716.7467293035781,3719
-714.0779084906909,3768
-711.409822528237,3794
-708.7424712418238,3826
-706.0758544569796,3732
-703.4099719991541,3671
-700.7448236937178,3749
-698.0804093659622,3820
-695.4167288411002,3830
-692.7537819442656,3708
-690.0915685005134,3728
-687.4300883348199,3717
-684.7693412720819,3654
-682.1093271371178,3747
-679.4500457546669,3720
-676.7914969493897,3787
-674.1336805458676,3883
-671.4765963686034,3802
-668.8202442420206,3677
-666.1646239904642,3623
-663.5097354382001,3797
-660.8555784094151,3790
-658.2021527282176,3773
-655.5494582186366,3736
-652.8974947046223,3880
-650.2462620100463,3794
-647.5957599587009,3954
-644.9459883742998,3869
-642.2969470804776,3856
-639.6486359007902,3909
-637.0010546587141,3882
-634.3542031776476,3978
-631.7080812809096,3929
-629.0626887917401,3785
-626.4180255333008,3833
-623.7740913286734,3846
-621.1308860008619,3826
-618.4884093727904,3764
-615.8466612673046,3799
-613.2056415071715,3763
-610.5653499150785,3868
-607.9257863136347,3814
-605.28695052537,3898
-602.6488423727357,3770
-600.0114616781036,3781
-597.3748082637674,3787
-594.7388819519412,3935
-592.1036825647604,3916
-589.4692099242818,3853
-586.8354638524829,3834
-584.2024441712624,3853
-581.5701507024403,3942
-578.9385832677575,3847
-576.3077416888759,3858
-573.6776257873787,3937
-571.0482353847704,3883
-568.4195703024757,3892
-565.7916303618415,4022
-563.164415384135,3944
-560.5379251905453,3927
-557.9121596021815,3978
-555.2871184400748,3886
-552.6628015251767,3941
-550.0392086783606,3946
-547.4163397204204,3969
-544.794194472071,3944
-542.1727727539491,3885
-539.5520743866118,3984
-536.9320991905377,3942
-534.3128469861261,4012
-531.6943175936979,3953
-529.0765108334947,4000
-526.4594265256793,4159
-523.8430644903358,4246
-521.2274245474689,4331
-518.612506517005,4476
-515.9983102187913,4531
-513.3848354725959,4639
-510.77208209810846,4716
-508.16004991493924,4769
-505.5487387426199,4810
-502.9381484006032,4879
-500.3282787082628,5013
-497.71912948489364,4956
-495.1107005497117,4955
-492.5029917218539,4931
-489.8960028203786,4748
-487.28973366426493,4584
-484.68418407241325,4346
-482.07935386364494,4356
-479.47524285670266,4241
-476.87185087025,4299
-474.2691777228715,4334
-471.66722323307334,4470
-469.0659872192821,4315
-466.4654694998459,4141
-463.86566989303384,4307
-461.26658821703614,4175
-458.66822428996414,4063
-456.07057792985,4153
-453.4736489546475,4209
-450.877437182231,4247
-448.28194243039627,4178
-445.68716451686,4161
-443.09310325926003,4059
-440.49975847515555,4096
-437.9071299820263,4052
-435.31521759727354,3939
-432.72402113821954,4038
-430.13354042210767,4197
-427.5437752661022,4130
-424.95472548728867,4158
-422.36639090267386,4100
-419.7787713291855,4166
-417.1918665836721,4114
-414.60567648290385,4123
-412.0202008435715,4204
-409.4354394822874,4191
-406.8513922155845,4152
-404.26805885991723,4177
-401.685439231661,4229
-399.103533147112,4140
-396.522340422488,4114
-393.9418608739278,4190
-391.3620943174908,4011
-388.7830405691583,3920
-386.2046994448317,3808
-383.6270707603344,3612
-381.05015433141045,3333
-378.473949973725,3113
-375.8984575028645,2807
-373.32367673433623,2483
-370.74960748356875,2204
-368.1762495659117,1943
-365.60360279663576,1666
-363.03166699093265,1426
-360.4604419639154,1345
-357.8899275306178,1115
-355.32012350599507,920
-352.7510297049233,869
-350.1826459421999,782
-347.61497203254316,762
-345.04800779059235,714
-342.4817530309082,714
-339.91620756797226,661
-337.35137121618743,641
-334.7872437898774,607
-332.22382510328725,586
-329.66111497058273,602
-327.09911320585127,591
-324.53781962310075,626
-321.9772340362607,646
-319.4173562591816,736
-316.8581861056348,787
-314.2997233893127,704
-311.7419679238294,663
-309.1849195227194,653
-306.62857799943856,709
-304.0729431673641,651
-301.51801483979375,587
-298.963792829947,596
-296.41027695096386,636
-293.85746701590574,674
-291.3053628377552,649
-288.7539642294155,737
-286.2032710037115,833
-283.65328297338897,774
-281.1039999511146,713
-278.5554217494762,725
-276.007548180983,784
-273.4603790580651,855
-270.9139141930734,902
-268.3681533982807,895
-265.8230964858798,784
-263.27874326798565,746
-260.7350935566336,738
-258.1921471637804,836
-255.6499039013039,931
-253.10836358100266,889
-250.56752601459698,768
-248.02739101372765,794
-245.48795838995704,876
-242.94922795476816,948
-240.41119951956557,832
-237.8738728956746,965
-235.33724789434166,1115
-232.80132432673452,1329
-230.2661020039418,1179
-227.73158073697357,1006
-225.19776033676033,779
-222.66464061415422,897
-220.1322213799284,920
-217.60050244477725,840
-215.06948361931552,900
-212.53916471408013,1035
-210.00954553952818,883
-207.48062590603843,1028
-204.9524056239104,975
-202.4248845033651,859
-199.8980623545441,1036
-197.37193898751036,982
-194.84651421224817,987
-192.32178783866232,945
-189.79775967657952,935
-187.27442953574644,950
-184.7517972258321,1232
-182.2298625564256,1347
-179.7086253370378,1383
-177.18808537710026,1342
-174.66824248596583,1364
-172.14909647290835,1318
-169.6306471471229,1381
-167.11289431772548,1308
-164.59583779375328,1346
-162.07947738416453,1313
-159.5638128978386,1361
-157.04884414357605,1485
-154.53457093009854,1694
-152.02099306604828,1448
-149.50811035998936,1404
-146.99592262040665,1304
-144.48442965570587,1461
-141.97363127421409,1660
-139.46352728417958,1699
-136.95411749377126,1847
-134.44540171107985,1996
-131.93737974411636,1878
-129.43005140081357,1710
-126.92341648902493,1881
-124.41747481652521,2115
-121.91222619101006,1879
-119.40767042009657,1827
-116.90380731132257,1824
-114.40063667214702,1992
-111.8981583099503,2415
-109.3963720320337,2497
-106.89527764561933,2408
-104.39487495785067,2172
-101.89516377579241,2410
-99.39614390642998,2294
-96.89781515667039,2275
-94.40017733334128,2683
-91.90323024319173,2727
-89.40697369289148,2817
-86.91140748903172,2532
-84.41653143812482,2582
-81.92234534660395,2793
-79.42884902082358,2982
-76.93604226705907,3113
-74.4439248915071,3176
-71.95249670028534,3510
-69.46175749943245,3629
-66.97170709490854,3636
-64.48234529259423,4073
-61.99367189829195,4503
-59.50568671772464,3829
-57.01838955653636,3903
-54.53178022029283,4207
-52.045858514480074,4396
-49.560624244506016,4702
-47.07607721569923,4539
-44.59221723330904,4445
-42.10904410250669,4818
-39.62655762838392,5131
-37.14475761595372,6247
-34.66364387015028,8693
-32.18321619582866,8735
-29.70347439776515,9688
-27.224418280657005,12806
-24.74604764912317,15065
-22.26836230770266,18994
-19.7913620608565,34838
-17.315046712966478,50892
-14.83941606833514,58352
-12.36446993118659,65039
-9.89020810566592,65039
-7.416630395839093,65039
-4.94373660569363,65039
-2.471526539137585,65039
-6.821210263296962E-13,65039
2.47084320796705,65039
4.941003281093458,65039
7.410480415786196,65039
9.879274808531363,65039
12.347386655893956,65039
14.814816154518212,65039
17.28156350112681,65039
19.74762889252179,65039
22.21301252558385,65039
24.67771459727237,65039
27.141735304626195,49373
29.605074844762612,21532
32.06773341487792,12364
34.52971121224755,9474
36.99100843422559,12696
39.45162527824516,19523
41.91156194181792,22208
44.370818622535126,28338
46.82939551806646,34648
49.287292826160524,28024
51.74451074464503,19953
54.201049471426245,11609
56.65690920448981,5921
59.112090141899785,4284
61.56659248179983,4288
64.02041642241159,4274
66.4735621620365,4748
68.92602989905402,3851
71.37781983192338,3081
73.82893215918205,3314
76.27936707944684,3156
78.72912479141326,3693
81.17820549385567,4347
83.62660938562783,3701
86.07433666566146,3455
88.5213875329681,3158
90.96776218663751,2900
93.41346082583925,3834
95.85848364982041,3394
98.30283085790859,2763
100.7465026495089,2753
103.18949922410604,2720
105.63182078126385,2721
108.07346752062438,2967
110.51443964190923,2876
112.95473734491827,2811
115.39436082953114,2377
117.83331029570547,2415
120.27158594347827,2522
122.7091879729652,2339
125.1461165843615,2350
127.58237197794062,2192
130.01795435405518,1893
132.4528639131364,1928
134.88710085569494,2292
137.32066538231982,2484
139.75355769367923,2158
142.1857779905207,1840
144.61732647366978,1808
147.04820334403132,1885
149.47840880258934,1928
151.90794305040674,2231
154.33680628862487,2144
156.76499871846443,2353
159.19252054122433,2608
161.61937195828352,2782
164.04555317109896,3048
166.47106438120693,3637
168.89590579022217,4298
171.320077599839,4338
173.7435800118302,4397
176.16641322804742,4621
178.58857745042144,5253
181.01007288096173,5748
183.43089972175687,5760
185.85105817497413,5778
188.27054844285988,6132
190.6893707277394,6299
193.10752523201643,6455
195.5250121581745,6431
197.9418317087751,6493
200.3579840864594,6622
202.7734694939469,6663
205.18828813403627,6771
207.6024402096051,6634
210.01592592360964,6532
212.42874547908548,6593
214.84089907914665,6600
217.2523869269868,6760
219.66320922587727,6827
222.0733661791695,6722
224.48285799029293,6718
226.8916848627572,6912
229.29984700014882,6896
231.7073446061355,6826
234.11417788446204,6902
236.520347038953,6875
238.92585227351185,7090
241.33069379212054,7240
243.73487179884035,7249
246.1383864978112,7164
248.541238093252,7210
250.9434267894609,7211
253.34495279081432,7145
255.74581630176783,7203
258.1460175268563,7095
260.54555667069314,6967
262.9444339379703,7050
265.3426495334594,7023
267.7402036620107,6971
270.1370965285529,6884
272.53332833809407,6934
274.9288992957214,6963
277.32380960660055,6869
279.718059475976,6549
282.1116491091717,6748
284.5045787115897,6693
286.89684848871195,6806
289.2884586460981,6737
291.67940938938807,6622
294.0697009242996,6630
296.4593334566299,6675
298.84830719225477,6660
301.23662233712923,6561
303.6242790972866,6503
306.01127767884,6684
308.39761828798066,6719
310.78330113097934,6658
313.16832641418534,6532
315.5526943440269,6534
317.9364051270112,6587
320.3194589697242,6631
322.70185607883093,6521
325.0835966610754,6490
327.4646809232805,6587
329.8451090723478,6672
332.2248813152577,6531
334.6039978590701,6422
336.9824589109231,6386
339.36026467803447,6406
341.7374153677,6412
344.113911187295,6463
346.48975234427337,6449
348.8649390461686,6400
351.2394715005918,6550
353.61334991523415,6256
355.9865744978655,6370
358.35914545633375,6437
360.73106299856715,6359
363.10232733257146,6425
365.47293866643247,6384
367.84289720831396,6392
370.2122031664593,6358
372.5808567491905,6437
374.9488581649083,6407
377.31620762209275,6309
379.6829053293021,6433
382.0489514951745,6378
384.4143463284262,6369
386.7790900378528,6225
389.14318283232853,6358
391.50662492080653,6324
393.86941651231916,6270
396.23155781597745,6309
398.5930490409713,6371
400.9538903965696,6336
403.3140820921202,6239
405.6736243370498,6239
408.03251734086336,6269
410.3907613131465,6289
412.74835646356166,6224
415.10530300185144,6123
417.4616011378372,6274
419.81725108141893,6246
422.1722530425758,6284
424.5266072313656,6233
426.880313857925,6273
429.2333731324701,6372
431.58578526529516,6230
433.9375504667738,6297
436.2886689473588,6372
438.63914091758113,6370
440.9889665880513,6276
443.33814616945835,6210
445.68667987257015,6290
448.03456790823395,6329
450.3818104873759,6283
452.72840782100013,6172
455.07436012019105,6239
457.41966759611057,6230
459.7643304600007,6230
462.10834892318155,6374
464.4517231970525,6210
466.79445349309174,6281
469.1365400228566,6292
471.4779829979826,6321
473.81878263018564,6183
476.15893913125876,6151
478.4984527130747,6208
480.8373235875855,6270
483.17555196682144,6463
485.5131380628919,6464
487.8500820879857,6516
490.1863842543697,6649
492.52204477439034,6751
494.8570638604725,6965
497.1914417251204,7227
499.52517858091653,7345
501.85827464052306,7489
504.19073011668036,7539
506.5225452222086,7438
508.85372017000566,7389
511.18425517304956,7267
513.514150444396,7466
515.8434061971808,8051
518.1720226446176,8602
520.4999999999999,9029
522.8273384766991,9334
525.1540382881666,9506
527.480099647932,9290
529.8055227696037,8708
532.1303078668694,7523
534.454455153496,6698
536.777964843328,6430
539.1008371502907,6265
541.4230722883866,6148
543.744670471698,6016
546.0656319143858,6135
548.3859568306899,6284
550.7056454349294,6197
553.0246979415016,6291
555.3431145648834,6192
557.6608955196306,6120
559.978041020377,6114
562.2945512818363,6083
564.6104265188006,6167
566.9256669461412,6135
569.2402727788082,6125
571.5542442318302,6223
573.8675815203156,6264
576.1802848594508,6193
578.4923544645015,6099
580.8037905508126,6161
583.114593333807,6261
585.4247630289875,6067
587.7342998519354,6125
590.0432040183106,6164
592.3514757438526,6174
594.6591152443794,6201
596.9661227357875,6192
599.2724984340531,6276
601.578242555231,6262
603.8833553154542,6199
606.1878369309362,6113
608.4916876179676,6268
610.7949075929192,6297
613.0974970722403,6188
615.3994562724587,6280
617.7007854101818,6355
620.0014847020951,6265
622.3015543649641,6355
624.6009946156324,6269
626.8998056710224,6162
629.1979877481361,6339
631.4955410640538,6195
633.7924658359349,6209
636.0887622810175,6147
638.3844306166192,6322
640.6794710601358,6330
642.9738838290426,6322
645.2676691408932,6289
647.5608272133207,6235
649.853358264037,6329
652.1452625108324,6305
654.4365401715764,6214
656.7271914642178,6272
659.0172166067838,6459
661.3066158173809,6184
663.5953893141935,6376
665.8835373154867,6348
668.1710600396028,6358
670.4579577049639,6155
672.7442305300709,6279
675.0298787335033,6374
677.3149025339197,6448
679.599302150058,6530
681.8830778007342,6461
684.1662297048437,6413
686.4487580813608,6437
688.7306631493387,6340
691.0119451279091,6378
693.2926042362834,6430
695.5726406937516,6468
697.8520547196814,6443
700.1308465335215,6387
702.4090163547982,6374
704.6865644031171,6384
706.9634908981619,6338
709.2397960596965,6221
711.5154801075631,6489
713.7905432616823,6370
716.0649857420548,6459
718.3388077687592,6536
720.612009561953,6505
722.8845913418733,6393
725.1565533288352,6312
727.427895743234,6294
729.6986188055427,6506
731.9687227363137,6451
734.238207756178,6350
736.5070740858458,6400
738.7753219461066,6438
741.0429515578281,6482
743.3099631419569,6376
745.5763569195191,6415
747.8421331116193,6378
750.1072919394409,6395
752.3718336242467,6472
754.6357583873777,6401
756.8990664502545,6410
759.1617580343765,6436
761.423833361321,6293
763.6852926527457,6308
765.9461361303862,6372
768.206364016058,6406
770.4659765316536,6386
772.7249738991469,6355
774.9833563405886,6491
777.2411240781092,6490
779.4982773339183,6304
781.7548163303044,6385
784.010741289634,6443
786.2660524343538,6598
788.5207499869881,6384
790.7748341701416,6399
793.0283052064964,6300
795.2811633188143,6474
797.5334087299362,6501
799.7850416627813,6509
802.0360623403484,6497
804.2864709857143,6502
806.5362678220353,6325
808.7854530725468,6436
811.0340269605625,6486
813.2819897094754,6470
815.5293415427581,6664
817.77608268396,6475
820.0222133567116,6352
822.2677337847211,6436
824.5126441917765,6592
826.7569448017433,6449
829.0006358385675,6355
831.2437175262731,6475
833.4861900889629,6494
835.7280537508192,6448
837.9693087361026,6560
840.2099552691533,6526
842.4499935743896,6292
844.689423876309,6506
846.9282463994886,6464
849.1664613685833,6512
851.4040690083276,6401
853.6410695435349,6404
855.877463199097,6385
858.1132501999847,6420
860.3484307712487,6483
862.5830051380175,6480
864.8169735254988,6526
867.0503361589791,6453
869.2830932638243,6532
871.5152450654786,6514
873.7467917894654,6591
875.9777336613873,6526
878.2080709069252,6626
880.4378037518389,6640
882.666932421968,6488
884.8954571432301,6621
887.1233781416219,6582
889.3506956432192,6544
891.5774098741766,6514
893.803521060728,6513
896.0290294291852,6647
898.2539352059397,6485
900.4782386174619,6561
902.7019398903011,6645
904.925039251085,6470
907.147536926521,6496
909.3694331433943,6367
911.59072812857,6498
913.8114221089921,6272
916.0315153116827,6444
918.2510079637437,6522
920.4699002923547,6619
922.6881925247761,6506
924.905884888345,6383
927.1229776104793,6398
929.3394709186747,6440
931.555365040506,6443
933.7706602036275,6519
935.9853566357709,6524
938.1994545647489,6413
940.4129542184515,6516
942.6258558248488,6606
944.8381596119883,6477
947.0498658079974,6440
949.2609746410825,6586
951.4714863395287,6516
953.6814011316998,6545
955.8907192460387,6507
958.0994409110671,6606
960.3075663553858,6501
962.5150958076741,6531
964.7220294966913,6625
966.928367651274,6510
969.1341105003388,6385
971.3392582728806,6544
973.5438111979742,6360
975.747769504772,6477
977.9511334225061,6442
980.153903180487,6463
982.3560790081052,6504
984.5576611348289,6456
986.7586497902058,6391
988.9590452038618,6512
991.158847605503,6309
993.3580572249133,6456
995.5566742919558,6326
997.7546990365728,6312
999.952131688785,6309
1002.1489724786926,6301
1004.3452216364743,6280
1006.5408793923874,6245
1008.7359459767691,6165
1010.9304216200343,6286
1013.1243065526781,6253
1015.3176010052733,6126
1017.510305208472,6242
1019.7024193930064,6120
1021.8939437896848,6225
1024.0848786293977,6327
1026.2752241431122,6241
1028.4649805618747,6175
1030.6541481168115,6081
1032.842727039127,6223
1035.0307175601051,6050
1037.2181199111074,6153
1039.4049343235752,6248
1041.591161029029,6149
1043.7768002590683,6274
1045.9618522453698,6263
1048.1463172196918,6205
1050.3301954138697,6310
1052.513487059818,6329
1054.69619238953,6359
1056.8783116350783,6304
1059.0598450286152,6281
1061.2407928023704,6122
1063.4211551886528,6087
1065.6009324198508,6272
1067.780124728432,6317
1069.9587323469414,6162
1072.1367555080046,6223
1074.314194444325,6283
1076.4910493886855,6230
1078.667320573947,6199
1080.843008233051,6215
1083.0181125990161,6211
1085.1926339049414,6156
1087.3665723840027,6128
1089.5399282694575,6067
1091.7127017946405,6100
1093.8848931929647,6222
1096.0565026979243,6118
1098.2275305430899,6053
1100.3979769621128,6057
1102.567842188722,6089
1104.737126456726,6199
1106.9058300000124,6165
1109.0739530525475,6119
1111.2414958483764,6037
1113.4084586216231,6084
1115.5748416064907,6148
1117.7406450372605,6304
1119.9058691482942,6169
1122.0705141740304,6247
1124.2345803489884,6171
1126.3980679077658,6152
1128.5609770850388,6104
1130.7233081155623,6155
1132.8850612341707,6057
1135.0462366757774,6233
1137.2068346753745,6096
1139.3668554680326,6198
1141.526299288901,6226
1143.68516637321,6164
1145.8434569562655,6241
1148.001171273455,6219
1150.158309560244,6198
1152.3148720521767,6148
1154.470858984876,6187
1156.626270594044,6229
1158.7811071154629,6107
1160.9353687849912,6307
1163.089055838569,6216
1165.242168512213,6281
1167.3947070420209,6062
1169.5466716641677,6204
1171.6980626149075,6055
1173.8488801305748,6041
1175.9991244475814,6151
1178.1487958024186,5960
1180.2978944316555,6148
1182.4464205719428,6140
1184.5943744600072,6098
1186.7417563326567,6008
1188.8885664267755,6103
1191.0348049793297,6062
1193.1804722273619,6163
1195.325568407995,6097
1197.4700937584303,6110
1199.614048515948,6155
1201.7574329179074,6101
1203.900247201746,6153
1206.042491604982,5978
1208.1841663652099,6086
1210.3252717201053,6004
1212.465807907422,6190
1214.6057751649923,6101
1216.7451737307279,6004
1218.8840038426192,6232
1221.0222657387353,6123
1223.1599596572241,6237
1225.2970858363137,6091
1227.4336445143094,6155
1229.5696359295966,6185
1231.705060320639,6036
1233.8399179259786,6185
1235.9742089842384,6102
1238.107933734118,6058
1240.2410924143974,6127
1242.373685263935,6207
1244.5057125216676,6191
1246.6371744266116,6144
1248.7680712178621,6097
1250.898403134593,6267
1253.028170416058,6138
1255.1573733015875,6118
1257.2860120305932,6093
1259.4140868425648,6180
1261.54159797707,6120
1263.6685456737569,6007
1265.7949301723515,6114
1267.9207517126597,6131
1270.046010534565,6235
1272.1707068780306,6102
1274.2948409830983,6236
1276.4184130898889,6245
1278.541423438603,6238
1280.6638722695184,6228
1282.785759822993,6121
1284.9070863394636,6226
1287.0278520594447,6159
1289.1480572235314,6387
1291.2677020723963,6271
1293.3867868467923,6242
1295.5053117875495,6330
1297.623277135579,6342
1299.740683131868,6381
1301.8575300174857,6324
1303.973818033578,6459
1306.0895474213703,6297
1308.2047184221678,6386
1310.3193312773528,6315
1312.4333862283888,6428
1314.5468835168163,6301
1316.659823384255,6309
1318.7722060724045,6319
1320.8840318230418,6218
1322.9953008780249,6208
1325.1060134792888,6321
1327.2161698688478,6395
1329.3257702887959,6193
1331.4348149813054,6296
1333.5433041886276,6356
1335.6512381530933,6350
1337.7586171171101,6376
1339.8654413231675,6259
1341.9717110138317,6275
1344.0774264317488,6269
1346.1825878196432,6179
1348.2871954203192,6292
1350.3912494766587,6290
1352.4947502316231,6285
1354.5976979282532,6120
1356.7000928096686,6198
1358.8019351190665,6312
1360.9032250997243,6144
1363.0039629949988,6104
1365.1041490483235,6413
1367.2037835032133,6288
1369.3028666032606,6361
1371.401398592137,6324
1373.4993797135926,6221
1375.5968102114575,6228
1377.6936903296396,6099
1379.7900203121262,6385
1381.8858004029835,6349
1383.9810308463561,6369
1386.075711886469,6307
1388.1698437676241,6314
1390.2634267342032,6253
1392.356461030667,6193
1394.4489469015557,6424
1396.5408845914872,6244
1398.6322743451592,6372
1400.7231164073469,6303
1402.813411022907,6313
1404.903158436773,6474
1406.9923588939578,6245
1409.0810126395531,6181
1411.1691199187303,6338
1413.2566809767386,6171
1415.343696058907,6307
1417.4301654106425,6248
1419.5160892774315,6208
1421.6014679048399,6278
1423.6863015385125,6257
1425.7705904241707,6324
1427.8543348076178,6339
1429.9375349347342,6266
1432.0201910514802,6301
1434.102303403894,6292
1436.1838722380944,6317
1438.2648978002767,6244
1440.3453803367174,6335
1442.4253200937692,6531
1444.5047173178677,6358
1446.5835722555234,6424
1448.6618851533285,6410
1450.739656257952,6411
1452.8168858161434,6451
1454.8935740747306,6486
1456.96972128062,6553
1459.045327680797,6461
1461.120393522327,6623
1463.1949190523528,6475
1465.2689045180973,6571
1467.3423501668608,6469
1469.415256246024,6560
1471.4876230030463,6613
1473.559450685465,6665
1475.6307395408976,6731
1477.7014898170391,6786
1479.771701761665,6675
1481.8413756226287,6696
1483.9105116478618,6701
1485.9791100853772,6819
1488.0471711832643,6901
1490.1146951896926,6823
1492.1816823529098,7019
1494.2481329212433,7009
1496.3140471430984,7039
1498.3794252669609,6954
1500.4442675413939,7036
1502.5085742150404,6929
1504.572345536622,6899
1506.6355817549388,6978
1508.6982831188702,7065
1510.7604498773744,7072
1512.8220822794883,6961
1514.8831805743293,7191
1516.9437450110909,7191
1519.003775839048,7086
1521.0632733075522,7213
1523.1222376660367,7292
1525.1806691640113,7396
1527.2385680510652,7336
1529.2959345768668,7323
1531.3527689911643,7431
1533.4090715437833,7497
1535.4648424846291,7470
1537.5200820636855,7514
1539.5747905310159,7644
1541.6289681367616,7580
1543.6826151311434,7610
1545.7357317644614,7740
1547.7883182870937,7644
1549.8403749494987,7764
1551.8919020022113,7807
1553.9428996958477,7773
1555.9933682811015,7901
1558.0433080087469,7936
1560.0927191296346,7958
1562.1416018946961,8069
1564.1899565549415,7944
1566.2377833614592,8050
1568.2850825654164,8094
1570.3318544180606,7845
1572.3780991707158,7945
1574.423817074788,7698
1576.4690083817595,7451
1578.5136733431923,7476
1580.5578122107272,7355
1582.601425236085,7224
1584.6445126710646,7170
1586.6870747675434,7073
1588.7291117774776,7010
1590.7706239529034,6859
1592.8116115459347,6865
1594.8520748087658,6694
1596.8920139936686,6431
1598.9314293529933,6628
1600.9703211391711,6423
1603.008689604711,6457
1605.0465350022005,6419
1607.0838575843068,6387
1609.1206576037753,6436
1611.1569353134305,6339
1613.1926909661765,6233
1615.2279248149953,6317
1617.2626371129481,6208
1619.2968281131757,6301
1621.3304980688963,6247
1623.3636472334088,6178
1625.39627586009,6193
1627.428384202396,6257
1629.459972513861,6234
1631.4910410480993,6263
1633.5215900588028,6111
1635.551619799744,6089
1637.5811305247717,6147
1639.6101224878166,6124
1641.6385959428862,6183
1643.6665511440683,6188
1645.693988345528,6125
1647.7209078015112,6158
1649.7473097663405,5995
1651.7731944944203,5942
1653.7985622402307,6029
1655.823413258333,6147
1657.847747803366,6060
1659.8715661300494,6031
1661.8948684931793,5983
1663.9176551476316,6036
1665.9399263483624,6001
1667.9616823504057,6047
1669.982923408873,5979
1672.0036497789574,5937
1674.0238617159293,6092
1676.043559475138,5850
1678.0627433120121,5899
1680.081413482059,5879
1682.0995702408654,5988
1684.117213844096,5904
1686.134344547495,6036
1688.1509626068864,6001
1690.1670682781705,5940
1692.182661817329,5978
1694.1977434804217,6006
1696.2123135235875,5865
1698.226372203043,5807
1700.2399197750851,5821
1702.2529564960905,5860
1704.2654826225112,5955
1706.277498410882,5964
1708.2890041178139,6043
1710.2999999999988,6062
1712.3104863142066,5914
1714.3204633172854,5962
1716.329931266163,5956
1718.3388904178469,6024
1720.3473410294214,5948
1722.3552833580516,5956
1724.3627176609807,6057
1726.3696441955308,6003
1728.3760632191033,5903
1730.3819749891782,5984
1732.3873797633146,6037
1734.3922777991502,5855
1736.3966693544012,5890
1738.4005546868639,5795
1740.4039340544127,5921
1742.406807715001,5808
1744.4091759266616,5939
1746.4110389475054,5973
1748.4123970357223,5866
1750.413250449582,5808
1752.4135994474318,5830
1754.4134442876993,5973
1756.4127852288902,5836
1758.4116225295893,5784
1760.4099564484595,5837
1762.407787244244,5775
1764.405115175764,5817
1766.4019405019203,5823
1768.3982634816916,5847
1770.3940843741357,5968
1772.3894034383907,5828
1774.3842209336717,5838
1776.378537119274,5834
1778.372352254571,5879
1780.3656665990156,5851
1782.3584804121397,5734
1784.3507939535534,5750
1786.3426074829463,5802
1788.3339212600863,5783
1790.3247355448211,5815
1792.3150505970766,5741
1794.3048666768573,5827
1796.2941840442477,5940
1798.2830029594106,5804
1800.2713236825884,5707
1802.2591464741004,5961
1804.2464715943465,5775
1806.2332993038058,5856
1808.2196298630352,5806
1810.2054635326708,5847
1812.190800573428,5918
1814.175641246101,5829
1816.1599858115628,5728
1818.1438345307652,5802
1820.127187664738,5789
1822.1100454745924,5815
1824.092408221516,5741
1826.0742761667766,5864
1828.055649571721,5734
1830.0365286977735,5853
1832.0169138064398,5878
1833.9968051593014,5667
1835.9762030180214,5833
1837.9551076443408,5701
1839.9335193000788,5710
1841.9114382471344,5805
1843.888864747485,5722
1845.8657990631878,5733
1847.842241456378,5647
1849.8181921892697,5781
1851.7936515241558,5659
1853.7686197234098,5544
1855.7430970494815,5628
1857.7170837649014,5648
1859.6905801322787,5712
1861.6635864143004,5600
1863.6361028737338,5707
1865.608129773424,5588
1867.5796673762961,5671
1869.5507159453537,5868
1871.521275743678,5691
1873.4913470344313,5780
1875.4609300808534,5677
1877.4300251462632,5718
1879.3986324940588,5744
1881.366752387717,5765
1883.3343850907936,5729
1885.3015308669228,5577
1887.268189979819,5772
1889.2343626932739,5773
1891.2000492711595,5682
1893.1652499774254,5809
1895.1299650761011,5704
1897.0941948312952,5678
1899.0579395071945,5828
1901.0211993680641,5704
1902.98397467825,5686
1904.9462657021745,5663
1906.9080727043415,5684
1908.869395949332,5783
1910.8302357018065,5783
1912.790592226504,5670
1914.7504657882428,5738
1916.7098566519212,5713
1918.6687650825133,5655
1920.6271913450764,5786
1922.5851357047422,5693
1924.5425984267245,5743
1926.499579776314,5659
1928.4560800188833,5648
1930.4120994198802,5638
1932.367638244833,5590
1934.32269675935,5828
1936.2772752291175,5738
1938.231373919899,5769
1940.1849930975404,5664
1942.1381330279637,5622
1944.0907939771696,5691
1946.0429762112412,5569
1947.9946799963363,5611
1949.9459055986945,5549
1951.896653284633,5589
1953.8469233205478,5754
1955.7967159729142,5694
1957.7460315082863,5560
1959.6948701932974,5771
1961.6432322946594,5664
1963.5911180791632,5715
1965.5385278136787,5582
1967.4854617651545,5695
1969.4319202006182,5688
1971.377903387176,5612
1973.3234115920136,5656
1975.268445082395,5594
1977.2130041256642,5674
1979.1570889892423,5734
1981.1006999406304,5667
1983.04383724741,5551
1984.986501177238,5636
1986.928691997853,5599
1988.8704099770712,5604
1990.811655382789,5390
1992.7524284829801,5514
1994.692729545698,5597
1996.6325588390755,5488
1998.5719166313224,5612
2000.5108031907307,5608
2002.4492187856677,5478
2004.387163684583,5465
2006.3246381560011,5498
2008.2616424685298,5513
2010.1981768908527,5530
2012.1342416917332,5586
2014.069837140014,5469
2016.0049635046162,5536
2017.9396210545406,5500
2019.8738100588666,5511
2021.8075307867502,5444
2023.740783507431,5479
2025.6735684902228,5530
2027.6058860045214,5548
2029.5377363198004,5478
2031.4691197056118,5442
2033.4000364315875,5390
2035.3304867674374,5419
2037.260470982952,5684
2039.189989347998,5472
2041.1190421325232,5507
2043.047629606554,5492
2044.9757520401945,5430
2046.9034097036288,5416
2048.8306028671195,5329
2050.7573318010086,5393
2052.683596775716,5633
2054.609398061742,5535
2056.5347359296647,5554
2058.4596106501403,5377
2060.384022493906,5568
2062.3079717317764,5437
2064.231458634646,5482
2066.1544834734873,5485
2068.077046519352,5588
2069.99914804337,5611
2071.9207883167524,5507
2073.8419676107865,5505
2075.7626861968406,5550
2077.6829443463607,5414
2079.6027423308715,5419
2081.522080421977,5314
2083.440958891362,5383
2085.359378010786,5380
2087.2773380520907,5488
2089.194839287196,5487
2091.111881988101,5508
2093.0284664268825,5406
2094.9445928756973,5509
2096.86026160678,5442
2098.775472892446,5487
2100.690227005088,5476
2102.604524217178,5362
2104.5183648012676,5445
2106.431749029985,5360
2108.34467717604,5363
2110.2571495122206,5390
2112.169166311393,5383
2114.080727846503,5309
2115.9918343905747,5342
2117.902486216711,5497
2119.8126835980956,5420
2121.722426807987,5426
2123.6317161197285,5442
2125.5405518067364,5465
2127.448934142509,5515
2129.356863400624,5368
2131.264339854737,5342
2133.1713637785815,5446
2135.077935445972,5275
2136.9840551308002,5395
2138.889723107037,5430
2140.7949396487334,5419
2142.699705030018,5439
2144.6040195250994,5315
2146.507883408264,5389
2148.4112969538774,5413
2150.3142604363848,5341
2152.2167741303097,5318
2154.1188383102535,5415
2156.0204532508997,5384
2157.9216192270064,5254
2159.822336513414,5306
2161.7226053850413,5325
2163.622426116884,5351
2165.5217989840185,5393
2167.4207242616,5282
2169.319202224862,5272
2171.2172331491165,5239
2173.1148173097563,5448
2175.0119549822507,5342
2176.90864644215,5282
2178.8048919650823,5442
2180.7006918267534,5326
2182.596046302952,5279
2184.4909556695407,5301
2186.3854202024645,5195
2188.279440177746,5362
2190.173015871487,5375
2192.066147559868,5406
2193.958835519149,5253
2195.851080025667,5248
2197.7428813558417,5325
2199.6342397861667,5280
2201.5251555932186,5331
2203.415629053651,5307
2205.3056604441986,5267
2207.19525004167,5232
2209.084398122958,5285
2210.9731049650327,5256
2212.861370844941,5172
2214.749196039812,5278
2216.636580826851,5334
2218.523525483344,5352
2220.410030286655,5264
2222.296095514226,5415
2224.1817214435805,5408
2226.066908352319,5303
2227.951656518121,5232
2229.835966218746,5368
2231.71983773203,5378
2233.6032713358913,5174
2235.486267308324,5310
2237.3688259274036,5296
2239.2509474712824,5315
2241.132632218193,5242
2243.013880446447,5311
2244.8946924344323,5216
2246.7750684606203,5306
2248.6550088035574,5377
2250.534513741871,5197
2252.413583554265,5253
2254.292218519526,5303
2256.170418916517,5338
2258.0481850241786,5228
2259.925517121534,5273
2261.8024154876825,5153
2263.678880401803,5095
2265.5549121431536,5237
2267.430510991071,5162
2269.305677224971,5103
2271.180411124348,5316
2273.0547129687766,5209
2274.9285830379076,5224
2276.8020216114737,5252
2278.6750289692845,5177
2280.5476053912294,5248
2282.4197511572766,5310
2284.2914665474727,5197
2286.162751841943,5231
2288.0336073208937,5259
2289.904033264608,5264
2291.774029953448,5115
2293.6435976678554,5270
2295.5127366883517,5210
2297.381447295534,5237
2299.2497297700825,5230
2301.1175843927526,5235
2302.9850114443825,5161
2304.852011205885,5227
2306.7185839582553,5323
2308.5847299825664,5275
2310.4504495599676,5336
2312.3157429716925,5225
2314.1806104990483,5234
2316.0450524234247,5243
2317.9090690262888,5230
2319.772660589186,5386
2321.635827393742,5431
2323.498569721661,5275
2325.3608878547248,5269
2327.2227820747967,5226
2329.0842526638157,5094
2330.945299903803,5198
2332.805924076857,5323
2334.6661254651535,5170
2336.525904350951,5326
2338.3852610165827,5283
2340.244195744464,5312
2342.102708817088,5317
2343.9608005170253,5210
2345.8184711269287,5208
2347.675720929526,5150
2349.532550207628,5216
2351.38895924412,5149
2353.24494832197,5128
2355.100517724223,5242
2356.955667734004,5197
2358.810398634514,5231
2360.664710709037,5205
2362.5186042409337,5285
2364.3720795136437,5118
2366.225136810686,5160
2368.0777764156583,5161
2369.929998612237,5125
2371.7818036841777,5264
2373.633191915315,5149
2375.484163589562,5139
2377.3347189909114,5156
2379.184858403434,5231
2381.03458211128,5260
2382.8838903986775,5172
2384.732783549936,5205
2386.5812618494406,5222
2388.4293255816588,5288
2390.2769750311327,5184
2392.1242104824883,5253
2393.971032220427,5297
2395.8174405297295,5157
2397.6634356952563,5265
2399.509018001947,5168
2401.3541877348193,5223
2403.1989451789705,5083
2405.043290619576,5147
2406.8872243418905,5117
2408.730746631247,5258
2410.5738577730594,5299
2412.4165580528183,5265
2414.258847756095,5175
2416.100727168537,5188
2417.9421965758734,5310
2419.783256263912,5232
2421.623906518538,5275
2423.4641476257157,5160
2425.303979871491,5102
2427.143403541984,5250
2428.9824189233977,5173
2430.821026302012,5156
2432.6592259641866,5222
2434.497018196361,5314
2436.33440328505,5260
2438.171381516851,5206
2440.00795317844,5137
2441.844118556569,5162
2443.6798779380724,5194
2445.5152316098606,5213
2447.3501798589255,5219
2449.1847229723357,5214
2451.0188612372403,5110
2452.8525949408663,5142
2454.6859243705203,5067
2456.518849813587,5097
2458.3513715575314,5224
2460.183489889895,5171
2462.015205098301,5051
2463.8465174704493,5192
2465.67742729412,5270
2467.5079348571717,5171
2469.338040447542,5066
2471.1677443532476,5095
2472.9970468623833,5108
2474.825948263123,5125
2476.6544488437207,5168
2478.482548892508,5223
2480.310248697896,5109
2482.137548548374,5120
2483.9644487325118,5286
2485.790949538956,5226
2487.617051256433,5114
2489.44275417375,5073
2491.26805857979,5236
2493.0929647635157,5118
2494.917473013971,5251
2496.741583620276,5310
2498.5652968716304,5187
2500.3886130573137,5285
2502.2115324666834,5205
2504.0340553891765,5232
2505.856182114308,5216
2507.6779129316733,5234
2509.499248130945,5157
2511.3201880018764,5254
2513.140732834298,5309
2514.9608829181198,5233
2516.780638543331,5248
2518.6,5260
2520.418967578273,5322
2522.237541568376,5194
2524.0557222606144,5123
2525.8735099453706,5160
2527.6909049131086,5169
2529.507907454368,5188
2531.32451785977,5062
2533.140736420014,5230
2534.9565634258774,5209
2536.771999168218,5237
2538.5870439379714,5213
2540.4016980261526,5248
2542.2159617238544,5261
2544.02983532225,5244
2545.8433191125914,5214
2547.656413386209,5211
2549.4691184345115,5305
2551.2814345489874,5240
2553.093362021204,5284
2554.904901142808,5277
2556.716052205523,5277
2558.526815501153,5394
2560.3371913215824,5284
2562.147179958771,5291
2563.956781704761,5232
2565.7659968516705,5305
2567.5748256916986,5153
2569.3832685171224,5244
2571.1913256202984,5307
2572.9989972936614,5356
2574.806283829725,5362
2576.613185521084,5229
2578.4197026604074,5378
2580.2258355404483,5235
2582.031584454035,5363
2583.836949694077,5332
2585.6419315535613,5199
2587.4465303255533,5282
2589.2507463032002,5345
2591.0545797797245,5309
2592.8580310484303,5298
2594.6611004026995,5251
2596.463788135992,5303
2598.266094541849,5315
2600.0680199138874,5301
2601.869564545807,5423
2603.670728731383,5352
2605.4715127644704,5319
2607.2719169390048,5389
2609.071941548998,5303
2610.8715868885433,5265
2612.670853251811,5385
2614.469740933052,5332
2616.268250226594,5274
2618.0663814268455,5258
2619.864134828292,5394
2621.6615107255006,5254
2623.458509413115,5322
2625.2551311858597,5451
2627.0513763385347,5379
2628.8472451660223,5383
2630.6427379632833,5368
2632.4378550253564,5364
2634.232596647359,5182
2636.026963124488,5246
2637.8209547520187,5279
2639.6145718253065,5371
2641.407814639785,5285
2643.200683490966,5229
2644.9931786744414,5243
2646.7853004858807,5218
2648.577049221034,5268
2650.3684251757277,5235
2652.1594286458712,5219
2653.9500599274484,5063
2655.740319316525,5179
2657.5302071092437,5215
2659.3197236018286,5174
2661.10886909058,5057
2662.8976438718782,5100
2664.686048242183,5154
2666.4740824980327,5170
2668.2617469360443,5126
2670.0490418529134,5063
2671.8359675454153,5072
2673.622524310403,5139
2675.408712444811,5291
2677.1945322456495,5152
2678.979984010009,5122
2680.76506803506,5242
2682.5497846180497,5152
2684.334134056306,5193
2686.1181166472343,5164
2687.9017326883213,5111
2689.6849824771293,5155
2691.4678663113013,5214
2693.2503844885596,5198
2695.032537306705,5061
2696.8143250636167,5108
2698.5957480572542,5055
2700.3768065856534,5121
2702.1575009469316,5088
2703.937831439283,4952
2705.717798360982,5039
2707.4974020103837,5074
2709.276642685917,5028
2711.055520686095,5009
2712.834036309506,5040
2714.612189854819,5011
2716.389981620782,5110
2718.1674119062204,5151
2719.944481010041,4987
2721.721189231226,5013
2723.4975368688415,4995
2725.273524222027,5049
2727.0491515900053,5075
2728.824419272075,4983
2730.5993275676146,5050
2732.3738767760838,5013
2734.148067197016,5076
2735.921899130031,5013
2737.6953728748194,4986
2739.468488731156,4982
2741.2412469988926,4991
2743.0136479779617,4930
2744.785691968372,5040
2746.5573792702116,4955
2748.3287101836504,4967
2750.099685008934,4955
2751.870304046388,5053
2753.640567596418,5054
2755.4104759595057,5012
2757.1800294362156,4996
2758.949228327187,5043
2760.7180729331412,5010
2762.486563554877,4859
2764.254700493272,5149
2766.022484049284,5129
2767.789914523947,5004
2769.5569922183786,5040
2771.3237174337705,5050
2773.090090471394,4991
2774.8561116326036,4922
2776.6217812188274,5104
2778.3870995315756,5009
2780.1520668724356,5010
2781.9166835430747,5043
2783.6809498452394,5039
2785.444866080754,5072
2787.2084325515225,4973
2788.971649559527,4948
2790.73451740683,5024
2792.4970363955713,4985
2794.2592068279705,4940
2796.0210290063264,4944
2797.7825032330147,5055
2799.543629810493,5069
2801.304409041296,4865
2803.0648412280366,5053
2804.8249266734088,5134
2806.5846656801846,5034
2808.344058551212,4858
2810.1031055894246,5034
2811.8618070978273,4974
2813.6201633795085,5115
2815.378174737636,5101
2817.1358414754536,5098
2818.893163896285,5036
2820.6501423035334,5042
2822.4067770006814,5002
2824.1630682912883,4988
2825.9190164789957,5035
2827.6746218675207,4972
2829.429884760661,4956
2831.184805462294,4912
2832.9393842763743,5021
2834.693621506936,4988
2836.4475174580916,5013
2838.201072434034,5099
2839.954286739034,5019
2841.707160677441,5216
2843.459694553685,5020
2845.2118886722724,4952
2846.96374333779,4973
2848.7152588549034,5062
2850.4664355283567,4979
2852.217273662973,4983
2853.9677735636546,5044
2855.7179355353833,4980
2857.4677598832186,5083
2859.217246912299,5063
2860.9663969278427,5060
2862.715210235146,4942
2864.4636871395846,4985
2866.211827946614,5059
2867.9596329617652,4983
2869.7071024906536,5089
2871.4542368389684,4963
2873.20103631248,4905
2874.947501217038,4940
2876.6936318585695,5027
2878.4394285430812,5032
2880.1848915766604,5058
2881.9300212654707,5051
2883.6748179157553,5027
2885.4192818338374,4982
2887.1634133261173,5100
2888.907212699077,5013
2890.6506802592744,5015
2892.393816313348,5049
2894.1366211680142,4971
2895.8790951300693,5036
2897.621238506388,5053
2899.363051603925,5061
2901.1045347297118,5058
2902.8456881908596,5018
2904.58651229456,4923
2906.327007348081,4988
2908.067173658772,4960
2909.8070115340597,4919
2911.5465212814497,5033
2913.285703208527,4910
2915.0245576229563,5037
2916.7630848324807,4881
2918.5012851449196,4972
2920.2391588681758,4922
2921.976706310227,4891
2923.7139277791334,4959
2925.4508235830313,5044
2927.187394030137,4993
2928.923639428745,4984
2930.6595600872306,4864
2932.395156314046,4929
2934.1304284177218,4871
2935.8653767068713,4929
2937.6000014901815,4989
2939.3343030764227,4990
2941.068281774442,4996
2942.8019378931644,5044
2944.5352717415976,5021
2946.2682836288236,5084
2948.0009738640065,4853
2949.7333427563885,5016
2951.465390615289,5044
2953.1971177501086,4945
2954.9285244703265,4883
2956.6596110855,4903
2958.3903779052657,4904
2960.1208252393385,4932
2961.8509533975125,4865
2963.5807626896617,4899
2965.3102534257378,5036
2967.0394259157715,5022
2968.768280469873,5044
2970.496817398232,4925
2972.2250370111146,4930
2973.952939618869,4940
2975.6805255319196,5001
2977.4077950607707,4974
2979.134748516006,5011
2980.861386208289,5119
2982.587708448359,5078
2984.313715547037,5088
2986.039407815222,4994
2987.764785563891,5152
2989.489849104102,5144
2991.2145987469908,5008
2992.9390348037705,4995
2994.6631575857346,5055
2996.3869674042576,5121
2998.1104645707887,5001
2999.83364939686,5058
3001.5565221940783,5001
3003.2790832741334,5066
3005.0013329487924,4803
3006.7232715298996,4957
3008.4448993293804,4972
3010.166216659239,4966
3011.887223831558,4951
3013.607921158498,5033
3015.3283089522993,4894
3017.0483875252826,4967
3018.7681571898443,4939
3020.4876182584626,5090
3022.2067710436927,4980
3023.9256158581707,4989
3025.644153014609,5014
3027.362382825801,4991
3029.0803056046193,4980
3030.797921664012,4959
3032.5152313170106,5005
3034.2322348767225,5054
3035.9489326563353,5096
3037.665324969115,4936
3039.3814121284063,5015
3041.097194447633,5028
3042.812672240299,5069
3044.5278458199855,5067
3046.2427155003525,5041
3047.9572815951406,5107
3049.671544418167,5002
3051.38550428333,5044
3053.0991615046073,5066
3054.812516396051,5011
3056.5255692717974,4966
3058.2383204460575,5087
3059.9507702331257,5030
3061.662918947372,5021
3063.3747669032446,5007
3065.0863144152736,5060
3066.7975617980674,5035
3068.508509366309,5108
3070.219157434767,5104
3071.9295063182844,5062
3073.639556331785,5080
3075.3493077902704,5004
3077.058761008821,5136
3078.7679163025964,5050
3080.476773986837,4968
3082.1853343768594,5022
3083.89359778806,5049
3085.6015645359153,5013
3087.3092349359786,4972
3089.016609303884,5023
3090.7236879553434,4875
3092.4304712061476,5052
3094.136959372166,4949
3095.843152769349,5025
3097.5490517137237,4968
3099.2546565213966,4947
3100.959967508554,4792
3102.66498499146,5017
3104.3697092864577,5046
3106.0741407099695,4970
3107.778279578498,5019
3109.482126208622,4929
3111.1856809170004,4992
3112.8889440203716,4956
3114.5919158355528,4990
3116.294596679439,5035
3117.996986869006,5021
3119.6990867213062,5090
3121.4008965534726,5190
3123.102416682717,5029
3124.803647426329,5127
3126.5045891016784,5040
3128.205242026213,5048
3129.90560651746,5139
3131.605682893025,5050
3133.3054714705922,5043
3135.0049725679282,5182
3136.7041865028714,5064
3138.4031135933465,5049
3140.101754157353,5074
3141.800108512971,5049
3143.498176978357,5027
3145.1959598717494,5042
3146.8934575114636,4956
3148.5906702158954,4949
3150.2875983035183,5171
3151.9842420928853,5000
3153.680601902627,5048
3155.376678051456,4969
3157.07247085816,4990
3158.767980641609,4964
3160.463207720748,4954
3162.158152414606,4967
3163.8528150422862,4993
3165.5471959229726,5053
3167.2412953759303,5127
3168.9351137204976,5163
3170.628651276098,5144
3172.3219083622307,5065
3174.014885298474,5095
3175.707582404485,5174
3177.4000000000005,5082
3179.092138404835,5128
3180.7839979388846,5173
3182.47557892212,5198
3184.166881674594,5028
3185.8579065164386,5233
3187.5486537678626,5131
3189.2391237491547,5112
3190.9293167806827,5081
3192.6192331828934,5039
3194.3088732763117,5048
3195.998237381542,5127
3197.687325819268,5158
3199.376138910251,5007
3201.064676975334,4990
3202.7529403354347,5092
3204.4409293115523,5001
3206.1286442247647,5106
3207.816085396229,5056
3209.5032531471825,4996
3211.190147798936,4955
3212.8767696728846,5073
3214.5631190905015,4915
3216.2491963733373,5047
3217.9350018430214,4843
3219.6205358212637,4812
3221.305798629851,4833
3222.990790590651,4974
3224.6755120256103,4967
3226.359963256751,4908
3228.0441446061795,4895
3229.7280563960758,4919
3231.411698948703,5086
3233.0950725863995,5040
3234.778177631587,4983
3236.461014406761,5106
3238.1435832345005,5084
3239.8258844374595,5041
3241.507918338374,5131
3243.1896852600576,4987
3244.8711855254023,5098
3246.552419457381,4949
3248.233387379042,5043
3249.914089613516,5093
3251.59452648401,5073
3253.274698313813,4893
3254.95460542629,5060
3256.6342481448855,5003
3258.313626793125,4916
3259.9927416946084,4998
3261.6715931730196,4877
3263.3501815521176,4939
3265.0285071557437,4970
3266.706570307815,4924
3268.3843713323286,4935
3270.0619105533615,4951
3271.739188295068,4998
3273.4162048816834,4856
3275.0929606375184,4995
3276.769455886966,5171
3278.445690954498,5108
3280.1216661646613,5032
3281.797381842087,5036
3283.4728383114807,4961
3285.1480358976296,4962
3286.8229749253996,4934
3288.4976557197333,5036
3290.172078605655,5067
3291.846243908266,4886
3293.5201519527463,4977
3295.193803064357,4949
3296.8671975684374,4973
3298.5403357904024,4949
3300.21321805575,4914
3301.8858446900567,4976
3303.558216018975,4977
3305.23033236824,5063
3306.9021940636603,4949
3308.57380143113,5017
3310.2451547966184,4945
3311.916254486174,5093
3313.5871008259246,4967
3315.2576941420766,5070
3316.9280347609147,5099
3318.5981230088046,4900
3320.2679592121895,5001
3321.9375436975924,4950
3323.606876791612,4979
3325.27595882093,4945
3326.944790112305,4905
3328.6133709925753,4881
3330.2817017886573,4873
3331.949782827547,4928
3333.617614436319,4936
3335.2851969421245,5030
3336.952530672199,4965
3338.619615953853,4874
3340.286453114475,5027
3341.9530424815357,5047
3343.619384382583,5020
3345.2854791452437,4989
3346.951327097224,5149
3348.6169285663073,5123
3350.2822838803577,5075
3351.947393367319,4954
3353.61225735521,5026
3355.2768761721345,5060
3356.9412501462693,5029
3358.605379605873,5071
3360.2692648792827,4977
3361.9329062949146,4977
3363.596304181263,4962
