CollectionTime,6/26/2024 2:43:16 PM
ExposureUsed,3
CalibratedSpectrum
-962.7078968117929,1417
-959.9714848408522,1497
-957.2358232597828,1530
-954.5009119013725,1496
-951.7667505983302,1478
-949.0333391832855,1573
-946.3006774887896,1557
-943.5687653473143,1549
-940.837602591253,1576
-938.1071890529199,1572
-935.3775245645503,1617
-932.6486089583007,1546
-929.9204420662485,1545
-927.1930237203925,1605
-924.4663537526524,1556
-921.7404319948689,1602
-919.0152582788041,1600
-916.2908324361409,1596
-913.5671542984834,1607
-910.8442236973568,1600
-908.1220404642074,1590
-905.4006044304027,1563
-902.679915427231,1568
-899.959973285902,1547
-897.2407778375464,1493
-894.5223289132158,1600
-891.8046263438832,1524
-889.0876699604426,1523
-886.3714595937089,1566
-883.6559950744183,1578
-880.9412762332282,1603
-878.2273029007168,1520
-875.5140749073835,1523
-872.8015920836489,1541
-870.0898542598545,1546
-867.3788612662631,1568
-864.6686129330585,1536
-861.9591090903457,1534
-859.2503495681506,1494
-856.5423341964203,1558
-853.8350628050229,1638
-851.1285352237478,1620
-848.4227512823054,1556
-845.7177108103272,1539
-843.0134136373656,1628
-840.3098595928943,1583
-837.6070485063082,1642
-834.9049802069229,1577
-832.2036545239757,1637
-829.5030712866244,1578
-826.8032303239481,1571
-824.1041314649472,1599
-821.4057745385428,1527
-818.7081593735775,1527
-816.0112857988148,1499
-813.3151536429393,1559
-810.6197627345566,1652
-807.9251129021936,1531
-805.2312039742981,1550
-802.5380357792392,1585
-799.8456081453069,1617
-797.1539209007124,1546
-794.462973873588,1552
-791.772766891987,1530
-789.083299783884,1545
-786.3945723771743,1572
-783.7065844996748,1621
-781.0193359791231,1599
-778.3328266431781,1627
-775.6470563194197,1656
-772.9620248353489,1606
-770.2777320183878,1554
-767.5941776958798,1646
-764.9113616950891,1650
-762.2292838432011,1634
-759.5479439673222,1542
-756.8673418944801,1554
-754.1874774516235,1655
-751.5083504656222,1644
-748.8299607632671,1588
-746.15230817127,1618
-743.475392516264,1636
-740.7992136248035,1581
-738.1237713233636,1628
-735.4490654383407,1638
-732.7750957960521,1646
-730.1018622227365,1623
-727.4293645445534,1631
-724.7576025875837,1665
-722.0865761778291,1672
-719.4162851412126,1677
-716.7467293035781,1613
-714.0779084906909,1720
-711.409822528237,1746
-708.7424712418238,1612
-706.0758544569796,1660
-703.4099719991541,1691
-700.7448236937178,1735
-698.0804093659622,1716
-695.4167288411002,1743
-692.7537819442656,1658
-690.0915685005134,1671
-687.4300883348199,1667
-684.7693412720819,1736
-682.1093271371178,1704
-679.4500457546669,1725
-676.7914969493897,1689
-674.1336805458676,1615
-671.4765963686034,1756
-668.8202442420206,1688
-666.1646239904642,1721
-663.5097354382001,1746
-660.8555784094151,1699
-658.2021527282176,1740
-655.5494582186366,1730
-652.8974947046223,1799
-650.2462620100463,1791
-647.5957599587009,1801
-644.9459883742998,1777
-642.2969470804776,1806
-639.6486359007902,1824
-637.0010546587141,1859
-634.3542031776476,1763
-631.7080812809096,1724
-629.0626887917401,1669
-626.4180255333008,1757
-623.7740913286734,1729
-621.1308860008619,1814
-618.4884093727904,1783
-615.8466612673046,1779
-613.2056415071715,1737
-610.5653499150785,1771
-607.9257863136347,1866
-605.28695052537,1744
-602.6488423727357,1849
-600.0114616781036,1675
-597.3748082637674,1741
-594.7388819519412,1813
-592.1036825647604,1833
-589.4692099242818,1746
-586.8354638524829,1791
-584.2024441712624,1779
-581.5701507024403,1827
-578.9385832677575,1858
-576.3077416888759,1734
-573.6776257873787,1735
-571.0482353847704,1793
-568.4195703024757,1845
-565.7916303618415,1891
-563.164415384135,1884
-560.5379251905453,1800
-557.9121596021815,1847
-555.2871184400748,1906
-552.6628015251767,1762
-550.0392086783606,1838
-547.4163397204204,1823
-544.794194472071,1803
-542.1727727539491,1834
-539.5520743866118,1813
-536.9320991905377,1946
-534.3128469861261,1927
-531.6943175936979,1975
-529.0765108334947,1898
-526.4594265256793,1980
-523.8430644903358,2187
-521.2274245474689,2272
-518.612506517005,2359
-515.9983102187913,2385
-513.3848354725959,2509
-510.77208209810846,2617
-508.16004991493924,2651
-505.5487387426199,2765
-502.9381484006032,2889
-500.3282787082628,2964
-497.71912948489364,2952
-495.1107005497117,3117
-492.5029917218539,2922
-489.8960028203786,2819
-487.28973366426493,2480
-484.68418407241325,2320
-482.07935386364494,2218
-479.47524285670266,2197
-476.87185087025,2214
-474.2691777228715,2219
-471.66722323307334,2225
-469.0659872192821,2225
-466.4654694998459,2062
-463.86566989303384,2113
-461.26658821703614,2068
-458.66822428996414,2167
-456.07057792985,2092
-453.4736489546475,2106
-450.877437182231,2190
-448.28194243039627,2086
-445.68716451686,2078
-443.09310325926003,2092
-440.49975847515555,2079
-437.9071299820263,1993
-435.31521759727354,2029
-432.72402113821954,2068
-430.13354042210767,2108
-427.5437752661022,2216
-424.95472548728867,2113
-422.36639090267386,2177
-419.7787713291855,2116
-417.1918665836721,2116
-414.60567648290385,2137
-412.0202008435715,2100
-409.4354394822874,2130
-406.8513922155845,2095
-404.26805885991723,2132
-401.685439231661,2196
-399.103533147112,2231
-396.522340422488,2086
-393.9418608739278,2097
-391.3620943174908,2122
-388.7830405691583,2066
-386.2046994448317,2033
-383.6270707603344,1849
-381.05015433141045,1725
-378.473949973725,1605
-375.8984575028645,1468
-373.32367673433623,1298
-370.74960748356875,1188
-368.1762495659117,1154
-365.60360279663576,1033
-363.03166699093265,921
-360.4604419639154,838
-357.8899275306178,718
-355.32012350599507,663
-352.7510297049233,633
-350.1826459421999,644
-347.61497203254316,656
-345.04800779059235,621
-342.4817530309082,570
-339.91620756797226,537
-337.35137121618743,593
-334.7872437898774,594
-332.22382510328725,680
-329.66111497058273,720
-327.09911320585127,662
-324.53781962310075,676
-321.9772340362607,698
-319.4173562591816,695
-316.8581861056348,709
-314.2997233893127,725
-311.7419679238294,721
-309.1849195227194,749
-306.62857799943856,652
-304.0729431673641,557
-301.51801483979375,599
-298.963792829947,640
-296.41027695096386,636
-293.85746701590574,755
-291.3053628377552,782
-288.7539642294155,719
-286.2032710037115,770
-283.65328297338897,731
-281.1039999511146,727
-278.5554217494762,793
-276.007548180983,725
-273.4603790580651,745
-270.9139141930734,768
-268.3681533982807,752
-265.8230964858798,748
-263.27874326798565,736
-260.7350935566336,837
-258.1921471637804,823
-255.6499039013039,831
-253.10836358100266,814
-250.56752601459698,742
-248.02739101372765,752
-245.48795838995704,767
-242.94922795476816,768
-240.41119951956557,837
-237.8738728956746,1034
-235.33724789434166,1077
-232.80132432673452,1047
-230.2661020039418,1174
-227.73158073697357,921
-225.19776033676033,845
-222.66464061415422,904
-220.1322213799284,937
-217.60050244477725,843
-215.06948361931552,889
-212.53916471408013,982
-210.00954553952818,908
-207.48062590603843,926
-204.9524056239104,938
-202.4248845033651,1084
-199.8980623545441,1026
-197.37193898751036,900
-194.84651421224817,906
-192.32178783866232,1038
-189.79775967657952,935
-187.27442953574644,959
-184.7517972258321,997
-182.2298625564256,1050
-179.7086253370378,1013
-177.18808537710026,1128
-174.66824248596583,1058
-172.14909647290835,1168
-169.6306471471229,1096
-167.11289431772548,1089
-164.59583779375328,1108
-162.07947738416453,1130
-159.5638128978386,1167
-157.04884414357605,1301
-154.53457093009854,1263
-152.02099306604828,1097
-149.50811035998936,1129
-146.99592262040665,1247
-144.48442965570587,1256
-141.97363127421409,1305
-139.46352728417958,1395
-136.95411749377126,1500
-134.44540171107985,1570
-131.93737974411636,1501
-129.43005140081357,1468
-126.92341648902493,1388
-124.41747481652521,1496
-121.91222619101006,1592
-119.40767042009657,1440
-116.90380731132257,1370
-114.40063667214702,1565
-111.8981583099503,1696
-109.3963720320337,1710
-106.89527764561933,1638
-104.39487495785067,1761
-101.89516377579241,1924
-99.39614390642998,1966
-96.89781515667039,2047
-94.40017733334128,2179
-91.90323024319173,2104
-89.40697369289148,2152
-86.91140748903172,2043
-84.41653143812482,1962
-81.92234534660395,2022
-79.42884902082358,2069
-76.93604226705907,2174
-74.4439248915071,2272
-71.95249670028534,2214
-69.46175749943245,2388
-66.97170709490854,2772
-64.48234529259423,3632
-61.99367189829195,3384
-59.50568671772464,3056
-57.01838955653636,3500
-54.53178022029283,3739
-52.045858514480074,3900
-49.560624244506016,3988
-47.07607721569923,3956
-44.59221723330904,3627
-42.10904410250669,4189
-39.62655762838392,5097
-37.14475761595372,6426
-34.66364387015028,7507
-32.18321619582866,8048
-29.70347439776515,8350
-27.224418280657005,10398
-24.74604764912317,13901
-22.26836230770266,18129
-19.7913620608565,27849
-17.315046712966478,41769
-14.83941606833514,45897
-12.36446993118659,65039
-9.89020810566592,65039
-7.416630395839093,65039
-4.94373660569363,65039
-2.471526539137585,65039
-6.821210263296962E-13,65039
2.47084320796705,65039
4.941003281093458,65039
7.410480415786196,65039
9.879274808531363,65039
12.347386655893956,65039
14.814816154518212,65039
17.28156350112681,65039
19.74762889252179,65039
22.21301252558385,65039
24.67771459727237,65039
27.141735304626195,65039
29.605074844762612,46029
32.06773341487792,14280
34.52971121224755,9221
36.99100843422559,10712
39.45162527824516,13476
41.91156194181792,13634
44.370818622535126,17066
46.82939551806646,20217
49.287292826160524,17408
51.74451074464503,13774
54.201049471426245,8925
56.65690920448981,6609
59.112090141899785,6270
61.56659248179983,5839
64.02041642241159,4475
66.4735621620365,3498
68.92602989905402,3171
71.37781983192338,3339
73.82893215918205,3604
76.27936707944684,2894
78.72912479141326,2859
81.17820549385567,3549
83.62660938562783,3370
86.07433666566146,2662
88.5213875329681,2211
90.96776218663751,2676
93.41346082583925,2677
95.85848364982041,2581
98.30283085790859,2493
100.7465026495089,2377
103.18949922410604,2434
105.63182078126385,2696
108.07346752062438,2583
110.51443964190923,2346
112.95473734491827,1869
115.39436082953114,1697
117.83331029570547,1894
120.27158594347827,1845
122.7091879729652,1847
125.1461165843615,1837
127.58237197794062,1556
130.01795435405518,1477
132.4528639131364,1563
134.88710085569494,1615
137.32066538231982,1684
139.75355769367923,1666
142.1857779905207,1683
144.61732647366978,1408
147.04820334403132,1379
149.47840880258934,1348
151.90794305040674,1587
154.33680628862487,1821
156.76499871846443,2010
159.19252054122433,2117
161.61937195828352,2329
164.04555317109896,2423
166.47106438120693,2734
168.89590579022217,3182
171.320077599839,3328
173.7435800118302,3387
176.16641322804742,3481
178.58857745042144,3457
181.01007288096173,3788
183.43089972175687,3841
185.85105817497413,4010
188.27054844285988,3896
190.6893707277394,4019
193.10752523201643,4069
195.5250121581745,4103
197.9418317087751,4184
200.3579840864594,4242
202.7734694939469,4327
205.18828813403627,4294
207.6024402096051,4257
210.01592592360964,4327
212.42874547908548,4378
214.84089907914665,4390
217.2523869269868,4283
219.66320922587727,4320
222.0733661791695,4320
224.48285799029293,4363
226.8916848627572,4421
229.29984700014882,4438
231.7073446061355,4453
234.11417788446204,4465
236.520347038953,4762
238.92585227351185,4746
241.33069379212054,4863
243.73487179884035,4831
246.1383864978112,4584
248.541238093252,4523
250.9434267894609,4570
253.34495279081432,4623
255.74581630176783,4561
258.1460175268563,4833
260.54555667069314,4707
262.9444339379703,4666
265.3426495334594,4595
267.7402036620107,4517
270.1370965285529,4475
272.53332833809407,4381
274.9288992957214,4401
277.32380960660055,4408
279.718059475976,4209
282.1116491091717,4163
284.5045787115897,4316
286.89684848871195,4325
289.2884586460981,4348
291.67940938938807,4104
294.0697009242996,4116
296.4593334566299,4113
298.84830719225477,4118
301.23662233712923,4118
303.6242790972866,4143
306.01127767884,4134
308.39761828798066,4056
310.78330113097934,4032
313.16832641418534,4139
315.5526943440269,4139
317.9364051270112,4086
320.3194589697242,3932
322.70185607883093,3936
325.0835966610754,4080
327.4646809232805,3921
329.8451090723478,3921
332.2248813152577,3966
334.6039978590701,3926
336.9824589109231,3818
339.36026467803447,3845
341.7374153677,3891
344.113911187295,3901
346.48975234427337,3771
348.8649390461686,3859
351.2394715005918,3837
353.61334991523415,3767
355.9865744978655,3732
358.35914545633375,3800
360.73106299856715,3737
363.10232733257146,3721
365.47293866643247,3749
367.84289720831396,3662
370.2122031664593,3680
372.5808567491905,3698
374.9488581649083,3742
377.31620762209275,3696
379.6829053293021,3768
382.0489514951745,3797
384.4143463284262,3696
386.7790900378528,3612
389.14318283232853,3665
391.50662492080653,3709
393.86941651231916,3636
396.23155781597745,3545
398.5930490409713,3573
400.9538903965696,3665
403.3140820921202,3562
405.6736243370498,3512
408.03251734086336,3567
410.3907613131465,3544
412.74835646356166,3567
415.10530300185144,3614
417.4616011378372,3618
419.81725108141893,3677
422.1722530425758,3614
424.5266072313656,3528
426.880313857925,3593
429.2333731324701,3527
431.58578526529516,3495
433.9375504667738,3661
436.2886689473588,3615
438.63914091758113,3603
440.9889665880513,3632
443.33814616945835,3496
445.68667987257015,3629
448.03456790823395,3428
450.3818104873759,3510
452.72840782100013,3524
455.07436012019105,3580
457.41966759611057,3645
459.7643304600007,3600
462.10834892318155,3584
464.4517231970525,3553
466.79445349309174,3614
469.1365400228566,3489
471.4779829979826,3518
473.81878263018564,3438
476.15893913125876,3567
478.4984527130747,3637
480.8373235875855,3638
483.17555196682144,3697
485.5131380628919,3618
487.8500820879857,3850
490.1863842543697,3980
492.52204477439034,4136
494.8570638604725,4360
497.1914417251204,4592
499.52517858091653,4708
501.85827464052306,4860
504.19073011668036,4801
506.5225452222086,4766
508.85372017000566,4873
511.18425517304956,4674
513.514150444396,4942
515.8434061971808,5445
518.1720226446176,5861
520.4999999999999,6345
522.8273384766991,6582
525.1540382881666,6735
527.480099647932,6711
529.8055227696037,5922
532.1303078668694,4730
534.454455153496,4033
536.777964843328,3757
539.1008371502907,3520
541.4230722883866,3477
543.744670471698,3604
546.0656319143858,3467
548.3859568306899,3576
550.7056454349294,3560
553.0246979415016,3427
555.3431145648834,3364
557.6608955196306,3256
559.978041020377,3373
562.2945512818363,3374
564.6104265188006,3379
566.9256669461412,3495
569.2402727788082,3385
571.5542442318302,3312
573.8675815203156,3367
576.1802848594508,3365
578.4923544645015,3301
580.8037905508126,3332
583.114593333807,3395
585.4247630289875,3383
587.7342998519354,3416
590.0432040183106,3345
592.3514757438526,3427
594.6591152443794,3342
596.9661227357875,3360
599.2724984340531,3361
601.578242555231,3333
603.8833553154542,3550
606.1878369309362,3494
608.4916876179676,3492
610.7949075929192,3614
613.0974970722403,3510
615.3994562724587,3443
617.7007854101818,3386
620.0014847020951,3402
622.3015543649641,3461
624.6009946156324,3501
626.8998056710224,3387
629.1979877481361,3395
631.4955410640538,3462
633.7924658359349,3458
636.0887622810175,3348
638.3844306166192,3539
640.6794710601358,3497
642.9738838290426,3426
645.2676691408932,3554
647.5608272133207,3460
649.853358264037,3512
652.1452625108324,3513
654.4365401715764,3489
656.7271914642178,3557
659.0172166067838,3519
661.3066158173809,3549
663.5953893141935,3428
665.8835373154867,3516
668.1710600396028,3493
670.4579577049639,3654
672.7442305300709,3620
675.0298787335033,3585
677.3149025339197,3450
679.599302150058,3617
681.8830778007342,3578
684.1662297048437,3590
686.4487580813608,3555
688.7306631493387,3541
691.0119451279091,3504
693.2926042362834,3453
695.5726406937516,3550
697.8520547196814,3584
700.1308465335215,3573
702.4090163547982,3565
704.6865644031171,3454
706.9634908981619,3612
709.2397960596965,3599
711.5154801075631,3527
713.7905432616823,3454
716.0649857420548,3542
718.3388077687592,3547
720.612009561953,3492
722.8845913418733,3463
725.1565533288352,3546
727.427895743234,3616
729.6986188055427,3596
731.9687227363137,3563
734.238207756178,3568
736.5070740858458,3460
738.7753219461066,3497
741.0429515578281,3515
743.3099631419569,3539
745.5763569195191,3506
747.8421331116193,3557
750.1072919394409,3456
752.3718336242467,3511
754.6357583873777,3508
756.8990664502545,3665
759.1617580343765,3533
761.423833361321,3515
763.6852926527457,3443
765.9461361303862,3442
768.206364016058,3601
770.4659765316536,3554
772.7249738991469,3539
774.9833563405886,3570
777.2411240781092,3559
779.4982773339183,3556
781.7548163303044,3602
784.010741289634,3538
786.2660524343538,3643
788.5207499869881,3581
790.7748341701416,3507
793.0283052064964,3557
795.2811633188143,3492
797.5334087299362,3541
799.7850416627813,3557
802.0360623403484,3670
804.2864709857143,3521
806.5362678220353,3566
808.7854530725468,3588
811.0340269605625,3631
813.2819897094754,3633
815.5293415427581,3580
817.77608268396,3633
820.0222133567116,3608
822.2677337847211,3732
824.5126441917765,3533
826.7569448017433,3557
829.0006358385675,3648
831.2437175262731,3625
833.4861900889629,3558
835.7280537508192,3562
837.9693087361026,3615
840.2099552691533,3595
842.4499935743896,3646
844.689423876309,3504
846.9282463994886,3558
849.1664613685833,3547
851.4040690083276,3600
853.6410695435349,3549
855.877463199097,3654
858.1132501999847,3571
860.3484307712487,3563
862.5830051380175,3562
864.8169735254988,3673
867.0503361589791,3609
869.2830932638243,3511
871.5152450654786,3698
873.7467917894654,3711
875.9777336613873,3611
878.2080709069252,3527
880.4378037518389,3659
882.666932421968,3593
884.8954571432301,3743
887.1233781416219,3646
889.3506956432192,3632
891.5774098741766,3660
893.803521060728,3759
896.0290294291852,3774
898.2539352059397,3623
900.4782386174619,3693
902.7019398903011,3687
904.925039251085,3677
907.147536926521,3608
909.3694331433943,3743
911.59072812857,3693
913.8114221089921,3661
916.0315153116827,3645
918.2510079637437,3581
920.4699002923547,3645
922.6881925247761,3624
924.905884888345,3649
927.1229776104793,3647
929.3394709186747,3593
931.555365040506,3585
933.7706602036275,3600
935.9853566357709,3579
938.1994545647489,3621
940.4129542184515,3691
942.6258558248488,3678
944.8381596119883,3642
947.0498658079974,3601
949.2609746410825,3702
951.4714863395287,3545
953.6814011316998,3613
955.8907192460387,3629
958.0994409110671,3640
960.3075663553858,3688
962.5150958076741,3580
964.7220294966913,3514
966.928367651274,3561
969.1341105003388,3555
971.3392582728806,3626
973.5438111979742,3598
975.747769504772,3444
977.9511334225061,3461
980.153903180487,3513
982.3560790081052,3439
984.5576611348289,3458
986.7586497902058,3564
988.9590452038618,3552
991.158847605503,3482
993.3580572249133,3473
995.5566742919558,3482
997.7546990365728,3504
999.952131688785,3377
1002.1489724786926,3442
1004.3452216364743,3371
1006.5408793923874,3275
1008.7359459767691,3400
1010.9304216200343,3253
1013.1243065526781,3380
1015.3176010052733,3363
1017.510305208472,3267
1019.7024193930064,3298
1021.8939437896848,3270
1024.0848786293977,3379
1026.2752241431122,3292
1028.4649805618747,3295
1030.6541481168115,3238
1032.842727039127,3257
1035.0307175601051,3337
1037.2181199111074,3303
1039.4049343235752,3261
1041.591161029029,3213
1043.7768002590683,3372
1045.9618522453698,3343
1048.1463172196918,3342
1050.3301954138697,3273
1052.513487059818,3314
1054.69619238953,3357
1056.8783116350783,3261
1059.0598450286152,3257
1061.2407928023704,3326
1063.4211551886528,3314
1065.6009324198508,3222
1067.780124728432,3337
1069.9587323469414,3282
1072.1367555080046,3295
1074.314194444325,3372
1076.4910493886855,3253
1078.667320573947,3253
1080.843008233051,3224
1083.0181125990161,3327
1085.1926339049414,3242
1087.3665723840027,3186
1089.5399282694575,3157
1091.7127017946405,3161
1093.8848931929647,3293
1096.0565026979243,3225
1098.2275305430899,3266
1100.3979769621128,3108
1102.567842188722,3283
1104.737126456726,3168
1106.9058300000124,3173
1109.0739530525475,3265
1111.2414958483764,3200
1113.4084586216231,3160
1115.5748416064907,3239
1117.7406450372605,3259
1119.9058691482942,3205
1122.0705141740304,3197
1124.2345803489884,3221
1126.3980679077658,3279
1128.5609770850388,3269
1130.7233081155623,3159
1132.8850612341707,3156
1135.0462366757774,3200
1137.2068346753745,3206
1139.3668554680326,3233
1141.526299288901,3246
1143.68516637321,3253
1145.8434569562655,3225
1148.001171273455,3190
1150.158309560244,3184
1152.3148720521767,3102
1154.470858984876,3220
1156.626270594044,3129
1158.7811071154629,3172
1160.9353687849912,3303
1163.089055838569,3233
1165.242168512213,3233
1167.3947070420209,3174
1169.5466716641677,3176
1171.6980626149075,3285
1173.8488801305748,3209
1175.9991244475814,3076
1178.1487958024186,3123
1180.2978944316555,3217
1182.4464205719428,3215
1184.5943744600072,3080
1186.7417563326567,3159
1188.8885664267755,3214
1191.0348049793297,3124
1193.1804722273619,3225
1195.325568407995,3173
1197.4700937584303,3178
1199.614048515948,3251
1201.7574329179074,3152
1203.900247201746,3222
1206.042491604982,3130
1208.1841663652099,3195
1210.3252717201053,3114
1212.465807907422,3161
1214.6057751649923,3243
1216.7451737307279,3173
1218.8840038426192,3219
1221.0222657387353,3117
1223.1599596572241,3262
1225.2970858363137,3311
1227.4336445143094,3167
1229.5696359295966,3175
1231.705060320639,3250
1233.8399179259786,3262
1235.9742089842384,3160
1238.107933734118,3235
1240.2410924143974,3239
1242.373685263935,3238
1244.5057125216676,3149
1246.6371744266116,3217
1248.7680712178621,3212
1250.898403134593,3162
1253.028170416058,3228
1255.1573733015875,3224
1257.2860120305932,3169
1259.4140868425648,3262
1261.54159797707,3170
1263.6685456737569,3153
1265.7949301723515,3283
1267.9207517126597,3254
1270.046010534565,3268
1272.1707068780306,3193
1274.2948409830983,3287
1276.4184130898889,3258
1278.541423438603,3324
1280.6638722695184,3299
1282.785759822993,3343
1284.9070863394636,3290
1287.0278520594447,3312
1289.1480572235314,3374
1291.2677020723963,3377
1293.3867868467923,3340
1295.5053117875495,3410
1297.623277135579,3374
1299.740683131868,3396
1301.8575300174857,3392
1303.973818033578,3434
1306.0895474213703,3396
1308.2047184221678,3404
1310.3193312773528,3444
1312.4333862283888,3395
1314.5468835168163,3346
1316.659823384255,3338
1318.7722060724045,3408
1320.8840318230418,3462
1322.9953008780249,3462
1325.1060134792888,3447
1327.2161698688478,3367
1329.3257702887959,3569
1331.4348149813054,3365
1333.5433041886276,3442
1335.6512381530933,3451
1337.7586171171101,3462
1339.8654413231675,3329
1341.9717110138317,3386
1344.0774264317488,3405
1346.1825878196432,3339
1348.2871954203192,3382
1350.3912494766587,3342
1352.4947502316231,3359
1354.5976979282532,3386
1356.7000928096686,3337
1358.8019351190665,3307
1360.9032250997243,3398
1363.0039629949988,3323
1365.1041490483235,3309
1367.2037835032133,3388
1369.3028666032606,3364
1371.401398592137,3431
1373.4993797135926,3336
1375.5968102114575,3317
1377.6936903296396,3332
1379.7900203121262,3383
1381.8858004029835,3401
1383.9810308463561,3452
1386.075711886469,3395
1388.1698437676241,3400
1390.2634267342032,3448
1392.356461030667,3373
1394.4489469015557,3450
1396.5408845914872,3384
1398.6322743451592,3299
1400.7231164073469,3466
1402.813411022907,3483
1404.903158436773,3362
1406.9923588939578,3380
1409.0810126395531,3421
1411.1691199187303,3374
1413.2566809767386,3497
1415.343696058907,3393
1417.4301654106425,3354
1419.5160892774315,3392
1421.6014679048399,3387
1423.6863015385125,3435
1425.7705904241707,3456
1427.8543348076178,3321
1429.9375349347342,3441
1432.0201910514802,3426
1434.102303403894,3418
1436.1838722380944,3432
1438.2648978002767,3413
1440.3453803367174,3519
1442.4253200937692,3591
1444.5047173178677,3502
1446.5835722555234,3555
1448.6618851533285,3614
1450.739656257952,3652
1452.8168858161434,3584
1454.8935740747306,3631
1456.96972128062,3587
1459.045327680797,3684
1461.120393522327,3661
1463.1949190523528,3695
1465.2689045180973,3807
1467.3423501668608,3754
1469.415256246024,3783
1471.4876230030463,3822
1473.559450685465,3842
1475.6307395408976,3797
1477.7014898170391,3931
1479.771701761665,3935
1481.8413756226287,3951
1483.9105116478618,3962
1485.9791100853772,3964
1488.0471711832643,4096
1490.1146951896926,4068
1492.1816823529098,4155
1494.2481329212433,4132
1496.3140471430984,4156
1498.3794252669609,4183
1500.4442675413939,4217
1502.5085742150404,4201
1504.572345536622,4318
1506.6355817549388,4264
1508.6982831188702,4225
1510.7604498773744,4350
1512.8220822794883,4400
1514.8831805743293,4346
1516.9437450110909,4456
1519.003775839048,4423
1521.0632733075522,4532
1523.1222376660367,4542
1525.1806691640113,4657
1527.2385680510652,4578
1529.2959345768668,4792
1531.3527689911643,4699
1533.4090715437833,4710
1535.4648424846291,4847
1537.5200820636855,4854
1539.5747905310159,4934
1541.6289681367616,4852
1543.6826151311434,4886
1545.7357317644614,4977
1547.7883182870937,5021
1549.8403749494987,5012
1551.8919020022113,5150
1553.9428996958477,5118
1555.9933682811015,5302
1558.0433080087469,5225
1560.0927191296346,5405
1562.1416018946961,5388
1564.1899565549415,5422
1566.2377833614592,5499
1568.2850825654164,5409
1570.3318544180606,5358
1572.3780991707158,5267
1574.423817074788,5132
1576.4690083817595,5072
1578.5136733431923,4912
1580.5578122107272,4819
1582.601425236085,4533
1584.6445126710646,4467
1586.6870747675434,4379
1588.7291117774776,4173
1590.7706239529034,4120
1592.8116115459347,4030
1594.8520748087658,4055
1596.8920139936686,3864
1598.9314293529933,3874
1600.9703211391711,3791
1603.008689604711,3738
1605.0465350022005,3830
1607.0838575843068,3719
1609.1206576037753,3698
1611.1569353134305,3654
1613.1926909661765,3582
1615.2279248149953,3558
1617.2626371129481,3438
1619.2968281131757,3559
1621.3304980688963,3586
1623.3636472334088,3445
1625.39627586009,3516
1627.428384202396,3461
1629.459972513861,3509
1631.4910410480993,3500
1633.5215900588028,3457
1635.551619799744,3480
1637.5811305247717,3594
1639.6101224878166,3425
1641.6385959428862,3408
1643.6665511440683,3369
1645.693988345528,3263
1647.7209078015112,3399
1649.7473097663405,3453
1651.7731944944203,3382
1653.7985622402307,3304
1655.823413258333,3435
1657.847747803366,3414
1659.8715661300494,3456
1661.8948684931793,3329
1663.9176551476316,3365
1665.9399263483624,3411
1667.9616823504057,3323
1669.982923408873,3285
1672.0036497789574,3255
1674.0238617159293,3250
1676.043559475138,3386
1678.0627433120121,3286
1680.081413482059,3262
1682.0995702408654,3288
1684.117213844096,3324
1686.134344547495,3316
1688.1509626068864,3305
1690.1670682781705,3352
1692.182661817329,3313
1694.1977434804217,3337
1696.2123135235875,3325
1698.226372203043,3301
1700.2399197750851,3358
1702.2529564960905,3270
1704.2654826225112,3265
1706.277498410882,3269
1708.2890041178139,3337
1710.2999999999988,3420
1712.3104863142066,3212
1714.3204633172854,3283
1716.329931266163,3378
1718.3388904178469,3338
1720.3473410294214,3365
1722.3552833580516,3299
1724.3627176609807,3346
1726.3696441955308,3334
1728.3760632191033,3311
1730.3819749891782,3370
1732.3873797633146,3254
1734.3922777991502,3304
1736.3966693544012,3326
1738.4005546868639,3210
1740.4039340544127,3326
1742.406807715001,3316
1744.4091759266616,3211
1746.4110389475054,3333
1748.4123970357223,3240
1750.413250449582,3242
1752.4135994474318,3238
1754.4134442876993,3346
1756.4127852288902,3230
1758.4116225295893,3203
1760.4099564484595,3239
1762.407787244244,3258
1764.405115175764,3255
1766.4019405019203,3227
1768.3982634816916,3267
1770.3940843741357,3253
1772.3894034383907,3260
1774.3842209336717,3284
1776.378537119274,3189
1778.372352254571,3163
1780.3656665990156,3169
1782.3584804121397,3178
1784.3507939535534,3179
1786.3426074829463,3318
1788.3339212600863,3178
1790.3247355448211,3224
1792.3150505970766,3267
1794.3048666768573,3259
1796.2941840442477,3268
1798.2830029594106,3222
1800.2713236825884,3112
1802.2591464741004,3195
1804.2464715943465,3228
1806.2332993038058,3241
1808.2196298630352,3174
1810.2054635326708,3177
1812.190800573428,3284
1814.175641246101,3251
1816.1599858115628,3289
1818.1438345307652,3258
1820.127187664738,3217
1822.1100454745924,3157
1824.092408221516,3167
1826.0742761667766,3353
1828.055649571721,3214
1830.0365286977735,3262
1832.0169138064398,3224
1833.9968051593014,3251
1835.9762030180214,3301
1837.9551076443408,3285
1839.9335193000788,3180
1841.9114382471344,3235
1843.888864747485,3261
1845.8657990631878,3217
1847.842241456378,3236
1849.8181921892697,3171
1851.7936515241558,3108
1853.7686197234098,3184
1855.7430970494815,3115
1857.7170837649014,3075
1859.6905801322787,3190
1861.6635864143004,3192
1863.6361028737338,3159
1865.608129773424,3244
1867.5796673762961,3183
1869.5507159453537,3225
1871.521275743678,3339
1873.4913470344313,3167
1875.4609300808534,3244
1877.4300251462632,3204
1879.3986324940588,3201
1881.366752387717,3290
1883.3343850907936,3243
1885.3015308669228,3253
1887.268189979819,3228
1889.2343626932739,3308
1891.2000492711595,3258
1893.1652499774254,3262
1895.1299650761011,3290
1897.0941948312952,3241
1899.0579395071945,3268
1901.0211993680641,3335
1902.98397467825,3269
1904.9462657021745,3237
1906.9080727043415,3294
1908.869395949332,3298
1910.8302357018065,3367
1912.790592226504,3224
1914.7504657882428,3199
1916.7098566519212,3324
1918.6687650825133,3302
1920.6271913450764,3254
1922.5851357047422,3261
1924.5425984267245,3291
1926.499579776314,3277
1928.4560800188833,3261
1930.4120994198802,3286
1932.367638244833,3240
1934.32269675935,3314
1936.2772752291175,3220
1938.231373919899,3292
1940.1849930975404,3305
1942.1381330279637,3229
1944.0907939771696,3266
1946.0429762112412,3210
1947.9946799963363,3269
1949.9459055986945,3194
1951.896653284633,3312
1953.8469233205478,3240
1955.7967159729142,3249
1957.7460315082863,3134
1959.6948701932974,3342
1961.6432322946594,3251
1963.5911180791632,3190
1965.5385278136787,3222
1967.4854617651545,3134
1969.4319202006182,3240
1971.377903387176,3300
1973.3234115920136,3305
1975.268445082395,3348
1977.2130041256642,3333
1979.1570889892423,3253
1981.1006999406304,3237
1983.04383724741,3210
1984.986501177238,3313
1986.928691997853,3239
1988.8704099770712,3275
1990.811655382789,3353
1992.7524284829801,3301
1994.692729545698,3245
1996.6325588390755,3325
1998.5719166313224,3205
2000.5108031907307,3361
2002.4492187856677,3312
2004.387163684583,3200
2006.3246381560011,3160
2008.2616424685298,3230
2010.1981768908527,3272
2012.1342416917332,3271
2014.069837140014,3341
2016.0049635046162,3227
2017.9396210545406,3219
2019.8738100588666,3246
2021.8075307867502,3204
2023.740783507431,3202
2025.6735684902228,3271
2027.6058860045214,3268
2029.5377363198004,3297
2031.4691197056118,3221
2033.4000364315875,3176
2035.3304867674374,3209
2037.260470982952,3173
2039.189989347998,3348
2041.1190421325232,3315
2043.047629606554,3331
2044.9757520401945,3182
2046.9034097036288,3229
2048.8306028671195,3203
2050.7573318010086,3240
2052.683596775716,3220
2054.609398061742,3218
2056.5347359296647,3165
2058.4596106501403,3298
2060.384022493906,3219
2062.3079717317764,3292
2064.231458634646,3191
2066.1544834734873,3272
2068.077046519352,3214
2069.99914804337,3318
2071.9207883167524,3275
2073.8419676107865,3117
2075.7626861968406,3263
2077.6829443463607,3220
2079.6027423308715,3278
2081.522080421977,3253
2083.440958891362,3280
2085.359378010786,3271
2087.2773380520907,3232
2089.194839287196,3235
2091.111881988101,3278
2093.0284664268825,3273
2094.9445928756973,3288
2096.86026160678,3301
2098.775472892446,3260
2100.690227005088,3190
2102.604524217178,3226
2104.5183648012676,3243
2106.431749029985,3255
2108.34467717604,3251
2110.2571495122206,3201
2112.169166311393,3142
2114.080727846503,3159
2115.9918343905747,3277
2117.902486216711,3146
2119.8126835980956,3251
2121.722426807987,3197
2123.6317161197285,3290
2125.5405518067364,3264
2127.448934142509,3201
2129.356863400624,3203
2131.264339854737,3225
2133.1713637785815,3261
2135.077935445972,3216
2136.9840551308002,3189
2138.889723107037,3284
2140.7949396487334,3244
2142.699705030018,3197
2144.6040195250994,3183
2146.507883408264,3182
2148.4112969538774,3286
2150.3142604363848,3218
2152.2167741303097,3262
2154.1188383102535,3198
2156.0204532508997,3280
2157.9216192270064,3272
2159.822336513414,3368
2161.7226053850413,3340
2163.622426116884,3281
2165.5217989840185,3315
2167.4207242616,3340
2169.319202224862,3202
2171.2172331491165,3278
2173.1148173097563,3225
2175.0119549822507,3308
2176.90864644215,3220
2178.8048919650823,3249
2180.7006918267534,3279
2182.596046302952,3344
2184.4909556695407,3205
2186.3854202024645,3235
2188.279440177746,3200
2190.173015871487,3245
2192.066147559868,3280
2193.958835519149,3297
2195.851080025667,3219
2197.7428813558417,3250
2199.6342397861667,3285
2201.5251555932186,3194
2203.415629053651,3294
2205.3056604441986,3229
2207.19525004167,3187
2209.084398122958,3354
2210.9731049650327,3314
2212.861370844941,3252
2214.749196039812,3341
2216.636580826851,3253
2218.523525483344,3308
2220.410030286655,3313
2222.296095514226,3300
2224.1817214435805,3331
2226.066908352319,3279
2227.951656518121,3202
2229.835966218746,3223
2231.71983773203,3272
2233.6032713358913,3336
2235.486267308324,3273
2237.3688259274036,3349
2239.2509474712824,3195
2241.132632218193,3255
2243.013880446447,3329
2244.8946924344323,3212
2246.7750684606203,3277
2248.6550088035574,3220
2250.534513741871,3284
2252.413583554265,3276
2254.292218519526,3341
2256.170418916517,3256
2258.0481850241786,3282
2259.925517121534,3235
2261.8024154876825,3272
2263.678880401803,3313
2265.5549121431536,3242
2267.430510991071,3301
2269.305677224971,3294
2271.180411124348,3304
2273.0547129687766,3329
2274.9285830379076,3300
2276.8020216114737,3278
2278.6750289692845,3296
2280.5476053912294,3212
2282.4197511572766,3305
2284.2914665474727,3377
2286.162751841943,3273
2288.0336073208937,3202
2289.904033264608,3315
2291.774029953448,3331
2293.6435976678554,3174
2295.5127366883517,3252
2297.381447295534,3311
2299.2497297700825,3302
2301.1175843927526,3363
2302.9850114443825,3283
2304.852011205885,3320
2306.7185839582553,3314
2308.5847299825664,3344
2310.4504495599676,3299
2312.3157429716925,3300
2314.1806104990483,3364
2316.0450524234247,3288
2317.9090690262888,3256
2319.772660589186,3320
2321.635827393742,3313
2323.498569721661,3349
2325.3608878547248,3337
2327.2227820747967,3245
2329.0842526638157,3358
2330.945299903803,3281
2332.805924076857,3371
2334.6661254651535,3342
2336.525904350951,3325
2338.3852610165827,3312
2340.244195744464,3353
2342.102708817088,3390
2343.9608005170253,3425
2345.8184711269287,3253
2347.675720929526,3314
2349.532550207628,3316
2351.38895924412,3311
2353.24494832197,3359
2355.100517724223,3361
2356.955667734004,3372
2358.810398634514,3348
2360.664710709037,3361
2362.5186042409337,3462
2364.3720795136437,3367
2366.225136810686,3384
2368.0777764156583,3380
2369.929998612237,3351
2371.7818036841777,3392
2373.633191915315,3361
2375.484163589562,3346
2377.3347189909114,3311
2379.184858403434,3405
2381.03458211128,3367
2382.8838903986775,3413
2384.732783549936,3415
2386.5812618494406,3281
2388.4293255816588,3325
2390.2769750311327,3299
2392.1242104824883,3457
2393.971032220427,3462
2395.8174405297295,3228
2397.6634356952563,3419
2399.509018001947,3504
2401.3541877348193,3401
2403.1989451789705,3314
2405.043290619576,3398
2406.8872243418905,3344
2408.730746631247,3389
2410.5738577730594,3396
2412.4165580528183,3339
2414.258847756095,3337
2416.100727168537,3401
2417.9421965758734,3380
2419.783256263912,3452
2421.623906518538,3469
2423.4641476257157,3384
2425.303979871491,3378
2427.143403541984,3365
2428.9824189233977,3462
2430.821026302012,3367
2432.6592259641866,3482
2434.497018196361,3515
2436.33440328505,3404
2438.171381516851,3358
2440.00795317844,3441
2441.844118556569,3375
2443.6798779380724,3324
2445.5152316098606,3373
2447.3501798589255,3378
2449.1847229723357,3347
2451.0188612372403,3360
2452.8525949408663,3331
2454.6859243705203,3427
2456.518849813587,3370
2458.3513715575314,3398
2460.183489889895,3367
2462.015205098301,3427
2463.8465174704493,3336
2465.67742729412,3340
2467.5079348571717,3338
2469.338040447542,3322
2471.1677443532476,3425
2472.9970468623833,3477
2474.825948263123,3343
2476.6544488437207,3477
2478.482548892508,3326
2480.310248697896,3337
2482.137548548374,3378
2483.9644487325118,3374
2485.790949538956,3476
2487.617051256433,3434
2489.44275417375,3399
2491.26805857979,3435
2493.0929647635157,3433
2494.917473013971,3363
2496.741583620276,3455
2498.5652968716304,3501
2500.3886130573137,3418
2502.2115324666834,3427
2504.0340553891765,3438
2505.856182114308,3534
2507.6779129316733,3428
2509.499248130945,3485
2511.3201880018764,3364
2513.140732834298,3424
2514.9608829181198,3473
2516.780638543331,3378
2518.6,3482
2520.418967578273,3407
2522.237541568376,3481
2524.0557222606144,3477
2525.8735099453706,3443
2527.6909049131086,3432
2529.507907454368,3394
2531.32451785977,3493
2533.140736420014,3447
2534.9565634258774,3378
2536.771999168218,3469
2538.5870439379714,3544
2540.4016980261526,3443
2542.2159617238544,3392
2544.02983532225,3554
2545.8433191125914,3571
2547.656413386209,3493
2549.4691184345115,3529
2551.2814345489874,3461
2553.093362021204,3573
2554.904901142808,3540
2556.716052205523,3559
2558.526815501153,3527
2560.3371913215824,3535
2562.147179958771,3499
2563.956781704761,3589
2565.7659968516705,3537
2567.5748256916986,3471
2569.3832685171224,3523
2571.1913256202984,3519
2572.9989972936614,3534
2574.806283829725,3550
2576.613185521084,3489
2578.4197026604074,3600
2580.2258355404483,3572
2582.031584454035,3628
2583.836949694077,3660
2585.6419315535613,3613
2587.4465303255533,3630
2589.2507463032002,3650
2591.0545797797245,3613
2592.8580310484303,3630
2594.6611004026995,3641
2596.463788135992,3558
2598.266094541849,3562
2600.0680199138874,3635
2601.869564545807,3602
2603.670728731383,3677
2605.4715127644704,3627
2607.2719169390048,3611
2609.071941548998,3666
2610.8715868885433,3684
2612.670853251811,3570
2614.469740933052,3714
2616.268250226594,3643
2618.0663814268455,3726
2619.864134828292,3691
2621.6615107255006,3683
2623.458509413115,3641
2625.2551311858597,3636
2627.0513763385347,3667
2628.8472451660223,3714
2630.6427379632833,3580
2632.4378550253564,3616
2634.232596647359,3646
2636.026963124488,3507
2637.8209547520187,3655
2639.6145718253065,3563
2641.407814639785,3554
2643.200683490966,3606
2644.9931786744414,3582
2646.7853004858807,3573
2648.577049221034,3555
2650.3684251757277,3630
2652.1594286458712,3537
2653.9500599274484,3513
2655.740319316525,3508
2657.5302071092437,3571
2659.3197236018286,3537
2661.10886909058,3546
2662.8976438718782,3520
2664.686048242183,3564
2666.4740824980327,3487
2668.2617469360443,3461
2670.0490418529134,3564
2671.8359675454153,3532
2673.622524310403,3676
2675.408712444811,3510
2677.1945322456495,3436
2678.979984010009,3484
2680.76506803506,3519
2682.5497846180497,3448
2684.334134056306,3477
2686.1181166472343,3461
2687.9017326883213,3479
2689.6849824771293,3465
2691.4678663113013,3480
2693.2503844885596,3501
2695.032537306705,3480
2696.8143250636167,3497
2698.5957480572542,3451
2700.3768065856534,3379
2702.1575009469316,3439
2703.937831439283,3489
2705.717798360982,3406
2707.4974020103837,3364
2709.276642685917,3371
2711.055520686095,3383
2712.834036309506,3428
2714.612189854819,3380
2716.389981620782,3431
2718.1674119062204,3398
2719.944481010041,3335
2721.721189231226,3405
2723.4975368688415,3313
2725.273524222027,3394
2727.0491515900053,3473
2728.824419272075,3360
2730.5993275676146,3429
2732.3738767760838,3388
2734.148067197016,3327
2735.921899130031,3436
2737.6953728748194,3399
2739.468488731156,3320
2741.2412469988926,3301
2743.0136479779617,3400
2744.785691968372,3348
2746.5573792702116,3294
2748.3287101836504,3340
2750.099685008934,3420
2751.870304046388,3346
2753.640567596418,3476
2755.4104759595057,3358
2757.1800294362156,3385
2758.949228327187,3424
2760.7180729331412,3340
2762.486563554877,3395
2764.254700493272,3367
2766.022484049284,3349
2767.789914523947,3331
2769.5569922183786,3391
2771.3237174337705,3328
2773.090090471394,3363
2774.8561116326036,3398
2776.6217812188274,3405
2778.3870995315756,3396
2780.1520668724356,3244
2781.9166835430747,3432
2783.6809498452394,3393
2785.444866080754,3447
2787.2084325515225,3360
2788.971649559527,3377
2790.73451740683,3310
2792.4970363955713,3298
2794.2592068279705,3347
2796.0210290063264,3487
2797.7825032330147,3440
2799.543629810493,3343
2801.304409041296,3344
2803.0648412280366,3414
2804.8249266734088,3387
2806.5846656801846,3403
2808.344058551212,3412
2810.1031055894246,3320
2811.8618070978273,3347
2813.6201633795085,3418
2815.378174737636,3408
2817.1358414754536,3400
2818.893163896285,3346
2820.6501423035334,3411
2822.4067770006814,3353
2824.1630682912883,3381
2825.9190164789957,3323
2827.6746218675207,3331
2829.429884760661,3303
2831.184805462294,3440
2832.9393842763743,3507
2834.693621506936,3391
2836.4475174580916,3475
2838.201072434034,3394
2839.954286739034,3364
2841.707160677441,3354
2843.459694553685,3344
2845.2118886722724,3382
2846.96374333779,3379
2848.7152588549034,3444
2850.4664355283567,3388
2852.217273662973,3407
2853.9677735636546,3391
2855.7179355353833,3471
2857.4677598832186,3423
2859.217246912299,3412
2860.9663969278427,3362
2862.715210235146,3455
2864.4636871395846,3400
2866.211827946614,3410
2867.9596329617652,3362
2869.7071024906536,3390
2871.4542368389684,3337
2873.20103631248,3324
2874.947501217038,3313
2876.6936318585695,3393
2878.4394285430812,3401
2880.1848915766604,3359
2881.9300212654707,3375
2883.6748179157553,3413
2885.4192818338374,3306
2887.1634133261173,3363
2888.907212699077,3371
2890.6506802592744,3373
2892.393816313348,3377
2894.1366211680142,3454
2895.8790951300693,3451
2897.621238506388,3422
2899.363051603925,3354
2901.1045347297118,3413
2902.8456881908596,3472
2904.58651229456,3328
2906.327007348081,3409
2908.067173658772,3452
2909.8070115340597,3300
2911.5465212814497,3444
2913.285703208527,3384
2915.0245576229563,3325
2916.7630848324807,3356
2918.5012851449196,3416
2920.2391588681758,3415
2921.976706310227,3464
2923.7139277791334,3357
2925.4508235830313,3422
2927.187394030137,3450
2928.923639428745,3406
2930.6595600872306,3409
2932.395156314046,3308
2934.1304284177218,3345
2935.8653767068713,3478
2937.6000014901815,3461
2939.3343030764227,3471
2941.068281774442,3560
2942.8019378931644,3351
2944.5352717415976,3470
2946.2682836288236,3464
2948.0009738640065,3411
2949.7333427563885,3390
2951.465390615289,3298
2953.1971177501086,3325
2954.9285244703265,3317
2956.6596110855,3409
2958.3903779052657,3374
2960.1208252393385,3340
2961.8509533975125,3480
2963.5807626896617,3391
2965.3102534257378,3305
2967.0394259157715,3376
2968.768280469873,3433
2970.496817398232,3457
2972.2250370111146,3370
2973.952939618869,3338
2975.6805255319196,3444
2977.4077950607707,3361
2979.134748516006,3496
2980.861386208289,3363
2982.587708448359,3361
2984.313715547037,3392
2986.039407815222,3374
2987.764785563891,3488
2989.489849104102,3439
2991.2145987469908,3441
2992.9390348037705,3542
2994.6631575857346,3399
2996.3869674042576,3525
2998.1104645707887,3376
2999.83364939686,3376
3001.5565221940783,3421
3003.2790832741334,3432
3005.0013329487924,3368
3006.7232715298996,3431
3008.4448993293804,3387
3010.166216659239,3407
3011.887223831558,3240
3013.607921158498,3412
3015.3283089522993,3380
3017.0483875252826,3320
3018.7681571898443,3393
3020.4876182584626,3451
3022.2067710436927,3275
3023.9256158581707,3371
3025.644153014609,3432
3027.362382825801,3438
3029.0803056046193,3490
3030.797921664012,3472
3032.5152313170106,3434
3034.2322348767225,3320
3035.9489326563353,3366
3037.665324969115,3394
3039.3814121284063,3475
3041.097194447633,3432
3042.812672240299,3426
3044.5278458199855,3434
3046.2427155003525,3406
3047.9572815951406,3364
3049.671544418167,3497
3051.38550428333,3387
3053.0991615046073,3414
3054.812516396051,3443
3056.5255692717974,3372
3058.2383204460575,3456
3059.9507702331257,3383
3061.662918947372,3394
3063.3747669032446,3476
3065.0863144152736,3369
3066.7975617980674,3405
3068.508509366309,3448
3070.219157434767,3439
3071.9295063182844,3464
3073.639556331785,3443
3075.3493077902704,3445
3077.058761008821,3470
3078.7679163025964,3450
3080.476773986837,3431
3082.1853343768594,3483
3083.89359778806,3493
3085.6015645359153,3418
3087.3092349359786,3385
3089.016609303884,3410
3090.7236879553434,3422
3092.4304712061476,3429
3094.136959372166,3307
3095.843152769349,3347
3097.5490517137237,3326
3099.2546565213966,3379
3100.959967508554,3440
3102.66498499146,3415
3104.3697092864577,3466
3106.0741407099695,3389
3107.778279578498,3457
3109.482126208622,3369
3111.1856809170004,3409
3112.8889440203716,3368
3114.5919158355528,3417
3116.294596679439,3482
3117.996986869006,3545
3119.6990867213062,3462
3121.4008965534726,3528
3123.102416682717,3525
3124.803647426329,3501
3126.5045891016784,3522
3128.205242026213,3427
3129.90560651746,3530
3131.605682893025,3443
3133.3054714705922,3436
3135.0049725679282,3536
3136.7041865028714,3389
3138.4031135933465,3548
3140.101754157353,3465
3141.800108512971,3414
3143.498176978357,3415
3145.1959598717494,3438
3146.8934575114636,3442
3148.5906702158954,3454
3150.2875983035183,3402
3151.9842420928853,3373
3153.680601902627,3440
3155.376678051456,3385
3157.07247085816,3460
3158.767980641609,3372
3160.463207720748,3345
3162.158152414606,3409
3163.8528150422862,3453
3165.5471959229726,3492
3167.2412953759303,3431
3168.9351137204976,3460
3170.628651276098,3331
3172.3219083622307,3453
3174.014885298474,3539
3175.707582404485,3424
3177.4000000000005,3436
3179.092138404835,3490
3180.7839979388846,3591
3182.47557892212,3498
3184.166881674594,3507
3185.8579065164386,3556
3187.5486537678626,3591
3189.2391237491547,3517
3190.9293167806827,3569
3192.6192331828934,3510
3194.3088732763117,3521
3195.998237381542,3412
3197.687325819268,3385
3199.376138910251,3395
3201.064676975334,3519
3202.7529403354347,3428
3204.4409293115523,3534
3206.1286442247647,3521
3207.816085396229,3427
3209.5032531471825,3405
3211.190147798936,3495
3212.8767696728846,3372
3214.5631190905015,3373
3216.2491963733373,3402
3217.9350018430214,3438
3219.6205358212637,3357
3221.305798629851,3340
3222.990790590651,3367
3224.6755120256103,3308
3226.359963256751,3351
3228.0441446061795,3389
3229.7280563960758,3365
3231.411698948703,3422
3233.0950725863995,3431
3234.778177631587,3436
3236.461014406761,3401
3238.1435832345005,3421
3239.8258844374595,3325
3241.507918338374,3460
3243.1896852600576,3409
3244.8711855254023,3467
3246.552419457381,3415
3248.233387379042,3406
3249.914089613516,3383
3251.59452648401,3468
3253.274698313813,3385
3254.95460542629,3374
3256.6342481448855,3351
3258.313626793125,3324
3259.9927416946084,3291
3261.6715931730196,3339
3263.3501815521176,3341
3265.0285071557437,3317
3266.706570307815,3292
3268.3843713323286,3490
3270.0619105533615,3507
3271.739188295068,3411
3273.4162048816834,3403
3275.0929606375184,3373
3276.769455886966,3512
3278.445690954498,3402
3280.1216661646613,3440
3281.797381842087,3516
3283.4728383114807,3405
3285.1480358976296,3523
3286.8229749253996,3449
3288.4976557197333,3333
3290.172078605655,3377
3291.846243908266,3342
3293.5201519527463,3390
3295.193803064357,3320
3296.8671975684374,3337
3298.5403357904024,3365
3300.21321805575,3484
3301.8858446900567,3380
3303.558216018975,3421
3305.23033236824,3449
3306.9021940636603,3410
3308.57380143113,3487
3310.2451547966184,3374
3311.916254486174,3479
3313.5871008259246,3330
3315.2576941420766,3468
3316.9280347609147,3361
3318.5981230088046,3459
3320.2679592121895,3405
3321.9375436975924,3252
3323.606876791612,3352
3325.27595882093,3360
3326.944790112305,3362
3328.6133709925753,3442
3330.2817017886573,3435
3331.949782827547,3443
3333.617614436319,3364
3335.2851969421245,3443
3336.952530672199,3439
3338.619615953853,3415
3340.286453114475,3486
3341.9530424815357,3536
3343.619384382583,3578
3345.2854791452437,3514
3346.951327097224,3474
3348.6169285663073,3419
3350.2822838803577,3488
3351.947393367319,3492
3353.61225735521,3489
3355.2768761721345,3468
3356.9412501462693,3452
3358.605379605873,3445
3360.2692648792827,3380
3361.9329062949146,3438
3363.596304181263,3380
