CollectionTime,9/20/2024 11:19:15 AM
ExposureUsed,3
CalibratedSpectrum
-962.7078968117929,486
-959.9714848408522,550
-957.2358232597828,545
-954.5009119013725,528
-951.7667505983302,539
-949.0333391832855,582
-946.3006774887896,567
-943.5687653473143,567
-940.837602591253,541
-938.1071890529199,539
-935.3775245645503,527
-932.6486089583007,574
-929.9204420662485,567
-927.1930237203925,570
-924.4663537526524,576
-921.7404319948689,553
-919.0152582788041,592
-916.2908324361409,616
-913.5671542984834,565
-910.8442236973568,535
-908.1220404642074,543
-905.4006044304027,541
-902.679915427231,585
-899.959973285902,538
-897.2407778375464,527
-894.5223289132158,540
-891.8046263438832,551
-889.0876699604426,580
-886.3714595937089,536
-883.6559950744183,540
-880.9412762332282,527
-878.2273029007168,556
-875.5140749073835,528
-872.8015920836489,525
-870.0898542598545,550
-867.3788612662631,537
-864.6686129330585,561
-861.9591090903457,533
-859.2503495681506,522
-856.5423341964203,572
-853.8350628050229,552
-851.1285352237478,554
-848.4227512823054,548
-845.7177108103272,545
-843.0134136373656,554
-840.3098595928943,577
-837.6070485063082,566
-834.9049802069229,570
-832.2036545239757,542
-829.5030712866244,552
-826.8032303239481,529
-824.1041314649472,550
-821.4057745385428,548
-818.7081593735775,539
-816.0112857988148,542
-813.3151536429393,533
-810.6197627345566,578
-807.9251129021936,532
-805.2312039742981,568
-802.5380357792392,573
-799.8456081453069,572
-797.1539209007124,569
-794.462973873588,574
-791.772766891987,554
-789.083299783884,606
-786.3945723771743,565
-783.7065844996748,579
-781.0193359791231,564
-778.3328266431781,566
-775.6470563194197,563
-772.9620248353489,557
-770.2777320183878,563
-767.5941776958798,553
-764.9113616950891,582
-762.2292838432011,557
-759.5479439673222,538
-756.8673418944801,542
-754.1874774516235,576
-751.5083504656222,550
-748.8299607632671,582
-746.15230817127,579
-743.475392516264,605
-740.7992136248035,575
-738.1237713233636,596
-735.4490654383407,604
-732.7750957960521,577
-730.1018622227365,559
-727.4293645445534,592
-724.7576025875837,610
-722.0865761778291,605
-719.4162851412126,579
-716.7467293035781,611
-714.0779084906909,655
-711.409822528237,642
-708.7424712418238,588
-706.0758544569796,572
-703.4099719991541,601
-700.7448236937178,612
-698.0804093659622,571
-695.4167288411002,601
-692.7537819442656,596
-690.0915685005134,586
-687.4300883348199,603
-684.7693412720819,590
-682.1093271371178,615
-679.4500457546669,591
-676.7914969493897,593
-674.1336805458676,595
-671.4765963686034,638
-668.8202442420206,612
-666.1646239904642,615
-663.5097354382001,615
-660.8555784094151,612
-658.2021527282176,625
-655.5494582186366,618
-652.8974947046223,629
-650.2462620100463,658
-647.5957599587009,635
-644.9459883742998,667
-642.2969470804776,631
-639.6486359007902,643
-637.0010546587141,673
-634.3542031776476,695
-631.7080812809096,659
-629.0626887917401,667
-626.4180255333008,614
-623.7740913286734,621
-621.1308860008619,640
-618.4884093727904,653
-615.8466612673046,669
-613.2056415071715,661
-610.5653499150785,629
-607.9257863136347,677
-605.28695052537,660
-602.6488423727357,662
-600.0114616781036,658
-597.3748082637674,649
-594.7388819519412,666
-592.1036825647604,743
-589.4692099242818,759
-586.8354638524829,736
-584.2024441712624,712
-581.5701507024403,727
-578.9385832677575,729
-576.3077416888759,720
-573.6776257873787,685
-571.0482353847704,677
-568.4195703024757,679
-565.7916303618415,692
-563.164415384135,693
-560.5379251905453,678
-557.9121596021815,672
-555.2871184400748,709
-552.6628015251767,686
-550.0392086783606,694
-547.4163397204204,705
-544.794194472071,747
-542.1727727539491,747
-539.5520743866118,769
-536.9320991905377,788
-534.3128469861261,798
-531.6943175936979,838
-529.0765108334947,801
-526.4594265256793,835
-523.8430644903358,963
-521.2274245474689,1125
-518.612506517005,1161
-515.9983102187913,1205
-513.3848354725959,1270
-510.77208209810846,1288
-508.16004991493924,1324
-505.5487387426199,1427
-502.9381484006032,1451
-500.3282787082628,1550
-497.71912948489364,1435
-495.1107005497117,1317
-492.5029917218539,1163
-489.8960028203786,1074
-487.28973366426493,960
-484.68418407241325,872
-482.07935386364494,859
-479.47524285670266,887
-476.87185087025,833
-474.2691777228715,856
-471.66722323307334,882
-469.0659872192821,869
-466.4654694998459,876
-463.86566989303384,846
-461.26658821703614,850
-458.66822428996414,859
-456.07057792985,889
-453.4736489546475,875
-450.877437182231,881
-448.28194243039627,876
-445.68716451686,869
-443.09310325926003,850
-440.49975847515555,805
-437.9071299820263,839
-435.31521759727354,856
-432.72402113821954,818
-430.13354042210767,867
-427.5437752661022,886
-424.95472548728867,844
-422.36639090267386,886
-419.7787713291855,931
-417.1918665836721,961
-414.60567648290385,870
-412.0202008435715,867
-409.4354394822874,905
-406.8513922155845,893
-404.26805885991723,959
-401.685439231661,950
-399.103533147112,959
-396.522340422488,922
-393.9418608739278,898
-391.3620943174908,897
-388.7830405691583,891
-386.2046994448317,894
-383.6270707603344,886
-381.05015433141045,839
-378.473949973725,783
-375.8984575028645,769
-373.32367673433623,684
-370.74960748356875,700
-368.1762495659117,659
-365.60360279663576,622
-363.03166699093265,598
-360.4604419639154,555
-357.8899275306178,512
-355.32012350599507,533
-352.7510297049233,532
-350.1826459421999,511
-347.61497203254316,500
-345.04800779059235,504
-342.4817530309082,503
-339.91620756797226,550
-337.35137121618743,550
-334.7872437898774,553
-332.22382510328725,518
-329.66111497058273,496
-327.09911320585127,499
-324.53781962310075,504
-321.9772340362607,516
-319.4173562591816,537
-316.8581861056348,504
-314.2997233893127,519
-311.7419679238294,505
-309.1849195227194,542
-306.62857799943856,566
-304.0729431673641,492
-301.51801483979375,519
-298.963792829947,523
-296.41027695096386,540
-293.85746701590574,564
-291.3053628377552,585
-288.7539642294155,571
-286.2032710037115,580
-283.65328297338897,598
-281.1039999511146,635
-278.5554217494762,586
-276.007548180983,552
-273.4603790580651,573
-270.9139141930734,577
-268.3681533982807,587
-265.8230964858798,635
-263.27874326798565,704
-260.7350935566336,718
-258.1921471637804,725
-255.6499039013039,708
-253.10836358100266,694
-250.56752601459698,671
-248.02739101372765,684
-245.48795838995704,631
-242.94922795476816,696
-240.41119951956557,760
-237.8738728956746,699
-235.33724789434166,691
-232.80132432673452,681
-230.2661020039418,662
-227.73158073697357,625
-225.19776033676033,738
-222.66464061415422,766
-220.1322213799284,775
-217.60050244477725,746
-215.06948361931552,786
-212.53916471408013,902
-210.00954553952818,841
-207.48062590603843,768
-204.9524056239104,786
-202.4248845033651,817
-199.8980623545441,834
-197.37193898751036,865
-194.84651421224817,853
-192.32178783866232,846
-189.79775967657952,865
-187.27442953574644,899
-184.7517972258321,910
-182.2298625564256,856
-179.7086253370378,789
-177.18808537710026,827
-174.66824248596583,901
-172.14909647290835,977
-169.6306471471229,1020
-167.11289431772548,977
-164.59583779375328,990
-162.07947738416453,1089
-159.5638128978386,1254
-157.04884414357605,1296
-154.53457093009854,1341
-152.02099306604828,1105
-149.50811035998936,1031
-146.99592262040665,1238
-144.48442965570587,1227
-141.97363127421409,1198
-139.46352728417958,1262
-136.95411749377126,1382
-134.44540171107985,1296
-131.93737974411636,1185
-129.43005140081357,1105
-126.92341648902493,1389
-124.41747481652521,1581
-121.91222619101006,2030
-119.40767042009657,2287
-116.90380731132257,2506
-114.40063667214702,2856
-111.8981583099503,3684
-109.3963720320337,4368
-106.89527764561933,5293
-104.39487495785067,5964
-101.89516377579241,8457
-99.39614390642998,13950
-96.89781515667039,20525
-94.40017733334128,21873
-91.90323024319173,18608
-89.40697369289148,13331
-86.91140748903172,7993
-84.41653143812482,5423
-81.92234534660395,6983
-79.42884902082358,11338
-76.93604226705907,16106
-74.4439248915071,19522
-71.95249670028534,21633
-69.46175749943245,21192
-66.97170709490854,16555
-64.48234529259423,11829
-61.99367189829195,9557
-59.50568671772464,8287
-57.01838955653636,7720
-54.53178022029283,6684
-52.045858514480074,7205
-49.560624244506016,9663
-47.07607721569923,9660
-44.59221723330904,9911
-42.10904410250669,11541
-39.62655762838392,13100
-37.14475761595372,15055
-34.66364387015028,17838
-32.18321619582866,24272
-29.70347439776515,26524
-27.224418280657005,25754
-24.74604764912317,33519
-22.26836230770266,46539
-19.7913620608565,65037
-17.315046712966478,65037
-14.83941606833514,65037
-12.36446993118659,65037
-9.89020810566592,65037
-7.416630395839093,65037
-4.94373660569363,65037
-2.471526539137585,65037
-6.821210263296962E-13,65037
2.47084320796705,65037
4.941003281093458,65037
7.410480415786196,65037
9.879274808531363,65037
12.347386655893956,65037
14.814816154518212,65037
17.28156350112681,65037
19.74762889252179,65037
22.21301252558385,65037
24.67771459727237,22135
27.141735304626195,6193
29.605074844762612,4566
32.06773341487792,3851
34.52971121224755,4342
36.99100843422559,4197
39.45162527824516,3449
41.91156194181792,3068
44.370818622535126,3437
46.82939551806646,3412
49.287292826160524,4082
51.74451074464503,4428
54.201049471426245,3349
56.65690920448981,2456
59.112090141899785,2529
61.56659248179983,2280
64.02041642241159,2228
66.4735621620365,2864
68.92602989905402,2905
71.37781983192338,2820
73.82893215918205,2255
76.27936707944684,1838
78.72912479141326,1793
81.17820549385567,1747
83.62660938562783,1592
86.07433666566146,1553
88.5213875329681,1589
90.96776218663751,1692
93.41346082583925,1758
95.85848364982041,2058
98.30283085790859,1943
100.7465026495089,1282
103.18949922410604,1258
105.63182078126385,1096
108.07346752062438,1301
110.51443964190923,1406
112.95473734491827,1449
115.39436082953114,1135
117.83331029570547,1119
120.27158594347827,1333
122.7091879729652,1475
125.1461165843615,1409
127.58237197794062,1315
130.01795435405518,1291
132.4528639131364,1236
134.88710085569494,1150
137.32066538231982,1253
139.75355769367923,1144
142.1857779905207,1101
144.61732647366978,946
147.04820334403132,941
149.47840880258934,1065
151.90794305040674,1144
154.33680628862487,1210
156.76499871846443,1426
159.19252054122433,1501
161.61937195828352,1430
164.04555317109896,1541
166.47106438120693,1592
168.89590579022217,1823
171.320077599839,2009
173.7435800118302,2025
176.16641322804742,2196
178.58857745042144,2297
181.01007288096173,2260
183.43089972175687,2197
185.85105817497413,2174
188.27054844285988,2091
190.6893707277394,2138
193.10752523201643,2261
195.5250121581745,2311
197.9418317087751,2388
200.3579840864594,2289
202.7734694939469,2425
205.18828813403627,2488
207.6024402096051,2445
210.01592592360964,2387
212.42874547908548,2511
214.84089907914665,2436
217.2523869269868,2300
219.66320922587727,2329
222.0733661791695,2402
224.48285799029293,2396
226.8916848627572,2501
229.29984700014882,2458
231.7073446061355,2518
234.11417788446204,2476
236.520347038953,2507
238.92585227351185,2491
241.33069379212054,2644
243.73487179884035,2728
246.1383864978112,2601
248.541238093252,2598
250.9434267894609,2635
253.34495279081432,2574
255.74581630176783,2634
258.1460175268563,2584
260.54555667069314,2554
262.9444339379703,2591
265.3426495334594,2677
267.7402036620107,2635
270.1370965285529,2596
272.53332833809407,2573
274.9288992957214,2416
277.32380960660055,2396
279.718059475976,2276
282.1116491091717,2420
284.5045787115897,2331
286.89684848871195,2402
289.2884586460981,2367
291.67940938938807,2488
294.0697009242996,2528
296.4593334566299,2485
298.84830719225477,2412
301.23662233712923,2433
303.6242790972866,2283
306.01127767884,2297
308.39761828798066,2311
310.78330113097934,2240
313.16832641418534,2283
315.5526943440269,2181
317.9364051270112,2262
320.3194589697242,2148
322.70185607883093,2200
325.0835966610754,2219
327.4646809232805,2086
329.8451090723478,2113
332.2248813152577,2144
334.6039978590701,2145
336.9824589109231,2130
339.36026467803447,2084
341.7374153677,2046
344.113911187295,2028
346.48975234427337,2112
348.8649390461686,2105
351.2394715005918,2023
353.61334991523415,2055
355.9865744978655,2037
358.35914545633375,2083
360.73106299856715,2016
363.10232733257146,1985
365.47293866643247,2015
367.84289720831396,1990
370.2122031664593,1979
372.5808567491905,1934
374.9488581649083,1912
377.31620762209275,1994
379.6829053293021,1980
382.0489514951745,1921
384.4143463284262,1925
386.7790900378528,1858
389.14318283232853,1905
391.50662492080653,1932
393.86941651231916,1921
396.23155781597745,1857
398.5930490409713,1965
400.9538903965696,1922
403.3140820921202,1933
405.6736243370498,2003
408.03251734086336,1945
410.3907613131465,1911
412.74835646356166,1886
415.10530300185144,1831
417.4616011378372,1868
419.81725108141893,1837
422.1722530425758,1860
424.5266072313656,1830
426.880313857925,1861
429.2333731324701,1943
431.58578526529516,1801
433.9375504667738,1863
436.2886689473588,1765
438.63914091758113,1825
440.9889665880513,1856
443.33814616945835,1854
445.68667987257015,1840
448.03456790823395,1846
450.3818104873759,1776
452.72840782100013,1777
455.07436012019105,1776
457.41966759611057,1770
459.7643304600007,1755
462.10834892318155,1808
464.4517231970525,1800
466.79445349309174,1847
469.1365400228566,1797
471.4779829979826,1813
473.81878263018564,1818
476.15893913125876,1847
478.4984527130747,1826
480.8373235875855,1825
483.17555196682144,1962
485.5131380628919,1967
487.8500820879857,2084
490.1863842543697,2051
492.52204477439034,2140
494.8570638604725,2248
497.1914417251204,2555
499.52517858091653,2804
501.85827464052306,3049
504.19073011668036,3037
506.5225452222086,3128
508.85372017000566,3287
511.18425517304956,3353
513.514150444396,3683
515.8434061971808,4575
518.1720226446176,5331
520.4999999999999,5362
522.8273384766991,5170
525.1540382881666,4763
527.480099647932,4261
529.8055227696037,3477
532.1303078668694,2604
534.454455153496,2120
536.777964843328,1937
539.1008371502907,1900
541.4230722883866,1873
543.744670471698,1821
546.0656319143858,1837
548.3859568306899,1863
550.7056454349294,1806
553.0246979415016,1736
555.3431145648834,1783
557.6608955196306,1708
559.978041020377,1732
562.2945512818363,1793
564.6104265188006,1806
566.9256669461412,1836
569.2402727788082,1834
571.5542442318302,1825
573.8675815203156,1799
576.1802848594508,1829
578.4923544645015,1827
580.8037905508126,1860
583.114593333807,1870
585.4247630289875,1850
587.7342998519354,1733
590.0432040183106,1838
592.3514757438526,1853
594.6591152443794,1771
596.9661227357875,1855
599.2724984340531,1794
601.578242555231,1808
603.8833553154542,1777
606.1878369309362,1826
608.4916876179676,1807
610.7949075929192,1758
613.0974970722403,1774
615.3994562724587,1805
617.7007854101818,1772
620.0014847020951,1799
622.3015543649641,1809
624.6009946156324,1851
626.8998056710224,1834
629.1979877481361,1869
631.4955410640538,1755
633.7924658359349,1791
636.0887622810175,1772
638.3844306166192,1876
640.6794710601358,1765
642.9738838290426,1798
645.2676691408932,1817
647.5608272133207,1770
649.853358264037,1889
652.1452625108324,1928
654.4365401715764,1910
656.7271914642178,1803
659.0172166067838,1797
661.3066158173809,1869
663.5953893141935,1873
665.8835373154867,1940
668.1710600396028,1879
670.4579577049639,1876
672.7442305300709,1947
675.0298787335033,1833
677.3149025339197,1925
679.599302150058,1869
681.8830778007342,1846
684.1662297048437,1897
686.4487580813608,1897
688.7306631493387,1870
691.0119451279091,1856
693.2926042362834,1812
695.5726406937516,1915
697.8520547196814,1856
700.1308465335215,1807
702.4090163547982,1897
704.6865644031171,1865
706.9634908981619,1846
709.2397960596965,1769
711.5154801075631,1879
713.7905432616823,1879
716.0649857420548,1860
718.3388077687592,1906
720.612009561953,1812
722.8845913418733,1875
725.1565533288352,1845
727.427895743234,1862
729.6986188055427,1862
731.9687227363137,1805
734.238207756178,1833
736.5070740858458,1823
738.7753219461066,1807
741.0429515578281,1848
743.3099631419569,1841
745.5763569195191,1819
747.8421331116193,1833
750.1072919394409,1925
752.3718336242467,1831
754.6357583873777,1894
756.8990664502545,1886
759.1617580343765,1850
761.423833361321,1802
763.6852926527457,1908
765.9461361303862,1918
768.206364016058,1856
770.4659765316536,1879
772.7249738991469,1878
774.9833563405886,1888
777.2411240781092,1916
779.4982773339183,1855
781.7548163303044,1883
784.010741289634,1902
786.2660524343538,2022
788.5207499869881,1949
790.7748341701416,1956
793.0283052064964,1904
795.2811633188143,1903
797.5334087299362,1920
799.7850416627813,1865
802.0360623403484,1845
804.2864709857143,1923
806.5362678220353,1988
808.7854530725468,1903
811.0340269605625,1907
813.2819897094754,1926
815.5293415427581,1920
817.77608268396,1832
820.0222133567116,1872
822.2677337847211,1904
824.5126441917765,1886
826.7569448017433,1904
829.0006358385675,1931
831.2437175262731,1914
833.4861900889629,1892
835.7280537508192,1934
837.9693087361026,1872
840.2099552691533,1853
842.4499935743896,1854
844.689423876309,1928
846.9282463994886,1925
849.1664613685833,1884
851.4040690083276,1849
853.6410695435349,1901
855.877463199097,1864
858.1132501999847,1900
860.3484307712487,1907
862.5830051380175,1849
864.8169735254988,1881
867.0503361589791,1921
869.2830932638243,1891
871.5152450654786,1951
873.7467917894654,1898
875.9777336613873,1855
878.2080709069252,1937
880.4378037518389,1940
882.666932421968,1854
884.8954571432301,1916
887.1233781416219,1999
889.3506956432192,1926
891.5774098741766,1907
893.803521060728,1929
896.0290294291852,1970
898.2539352059397,1975
900.4782386174619,1901
902.7019398903011,1969
904.925039251085,1997
907.147536926521,1849
909.3694331433943,1859
911.59072812857,1897
913.8114221089921,1857
916.0315153116827,1883
918.2510079637437,1864
920.4699002923547,1847
922.6881925247761,1848
924.905884888345,1868
927.1229776104793,1867
929.3394709186747,1869
931.555365040506,1800
933.7706602036275,1833
935.9853566357709,1854
938.1994545647489,1845
940.4129542184515,1911
942.6258558248488,1946
944.8381596119883,1865
947.0498658079974,1829
949.2609746410825,1871
951.4714863395287,1871
953.6814011316998,1931
955.8907192460387,1837
958.0994409110671,1713
960.3075663553858,1881
962.5150958076741,1800
964.7220294966913,1830
966.928367651274,1854
969.1341105003388,1836
971.3392582728806,1826
973.5438111979742,1832
975.747769504772,1813
977.9511334225061,1761
980.153903180487,1757
982.3560790081052,1796
984.5576611348289,1732
986.7586497902058,1792
988.9590452038618,1735
991.158847605503,1708
993.3580572249133,1744
995.5566742919558,1704
997.7546990365728,1625
999.952131688785,1667
1002.1489724786926,1632
1004.3452216364743,1607
1006.5408793923874,1588
1008.7359459767691,1568
1010.9304216200343,1623
1013.1243065526781,1602
1015.3176010052733,1546
1017.510305208472,1537
1019.7024193930064,1576
1021.8939437896848,1575
1024.0848786293977,1565
1026.2752241431122,1478
1028.4649805618747,1512
1030.6541481168115,1584
1032.842727039127,1529
1035.0307175601051,1470
1037.2181199111074,1475
1039.4049343235752,1534
1041.591161029029,1505
1043.7768002590683,1494
1045.9618522453698,1470
1048.1463172196918,1509
1050.3301954138697,1504
1052.513487059818,1508
1054.69619238953,1543
1056.8783116350783,1525
1059.0598450286152,1481
1061.2407928023704,1447
1063.4211551886528,1436
1065.6009324198508,1512
1067.780124728432,1482
1069.9587323469414,1444
1072.1367555080046,1457
1074.314194444325,1491
1076.4910493886855,1493
1078.667320573947,1429
1080.843008233051,1475
1083.0181125990161,1452
1085.1926339049414,1457
1087.3665723840027,1513
1089.5399282694575,1547
1091.7127017946405,1425
1093.8848931929647,1455
1096.0565026979243,1427
1098.2275305430899,1399
1100.3979769621128,1423
1102.567842188722,1434
1104.737126456726,1411
1106.9058300000124,1411
1109.0739530525475,1447
1111.2414958483764,1415
1113.4084586216231,1385
1115.5748416064907,1431
1117.7406450372605,1438
1119.9058691482942,1428
1122.0705141740304,1388
1124.2345803489884,1363
1126.3980679077658,1404
1128.5609770850388,1425
1130.7233081155623,1401
1132.8850612341707,1439
1135.0462366757774,1422
1137.2068346753745,1365
1139.3668554680326,1458
1141.526299288901,1332
1143.68516637321,1361
1145.8434569562655,1390
1148.001171273455,1434
1150.158309560244,1337
1152.3148720521767,1387
1154.470858984876,1374
1156.626270594044,1417
1158.7811071154629,1400
1160.9353687849912,1354
1163.089055838569,1379
1165.242168512213,1416
1167.3947070420209,1392
1169.5466716641677,1430
1171.6980626149075,1396
1173.8488801305748,1406
1175.9991244475814,1427
1178.1487958024186,1414
1180.2978944316555,1400
1182.4464205719428,1394
1184.5943744600072,1400
1186.7417563326567,1390
1188.8885664267755,1404
1191.0348049793297,1417
1193.1804722273619,1382
1195.325568407995,1369
1197.4700937584303,1375
1199.614048515948,1440
1201.7574329179074,1423
1203.900247201746,1410
1206.042491604982,1389
1208.1841663652099,1432
1210.3252717201053,1405
1212.465807907422,1459
1214.6057751649923,1433
1216.7451737307279,1405
1218.8840038426192,1446
1221.0222657387353,1413
1223.1599596572241,1416
1225.2970858363137,1357
1227.4336445143094,1405
1229.5696359295966,1449
1231.705060320639,1435
1233.8399179259786,1424
1235.9742089842384,1453
1238.107933734118,1430
1240.2410924143974,1447
1242.373685263935,1398
1244.5057125216676,1441
1246.6371744266116,1484
1248.7680712178621,1510
1250.898403134593,1464
1253.028170416058,1463
1255.1573733015875,1490
1257.2860120305932,1500
1259.4140868425648,1395
1261.54159797707,1400
1263.6685456737569,1547
1265.7949301723515,1493
1267.9207517126597,1490
1270.046010534565,1482
1272.1707068780306,1500
1274.2948409830983,1473
1276.4184130898889,1476
1278.541423438603,1447
1280.6638722695184,1497
1282.785759822993,1502
1284.9070863394636,1571
1287.0278520594447,1513
1289.1480572235314,1544
1291.2677020723963,1507
1293.3867868467923,1555
1295.5053117875495,1579
1297.623277135579,1533
1299.740683131868,1601
1301.8575300174857,1612
1303.973818033578,1665
1306.0895474213703,1670
1308.2047184221678,1665
1310.3193312773528,1613
1312.4333862283888,1585
1314.5468835168163,1684
1316.659823384255,1675
1318.7722060724045,1657
1320.8840318230418,1645
1322.9953008780249,1669
1325.1060134792888,1665
1327.2161698688478,1667
1329.3257702887959,1670
1331.4348149813054,1681
1333.5433041886276,1633
1335.6512381530933,1649
1337.7586171171101,1681
1339.8654413231675,1626
1341.9717110138317,1582
1344.0774264317488,1626
1346.1825878196432,1613
1348.2871954203192,1666
1350.3912494766587,1648
1352.4947502316231,1594
1354.5976979282532,1524
1356.7000928096686,1614
1358.8019351190665,1549
1360.9032250997243,1614
1363.0039629949988,1595
1365.1041490483235,1595
1367.2037835032133,1559
1369.3028666032606,1530
1371.401398592137,1616
1373.4993797135926,1614
1375.5968102114575,1545
1377.6936903296396,1604
1379.7900203121262,1558
1381.8858004029835,1520
1383.9810308463561,1546
1386.075711886469,1514
1388.1698437676241,1588
1390.2634267342032,1567
1392.356461030667,1578
1394.4489469015557,1510
1396.5408845914872,1624
1398.6322743451592,1573
1400.7231164073469,1544
1402.813411022907,1602
1404.903158436773,1590
1406.9923588939578,1575
1409.0810126395531,1576
1411.1691199187303,1555
1413.2566809767386,1544
1415.343696058907,1488
1417.4301654106425,1657
1419.5160892774315,1561
1421.6014679048399,1633
1423.6863015385125,1510
1425.7705904241707,1601
1427.8543348076178,1536
1429.9375349347342,1601
1432.0201910514802,1602
1434.102303403894,1579
1436.1838722380944,1558
1438.2648978002767,1663
1440.3453803367174,1624
1442.4253200937692,1656
1444.5047173178677,1629
1446.5835722555234,1624
1448.6618851533285,1645
1450.739656257952,1622
1452.8168858161434,1723
1454.8935740747306,1712
1456.96972128062,1663
1459.045327680797,1733
1461.120393522327,1712
1463.1949190523528,1689
1465.2689045180973,1702
1467.3423501668608,1758
1469.415256246024,1779
1471.4876230030463,1743
1473.559450685465,1838
1475.6307395408976,1787
1477.7014898170391,1837
1479.771701761665,1794
1481.8413756226287,1790
1483.9105116478618,1874
1485.9791100853772,1857
1488.0471711832643,1894
1490.1146951896926,1839
1492.1816823529098,1816
1494.2481329212433,1899
1496.3140471430984,1904
1498.3794252669609,1877
1500.4442675413939,1861
1502.5085742150404,2022
1504.572345536622,1946
1506.6355817549388,1985
1508.6982831188702,1987
1510.7604498773744,2003
1512.8220822794883,1971
1514.8831805743293,1999
1516.9437450110909,2008
1519.003775839048,2012
1521.0632733075522,2025
1523.1222376660367,2072
1525.1806691640113,2014
1527.2385680510652,2070
1529.2959345768668,2089
1531.3527689911643,2052
1533.4090715437833,2083
1535.4648424846291,2147
1537.5200820636855,2183
1539.5747905310159,2250
1541.6289681367616,2250
1543.6826151311434,2278
1545.7357317644614,2261
1547.7883182870937,2348
1549.8403749494987,2227
1551.8919020022113,2388
1553.9428996958477,2327
1555.9933682811015,2445
1558.0433080087469,2533
1560.0927191296346,2416
1562.1416018946961,2420
1564.1899565549415,2486
1566.2377833614592,2470
1568.2850825654164,2431
1570.3318544180606,2425
1572.3780991707158,2374
1574.423817074788,2290
1576.4690083817595,2282
1578.5136733431923,2166
1580.5578122107272,2236
1582.601425236085,2099
1584.6445126710646,2027
1586.6870747675434,1997
1588.7291117774776,2056
1590.7706239529034,1954
1592.8116115459347,1975
1594.8520748087658,1855
1596.8920139936686,1886
1598.9314293529933,1847
1600.9703211391711,1818
1603.008689604711,1744
1605.0465350022005,1762
1607.0838575843068,1688
1609.1206576037753,1665
1611.1569353134305,1573
1613.1926909661765,1650
1615.2279248149953,1607
1617.2626371129481,1633
1619.2968281131757,1589
1621.3304980688963,1630
1623.3636472334088,1573
1625.39627586009,1542
1627.428384202396,1555
1629.459972513861,1536
1631.4910410480993,1462
1633.5215900588028,1453
1635.551619799744,1492
1637.5811305247717,1555
1639.6101224878166,1435
1641.6385959428862,1384
1643.6665511440683,1373
1645.693988345528,1435
1647.7209078015112,1438
1649.7473097663405,1426
1651.7731944944203,1448
1653.7985622402307,1451
1655.823413258333,1466
1657.847747803366,1455
1659.8715661300494,1390
1661.8948684931793,1355
1663.9176551476316,1382
1665.9399263483624,1442
1667.9616823504057,1419
1669.982923408873,1373
1672.0036497789574,1410
1674.0238617159293,1395
1676.043559475138,1345
1678.0627433120121,1380
1680.081413482059,1357
1682.0995702408654,1428
1684.117213844096,1410
1686.134344547495,1382
1688.1509626068864,1415
1690.1670682781705,1393
1692.182661817329,1435
1694.1977434804217,1366
1696.2123135235875,1385
1698.226372203043,1354
1700.2399197750851,1406
1702.2529564960905,1394
1704.2654826225112,1391
1706.277498410882,1423
1708.2890041178139,1440
1710.2999999999988,1400
1712.3104863142066,1402
1714.3204633172854,1382
1716.329931266163,1352
1718.3388904178469,1366
1720.3473410294214,1393
1722.3552833580516,1320
1724.3627176609807,1396
1726.3696441955308,1381
1728.3760632191033,1376
1730.3819749891782,1318
1732.3873797633146,1375
1734.3922777991502,1393
1736.3966693544012,1367
1738.4005546868639,1297
1740.4039340544127,1358
1742.406807715001,1347
1744.4091759266616,1367
1746.4110389475054,1322
1748.4123970357223,1370
1750.413250449582,1406
1752.4135994474318,1351
1754.4134442876993,1393
1756.4127852288902,1365
1758.4116225295893,1371
1760.4099564484595,1300
1762.407787244244,1370
1764.405115175764,1334
1766.4019405019203,1275
1768.3982634816916,1346
1770.3940843741357,1294
1772.3894034383907,1373
1774.3842209336717,1388
1776.378537119274,1325
1778.372352254571,1320
1780.3656665990156,1365
1782.3584804121397,1320
1784.3507939535534,1366
1786.3426074829463,1350
1788.3339212600863,1407
1790.3247355448211,1393
1792.3150505970766,1332
1794.3048666768573,1377
1796.2941840442477,1397
1798.2830029594106,1361
1800.2713236825884,1337
1802.2591464741004,1351
1804.2464715943465,1293
1806.2332993038058,1361
1808.2196298630352,1367
1810.2054635326708,1370
1812.190800573428,1347
1814.175641246101,1346
1816.1599858115628,1374
1818.1438345307652,1323
1820.127187664738,1326
1822.1100454745924,1324
1824.092408221516,1343
1826.0742761667766,1322
1828.055649571721,1308
1830.0365286977735,1352
1832.0169138064398,1348
1833.9968051593014,1372
1835.9762030180214,1379
1837.9551076443408,1366
1839.9335193000788,1383
1841.9114382471344,1260
1843.888864747485,1343
1845.8657990631878,1376
1847.842241456378,1353
1849.8181921892697,1383
1851.7936515241558,1377
1853.7686197234098,1316
1855.7430970494815,1337
1857.7170837649014,1349
1859.6905801322787,1340
1861.6635864143004,1332
1863.6361028737338,1325
1865.608129773424,1356
1867.5796673762961,1356
1869.5507159453537,1384
1871.521275743678,1364
1873.4913470344313,1366
1875.4609300808534,1365
1877.4300251462632,1356
1879.3986324940588,1359
1881.366752387717,1382
1883.3343850907936,1383
1885.3015308669228,1385
1887.268189979819,1362
1889.2343626932739,1367
1891.2000492711595,1437
1893.1652499774254,1369
1895.1299650761011,1352
1897.0941948312952,1388
1899.0579395071945,1342
1901.0211993680641,1371
1902.98397467825,1369
1904.9462657021745,1334
1906.9080727043415,1380
1908.869395949332,1323
1910.8302357018065,1310
1912.790592226504,1327
1914.7504657882428,1354
1916.7098566519212,1362
1918.6687650825133,1368
1920.6271913450764,1336
1922.5851357047422,1377
1924.5425984267245,1396
1926.499579776314,1453
1928.4560800188833,1371
1930.4120994198802,1348
1932.367638244833,1420
1934.32269675935,1366
1936.2772752291175,1358
1938.231373919899,1393
1940.1849930975404,1373
1942.1381330279637,1340
1944.0907939771696,1299
1946.0429762112412,1312
1947.9946799963363,1304
1949.9459055986945,1298
1951.896653284633,1306
1953.8469233205478,1328
1955.7967159729142,1310
1957.7460315082863,1336
1959.6948701932974,1308
1961.6432322946594,1302
1963.5911180791632,1346
1965.5385278136787,1284
1967.4854617651545,1321
1969.4319202006182,1364
1971.377903387176,1338
1973.3234115920136,1388
1975.268445082395,1294
1977.2130041256642,1314
1979.1570889892423,1356
1981.1006999406304,1328
1983.04383724741,1325
1984.986501177238,1302
1986.928691997853,1370
1988.8704099770712,1364
1990.811655382789,1352
1992.7524284829801,1324
1994.692729545698,1310
1996.6325588390755,1341
1998.5719166313224,1308
2000.5108031907307,1310
2002.4492187856677,1343
2004.387163684583,1331
2006.3246381560011,1308
2008.2616424685298,1340
2010.1981768908527,1330
2012.1342416917332,1342
2014.069837140014,1337
2016.0049635046162,1369
2017.9396210545406,1334
2019.8738100588666,1290
2021.8075307867502,1339
2023.740783507431,1341
2025.6735684902228,1331
2027.6058860045214,1318
2029.5377363198004,1236
2031.4691197056118,1299
2033.4000364315875,1319
2035.3304867674374,1326
2037.260470982952,1309
2039.189989347998,1292
2041.1190421325232,1285
2043.047629606554,1325
2044.9757520401945,1305
2046.9034097036288,1338
2048.8306028671195,1256
2050.7573318010086,1352
2052.683596775716,1265
2054.609398061742,1310
2056.5347359296647,1335
2058.4596106501403,1319
2060.384022493906,1330
2062.3079717317764,1259
2064.231458634646,1293
2066.1544834734873,1315
2068.077046519352,1338
2069.99914804337,1321
2071.9207883167524,1277
2073.8419676107865,1332
2075.7626861968406,1304
2077.6829443463607,1358
2079.6027423308715,1348
2081.522080421977,1290
2083.440958891362,1280
2085.359378010786,1295
2087.2773380520907,1235
2089.194839287196,1339
2091.111881988101,1348
2093.0284664268825,1266
2094.9445928756973,1353
2096.86026160678,1314
2098.775472892446,1326
2100.690227005088,1337
2102.604524217178,1342
2104.5183648012676,1284
2106.431749029985,1267
2108.34467717604,1348
2110.2571495122206,1417
2112.169166311393,1337
2114.080727846503,1357
2115.9918343905747,1323
2117.902486216711,1342
2119.8126835980956,1288
2121.722426807987,1318
2123.6317161197285,1344
2125.5405518067364,1315
2127.448934142509,1317
2129.356863400624,1363
2131.264339854737,1356
2133.1713637785815,1354
2135.077935445972,1338
2136.9840551308002,1327
2138.889723107037,1376
2140.7949396487334,1316
2142.699705030018,1346
2144.6040195250994,1318
2146.507883408264,1358
2148.4112969538774,1323
2150.3142604363848,1286
2152.2167741303097,1341
2154.1188383102535,1356
2156.0204532508997,1384
2157.9216192270064,1348
2159.822336513414,1342
2161.7226053850413,1412
2163.622426116884,1369
2165.5217989840185,1382
2167.4207242616,1352
2169.319202224862,1354
2171.2172331491165,1369
2173.1148173097563,1367
2175.0119549822507,1384
2176.90864644215,1354
2178.8048919650823,1427
2180.7006918267534,1369
2182.596046302952,1329
2184.4909556695407,1414
2186.3854202024645,1413
2188.279440177746,1382
2190.173015871487,1368
2192.066147559868,1381
2193.958835519149,1343
2195.851080025667,1346
2197.7428813558417,1377
2199.6342397861667,1410
2201.5251555932186,1366
2203.415629053651,1356
2205.3056604441986,1385
2207.19525004167,1393
2209.084398122958,1417
2210.9731049650327,1383
2212.861370844941,1381
2214.749196039812,1376
2216.636580826851,1443
2218.523525483344,1384
2220.410030286655,1412
2222.296095514226,1340
2224.1817214435805,1396
2226.066908352319,1410
2227.951656518121,1415
2229.835966218746,1346
2231.71983773203,1375
2233.6032713358913,1376
2235.486267308324,1391
2237.3688259274036,1372
2239.2509474712824,1399
2241.132632218193,1371
2243.013880446447,1393
2244.8946924344323,1422
2246.7750684606203,1386
2248.6550088035574,1293
2250.534513741871,1356
2252.413583554265,1386
2254.292218519526,1398
2256.170418916517,1370
2258.0481850241786,1399
2259.925517121534,1401
2261.8024154876825,1388
2263.678880401803,1447
2265.5549121431536,1381
2267.430510991071,1368
2269.305677224971,1413
2271.180411124348,1416
2273.0547129687766,1356
2274.9285830379076,1345
2276.8020216114737,1411
2278.6750289692845,1365
2280.5476053912294,1377
2282.4197511572766,1350
2284.2914665474727,1419
2286.162751841943,1442
2288.0336073208937,1493
2289.904033264608,1428
2291.774029953448,1430
2293.6435976678554,1448
2295.5127366883517,1374
2297.381447295534,1367
2299.2497297700825,1299
2301.1175843927526,1292
2302.9850114443825,1315
2304.852011205885,1246
2306.7185839582553,1279
2308.5847299825664,1268
2310.4504495599676,1232
2312.3157429716925,1283
2314.1806104990483,1228
2316.0450524234247,1236
2317.9090690262888,1232
2319.772660589186,1251
2321.635827393742,1236
2323.498569721661,1208
2325.3608878547248,1196
2327.2227820747967,1241
2329.0842526638157,1189
2330.945299903803,1291
2332.805924076857,1250
2334.6661254651535,1239
2336.525904350951,1275
2338.3852610165827,1239
2340.244195744464,1205
2342.102708817088,1238
2343.9608005170253,1157
2345.8184711269287,1197
2347.675720929526,1257
2349.532550207628,1271
2351.38895924412,1288
2353.24494832197,1265
2355.100517724223,1234
2356.955667734004,1248
2358.810398634514,1260
2360.664710709037,1279
2362.5186042409337,1276
2364.3720795136437,1214
2366.225136810686,1261
2368.0777764156583,1282
2369.929998612237,1287
2371.7818036841777,1251
2373.633191915315,1235
2375.484163589562,1204
2377.3347189909114,1241
2379.184858403434,1227
2381.03458211128,1238
2382.8838903986775,1204
2384.732783549936,1253
2386.5812618494406,1234
2388.4293255816588,1300
2390.2769750311327,1224
2392.1242104824883,1226
2393.971032220427,1335
2395.8174405297295,1296
2397.6634356952563,1289
2399.509018001947,1274
2401.3541877348193,1245
2403.1989451789705,1260
2405.043290619576,1285
2406.8872243418905,1271
2408.730746631247,1278
2410.5738577730594,1272
2412.4165580528183,1236
2414.258847756095,1248
2416.100727168537,1278
2417.9421965758734,1279
2419.783256263912,1281
2421.623906518538,1158
2423.4641476257157,1242
2425.303979871491,1234
2427.143403541984,1257
2428.9824189233977,1304
2430.821026302012,1245
2432.6592259641866,1317
2434.497018196361,1249
2436.33440328505,1342
2438.171381516851,1321
2440.00795317844,1284
2441.844118556569,1263
2443.6798779380724,1268
2445.5152316098606,1300
2447.3501798589255,1262
2449.1847229723357,1283
2451.0188612372403,1271
2452.8525949408663,1285
2454.6859243705203,1304
2456.518849813587,1260
2458.3513715575314,1264
2460.183489889895,1308
2462.015205098301,1242
2463.8465174704493,1244
2465.67742729412,1228
2467.5079348571717,1306
2469.338040447542,1317
2471.1677443532476,1236
2472.9970468623833,1261
2474.825948263123,1246
2476.6544488437207,1258
2478.482548892508,1240
2480.310248697896,1280
2482.137548548374,1240
2483.9644487325118,1263
2485.790949538956,1259
2487.617051256433,1302
2489.44275417375,1327
2491.26805857979,1287
2493.0929647635157,1349
2494.917473013971,1299
2496.741583620276,1282
2498.5652968716304,1326
2500.3886130573137,1276
2502.2115324666834,1327
2504.0340553891765,1292
2505.856182114308,1319
2507.6779129316733,1314
2509.499248130945,1254
2511.3201880018764,1315
2513.140732834298,1266
2514.9608829181198,1271
2516.780638543331,1275
2518.6,1276
2520.418967578273,1332
2522.237541568376,1305
2524.0557222606144,1278
2525.8735099453706,1280
2527.6909049131086,1299
2529.507907454368,1320
2531.32451785977,1295
2533.140736420014,1366
2534.9565634258774,1417
2536.771999168218,1376
2538.5870439379714,1355
2540.4016980261526,1369
2542.2159617238544,1376
2544.02983532225,1346
2545.8433191125914,1333
2547.656413386209,1370
2549.4691184345115,1353
2551.2814345489874,1403
2553.093362021204,1374
2554.904901142808,1432
2556.716052205523,1337
2558.526815501153,1429
2560.3371913215824,1391
2562.147179958771,1462
2563.956781704761,1448
2565.7659968516705,1350
2567.5748256916986,1392
2569.3832685171224,1432
2571.1913256202984,1385
2572.9989972936614,1455
2574.806283829725,1459
2576.613185521084,1426
2578.4197026604074,1353
2580.2258355404483,1479
2582.031584454035,1381
2583.836949694077,1357
2585.6419315535613,1406
2587.4465303255533,1444
2589.2507463032002,1367
2591.0545797797245,1421
2592.8580310484303,1454
2594.6611004026995,1519
2596.463788135992,1458
2598.266094541849,1413
2600.0680199138874,1337
2601.869564545807,1430
2603.670728731383,1414
2605.4715127644704,1370
2607.2719169390048,1391
2609.071941548998,1439
2610.8715868885433,1423
2612.670853251811,1413
2614.469740933052,1410
2616.268250226594,1456
2618.0663814268455,1433
2619.864134828292,1430
2621.6615107255006,1447
2623.458509413115,1416
2625.2551311858597,1373
2627.0513763385347,1426
2628.8472451660223,1407
2630.6427379632833,1437
2632.4378550253564,1370
2634.232596647359,1318
2636.026963124488,1461
2637.8209547520187,1374
2639.6145718253065,1382
2641.407814639785,1363
2643.200683490966,1393
2644.9931786744414,1395
2646.7853004858807,1369
2648.577049221034,1345
2650.3684251757277,1379
2652.1594286458712,1356
2653.9500599274484,1332
2655.740319316525,1284
2657.5302071092437,1310
2659.3197236018286,1376
2661.10886909058,1307
2662.8976438718782,1318
2664.686048242183,1330
2666.4740824980327,1323
2668.2617469360443,1287
2670.0490418529134,1322
2671.8359675454153,1302
2673.622524310403,1287
2675.408712444811,1315
2677.1945322456495,1313
2678.979984010009,1287
2680.76506803506,1264
2682.5497846180497,1299
2684.334134056306,1280
2686.1181166472343,1258
2687.9017326883213,1278
2689.6849824771293,1271
2691.4678663113013,1269
2693.2503844885596,1279
2695.032537306705,1233
2696.8143250636167,1318
2698.5957480572542,1200
2700.3768065856534,1237
2702.1575009469316,1257
2703.937831439283,1276
2705.717798360982,1333
2707.4974020103837,1305
2709.276642685917,1269
2711.055520686095,1244
2712.834036309506,1237
2714.612189854819,1198
2716.389981620782,1271
2718.1674119062204,1177
2719.944481010041,1291
2721.721189231226,1254
2723.4975368688415,1275
2725.273524222027,1249
2727.0491515900053,1225
2728.824419272075,1250
2730.5993275676146,1239
2732.3738767760838,1262
2734.148067197016,1205
2735.921899130031,1205
2737.6953728748194,1230
2739.468488731156,1201
2741.2412469988926,1194
2743.0136479779617,1247
2744.785691968372,1201
2746.5573792702116,1209
2748.3287101836504,1231
2750.099685008934,1183
2751.870304046388,1256
2753.640567596418,1232
2755.4104759595057,1209
2757.1800294362156,1208
2758.949228327187,1168
2760.7180729331412,1215
2762.486563554877,1209
2764.254700493272,1167
2766.022484049284,1257
2767.789914523947,1192
2769.5569922183786,1180
2771.3237174337705,1265
2773.090090471394,1242
2774.8561116326036,1223
2776.6217812188274,1189
2778.3870995315756,1216
2780.1520668724356,1225
2781.9166835430747,1220
2783.6809498452394,1247
2785.444866080754,1233
2787.2084325515225,1209
2788.971649559527,1190
2790.73451740683,1242
2792.4970363955713,1240
2794.2592068279705,1219
2796.0210290063264,1212
2797.7825032330147,1184
2799.543629810493,1236
2801.304409041296,1195
2803.0648412280366,1270
2804.8249266734088,1230
2806.5846656801846,1212
2808.344058551212,1252
2810.1031055894246,1247
2811.8618070978273,1264
2813.6201633795085,1185
2815.378174737636,1175
2817.1358414754536,1240
2818.893163896285,1205
2820.6501423035334,1185
2822.4067770006814,1182
2824.1630682912883,1236
2825.9190164789957,1223
2827.6746218675207,1220
2829.429884760661,1207
2831.184805462294,1260
2832.9393842763743,1230
2834.693621506936,1221
2836.4475174580916,1204
2838.201072434034,1196
2839.954286739034,1224
2841.707160677441,1268
2843.459694553685,1274
2845.2118886722724,1226
2846.96374333779,1219
2848.7152588549034,1258
2850.4664355283567,1210
2852.217273662973,1186
2853.9677735636546,1223
2855.7179355353833,1257
2857.4677598832186,1247
2859.217246912299,1232
2860.9663969278427,1185
2862.715210235146,1196
2864.4636871395846,1211
2866.211827946614,1239
2867.9596329617652,1212
2869.7071024906536,1228
2871.4542368389684,1221
2873.20103631248,1244
2874.947501217038,1198
2876.6936318585695,1266
2878.4394285430812,1250
2880.1848915766604,1216
2881.9300212654707,1268
2883.6748179157553,1238
2885.4192818338374,1230
2887.1634133261173,1180
2888.907212699077,1211
2890.6506802592744,1290
2892.393816313348,1218
2894.1366211680142,1276
2895.8790951300693,1210
2897.621238506388,1223
2899.363051603925,1179
2901.1045347297118,1207
2902.8456881908596,1270
2904.58651229456,1199
2906.327007348081,1238
2908.067173658772,1169
2909.8070115340597,1184
2911.5465212814497,1224
2913.285703208527,1261
2915.0245576229563,1233
2916.7630848324807,1214
2918.5012851449196,1227
2920.2391588681758,1211
2921.976706310227,1214
2923.7139277791334,1194
2925.4508235830313,1236
2927.187394030137,1211
2928.923639428745,1238
2930.6595600872306,1235
2932.395156314046,1254
2934.1304284177218,1242
2935.8653767068713,1252
2937.6000014901815,1186
2939.3343030764227,1218
2941.068281774442,1249
2942.8019378931644,1260
2944.5352717415976,1249
2946.2682836288236,1217
2948.0009738640065,1214
2949.7333427563885,1198
2951.465390615289,1295
2953.1971177501086,1223
2954.9285244703265,1218
2956.6596110855,1158
2958.3903779052657,1205
2960.1208252393385,1244
2961.8509533975125,1195
2963.5807626896617,1176
2965.3102534257378,1197
2967.0394259157715,1226
2968.768280469873,1237
2970.496817398232,1202
2972.2250370111146,1237
2973.952939618869,1213
2975.6805255319196,1243
2977.4077950607707,1229
2979.134748516006,1214
2980.861386208289,1257
2982.587708448359,1172
2984.313715547037,1179
2986.039407815222,1189
2987.764785563891,1189
2989.489849104102,1177
2991.2145987469908,1195
2992.9390348037705,1211
2994.6631575857346,1199
2996.3869674042576,1204
2998.1104645707887,1173
2999.83364939686,1227
3001.5565221940783,1202
3003.2790832741334,1219
3005.0013329487924,1243
3006.7232715298996,1208
3008.4448993293804,1204
3010.166216659239,1240
3011.887223831558,1191
3013.607921158498,1211
3015.3283089522993,1197
3017.0483875252826,1207
3018.7681571898443,1222
3020.4876182584626,1211
3022.2067710436927,1159
3023.9256158581707,1275
3025.644153014609,1188
3027.362382825801,1213
3029.0803056046193,1202
3030.797921664012,1208
3032.5152313170106,1194
3034.2322348767225,1180
3035.9489326563353,1190
3037.665324969115,1193
3039.3814121284063,1220
3041.097194447633,1208
3042.812672240299,1167
3044.5278458199855,1195
3046.2427155003525,1199
3047.9572815951406,1161
3049.671544418167,1147
3051.38550428333,1195
3053.0991615046073,1193
3054.812516396051,1176
3056.5255692717974,1215
3058.2383204460575,1210
3059.9507702331257,1207
3061.662918947372,1174
3063.3747669032446,1196
3065.0863144152736,1234
3066.7975617980674,1207
3068.508509366309,1178
3070.219157434767,1162
3071.9295063182844,1169
3073.639556331785,1165
3075.3493077902704,1215
3077.058761008821,1198
3078.7679163025964,1216
3080.476773986837,1229
3082.1853343768594,1208
3083.89359778806,1185
3085.6015645359153,1204
3087.3092349359786,1242
3089.016609303884,1164
3090.7236879553434,1188
3092.4304712061476,1194
3094.136959372166,1189
3095.843152769349,1171
3097.5490517137237,1125
3099.2546565213966,1132
3100.959967508554,1183
3102.66498499146,1208
3104.3697092864577,1180
3106.0741407099695,1177
3107.778279578498,1259
3109.482126208622,1234
3111.1856809170004,1244
3112.8889440203716,1171
3114.5919158355528,1191
3116.294596679439,1214
3117.996986869006,1238
3119.6990867213062,1214
3121.4008965534726,1205
3123.102416682717,1221
3124.803647426329,1223
3126.5045891016784,1225
3128.205242026213,1199
3129.90560651746,1197
3131.605682893025,1216
3133.3054714705922,1161
3135.0049725679282,1209
3136.7041865028714,1195
3138.4031135933465,1207
3140.101754157353,1161
3141.800108512971,1190
3143.498176978357,1202
3145.1959598717494,1210
3146.8934575114636,1157
3148.5906702158954,1165
3150.2875983035183,1186
3151.9842420928853,1192
3153.680601902627,1223
3155.376678051456,1184
3157.07247085816,1189
3158.767980641609,1194
3160.463207720748,1125
3162.158152414606,1130
3163.8528150422862,1164
3165.5471959229726,1185
3167.2412953759303,1233
3168.9351137204976,1235
3170.628651276098,1181
3172.3219083622307,1188
3174.014885298474,1204
3175.707582404485,1207
3177.4000000000005,1184
3179.092138404835,1189
3180.7839979388846,1190
3182.47557892212,1179
3184.166881674594,1233
3185.8579065164386,1222
3187.5486537678626,1203
3189.2391237491547,1187
3190.9293167806827,1218
3192.6192331828934,1157
3194.3088732763117,1186
3195.998237381542,1205
3197.687325819268,1210
3199.376138910251,1153
3201.064676975334,1158
3202.7529403354347,1201
3204.4409293115523,1157
3206.1286442247647,1210
3207.816085396229,1158
3209.5032531471825,1154
3211.190147798936,1159
3212.8767696728846,1165
3214.5631190905015,1184
3216.2491963733373,1151
3217.9350018430214,1170
3219.6205358212637,1183
3221.305798629851,1152
3222.990790590651,1183
3224.6755120256103,1116
3226.359963256751,1130
3228.0441446061795,1120
3229.7280563960758,1144
3231.411698948703,1145
3233.0950725863995,1143
3234.778177631587,1189
3236.461014406761,1158
3238.1435832345005,1216
3239.8258844374595,1182
3241.507918338374,1231
3243.1896852600576,1182
3244.8711855254023,1180
3246.552419457381,1177
3248.233387379042,1210
3249.914089613516,1155
3251.59452648401,1173
3253.274698313813,1187
3254.95460542629,1205
3256.6342481448855,1124
3258.313626793125,1205
3259.9927416946084,1144
3261.6715931730196,1147
3263.3501815521176,1156
3265.0285071557437,1147
3266.706570307815,1146
3268.3843713323286,1126
3270.0619105533615,1147
3271.739188295068,1151
3273.4162048816834,1233
3275.0929606375184,1209
3276.769455886966,1157
3278.445690954498,1176
3280.1216661646613,1165
3281.797381842087,1175
3283.4728383114807,1188
3285.1480358976296,1197
3286.8229749253996,1160
3288.4976557197333,1185
3290.172078605655,1170
3291.846243908266,1128
3293.5201519527463,1159
3295.193803064357,1146
3296.8671975684374,1143
3298.5403357904024,1189
3300.21321805575,1189
3301.8858446900567,1176
3303.558216018975,1138
3305.23033236824,1170
3306.9021940636603,1165
3308.57380143113,1121
3310.2451547966184,1159
3311.916254486174,1209
3313.5871008259246,1212
3315.2576941420766,1185
3316.9280347609147,1160
3318.5981230088046,1165
3320.2679592121895,1192
3321.9375436975924,1154
3323.606876791612,1152
3325.27595882093,1164
3326.944790112305,1188
3328.6133709925753,1115
3330.2817017886573,1108
3331.949782827547,1128
3333.617614436319,1169
3335.2851969421245,1286
3336.952530672199,1184
3338.619615953853,1168
3340.286453114475,1166
3341.9530424815357,1164
3343.619384382583,1188
3345.2854791452437,1236
3346.951327097224,1195
3348.6169285663073,1206
3350.2822838803577,1149
3351.947393367319,1178
3353.61225735521,1201
3355.2768761721345,1151
3356.9412501462693,1149
3358.605379605873,1158
3360.2692648792827,1196
3361.9329062949146,1182
3363.596304181263,1110
