CollectionTime,9/20/2024 11:21:14 AM
ExposureUsed,3
CalibratedSpectrum
-962.7078968117929,662
-959.9714848408522,718
-957.2358232597828,685
-954.5009119013725,719
-951.7667505983302,724
-949.0333391832855,752
-946.3006774887896,728
-943.5687653473143,736
-940.837602591253,716
-938.1071890529199,686
-935.3775245645503,719
-932.6486089583007,738
-929.9204420662485,713
-927.1930237203925,733
-924.4663537526524,731
-921.7404319948689,732
-919.0152582788041,725
-916.2908324361409,726
-913.5671542984834,706
-910.8442236973568,723
-908.1220404642074,677
-905.4006044304027,735
-902.679915427231,731
-899.959973285902,701
-897.2407778375464,708
-894.5223289132158,710
-891.8046263438832,713
-889.0876699604426,711
-886.3714595937089,722
-883.6559950744183,705
-880.9412762332282,691
-878.2273029007168,715
-875.5140749073835,695
-872.8015920836489,711
-870.0898542598545,690
-867.3788612662631,717
-864.6686129330585,728
-861.9591090903457,744
-859.2503495681506,692
-856.5423341964203,708
-853.8350628050229,724
-851.1285352237478,710
-848.4227512823054,743
-845.7177108103272,720
-843.0134136373656,755
-840.3098595928943,731
-837.6070485063082,737
-834.9049802069229,735
-832.2036545239757,704
-829.5030712866244,743
-826.8032303239481,779
-824.1041314649472,747
-821.4057745385428,735
-818.7081593735775,718
-816.0112857988148,751
-813.3151536429393,730
-810.6197627345566,691
-807.9251129021936,761
-805.2312039742981,710
-802.5380357792392,747
-799.8456081453069,782
-797.1539209007124,739
-794.462973873588,735
-791.772766891987,771
-789.083299783884,804
-786.3945723771743,763
-783.7065844996748,765
-781.0193359791231,753
-778.3328266431781,738
-775.6470563194197,739
-772.9620248353489,734
-770.2777320183878,751
-767.5941776958798,746
-764.9113616950891,797
-762.2292838432011,748
-759.5479439673222,729
-756.8673418944801,751
-754.1874774516235,743
-751.5083504656222,755
-748.8299607632671,773
-746.15230817127,779
-743.475392516264,783
-740.7992136248035,736
-738.1237713233636,745
-735.4490654383407,744
-732.7750957960521,795
-730.1018622227365,783
-727.4293645445534,738
-724.7576025875837,756
-722.0865761778291,758
-719.4162851412126,775
-716.7467293035781,797
-714.0779084906909,801
-711.409822528237,819
-708.7424712418238,802
-706.0758544569796,767
-703.4099719991541,821
-700.7448236937178,800
-698.0804093659622,800
-695.4167288411002,772
-692.7537819442656,811
-690.0915685005134,797
-687.4300883348199,815
-684.7693412720819,818
-682.1093271371178,840
-679.4500457546669,806
-676.7914969493897,799
-674.1336805458676,809
-671.4765963686034,849
-668.8202442420206,846
-666.1646239904642,841
-663.5097354382001,806
-660.8555784094151,797
-658.2021527282176,809
-655.5494582186366,839
-652.8974947046223,835
-650.2462620100463,917
-647.5957599587009,851
-644.9459883742998,854
-642.2969470804776,907
-639.6486359007902,897
-637.0010546587141,870
-634.3542031776476,866
-631.7080812809096,851
-629.0626887917401,814
-626.4180255333008,819
-623.7740913286734,912
-621.1308860008619,871
-618.4884093727904,887
-615.8466612673046,864
-613.2056415071715,877
-610.5653499150785,836
-607.9257863136347,916
-605.28695052537,876
-602.6488423727357,905
-600.0114616781036,868
-597.3748082637674,858
-594.7388819519412,902
-592.1036825647604,937
-589.4692099242818,944
-586.8354638524829,932
-584.2024441712624,929
-581.5701507024403,924
-578.9385832677575,910
-576.3077416888759,919
-573.6776257873787,907
-571.0482353847704,877
-568.4195703024757,945
-565.7916303618415,948
-563.164415384135,910
-560.5379251905453,934
-557.9121596021815,913
-555.2871184400748,951
-552.6628015251767,919
-550.0392086783606,953
-547.4163397204204,920
-544.794194472071,969
-542.1727727539491,989
-539.5520743866118,1019
-536.9320991905377,983
-534.3128469861261,980
-531.6943175936979,1001
-529.0765108334947,1023
-526.4594265256793,1094
-523.8430644903358,1231
-521.2274245474689,1285
-518.612506517005,1321
-515.9983102187913,1338
-513.3848354725959,1405
-510.77208209810846,1464
-508.16004991493924,1517
-505.5487387426199,1527
-502.9381484006032,1496
-500.3282787082628,1500
-497.71912948489364,1491
-495.1107005497117,1368
-492.5029917218539,1165
-489.8960028203786,1123
-487.28973366426493,1176
-484.68418407241325,1082
-482.07935386364494,1026
-479.47524285670266,1049
-476.87185087025,1072
-474.2691777228715,1126
-471.66722323307334,1148
-469.0659872192821,1114
-466.4654694998459,1121
-463.86566989303384,1114
-461.26658821703614,1101
-458.66822428996414,1081
-456.07057792985,1140
-453.4736489546475,1130
-450.877437182231,1123
-448.28194243039627,1083
-445.68716451686,1110
-443.09310325926003,1038
-440.49975847515555,1023
-437.9071299820263,1032
-435.31521759727354,1097
-432.72402113821954,1103
-430.13354042210767,1054
-427.5437752661022,1067
-424.95472548728867,1050
-422.36639090267386,1124
-419.7787713291855,1170
-417.1918665836721,1169
-414.60567648290385,1153
-412.0202008435715,1117
-409.4354394822874,1144
-406.8513922155845,1174
-404.26805885991723,1173
-401.685439231661,1149
-399.103533147112,1146
-396.522340422488,1176
-393.9418608739278,1135
-391.3620943174908,1135
-388.7830405691583,1122
-386.2046994448317,1064
-383.6270707603344,1040
-381.05015433141045,968
-378.473949973725,927
-375.8984575028645,855
-373.32367673433623,759
-370.74960748356875,723
-368.1762495659117,655
-365.60360279663576,624
-363.03166699093265,565
-360.4604419639154,576
-357.8899275306178,569
-355.32012350599507,519
-352.7510297049233,515
-350.1826459421999,480
-347.61497203254316,483
-345.04800779059235,491
-342.4817530309082,503
-339.91620756797226,492
-337.35137121618743,490
-334.7872437898774,462
-332.22382510328725,474
-329.66111497058273,426
-327.09911320585127,448
-324.53781962310075,458
-321.9772340362607,522
-319.4173562591816,534
-316.8581861056348,496
-314.2997233893127,451
-311.7419679238294,452
-309.1849195227194,481
-306.62857799943856,502
-304.0729431673641,505
-301.51801483979375,474
-298.963792829947,474
-296.41027695096386,547
-293.85746701590574,547
-291.3053628377552,519
-288.7539642294155,508
-286.2032710037115,517
-283.65328297338897,528
-281.1039999511146,607
-278.5554217494762,624
-276.007548180983,578
-273.4603790580651,568
-270.9139141930734,557
-268.3681533982807,612
-265.8230964858798,643
-263.27874326798565,730
-260.7350935566336,715
-258.1921471637804,695
-255.6499039013039,763
-253.10836358100266,740
-250.56752601459698,671
-248.02739101372765,636
-245.48795838995704,640
-242.94922795476816,646
-240.41119951956557,693
-237.8738728956746,662
-235.33724789434166,658
-232.80132432673452,638
-230.2661020039418,620
-227.73158073697357,651
-225.19776033676033,695
-222.66464061415422,668
-220.1322213799284,639
-217.60050244477725,649
-215.06948361931552,703
-212.53916471408013,873
-210.00954553952818,788
-207.48062590603843,720
-204.9524056239104,696
-202.4248845033651,733
-199.8980623545441,741
-197.37193898751036,715
-194.84651421224817,745
-192.32178783866232,738
-189.79775967657952,843
-187.27442953574644,854
-184.7517972258321,862
-182.2298625564256,765
-179.7086253370378,776
-177.18808537710026,783
-174.66824248596583,836
-172.14909647290835,823
-169.6306471471229,886
-167.11289431772548,899
-164.59583779375328,880
-162.07947738416453,932
-159.5638128978386,1121
-157.04884414357605,1189
-154.53457093009854,1251
-152.02099306604828,1019
-149.50811035998936,1042
-146.99592262040665,1206
-144.48442965570587,1263
-141.97363127421409,1238
-139.46352728417958,1286
-136.95411749377126,1374
-134.44540171107985,1293
-131.93737974411636,1171
-129.43005140081357,1116
-126.92341648902493,1456
-124.41747481652521,1723
-121.91222619101006,2147
-119.40767042009657,2364
-116.90380731132257,2193
-114.40063667214702,2455
-111.8981583099503,2854
-109.3963720320337,3303
-106.89527764561933,4313
-104.39487495785067,5726
-101.89516377579241,8460
-99.39614390642998,13911
-96.89781515667039,18874
-94.40017733334128,18852
-91.90323024319173,16407
-89.40697369289148,12490
-86.91140748903172,7354
-84.41653143812482,4473
-81.92234534660395,5705
-79.42884902082358,9745
-76.93604226705907,15300
-74.4439248915071,19165
-71.95249670028534,19913
-69.46175749943245,16800
-66.97170709490854,11730
-64.48234529259423,8223
-61.99367189829195,6614
-59.50568671772464,6825
-57.01838955653636,5887
-54.53178022029283,5227
-52.045858514480074,5592
-49.560624244506016,7537
-47.07607721569923,7463
-44.59221723330904,7600
-42.10904410250669,8359
-39.62655762838392,9579
-37.14475761595372,10829
-34.66364387015028,15693
-32.18321619582866,21298
-29.70347439776515,23066
-27.224418280657005,27023
-24.74604764912317,35324
-22.26836230770266,41330
-19.7913620608565,51417
-17.315046712966478,65038
-14.83941606833514,65038
-12.36446993118659,65038
-9.89020810566592,65038
-7.416630395839093,65038
-4.94373660569363,65038
-2.471526539137585,65038
-6.821210263296962E-13,65038
2.47084320796705,65038
4.941003281093458,65038
7.410480415786196,65038
9.879274808531363,65038
12.347386655893956,65038
14.814816154518212,65038
17.28156350112681,65038
19.74762889252179,65038
22.21301252558385,65038
24.67771459727237,21601
27.141735304626195,5513
29.605074844762612,4598
32.06773341487792,3627
34.52971121224755,3976
36.99100843422559,4114
39.45162527824516,2791
41.91156194181792,2513
44.370818622535126,2604
46.82939551806646,2925
49.287292826160524,3842
51.74451074464503,3599
54.201049471426245,2224
56.65690920448981,1653
59.112090141899785,1776
61.56659248179983,1841
64.02041642241159,2238
66.4735621620365,2642
68.92602989905402,2561
71.37781983192338,2668
73.82893215918205,2277
76.27936707944684,1687
78.72912479141326,1538
81.17820549385567,1657
83.62660938562783,1681
86.07433666566146,1634
88.5213875329681,1490
90.96776218663751,1475
93.41346082583925,1634
95.85848364982041,2126
98.30283085790859,1916
100.7465026495089,1524
103.18949922410604,1337
105.63182078126385,1111
108.07346752062438,1302
110.51443964190923,1436
112.95473734491827,1471
115.39436082953114,1259
117.83331029570547,1240
120.27158594347827,1435
122.7091879729652,1332
125.1461165843615,1323
127.58237197794062,1327
130.01795435405518,1483
132.4528639131364,1265
134.88710085569494,1168
137.32066538231982,1230
139.75355769367923,1239
142.1857779905207,968
144.61732647366978,943
147.04820334403132,976
149.47840880258934,1096
151.90794305040674,1065
154.33680628862487,1114
156.76499871846443,1243
159.19252054122433,1381
161.61937195828352,1422
164.04555317109896,1510
166.47106438120693,1749
168.89590579022217,1830
171.320077599839,1984
173.7435800118302,2045
176.16641322804742,2218
178.58857745042144,2251
181.01007288096173,2260
183.43089972175687,2190
185.85105817497413,2323
188.27054844285988,2356
190.6893707277394,2333
193.10752523201643,2341
195.5250121581745,2429
197.9418317087751,2475
200.3579840864594,2558
202.7734694939469,2535
205.18828813403627,2605
207.6024402096051,2596
210.01592592360964,2642
212.42874547908548,2596
214.84089907914665,2675
217.2523869269868,2652
219.66320922587727,2616
222.0733661791695,2626
224.48285799029293,2598
226.8916848627572,2720
229.29984700014882,2691
231.7073446061355,2704
234.11417788446204,2593
236.520347038953,2754
238.92585227351185,2936
241.33069379212054,2934
243.73487179884035,2823
246.1383864978112,2698
248.541238093252,2767
250.9434267894609,2906
253.34495279081432,2871
255.74581630176783,2896
258.1460175268563,2913
260.54555667069314,2934
262.9444339379703,2820
265.3426495334594,2795
267.7402036620107,2885
270.1370965285529,2845
272.53332833809407,2653
274.9288992957214,2647
277.32380960660055,2659
279.718059475976,2598
282.1116491091717,2645
284.5045787115897,2668
286.89684848871195,2630
289.2884586460981,2694
291.67940938938807,2751
294.0697009242996,2593
296.4593334566299,2647
298.84830719225477,2549
301.23662233712923,2566
303.6242790972866,2605
306.01127767884,2525
308.39761828798066,2456
310.78330113097934,2468
313.16832641418534,2492
315.5526943440269,2413
317.9364051270112,2420
320.3194589697242,2415
322.70185607883093,2499
325.0835966610754,2413
327.4646809232805,2411
329.8451090723478,2394
332.2248813152577,2384
334.6039978590701,2367
336.9824589109231,2432
339.36026467803447,2388
341.7374153677,2292
344.113911187295,2351
346.48975234427337,2389
348.8649390461686,2313
351.2394715005918,2355
353.61334991523415,2393
355.9865744978655,2250
358.35914545633375,2342
360.73106299856715,2343
363.10232733257146,2297
365.47293866643247,2254
367.84289720831396,2195
370.2122031664593,2169
372.5808567491905,2209
374.9488581649083,2225
377.31620762209275,2195
379.6829053293021,2214
382.0489514951745,2294
384.4143463284262,2256
386.7790900378528,2196
389.14318283232853,2225
391.50662492080653,2191
393.86941651231916,2200
396.23155781597745,2261
398.5930490409713,2301
400.9538903965696,2239
403.3140820921202,2221
405.6736243370498,2274
408.03251734086336,2133
410.3907613131465,2157
412.74835646356166,2163
415.10530300185144,2166
417.4616011378372,2163
419.81725108141893,2175
422.1722530425758,2101
424.5266072313656,2196
426.880313857925,2115
429.2333731324701,2136
431.58578526529516,2139
433.9375504667738,2195
436.2886689473588,2063
438.63914091758113,2186
440.9889665880513,2178
443.33814616945835,2214
445.68667987257015,2150
448.03456790823395,2092
450.3818104873759,2212
452.72840782100013,2130
455.07436012019105,2193
457.41966759611057,2205
459.7643304600007,2109
462.10834892318155,2124
464.4517231970525,2058
466.79445349309174,2114
469.1365400228566,2178
471.4779829979826,2155
473.81878263018564,2092
476.15893913125876,2132
478.4984527130747,2113
480.8373235875855,2171
483.17555196682144,2165
485.5131380628919,2195
487.8500820879857,2205
490.1863842543697,2285
492.52204477439034,2295
494.8570638604725,2417
497.1914417251204,2464
499.52517858091653,2756
501.85827464052306,2902
504.19073011668036,3087
506.5225452222086,3283
508.85372017000566,3346
511.18425517304956,3494
513.514150444396,3765
515.8434061971808,4526
518.1720226446176,5042
520.4999999999999,5050
522.8273384766991,4868
525.1540382881666,4594
527.480099647932,4317
529.8055227696037,3584
532.1303078668694,2759
534.454455153496,2427
536.777964843328,2328
539.1008371502907,2241
541.4230722883866,2197
543.744670471698,2179
546.0656319143858,2143
548.3859568306899,2078
550.7056454349294,2122
553.0246979415016,2130
555.3431145648834,2099
557.6608955196306,2067
559.978041020377,2103
562.2945512818363,2085
564.6104265188006,2129
566.9256669461412,2119
569.2402727788082,2149
571.5542442318302,2132
573.8675815203156,2123
576.1802848594508,2162
578.4923544645015,2179
580.8037905508126,2208
583.114593333807,2134
585.4247630289875,2210
587.7342998519354,2150
590.0432040183106,2152
592.3514757438526,2200
594.6591152443794,2235
596.9661227357875,2123
599.2724984340531,2232
601.578242555231,2125
603.8833553154542,2101
606.1878369309362,2147
608.4916876179676,2108
610.7949075929192,2091
613.0974970722403,2189
615.3994562724587,2048
617.7007854101818,2114
620.0014847020951,2106
622.3015543649641,2121
624.6009946156324,2137
626.8998056710224,2219
629.1979877481361,2143
631.4955410640538,2200
633.7924658359349,2173
636.0887622810175,2200
638.3844306166192,2186
640.6794710601358,2150
642.9738838290426,2082
645.2676691408932,2157
647.5608272133207,2148
649.853358264037,2206
652.1452625108324,2196
654.4365401715764,2211
656.7271914642178,2151
659.0172166067838,2235
661.3066158173809,2275
663.5953893141935,2256
665.8835373154867,2275
668.1710600396028,2296
670.4579577049639,2248
672.7442305300709,2280
675.0298787335033,2225
677.3149025339197,2236
679.599302150058,2168
681.8830778007342,2216
684.1662297048437,2145
686.4487580813608,2330
688.7306631493387,2217
691.0119451279091,2211
693.2926042362834,2152
695.5726406937516,2174
697.8520547196814,2236
700.1308465335215,2229
702.4090163547982,2195
704.6865644031171,2263
706.9634908981619,2160
709.2397960596965,2235
711.5154801075631,2151
713.7905432616823,2256
716.0649857420548,2208
718.3388077687592,2230
720.612009561953,2128
722.8845913418733,2203
725.1565533288352,2197
727.427895743234,2168
729.6986188055427,2202
731.9687227363137,2201
734.238207756178,2195
736.5070740858458,2209
738.7753219461066,2178
741.0429515578281,2226
743.3099631419569,2144
745.5763569195191,2135
747.8421331116193,2181
750.1072919394409,2184
752.3718336242467,2220
754.6357583873777,2244
756.8990664502545,2111
759.1617580343765,2259
761.423833361321,2129
763.6852926527457,2211
765.9461361303862,2246
768.206364016058,2217
770.4659765316536,2207
772.7249738991469,2125
774.9833563405886,2230
777.2411240781092,2233
779.4982773339183,2185
781.7548163303044,2186
784.010741289634,2275
786.2660524343538,2290
788.5207499869881,2202
790.7748341701416,2227
793.0283052064964,2199
795.2811633188143,2314
797.5334087299362,2266
799.7850416627813,2279
802.0360623403484,2234
804.2864709857143,2217
806.5362678220353,2278
808.7854530725468,2283
811.0340269605625,2243
813.2819897094754,2228
815.5293415427581,2249
817.77608268396,2172
820.0222133567116,2167
822.2677337847211,2283
824.5126441917765,2224
826.7569448017433,2214
829.0006358385675,2229
831.2437175262731,2224
833.4861900889629,2206
835.7280537508192,2191
837.9693087361026,2157
840.2099552691533,2161
842.4499935743896,2245
844.689423876309,2246
846.9282463994886,2253
849.1664613685833,2200
851.4040690083276,2198
853.6410695435349,2238
855.877463199097,2194
858.1132501999847,2190
860.3484307712487,2221
862.5830051380175,2242
864.8169735254988,2222
867.0503361589791,2193
869.2830932638243,2175
871.5152450654786,2150
873.7467917894654,2260
875.9777336613873,2316
878.2080709069252,2243
880.4378037518389,2190
882.666932421968,2165
884.8954571432301,2179
887.1233781416219,2277
889.3506956432192,2261
891.5774098741766,2231
893.803521060728,2131
896.0290294291852,2227
898.2539352059397,2242
900.4782386174619,2207
902.7019398903011,2195
904.925039251085,2210
907.147536926521,2162
909.3694331433943,2200
911.59072812857,2160
913.8114221089921,2205
916.0315153116827,2188
918.2510079637437,2228
920.4699002923547,2241
922.6881925247761,2160
924.905884888345,2121
927.1229776104793,2161
929.3394709186747,2178
931.555365040506,2173
933.7706602036275,2147
935.9853566357709,2182
938.1994545647489,2150
940.4129542184515,2185
942.6258558248488,2164
944.8381596119883,2206
947.0498658079974,2151
949.2609746410825,2162
951.4714863395287,2143
953.6814011316998,2173
955.8907192460387,2204
958.0994409110671,2214
960.3075663553858,2193
962.5150958076741,2166
964.7220294966913,2125
966.928367651274,2193
969.1341105003388,2124
971.3392582728806,2089
973.5438111979742,2088
975.747769504772,2175
977.9511334225061,2206
980.153903180487,2139
982.3560790081052,2128
984.5576611348289,2167
986.7586497902058,2057
988.9590452038618,2102
991.158847605503,2072
993.3580572249133,2010
995.5566742919558,2113
997.7546990365728,2046
999.952131688785,2032
1002.1489724786926,1915
1004.3452216364743,2079
1006.5408793923874,1912
1008.7359459767691,1897
1010.9304216200343,1959
1013.1243065526781,1899
1015.3176010052733,1941
1017.510305208472,1980
1019.7024193930064,1945
1021.8939437896848,1982
1024.0848786293977,1936
1026.2752241431122,1930
1028.4649805618747,1922
1030.6541481168115,1894
1032.842727039127,1877
1035.0307175601051,1909
1037.2181199111074,1842
1039.4049343235752,1915
1041.591161029029,1874
1043.7768002590683,1850
1045.9618522453698,1834
1048.1463172196918,1809
1050.3301954138697,1820
1052.513487059818,1898
1054.69619238953,1879
1056.8783116350783,1856
1059.0598450286152,1842
1061.2407928023704,1864
1063.4211551886528,1866
1065.6009324198508,1827
1067.780124728432,1862
1069.9587323469414,1849
1072.1367555080046,1814
1074.314194444325,1827
1076.4910493886855,1848
1078.667320573947,1843
1080.843008233051,1916
1083.0181125990161,1793
1085.1926339049414,1846
1087.3665723840027,1881
1089.5399282694575,1828
1091.7127017946405,1806
1093.8848931929647,1784
1096.0565026979243,1768
1098.2275305430899,1752
1100.3979769621128,1779
1102.567842188722,1764
1104.737126456726,1788
1106.9058300000124,1790
1109.0739530525475,1761
1111.2414958483764,1818
1113.4084586216231,1749
1115.5748416064907,1738
1117.7406450372605,1726
1119.9058691482942,1734
1122.0705141740304,1766
1124.2345803489884,1820
1126.3980679077658,1782
1128.5609770850388,1786
1130.7233081155623,1770
1132.8850612341707,1776
1135.0462366757774,1714
1137.2068346753745,1783
1139.3668554680326,1722
1141.526299288901,1728
1143.68516637321,1741
1145.8434569562655,1769
1148.001171273455,1798
1150.158309560244,1747
1152.3148720521767,1718
1154.470858984876,1816
1156.626270594044,1755
1158.7811071154629,1673
1160.9353687849912,1750
1163.089055838569,1751
1165.242168512213,1722
1167.3947070420209,1762
1169.5466716641677,1811
1171.6980626149075,1776
1173.8488801305748,1694
1175.9991244475814,1756
1178.1487958024186,1718
1180.2978944316555,1716
1182.4464205719428,1750
1184.5943744600072,1738
1186.7417563326567,1733
1188.8885664267755,1738
1191.0348049793297,1707
1193.1804722273619,1780
1195.325568407995,1729
1197.4700937584303,1747
1199.614048515948,1804
1201.7574329179074,1711
1203.900247201746,1760
1206.042491604982,1785
1208.1841663652099,1790
1210.3252717201053,1721
1212.465807907422,1801
1214.6057751649923,1807
1216.7451737307279,1768
1218.8840038426192,1813
1221.0222657387353,1753
1223.1599596572241,1725
1225.2970858363137,1802
1227.4336445143094,1836
1229.5696359295966,1771
1231.705060320639,1798
1233.8399179259786,1783
1235.9742089842384,1825
1238.107933734118,1790
1240.2410924143974,1772
1242.373685263935,1760
1244.5057125216676,1797
1246.6371744266116,1775
1248.7680712178621,1780
1250.898403134593,1789
1253.028170416058,1800
1255.1573733015875,1860
1257.2860120305932,1807
1259.4140868425648,1777
1261.54159797707,1815
1263.6685456737569,1768
1265.7949301723515,1796
1267.9207517126597,1863
1270.046010534565,1807
1272.1707068780306,1794
1274.2948409830983,1818
1276.4184130898889,1745
1278.541423438603,1849
1280.6638722695184,1810
1282.785759822993,1848
1284.9070863394636,1902
1287.0278520594447,1813
1289.1480572235314,1864
1291.2677020723963,1857
1293.3867868467923,1902
1295.5053117875495,1857
1297.623277135579,1876
1299.740683131868,1882
1301.8575300174857,1905
1303.973818033578,1959
1306.0895474213703,2010
1308.2047184221678,1970
1310.3193312773528,1942
1312.4333862283888,1995
1314.5468835168163,2042
1316.659823384255,1944
1318.7722060724045,1974
1320.8840318230418,1975
1322.9953008780249,2043
1325.1060134792888,2106
1327.2161698688478,2000
1329.3257702887959,2046
1331.4348149813054,2036
1333.5433041886276,1983
1335.6512381530933,1973
1337.7586171171101,1942
1339.8654413231675,1982
1341.9717110138317,1974
1344.0774264317488,1941
1346.1825878196432,1907
1348.2871954203192,1965
1350.3912494766587,1947
1352.4947502316231,1953
1354.5976979282532,1971
1356.7000928096686,1918
1358.8019351190665,1912
1360.9032250997243,1878
1363.0039629949988,1888
1365.1041490483235,1909
1367.2037835032133,1930
1369.3028666032606,1938
1371.401398592137,1897
1373.4993797135926,1957
1375.5968102114575,1865
1377.6936903296396,1846
1379.7900203121262,1931
1381.8858004029835,1887
1383.9810308463561,1894
1386.075711886469,1914
1388.1698437676241,1826
1390.2634267342032,1905
1392.356461030667,1855
1394.4489469015557,1859
1396.5408845914872,1877
1398.6322743451592,1850
1400.7231164073469,1890
1402.813411022907,1846
1404.903158436773,1910
1406.9923588939578,1912
1409.0810126395531,1911
1411.1691199187303,1852
1413.2566809767386,1874
1415.343696058907,1934
1417.4301654106425,1884
1419.5160892774315,1935
1421.6014679048399,1905
1423.6863015385125,1926
1425.7705904241707,1897
1427.8543348076178,1832
1429.9375349347342,1878
1432.0201910514802,1843
1434.102303403894,1920
1436.1838722380944,1892
1438.2648978002767,1975
1440.3453803367174,1898
1442.4253200937692,1971
1444.5047173178677,1919
1446.5835722555234,2014
1448.6618851533285,1992
1450.739656257952,1992
1452.8168858161434,2021
1454.8935740747306,2041
1456.96972128062,2076
1459.045327680797,2025
1461.120393522327,2039
1463.1949190523528,2099
1465.2689045180973,2146
1467.3423501668608,2081
1469.415256246024,2095
1471.4876230030463,2086
1473.559450685465,2091
1475.6307395408976,2210
1477.7014898170391,2226
1479.771701761665,2220
1481.8413756226287,2154
1483.9105116478618,2238
1485.9791100853772,2273
1488.0471711832643,2183
1490.1146951896926,2293
1492.1816823529098,2285
1494.2481329212433,2335
1496.3140471430984,2344
1498.3794252669609,2317
1500.4442675413939,2247
1502.5085742150404,2324
1504.572345536622,2377
1506.6355817549388,2426
1508.6982831188702,2374
1510.7604498773744,2350
1512.8220822794883,2454
1514.8831805743293,2416
1516.9437450110909,2324
1519.003775839048,2375
1521.0632733075522,2380
1523.1222376660367,2498
1525.1806691640113,2396
1527.2385680510652,2582
1529.2959345768668,2436
1531.3527689911643,2418
1533.4090715437833,2509
1535.4648424846291,2491
1537.5200820636855,2503
1539.5747905310159,2584
1541.6289681367616,2648
1543.6826151311434,2644
1545.7357317644614,2673
1547.7883182870937,2631
1549.8403749494987,2736
1551.8919020022113,2799
1553.9428996958477,2873
1555.9933682811015,2859
1558.0433080087469,2882
1560.0927191296346,2974
1562.1416018946961,3018
1564.1899565549415,3032
1566.2377833614592,3082
1568.2850825654164,2935
1570.3318544180606,2910
1572.3780991707158,2968
1574.423817074788,2885
1576.4690083817595,2834
1578.5136733431923,2858
1580.5578122107272,2752
1582.601425236085,2667
1584.6445126710646,2555
1586.6870747675434,2506
1588.7291117774776,2478
1590.7706239529034,2400
1592.8116115459347,2343
1594.8520748087658,2323
1596.8920139936686,2287
1598.9314293529933,2205
1600.9703211391711,2150
1603.008689604711,2133
1605.0465350022005,2199
1607.0838575843068,2011
1609.1206576037753,2028
1611.1569353134305,2056
1613.1926909661765,2000
1615.2279248149953,1943
1617.2626371129481,1932
1619.2968281131757,1830
1621.3304980688963,1839
1623.3636472334088,1866
1625.39627586009,1924
1627.428384202396,1844
1629.459972513861,1815
1631.4910410480993,1731
1633.5215900588028,1830
1635.551619799744,1732
1637.5811305247717,1826
1639.6101224878166,1772
1641.6385959428862,1772
1643.6665511440683,1756
1645.693988345528,1739
1647.7209078015112,1685
1649.7473097663405,1677
1651.7731944944203,1731
1653.7985622402307,1688
1655.823413258333,1720
1657.847747803366,1740
1659.8715661300494,1741
1661.8948684931793,1712
1663.9176551476316,1666
1665.9399263483624,1738
1667.9616823504057,1697
1669.982923408873,1687
1672.0036497789574,1706
1674.0238617159293,1677
1676.043559475138,1661
1678.0627433120121,1707
1680.081413482059,1618
1682.0995702408654,1632
1684.117213844096,1636
1686.134344547495,1699
1688.1509626068864,1610
1690.1670682781705,1672
1692.182661817329,1657
1694.1977434804217,1705
1696.2123135235875,1615
1698.226372203043,1681
1700.2399197750851,1634
1702.2529564960905,1680
1704.2654826225112,1610
1706.277498410882,1670
1708.2890041178139,1650
1710.2999999999988,1656
1712.3104863142066,1681
1714.3204633172854,1672
1716.329931266163,1649
1718.3388904178469,1634
1720.3473410294214,1665
1722.3552833580516,1676
1724.3627176609807,1677
1726.3696441955308,1613
1728.3760632191033,1638
1730.3819749891782,1662
1732.3873797633146,1647
1734.3922777991502,1605
1736.3966693544012,1638
1738.4005546868639,1629
1740.4039340544127,1604
1742.406807715001,1657
1744.4091759266616,1566
1746.4110389475054,1647
1748.4123970357223,1694
1750.413250449582,1611
1752.4135994474318,1625
1754.4134442876993,1618
1756.4127852288902,1618
1758.4116225295893,1617
1760.4099564484595,1586
1762.407787244244,1573
1764.405115175764,1650
1766.4019405019203,1678
1768.3982634816916,1637
1770.3940843741357,1683
1772.3894034383907,1608
1774.3842209336717,1602
1776.378537119274,1664
1778.372352254571,1625
1780.3656665990156,1594
1782.3584804121397,1579
1784.3507939535534,1653
1786.3426074829463,1607
1788.3339212600863,1613
1790.3247355448211,1634
1792.3150505970766,1540
1794.3048666768573,1629
1796.2941840442477,1606
1798.2830029594106,1587
1800.2713236825884,1576
1802.2591464741004,1635
1804.2464715943465,1547
1806.2332993038058,1544
1808.2196298630352,1640
1810.2054635326708,1580
1812.190800573428,1603
1814.175641246101,1541
1816.1599858115628,1612
1818.1438345307652,1606
1820.127187664738,1626
1822.1100454745924,1514
1824.092408221516,1590
1826.0742761667766,1600
1828.055649571721,1606
1830.0365286977735,1546
1832.0169138064398,1563
1833.9968051593014,1590
1835.9762030180214,1590
1837.9551076443408,1583
1839.9335193000788,1527
1841.9114382471344,1609
1843.888864747485,1550
1845.8657990631878,1528
1847.842241456378,1596
1849.8181921892697,1583
1851.7936515241558,1530
1853.7686197234098,1547
1855.7430970494815,1565
1857.7170837649014,1506
1859.6905801322787,1568
1861.6635864143004,1556
1863.6361028737338,1564
1865.608129773424,1571
1867.5796673762961,1551
1869.5507159453537,1649
1871.521275743678,1577
1873.4913470344313,1601
1875.4609300808534,1611
1877.4300251462632,1585
1879.3986324940588,1619
1881.366752387717,1631
1883.3343850907936,1626
1885.3015308669228,1646
1887.268189979819,1629
1889.2343626932739,1677
1891.2000492711595,1571
1893.1652499774254,1582
1895.1299650761011,1567
1897.0941948312952,1602
1899.0579395071945,1616
1901.0211993680641,1660
1902.98397467825,1663
1904.9462657021745,1603
1906.9080727043415,1623
1908.869395949332,1625
1910.8302357018065,1562
1912.790592226504,1561
1914.7504657882428,1626
1916.7098566519212,1542
1918.6687650825133,1554
1920.6271913450764,1616
1922.5851357047422,1581
1924.5425984267245,1561
1926.499579776314,1563
1928.4560800188833,1569
1930.4120994198802,1643
1932.367638244833,1555
1934.32269675935,1551
1936.2772752291175,1622
1938.231373919899,1641
1940.1849930975404,1658
1942.1381330279637,1577
1944.0907939771696,1568
1946.0429762112412,1617
1947.9946799963363,1575
1949.9459055986945,1593
1951.896653284633,1567
1953.8469233205478,1528
1955.7967159729142,1542
1957.7460315082863,1576
1959.6948701932974,1638
1961.6432322946594,1528
1963.5911180791632,1573
1965.5385278136787,1606
1967.4854617651545,1590
1969.4319202006182,1562
1971.377903387176,1591
1973.3234115920136,1544
1975.268445082395,1595
1977.2130041256642,1601
1979.1570889892423,1541
1981.1006999406304,1591
1983.04383724741,1503
1984.986501177238,1568
1986.928691997853,1532
1988.8704099770712,1565
1990.811655382789,1528
1992.7524284829801,1591
1994.692729545698,1575
1996.6325588390755,1539
1998.5719166313224,1575
2000.5108031907307,1540
2002.4492187856677,1570
2004.387163684583,1577
2006.3246381560011,1535
2008.2616424685298,1511
2010.1981768908527,1521
2012.1342416917332,1558
2014.069837140014,1528
2016.0049635046162,1543
2017.9396210545406,1519
2019.8738100588666,1582
2021.8075307867502,1539
2023.740783507431,1539
2025.6735684902228,1589
2027.6058860045214,1518
2029.5377363198004,1547
2031.4691197056118,1529
2033.4000364315875,1506
2035.3304867674374,1547
2037.260470982952,1492
2039.189989347998,1562
2041.1190421325232,1570
2043.047629606554,1521
2044.9757520401945,1490
2046.9034097036288,1570
2048.8306028671195,1491
2050.7573318010086,1524
2052.683596775716,1581
2054.609398061742,1530
2056.5347359296647,1542
2058.4596106501403,1583
2060.384022493906,1554
2062.3079717317764,1531
2064.231458634646,1565
2066.1544834734873,1640
2068.077046519352,1619
2069.99914804337,1555
2071.9207883167524,1548
2073.8419676107865,1556
2075.7626861968406,1485
2077.6829443463607,1578
2079.6027423308715,1527
2081.522080421977,1534
2083.440958891362,1505
2085.359378010786,1510
2087.2773380520907,1558
2089.194839287196,1487
2091.111881988101,1544
2093.0284664268825,1514
2094.9445928756973,1496
2096.86026160678,1561
2098.775472892446,1528
2100.690227005088,1493
2102.604524217178,1464
2104.5183648012676,1519
2106.431749029985,1551
2108.34467717604,1506
2110.2571495122206,1525
2112.169166311393,1587
2114.080727846503,1555
2115.9918343905747,1544
2117.902486216711,1477
2119.8126835980956,1487
2121.722426807987,1519
2123.6317161197285,1587
2125.5405518067364,1537
2127.448934142509,1552
2129.356863400624,1529
2131.264339854737,1578
2133.1713637785815,1474
2135.077935445972,1583
2136.9840551308002,1483
2138.889723107037,1605
2140.7949396487334,1542
2142.699705030018,1598
2144.6040195250994,1575
2146.507883408264,1484
2148.4112969538774,1545
2150.3142604363848,1566
2152.2167741303097,1594
2154.1188383102535,1578
2156.0204532508997,1553
2157.9216192270064,1560
2159.822336513414,1542
2161.7226053850413,1495
2163.622426116884,1571
2165.5217989840185,1611
2167.4207242616,1527
2169.319202224862,1553
2171.2172331491165,1544
2173.1148173097563,1578
2175.0119549822507,1550
2176.90864644215,1544
2178.8048919650823,1575
2180.7006918267534,1494
2182.596046302952,1575
2184.4909556695407,1574
2186.3854202024645,1573
2188.279440177746,1577
2190.173015871487,1514
2192.066147559868,1515
2193.958835519149,1546
2195.851080025667,1590
2197.7428813558417,1550
2199.6342397861667,1555
2201.5251555932186,1509
2203.415629053651,1587
2205.3056604441986,1619
2207.19525004167,1549
2209.084398122958,1623
2210.9731049650327,1637
2212.861370844941,1600
2214.749196039812,1526
2216.636580826851,1514
2218.523525483344,1578
2220.410030286655,1587
2222.296095514226,1558
2224.1817214435805,1560
2226.066908352319,1551
2227.951656518121,1547
2229.835966218746,1556
2231.71983773203,1580
2233.6032713358913,1573
2235.486267308324,1579
2237.3688259274036,1568
2239.2509474712824,1587
2241.132632218193,1570
2243.013880446447,1551
2244.8946924344323,1614
2246.7750684606203,1616
2248.6550088035574,1572
2250.534513741871,1522
2252.413583554265,1627
2254.292218519526,1617
2256.170418916517,1544
2258.0481850241786,1629
2259.925517121534,1601
2261.8024154876825,1619
2263.678880401803,1615
2265.5549121431536,1634
2267.430510991071,1608
2269.305677224971,1604
2271.180411124348,1568
2273.0547129687766,1597
2274.9285830379076,1622
2276.8020216114737,1583
2278.6750289692845,1653
2280.5476053912294,1576
2282.4197511572766,1552
2284.2914665474727,1603
2286.162751841943,1596
2288.0336073208937,1614
2289.904033264608,1608
2291.774029953448,1582
2293.6435976678554,1599
2295.5127366883517,1584
2297.381447295534,1569
2299.2497297700825,1548
2301.1175843927526,1578
2302.9850114443825,1542
2304.852011205885,1586
2306.7185839582553,1547
2308.5847299825664,1488
2310.4504495599676,1549
2312.3157429716925,1504
2314.1806104990483,1459
2316.0450524234247,1507
2317.9090690262888,1487
2319.772660589186,1561
2321.635827393742,1491
2323.498569721661,1539
2325.3608878547248,1503
2327.2227820747967,1558
2329.0842526638157,1484
2330.945299903803,1476
2332.805924076857,1506
2334.6661254651535,1510
2336.525904350951,1563
2338.3852610165827,1519
2340.244195744464,1534
2342.102708817088,1522
2343.9608005170253,1486
2345.8184711269287,1455
2347.675720929526,1520
2349.532550207628,1495
2351.38895924412,1534
2353.24494832197,1594
2355.100517724223,1477
2356.955667734004,1496
2358.810398634514,1502
2360.664710709037,1505
2362.5186042409337,1529
2364.3720795136437,1477
2366.225136810686,1552
2368.0777764156583,1524
2369.929998612237,1515
2371.7818036841777,1546
2373.633191915315,1565
2375.484163589562,1530
2377.3347189909114,1520
2379.184858403434,1470
2381.03458211128,1518
2382.8838903986775,1455
2384.732783549936,1561
2386.5812618494406,1532
2388.4293255816588,1542
2390.2769750311327,1504
2392.1242104824883,1534
2393.971032220427,1624
2395.8174405297295,1520
2397.6634356952563,1566
2399.509018001947,1551
2401.3541877348193,1540
2403.1989451789705,1556
2405.043290619576,1515
2406.8872243418905,1542
2408.730746631247,1546
2410.5738577730594,1555
2412.4165580528183,1544
2414.258847756095,1549
2416.100727168537,1524
2417.9421965758734,1599
2419.783256263912,1586
2421.623906518538,1562
2423.4641476257157,1572
2425.303979871491,1539
2427.143403541984,1603
2428.9824189233977,1605
2430.821026302012,1509
2432.6592259641866,1542
2434.497018196361,1584
2436.33440328505,1492
2438.171381516851,1648
2440.00795317844,1547
2441.844118556569,1578
2443.6798779380724,1571
2445.5152316098606,1555
2447.3501798589255,1589
2449.1847229723357,1590
2451.0188612372403,1564
2452.8525949408663,1593
2454.6859243705203,1562
2456.518849813587,1571
2458.3513715575314,1601
2460.183489889895,1602
2462.015205098301,1585
2463.8465174704493,1599
2465.67742729412,1520
2467.5079348571717,1616
2469.338040447542,1586
2471.1677443532476,1563
2472.9970468623833,1593
2474.825948263123,1590
2476.6544488437207,1602
2478.482548892508,1538
2480.310248697896,1602
2482.137548548374,1624
2483.9644487325118,1582
2485.790949538956,1551
2487.617051256433,1644
2489.44275417375,1537
2491.26805857979,1562
2493.0929647635157,1586
2494.917473013971,1572
2496.741583620276,1607
2498.5652968716304,1586
2500.3886130573137,1623
2502.2115324666834,1591
2504.0340553891765,1600
2505.856182114308,1623
2507.6779129316733,1564
2509.499248130945,1577
2511.3201880018764,1594
2513.140732834298,1609
2514.9608829181198,1617
2516.780638543331,1627
2518.6,1610
2520.418967578273,1570
2522.237541568376,1580
2524.0557222606144,1616
2525.8735099453706,1606
2527.6909049131086,1570
2529.507907454368,1594
2531.32451785977,1647
2533.140736420014,1608
2534.9565634258774,1643
2536.771999168218,1650
2538.5870439379714,1637
2540.4016980261526,1673
2542.2159617238544,1671
2544.02983532225,1648
2545.8433191125914,1664
2547.656413386209,1722
2549.4691184345115,1707
2551.2814345489874,1667
2553.093362021204,1651
2554.904901142808,1741
2556.716052205523,1682
2558.526815501153,1674
2560.3371913215824,1721
2562.147179958771,1779
2563.956781704761,1669
2565.7659968516705,1769
2567.5748256916986,1763
2569.3832685171224,1748
2571.1913256202984,1676
2572.9989972936614,1741
2574.806283829725,1792
2576.613185521084,1765
2578.4197026604074,1769
2580.2258355404483,1734
2582.031584454035,1766
2583.836949694077,1802
2585.6419315535613,1773
2587.4465303255533,1767
2589.2507463032002,1850
2591.0545797797245,1739
2592.8580310484303,1863
2594.6611004026995,1819
2596.463788135992,1764
2598.266094541849,1744
2600.0680199138874,1772
2601.869564545807,1804
2603.670728731383,1798
2605.4715127644704,1766
2607.2719169390048,1787
2609.071941548998,1777
2610.8715868885433,1843
2612.670853251811,1846
2614.469740933052,1714
2616.268250226594,1818
2618.0663814268455,1769
2619.864134828292,1764
2621.6615107255006,1846
2623.458509413115,1740
2625.2551311858597,1735
2627.0513763385347,1743
2628.8472451660223,1699
2630.6427379632833,1772
2632.4378550253564,1724
2634.232596647359,1729
2636.026963124488,1691
2637.8209547520187,1731
2639.6145718253065,1711
2641.407814639785,1793
2643.200683490966,1682
2644.9931786744414,1693
2646.7853004858807,1688
2648.577049221034,1728
2650.3684251757277,1683
2652.1594286458712,1675
2653.9500599274484,1710
2655.740319316525,1642
2657.5302071092437,1710
2659.3197236018286,1693
2661.10886909058,1630
2662.8976438718782,1660
2664.686048242183,1707
2666.4740824980327,1723
2668.2617469360443,1625
2670.0490418529134,1680
2671.8359675454153,1668
2673.622524310403,1617
2675.408712444811,1646
2677.1945322456495,1647
2678.979984010009,1651
2680.76506803506,1689
2682.5497846180497,1685
2684.334134056306,1612
2686.1181166472343,1589
2687.9017326883213,1567
2689.6849824771293,1640
2691.4678663113013,1655
2693.2503844885596,1619
2695.032537306705,1626
2696.8143250636167,1580
2698.5957480572542,1630
2700.3768065856534,1609
2702.1575009469316,1592
2703.937831439283,1596
2705.717798360982,1572
2707.4974020103837,1620
2709.276642685917,1602
2711.055520686095,1596
2712.834036309506,1581
2714.612189854819,1635
2716.389981620782,1626
2718.1674119062204,1571
2719.944481010041,1615
2721.721189231226,1594
2723.4975368688415,1627
2725.273524222027,1639
2727.0491515900053,1558
2728.824419272075,1569
2730.5993275676146,1556
2732.3738767760838,1538
2734.148067197016,1601
2735.921899130031,1560
2737.6953728748194,1538
2739.468488731156,1585
2741.2412469988926,1573
2743.0136479779617,1527
2744.785691968372,1526
2746.5573792702116,1604
2748.3287101836504,1536
2750.099685008934,1572
2751.870304046388,1541
2753.640567596418,1578
2755.4104759595057,1542
2757.1800294362156,1597
2758.949228327187,1565
2760.7180729331412,1588
2762.486563554877,1548
2764.254700493272,1578
2766.022484049284,1578
2767.789914523947,1545
2769.5569922183786,1582
2771.3237174337705,1511
2773.090090471394,1554
2774.8561116326036,1527
2776.6217812188274,1585
2778.3870995315756,1576
2780.1520668724356,1570
2781.9166835430747,1565
2783.6809498452394,1543
2785.444866080754,1546
2787.2084325515225,1600
2788.971649559527,1641
2790.73451740683,1582
2792.4970363955713,1548
2794.2592068279705,1630
2796.0210290063264,1586
2797.7825032330147,1562
2799.543629810493,1603
2801.304409041296,1508
2803.0648412280366,1542
2804.8249266734088,1576
2806.5846656801846,1596
2808.344058551212,1575
2810.1031055894246,1578
2811.8618070978273,1558
2813.6201633795085,1585
2815.378174737636,1554
2817.1358414754536,1551
2818.893163896285,1593
2820.6501423035334,1592
2822.4067770006814,1578
2824.1630682912883,1531
2825.9190164789957,1565
2827.6746218675207,1588
2829.429884760661,1552
2831.184805462294,1616
2832.9393842763743,1573
2834.693621506936,1642
2836.4475174580916,1586
2838.201072434034,1581
2839.954286739034,1551
2841.707160677441,1603
2843.459694553685,1590
2845.2118886722724,1585
2846.96374333779,1577
2848.7152588549034,1587
2850.4664355283567,1597
2852.217273662973,1596
2853.9677735636546,1539
2855.7179355353833,1595
2857.4677598832186,1559
2859.217246912299,1593
2860.9663969278427,1555
2862.715210235146,1607
2864.4636871395846,1638
2866.211827946614,1582
2867.9596329617652,1551
2869.7071024906536,1597
2871.4542368389684,1596
2873.20103631248,1591
2874.947501217038,1580
2876.6936318585695,1592
2878.4394285430812,1591
2880.1848915766604,1599
2881.9300212654707,1539
2883.6748179157553,1555
2885.4192818338374,1514
2887.1634133261173,1569
2888.907212699077,1577
2890.6506802592744,1513
2892.393816313348,1551
2894.1366211680142,1526
2895.8790951300693,1568
2897.621238506388,1592
2899.363051603925,1519
2901.1045347297118,1471
2902.8456881908596,1536
2904.58651229456,1553
2906.327007348081,1550
2908.067173658772,1606
2909.8070115340597,1554
2911.5465212814497,1605
2913.285703208527,1530
2915.0245576229563,1596
2916.7630848324807,1509
2918.5012851449196,1537
2920.2391588681758,1545
2921.976706310227,1551
2923.7139277791334,1566
2925.4508235830313,1588
2927.187394030137,1590
2928.923639428745,1568
2930.6595600872306,1601
2932.395156314046,1569
2934.1304284177218,1570
2935.8653767068713,1580
2937.6000014901815,1545
2939.3343030764227,1579
2941.068281774442,1593
2942.8019378931644,1573
2944.5352717415976,1574
2946.2682836288236,1549
2948.0009738640065,1547
2949.7333427563885,1551
2951.465390615289,1551
2953.1971177501086,1568
2954.9285244703265,1579
2956.6596110855,1554
2958.3903779052657,1552
2960.1208252393385,1513
2961.8509533975125,1501
2963.5807626896617,1563
2965.3102534257378,1512
2967.0394259157715,1564
2968.768280469873,1569
2970.496817398232,1527
2972.2250370111146,1536
2973.952939618869,1551
2975.6805255319196,1552
2977.4077950607707,1539
2979.134748516006,1575
2980.861386208289,1545
2982.587708448359,1557
2984.313715547037,1578
2986.039407815222,1577
2987.764785563891,1543
2989.489849104102,1562
2991.2145987469908,1592
2992.9390348037705,1593
2994.6631575857346,1554
2996.3869674042576,1514
2998.1104645707887,1548
2999.83364939686,1514
3001.5565221940783,1534
3003.2790832741334,1503
3005.0013329487924,1561
3006.7232715298996,1509
3008.4448993293804,1527
3010.166216659239,1569
3011.887223831558,1574
3013.607921158498,1597
3015.3283089522993,1553
3017.0483875252826,1591
3018.7681571898443,1525
3020.4876182584626,1527
3022.2067710436927,1608
3023.9256158581707,1541
3025.644153014609,1625
3027.362382825801,1510
3029.0803056046193,1565
3030.797921664012,1558
3032.5152313170106,1482
3034.2322348767225,1531
3035.9489326563353,1549
3037.665324969115,1497
3039.3814121284063,1550
3041.097194447633,1552
3042.812672240299,1548
3044.5278458199855,1515
3046.2427155003525,1615
3047.9572815951406,1533
3049.671544418167,1579
3051.38550428333,1598
3053.0991615046073,1533
3054.812516396051,1540
3056.5255692717974,1529
3058.2383204460575,1585
3059.9507702331257,1552
3061.662918947372,1605
3063.3747669032446,1532
3065.0863144152736,1578
3066.7975617980674,1530
3068.508509366309,1570
3070.219157434767,1512
3071.9295063182844,1536
3073.639556331785,1541
3075.3493077902704,1546
3077.058761008821,1579
3078.7679163025964,1541
3080.476773986837,1506
3082.1853343768594,1544
3083.89359778806,1538
3085.6015645359153,1619
3087.3092349359786,1600
3089.016609303884,1633
3090.7236879553434,1575
3092.4304712061476,1587
3094.136959372166,1594
3095.843152769349,1573
3097.5490517137237,1565
3099.2546565213966,1542
3100.959967508554,1585
3102.66498499146,1494
3104.3697092864577,1551
3106.0741407099695,1546
3107.778279578498,1581
3109.482126208622,1594
3111.1856809170004,1535
3112.8889440203716,1574
3114.5919158355528,1546
3116.294596679439,1582
3117.996986869006,1515
3119.6990867213062,1632
3121.4008965534726,1607
3123.102416682717,1605
3124.803647426329,1577
3126.5045891016784,1633
3128.205242026213,1570
3129.90560651746,1605
3131.605682893025,1587
3133.3054714705922,1602
3135.0049725679282,1622
3136.7041865028714,1583
3138.4031135933465,1603
3140.101754157353,1596
3141.800108512971,1569
3143.498176978357,1580
3145.1959598717494,1542
3146.8934575114636,1558
3148.5906702158954,1531
3150.2875983035183,1562
3151.9842420928853,1513
3153.680601902627,1597
3155.376678051456,1546
3157.07247085816,1547
3158.767980641609,1591
3160.463207720748,1521
3162.158152414606,1563
3163.8528150422862,1542
3165.5471959229726,1581
3167.2412953759303,1564
3168.9351137204976,1547
3170.628651276098,1580
3172.3219083622307,1592
3174.014885298474,1640
3175.707582404485,1552
3177.4000000000005,1579
3179.092138404835,1538
3180.7839979388846,1556
3182.47557892212,1551
3184.166881674594,1590
3185.8579065164386,1563
3187.5486537678626,1607
3189.2391237491547,1585
3190.9293167806827,1550
3192.6192331828934,1594
3194.3088732763117,1585
3195.998237381542,1546
3197.687325819268,1585
3199.376138910251,1609
3201.064676975334,1609
3202.7529403354347,1608
3204.4409293115523,1616
3206.1286442247647,1541
3207.816085396229,1532
3209.5032531471825,1597
3211.190147798936,1572
3212.8767696728846,1506
3214.5631190905015,1563
3216.2491963733373,1508
3217.9350018430214,1509
3219.6205358212637,1555
3221.305798629851,1481
3222.990790590651,1560
3224.6755120256103,1580
3226.359963256751,1482
3228.0441446061795,1543
3229.7280563960758,1589
3231.411698948703,1565
3233.0950725863995,1593
3234.778177631587,1521
3236.461014406761,1591
3238.1435832345005,1570
3239.8258844374595,1549
3241.507918338374,1567
3243.1896852600576,1565
3244.8711855254023,1612
3246.552419457381,1594
3248.233387379042,1551
3249.914089613516,1581
3251.59452648401,1565
3253.274698313813,1610
3254.95460542629,1575
3256.6342481448855,1562
3258.313626793125,1534
3259.9927416946084,1582
3261.6715931730196,1530
3263.3501815521176,1509
3265.0285071557437,1535
3266.706570307815,1502
3268.3843713323286,1514
3270.0619105533615,1549
3271.739188295068,1581
3273.4162048816834,1540
3275.0929606375184,1535
3276.769455886966,1654
3278.445690954498,1607
3280.1216661646613,1551
3281.797381842087,1606
3283.4728383114807,1599
3285.1480358976296,1612
3286.8229749253996,1558
3288.4976557197333,1595
3290.172078605655,1532
3291.846243908266,1559
3293.5201519527463,1507
3295.193803064357,1596
3296.8671975684374,1560
3298.5403357904024,1573
3300.21321805575,1554
3301.8858446900567,1524
3303.558216018975,1567
3305.23033236824,1647
3306.9021940636603,1521
3308.57380143113,1588
3310.2451547966184,1581
3311.916254486174,1570
3313.5871008259246,1567
3315.2576941420766,1582
3316.9280347609147,1558
3318.5981230088046,1519
3320.2679592121895,1525
3321.9375436975924,1585
3323.606876791612,1566
3325.27595882093,1519
3326.944790112305,1546
3328.6133709925753,1568
3330.2817017886573,1481
3331.949782827547,1564
3333.617614436319,1527
3335.2851969421245,1551
3336.952530672199,1548
3338.619615953853,1569
3340.286453114475,1555
3341.9530424815357,1536
3343.619384382583,1529
3345.2854791452437,1583
3346.951327097224,1580
3348.6169285663073,1533
3350.2822838803577,1600
3351.947393367319,1584
3353.61225735521,1584
3355.2768761721345,1623
3356.9412501462693,1556
3358.605379605873,1523
3360.2692648792827,1558
3361.9329062949146,1560
3363.596304181263,1533
