CollectionTime,9/20/2024 11:21:47 AM
ExposureUsed,3
CalibratedSpectrum
-962.7078968117929,595
-959.9714848408522,655
-957.2358232597828,598
-954.5009119013725,608
-951.7667505983302,642
-949.0333391832855,652
-946.3006774887896,634
-943.5687653473143,634
-940.837602591253,636
-938.1071890529199,614
-935.3775245645503,598
-932.6486089583007,654
-929.9204420662485,645
-927.1930237203925,620
-924.4663537526524,631
-921.7404319948689,657
-919.0152582788041,619
-916.2908324361409,612
-913.5671542984834,586
-910.8442236973568,589
-908.1220404642074,606
-905.4006044304027,603
-902.679915427231,552
-899.959973285902,605
-897.2407778375464,590
-894.5223289132158,615
-891.8046263438832,605
-889.0876699604426,645
-886.3714595937089,613
-883.6559950744183,601
-880.9412762332282,595
-878.2273029007168,640
-875.5140749073835,634
-872.8015920836489,600
-870.0898542598545,607
-867.3788612662631,594
-864.6686129330585,633
-861.9591090903457,619
-859.2503495681506,624
-856.5423341964203,615
-853.8350628050229,634
-851.1285352237478,646
-848.4227512823054,633
-845.7177108103272,628
-843.0134136373656,649
-840.3098595928943,638
-837.6070485063082,641
-834.9049802069229,622
-832.2036545239757,617
-829.5030712866244,667
-826.8032303239481,627
-824.1041314649472,643
-821.4057745385428,618
-818.7081593735775,634
-816.0112857988148,679
-813.3151536429393,623
-810.6197627345566,630
-807.9251129021936,620
-805.2312039742981,612
-802.5380357792392,639
-799.8456081453069,687
-797.1539209007124,652
-794.462973873588,633
-791.772766891987,671
-789.083299783884,655
-786.3945723771743,649
-783.7065844996748,602
-781.0193359791231,627
-778.3328266431781,662
-775.6470563194197,634
-772.9620248353489,637
-770.2777320183878,653
-767.5941776958798,658
-764.9113616950891,696
-762.2292838432011,664
-759.5479439673222,626
-756.8673418944801,617
-754.1874774516235,634
-751.5083504656222,652
-748.8299607632671,676
-746.15230817127,680
-743.475392516264,665
-740.7992136248035,650
-738.1237713233636,667
-735.4490654383407,658
-732.7750957960521,660
-730.1018622227365,669
-727.4293645445534,700
-724.7576025875837,641
-722.0865761778291,633
-719.4162851412126,662
-716.7467293035781,709
-714.0779084906909,661
-711.409822528237,661
-708.7424712418238,701
-706.0758544569796,694
-703.4099719991541,725
-700.7448236937178,704
-698.0804093659622,687
-695.4167288411002,668
-692.7537819442656,686
-690.0915685005134,692
-687.4300883348199,695
-684.7693412720819,676
-682.1093271371178,752
-679.4500457546669,687
-676.7914969493897,677
-674.1336805458676,719
-671.4765963686034,720
-668.8202442420206,714
-666.1646239904642,715
-663.5097354382001,703
-660.8555784094151,678
-658.2021527282176,689
-655.5494582186366,707
-652.8974947046223,730
-650.2462620100463,742
-647.5957599587009,728
-644.9459883742998,718
-642.2969470804776,713
-639.6486359007902,769
-637.0010546587141,718
-634.3542031776476,792
-631.7080812809096,748
-629.0626887917401,714
-626.4180255333008,733
-623.7740913286734,769
-621.1308860008619,757
-618.4884093727904,746
-615.8466612673046,714
-613.2056415071715,722
-610.5653499150785,742
-607.9257863136347,779
-605.28695052537,808
-602.6488423727357,742
-600.0114616781036,702
-597.3748082637674,722
-594.7388819519412,781
-592.1036825647604,781
-589.4692099242818,769
-586.8354638524829,757
-584.2024441712624,783
-581.5701507024403,761
-578.9385832677575,769
-576.3077416888759,789
-573.6776257873787,736
-571.0482353847704,788
-568.4195703024757,820
-565.7916303618415,761
-563.164415384135,758
-560.5379251905453,799
-557.9121596021815,819
-555.2871184400748,774
-552.6628015251767,816
-550.0392086783606,807
-547.4163397204204,783
-544.794194472071,790
-542.1727727539491,793
-539.5520743866118,829
-536.9320991905377,847
-534.3128469861261,892
-531.6943175936979,831
-529.0765108334947,864
-526.4594265256793,871
-523.8430644903358,1026
-521.2274245474689,1089
-518.612506517005,1175
-515.9983102187913,1194
-513.3848354725959,1229
-510.77208209810846,1285
-508.16004991493924,1417
-505.5487387426199,1385
-502.9381484006032,1382
-500.3282787082628,1374
-497.71912948489364,1348
-495.1107005497117,1281
-492.5029917218539,1136
-489.8960028203786,976
-487.28973366426493,932
-484.68418407241325,901
-482.07935386364494,855
-479.47524285670266,877
-476.87185087025,876
-474.2691777228715,943
-471.66722323307334,928
-469.0659872192821,942
-466.4654694998459,930
-463.86566989303384,918
-461.26658821703614,893
-458.66822428996414,931
-456.07057792985,980
-453.4736489546475,925
-450.877437182231,939
-448.28194243039627,918
-445.68716451686,900
-443.09310325926003,927
-440.49975847515555,930
-437.9071299820263,918
-435.31521759727354,938
-432.72402113821954,859
-430.13354042210767,906
-427.5437752661022,894
-424.95472548728867,976
-422.36639090267386,932
-419.7787713291855,920
-417.1918665836721,991
-414.60567648290385,989
-412.0202008435715,982
-409.4354394822874,1014
-406.8513922155845,953
-404.26805885991723,987
-401.685439231661,1008
-399.103533147112,997
-396.522340422488,1003
-393.9418608739278,923
-391.3620943174908,986
-388.7830405691583,931
-386.2046994448317,947
-383.6270707603344,899
-381.05015433141045,843
-378.473949973725,785
-375.8984575028645,780
-373.32367673433623,694
-370.74960748356875,653
-368.1762495659117,614
-365.60360279663576,610
-363.03166699093265,559
-360.4604419639154,558
-357.8899275306178,538
-355.32012350599507,530
-352.7510297049233,494
-350.1826459421999,507
-347.61497203254316,482
-345.04800779059235,463
-342.4817530309082,475
-339.91620756797226,518
-337.35137121618743,518
-334.7872437898774,485
-332.22382510328725,453
-329.66111497058273,444
-327.09911320585127,472
-324.53781962310075,491
-321.9772340362607,522
-319.4173562591816,521
-316.8581861056348,506
-314.2997233893127,496
-311.7419679238294,494
-309.1849195227194,528
-306.62857799943856,528
-304.0729431673641,575
-301.51801483979375,475
-298.963792829947,519
-296.41027695096386,590
-293.85746701590574,581
-291.3053628377552,534
-288.7539642294155,551
-286.2032710037115,527
-283.65328297338897,550
-281.1039999511146,627
-278.5554217494762,717
-276.007548180983,707
-273.4603790580651,635
-270.9139141930734,628
-268.3681533982807,704
-265.8230964858798,747
-263.27874326798565,853
-260.7350935566336,794
-258.1921471637804,822
-255.6499039013039,865
-253.10836358100266,881
-250.56752601459698,731
-248.02739101372765,768
-245.48795838995704,683
-242.94922795476816,764
-240.41119951956557,778
-237.8738728956746,751
-235.33724789434166,771
-232.80132432673452,686
-230.2661020039418,674
-227.73158073697357,723
-225.19776033676033,770
-222.66464061415422,780
-220.1322213799284,726
-217.60050244477725,678
-215.06948361931552,738
-212.53916471408013,890
-210.00954553952818,814
-207.48062590603843,741
-204.9524056239104,744
-202.4248845033651,769
-199.8980623545441,852
-197.37193898751036,883
-194.84651421224817,844
-192.32178783866232,796
-189.79775967657952,915
-187.27442953574644,918
-184.7517972258321,894
-182.2298625564256,895
-179.7086253370378,844
-177.18808537710026,771
-174.66824248596583,931
-172.14909647290835,1027
-169.6306471471229,1075
-167.11289431772548,1099
-164.59583779375328,1008
-162.07947738416453,1102
-159.5638128978386,1309
-157.04884414357605,1532
-154.53457093009854,1517
-152.02099306604828,1166
-149.50811035998936,1289
-146.99592262040665,1454
-144.48442965570587,1530
-141.97363127421409,1463
-139.46352728417958,1536
-136.95411749377126,1473
-134.44540171107985,1386
-131.93737974411636,1267
-129.43005140081357,1244
-126.92341648902493,1503
-124.41747481652521,1805
-121.91222619101006,2243
-119.40767042009657,2553
-116.90380731132257,2439
-114.40063667214702,2859
-111.8981583099503,3161
-109.3963720320337,3652
-106.89527764561933,4342
-104.39487495785067,5448
-101.89516377579241,8175
-99.39614390642998,13178
-96.89781515667039,17717
-94.40017733334128,17450
-91.90323024319173,14276
-89.40697369289148,10258
-86.91140748903172,5789
-84.41653143812482,3845
-81.92234534660395,5361
-79.42884902082358,9683
-76.93604226705907,14783
-74.4439248915071,19070
-71.95249670028534,20682
-69.46175749943245,18600
-66.97170709490854,13250
-64.48234529259423,9103
-61.99367189829195,7380
-59.50568671772464,7322
-57.01838955653636,5437
-54.53178022029283,5800
-52.045858514480074,7061
-49.560624244506016,8201
-47.07607721569923,8243
-44.59221723330904,8914
-42.10904410250669,11311
-39.62655762838392,13714
-37.14475761595372,14576
-34.66364387015028,18298
-32.18321619582866,24040
-29.70347439776515,28710
-27.224418280657005,35349
-24.74604764912317,41587
-22.26836230770266,47011
-19.7913620608565,63484
-17.315046712966478,65038
-14.83941606833514,65038
-12.36446993118659,65038
-9.89020810566592,65038
-7.416630395839093,65038
-4.94373660569363,65038
-2.471526539137585,65038
-6.821210263296962E-13,65038
2.47084320796705,65038
4.941003281093458,65038
7.410480415786196,65038
9.879274808531363,65038
12.347386655893956,65038
14.814816154518212,65038
17.28156350112681,65038
19.74762889252179,65038
22.21301252558385,65038
24.67771459727237,21399
27.141735304626195,5748
29.605074844762612,5213
32.06773341487792,4131
34.52971121224755,4351
36.99100843422559,4256
39.45162527824516,3337
41.91156194181792,3205
44.370818622535126,3001
46.82939551806646,3306
49.287292826160524,4156
51.74451074464503,3426
54.201049471426245,2196
56.65690920448981,1964
59.112090141899785,2237
61.56659248179983,2624
64.02041642241159,2783
66.4735621620365,2586
68.92602989905402,2400
71.37781983192338,2800
73.82893215918205,2369
76.27936707944684,1946
78.72912479141326,1780
81.17820549385567,1950
83.62660938562783,2106
86.07433666566146,1691
88.5213875329681,1447
90.96776218663751,1687
93.41346082583925,2033
95.85848364982041,2244
98.30283085790859,2186
100.7465026495089,1990
103.18949922410604,1681
105.63182078126385,1268
108.07346752062438,1459
110.51443964190923,1711
112.95473734491827,1784
115.39436082953114,1462
117.83331029570547,1366
120.27158594347827,1494
122.7091879729652,1447
125.1461165843615,1655
127.58237197794062,1914
130.01795435405518,1864
132.4528639131364,1580
134.88710085569494,1390
137.32066538231982,1586
139.75355769367923,1561
142.1857779905207,1167
144.61732647366978,1063
147.04820334403132,1180
149.47840880258934,1312
151.90794305040674,1242
154.33680628862487,1280
156.76499871846443,1338
159.19252054122433,1478
161.61937195828352,1448
164.04555317109896,1538
166.47106438120693,1741
168.89590579022217,1818
171.320077599839,2008
173.7435800118302,2259
176.16641322804742,2340
178.58857745042144,2196
181.01007288096173,2269
183.43089972175687,2141
185.85105817497413,2164
188.27054844285988,2126
190.6893707277394,2118
193.10752523201643,2188
195.5250121581745,2329
197.9418317087751,2321
200.3579840864594,2409
202.7734694939469,2504
205.18828813403627,2552
207.6024402096051,2425
210.01592592360964,2440
212.42874547908548,2381
214.84089907914665,2541
217.2523869269868,2445
219.66320922587727,2353
222.0733661791695,2299
224.48285799029293,2414
226.8916848627572,2565
229.29984700014882,2497
231.7073446061355,2537
234.11417788446204,2474
236.520347038953,2616
238.92585227351185,2724
241.33069379212054,2701
243.73487179884035,2656
246.1383864978112,2670
248.541238093252,2569
250.9434267894609,2609
253.34495279081432,2768
255.74581630176783,2712
258.1460175268563,2671
260.54555667069314,2627
262.9444339379703,2635
265.3426495334594,2642
267.7402036620107,2759
270.1370965285529,2590
272.53332833809407,2437
274.9288992957214,2440
277.32380960660055,2464
279.718059475976,2394
282.1116491091717,2604
284.5045787115897,2419
286.89684848871195,2406
289.2884586460981,2512
291.67940938938807,2451
294.0697009242996,2400
296.4593334566299,2302
298.84830719225477,2319
301.23662233712923,2302
303.6242790972866,2288
306.01127767884,2268
308.39761828798066,2233
310.78330113097934,2223
313.16832641418534,2152
315.5526943440269,2187
317.9364051270112,2233
320.3194589697242,2190
322.70185607883093,2209
325.0835966610754,2138
327.4646809232805,2107
329.8451090723478,2051
332.2248813152577,2138
334.6039978590701,2165
336.9824589109231,2116
339.36026467803447,1984
341.7374153677,2082
344.113911187295,2015
346.48975234427337,2069
348.8649390461686,2079
351.2394715005918,2003
353.61334991523415,2000
355.9865744978655,2037
358.35914545633375,2091
360.73106299856715,2039
363.10232733257146,2040
365.47293866643247,2022
367.84289720831396,2014
370.2122031664593,2007
372.5808567491905,2039
374.9488581649083,1993
377.31620762209275,1954
379.6829053293021,1923
382.0489514951745,2023
384.4143463284262,1903
386.7790900378528,1918
389.14318283232853,1951
391.50662492080653,1949
393.86941651231916,1917
396.23155781597745,1918
398.5930490409713,1986
400.9538903965696,2035
403.3140820921202,1923
405.6736243370498,1887
408.03251734086336,1866
410.3907613131465,1824
412.74835646356166,1918
415.10530300185144,1954
417.4616011378372,1923
419.81725108141893,1875
422.1722530425758,1877
424.5266072313656,1890
426.880313857925,1842
429.2333731324701,1878
431.58578526529516,1783
433.9375504667738,1804
436.2886689473588,1899
438.63914091758113,1881
440.9889665880513,1877
443.33814616945835,1869
445.68667987257015,1781
448.03456790823395,1939
450.3818104873759,1808
452.72840782100013,1834
455.07436012019105,1870
457.41966759611057,1808
459.7643304600007,1824
462.10834892318155,1853
464.4517231970525,1801
466.79445349309174,1781
469.1365400228566,1959
471.4779829979826,1911
473.81878263018564,1864
476.15893913125876,1852
478.4984527130747,1879
480.8373235875855,1904
483.17555196682144,1930
485.5131380628919,1930
487.8500820879857,1985
490.1863842543697,2037
492.52204477439034,2034
494.8570638604725,2124
497.1914417251204,2349
499.52517858091653,2468
501.85827464052306,2694
504.19073011668036,2862
506.5225452222086,3006
508.85372017000566,2929
511.18425517304956,3192
513.514150444396,3493
515.8434061971808,4272
518.1720226446176,4967
520.4999999999999,4905
522.8273384766991,4781
525.1540382881666,4378
527.480099647932,4019
529.8055227696037,3384
532.1303078668694,2546
534.454455153496,2135
536.777964843328,1999
539.1008371502907,1920
541.4230722883866,1912
543.744670471698,1904
546.0656319143858,1853
548.3859568306899,1887
550.7056454349294,1942
553.0246979415016,1848
555.3431145648834,1829
557.6608955196306,1817
559.978041020377,1794
562.2945512818363,1767
564.6104265188006,1848
566.9256669461412,1837
569.2402727788082,1836
571.5542442318302,1831
573.8675815203156,1859
576.1802848594508,1854
578.4923544645015,1886
580.8037905508126,1846
583.114593333807,1811
585.4247630289875,1805
587.7342998519354,1851
590.0432040183106,1852
592.3514757438526,1888
594.6591152443794,1867
596.9661227357875,1828
599.2724984340531,1862
601.578242555231,1745
603.8833553154542,1762
606.1878369309362,1833
608.4916876179676,1858
610.7949075929192,1858
613.0974970722403,1819
615.3994562724587,1814
617.7007854101818,1867
620.0014847020951,1784
622.3015543649641,1834
624.6009946156324,1965
626.8998056710224,1854
629.1979877481361,1828
631.4955410640538,1907
633.7924658359349,1844
636.0887622810175,1894
638.3844306166192,1932
640.6794710601358,1843
642.9738838290426,1810
645.2676691408932,1876
647.5608272133207,1944
649.853358264037,1884
652.1452625108324,1925
654.4365401715764,1935
656.7271914642178,1809
659.0172166067838,1867
661.3066158173809,1920
663.5953893141935,1971
665.8835373154867,1898
668.1710600396028,1923
670.4579577049639,1879
672.7442305300709,2027
675.0298787335033,1878
677.3149025339197,1910
679.599302150058,1870
681.8830778007342,1914
684.1662297048437,1882
686.4487580813608,1930
688.7306631493387,1935
691.0119451279091,1917
693.2926042362834,1884
695.5726406937516,2002
697.8520547196814,2000
700.1308465335215,1982
702.4090163547982,1904
704.6865644031171,1850
706.9634908981619,1888
709.2397960596965,1867
711.5154801075631,1926
713.7905432616823,1900
716.0649857420548,1917
718.3388077687592,1844
720.612009561953,1868
722.8845913418733,1868
725.1565533288352,1964
727.427895743234,1960
729.6986188055427,1939
731.9687227363137,1910
734.238207756178,1866
736.5070740858458,1882
738.7753219461066,1765
741.0429515578281,1864
743.3099631419569,1953
745.5763569195191,1950
747.8421331116193,1875
750.1072919394409,1912
752.3718336242467,1919
754.6357583873777,1850
756.8990664502545,1897
759.1617580343765,1895
761.423833361321,1905
763.6852926527457,1931
765.9461361303862,1860
768.206364016058,1859
770.4659765316536,1830
772.7249738991469,1927
774.9833563405886,1931
777.2411240781092,1892
779.4982773339183,1984
781.7548163303044,1966
784.010741289634,1937
786.2660524343538,2014
788.5207499869881,1954
790.7748341701416,2007
793.0283052064964,1990
795.2811633188143,1949
797.5334087299362,2013
799.7850416627813,1952
802.0360623403484,1954
804.2864709857143,1995
806.5362678220353,1951
808.7854530725468,1998
811.0340269605625,1936
813.2819897094754,1924
815.5293415427581,1976
817.77608268396,2026
820.0222133567116,1998
822.2677337847211,2012
824.5126441917765,2008
826.7569448017433,1961
829.0006358385675,1947
831.2437175262731,1944
833.4861900889629,1976
835.7280537508192,1934
837.9693087361026,1922
840.2099552691533,1934
842.4499935743896,1894
844.689423876309,1883
846.9282463994886,1942
849.1664613685833,1997
851.4040690083276,2022
853.6410695435349,1918
855.877463199097,1975
858.1132501999847,1939
860.3484307712487,1962
862.5830051380175,1946
864.8169735254988,1953
867.0503361589791,1982
869.2830932638243,1923
871.5152450654786,1972
873.7467917894654,1980
875.9777336613873,2007
878.2080709069252,2002
880.4378037518389,1953
882.666932421968,1906
884.8954571432301,1916
887.1233781416219,1898
889.3506956432192,2016
891.5774098741766,1935
893.803521060728,1963
896.0290294291852,1947
898.2539352059397,2003
900.4782386174619,1997
902.7019398903011,1914
904.925039251085,1971
907.147536926521,1941
909.3694331433943,2018
911.59072812857,1909
913.8114221089921,1863
916.0315153116827,1884
918.2510079637437,1934
920.4699002923547,2003
922.6881925247761,1933
924.905884888345,1885
927.1229776104793,1957
929.3394709186747,1868
931.555365040506,1928
933.7706602036275,1944
935.9853566357709,1925
938.1994545647489,1963
940.4129542184515,1945
942.6258558248488,1951
944.8381596119883,1959
947.0498658079974,1975
949.2609746410825,1940
951.4714863395287,1940
953.6814011316998,1934
955.8907192460387,1922
958.0994409110671,1940
960.3075663553858,1954
962.5150958076741,1872
964.7220294966913,1971
966.928367651274,1920
969.1341105003388,1945
971.3392582728806,1870
973.5438111979742,1969
975.747769504772,1888
977.9511334225061,1869
980.153903180487,1907
982.3560790081052,1949
984.5576611348289,1884
986.7586497902058,1807
988.9590452038618,1812
991.158847605503,1834
993.3580572249133,1899
995.5566742919558,1814
997.7546990365728,1815
999.952131688785,1762
1002.1489724786926,1780
1004.3452216364743,1814
1006.5408793923874,1814
1008.7359459767691,1714
1010.9304216200343,1716
1013.1243065526781,1706
1015.3176010052733,1715
1017.510305208472,1748
1019.7024193930064,1703
1021.8939437896848,1632
1024.0848786293977,1742
1026.2752241431122,1666
1028.4649805618747,1759
1030.6541481168115,1699
1032.842727039127,1701
1035.0307175601051,1633
1037.2181199111074,1611
1039.4049343235752,1655
1041.591161029029,1672
1043.7768002590683,1704
1045.9618522453698,1645
1048.1463172196918,1718
1050.3301954138697,1674
1052.513487059818,1637
1054.69619238953,1731
1056.8783116350783,1659
1059.0598450286152,1645
1061.2407928023704,1699
1063.4211551886528,1698
1065.6009324198508,1688
1067.780124728432,1602
1069.9587323469414,1587
1072.1367555080046,1736
1074.314194444325,1623
1076.4910493886855,1604
1078.667320573947,1653
1080.843008233051,1594
1083.0181125990161,1581
1085.1926339049414,1577
1087.3665723840027,1556
1089.5399282694575,1596
1091.7127017946405,1609
1093.8848931929647,1611
1096.0565026979243,1563
1098.2275305430899,1590
1100.3979769621128,1591
1102.567842188722,1681
1104.737126456726,1544
1106.9058300000124,1597
1109.0739530525475,1581
1111.2414958483764,1547
1113.4084586216231,1570
1115.5748416064907,1618
1117.7406450372605,1617
1119.9058691482942,1618
1122.0705141740304,1611
1124.2345803489884,1581
1126.3980679077658,1609
1128.5609770850388,1538
1130.7233081155623,1611
1132.8850612341707,1589
1135.0462366757774,1540
1137.2068346753745,1635
1139.3668554680326,1531
1141.526299288901,1535
1143.68516637321,1560
1145.8434569562655,1594
1148.001171273455,1585
1150.158309560244,1586
1152.3148720521767,1609
1154.470858984876,1612
1156.626270594044,1610
1158.7811071154629,1596
1160.9353687849912,1590
1163.089055838569,1541
1165.242168512213,1632
1167.3947070420209,1560
1169.5466716641677,1585
1171.6980626149075,1665
1173.8488801305748,1643
1175.9991244475814,1596
1178.1487958024186,1583
1180.2978944316555,1533
1182.4464205719428,1553
1184.5943744600072,1552
1186.7417563326567,1510
1188.8885664267755,1546
1191.0348049793297,1520
1193.1804722273619,1566
1195.325568407995,1608
1197.4700937584303,1592
1199.614048515948,1560
1201.7574329179074,1551
1203.900247201746,1574
1206.042491604982,1591
1208.1841663652099,1597
1210.3252717201053,1579
1212.465807907422,1608
1214.6057751649923,1686
1216.7451737307279,1604
1218.8840038426192,1626
1221.0222657387353,1635
1223.1599596572241,1626
1225.2970858363137,1638
1227.4336445143094,1623
1229.5696359295966,1670
1231.705060320639,1658
1233.8399179259786,1690
1235.9742089842384,1670
1238.107933734118,1717
1240.2410924143974,1659
1242.373685263935,1656
1244.5057125216676,1673
1246.6371744266116,1643
1248.7680712178621,1710
1250.898403134593,1647
1253.028170416058,1679
1255.1573733015875,1664
1257.2860120305932,1615
1259.4140868425648,1629
1261.54159797707,1687
1263.6685456737569,1680
1265.7949301723515,1708
1267.9207517126597,1665
1270.046010534565,1721
1272.1707068780306,1698
1274.2948409830983,1662
1276.4184130898889,1744
1278.541423438603,1708
1280.6638722695184,1773
1282.785759822993,1721
1284.9070863394636,1733
1287.0278520594447,1698
1289.1480572235314,1775
1291.2677020723963,1783
1293.3867868467923,1796
1295.5053117875495,1784
1297.623277135579,1781
1299.740683131868,1805
1301.8575300174857,1816
1303.973818033578,1890
1306.0895474213703,1852
1308.2047184221678,1881
1310.3193312773528,1883
1312.4333862283888,1879
1314.5468835168163,1851
1316.659823384255,1878
1318.7722060724045,1912
1320.8840318230418,1916
1322.9953008780249,1911
1325.1060134792888,1895
1327.2161698688478,1879
1329.3257702887959,1897
1331.4348149813054,1910
1333.5433041886276,1883
1335.6512381530933,1888
1337.7586171171101,1823
1339.8654413231675,1893
1341.9717110138317,1836
1344.0774264317488,1878
1346.1825878196432,1854
1348.2871954203192,1760
1350.3912494766587,1770
1352.4947502316231,1777
1354.5976979282532,1865
1356.7000928096686,1817
1358.8019351190665,1755
1360.9032250997243,1779
1363.0039629949988,1788
1365.1041490483235,1803
1367.2037835032133,1725
1369.3028666032606,1797
1371.401398592137,1874
1373.4993797135926,1836
1375.5968102114575,1733
1377.6936903296396,1761
1379.7900203121262,1684
1381.8858004029835,1698
1383.9810308463561,1792
1386.075711886469,1836
1388.1698437676241,1798
1390.2634267342032,1759
1392.356461030667,1802
1394.4489469015557,1762
1396.5408845914872,1822
1398.6322743451592,1747
1400.7231164073469,1736
1402.813411022907,1764
1404.903158436773,1767
1406.9923588939578,1735
1409.0810126395531,1758
1411.1691199187303,1765
1413.2566809767386,1771
1415.343696058907,1734
1417.4301654106425,1876
1419.5160892774315,1847
1421.6014679048399,1816
1423.6863015385125,1782
1425.7705904241707,1799
1427.8543348076178,1820
1429.9375349347342,1808
1432.0201910514802,1815
1434.102303403894,1864
1436.1838722380944,1789
1438.2648978002767,1835
1440.3453803367174,1832
1442.4253200937692,1818
1444.5047173178677,1866
1446.5835722555234,1917
1448.6618851533285,1892
1450.739656257952,1916
1452.8168858161434,1926
1454.8935740747306,1966
1456.96972128062,1977
1459.045327680797,1932
1461.120393522327,1954
1463.1949190523528,1963
1465.2689045180973,1978
1467.3423501668608,2034
1469.415256246024,2064
1471.4876230030463,2096
1473.559450685465,2059
1475.6307395408976,2099
1477.7014898170391,2166
1479.771701761665,2173
1481.8413756226287,2121
1483.9105116478618,2139
1485.9791100853772,2134
1488.0471711832643,2081
1490.1146951896926,2151
1492.1816823529098,2240
1494.2481329212433,2152
1496.3140471430984,2213
1498.3794252669609,2223
1500.4442675413939,2245
1502.5085742150404,2287
1504.572345536622,2310
1506.6355817549388,2283
1508.6982831188702,2252
1510.7604498773744,2270
1512.8220822794883,2251
1514.8831805743293,2288
1516.9437450110909,2354
1519.003775839048,2306
1521.0632733075522,2249
1523.1222376660367,2411
1525.1806691640113,2367
1527.2385680510652,2393
1529.2959345768668,2326
1531.3527689911643,2436
1533.4090715437833,2444
1535.4648424846291,2458
1537.5200820636855,2448
1539.5747905310159,2458
1541.6289681367616,2572
1543.6826151311434,2629
1545.7357317644614,2607
1547.7883182870937,2648
1549.8403749494987,2617
1551.8919020022113,2701
1553.9428996958477,2765
1555.9933682811015,2729
1558.0433080087469,2851
1560.0927191296346,2890
1562.1416018946961,2778
1564.1899565549415,3043
1566.2377833614592,3028
1568.2850825654164,2854
1570.3318544180606,2920
1572.3780991707158,2852
1574.423817074788,2960
1576.4690083817595,2785
1578.5136733431923,2786
1580.5578122107272,2608
1582.601425236085,2568
1584.6445126710646,2510
1586.6870747675434,2518
1588.7291117774776,2413
1590.7706239529034,2317
1592.8116115459347,2290
1594.8520748087658,2234
1596.8920139936686,2183
1598.9314293529933,2150
1600.9703211391711,2127
1603.008689604711,2103
1605.0465350022005,2050
1607.0838575843068,2055
1609.1206576037753,1991
1611.1569353134305,1978
1613.1926909661765,2008
1615.2279248149953,1930
1617.2626371129481,1906
1619.2968281131757,1883
1621.3304980688963,1859
1623.3636472334088,1896
1625.39627586009,1796
1627.428384202396,1887
1629.459972513861,1806
1631.4910410480993,1796
1633.5215900588028,1870
1635.551619799744,1795
1637.5811305247717,1750
1639.6101224878166,1677
1641.6385959428862,1714
1643.6665511440683,1666
1645.693988345528,1683
1647.7209078015112,1745
1649.7473097663405,1751
1651.7731944944203,1762
1653.7985622402307,1702
1655.823413258333,1726
1657.847747803366,1754
1659.8715661300494,1658
1661.8948684931793,1730
1663.9176551476316,1748
1665.9399263483624,1689
1667.9616823504057,1683
1669.982923408873,1722
1672.0036497789574,1701
1674.0238617159293,1664
1676.043559475138,1677
1678.0627433120121,1601
1680.081413482059,1738
1682.0995702408654,1660
1684.117213844096,1607
1686.134344547495,1641
1688.1509626068864,1681
1690.1670682781705,1679
1692.182661817329,1636
1694.1977434804217,1697
1696.2123135235875,1685
1698.226372203043,1657
1700.2399197750851,1714
1702.2529564960905,1663
1704.2654826225112,1637
1706.277498410882,1644
1708.2890041178139,1659
1710.2999999999988,1670
1712.3104863142066,1616
1714.3204633172854,1738
1716.329931266163,1702
1718.3388904178469,1634
1720.3473410294214,1639
1722.3552833580516,1642
1724.3627176609807,1627
1726.3696441955308,1671
1728.3760632191033,1670
1730.3819749891782,1618
1732.3873797633146,1659
1734.3922777991502,1658
1736.3966693544012,1596
1738.4005546868639,1655
1740.4039340544127,1645
1742.406807715001,1587
1744.4091759266616,1632
1746.4110389475054,1558
1748.4123970357223,1646
1750.413250449582,1595
1752.4135994474318,1664
1754.4134442876993,1663
1756.4127852288902,1642
1758.4116225295893,1626
1760.4099564484595,1626
1762.407787244244,1609
1764.405115175764,1670
1766.4019405019203,1616
1768.3982634816916,1655
1770.3940843741357,1645
1772.3894034383907,1650
1774.3842209336717,1635
1776.378537119274,1632
1778.372352254571,1584
1780.3656665990156,1706
1782.3584804121397,1634
1784.3507939535534,1602
1786.3426074829463,1685
1788.3339212600863,1649
1790.3247355448211,1605
1792.3150505970766,1649
1794.3048666768573,1664
1796.2941840442477,1597
1798.2830029594106,1633
1800.2713236825884,1660
1802.2591464741004,1642
1804.2464715943465,1611
1806.2332993038058,1612
1808.2196298630352,1652
1810.2054635326708,1631
1812.190800573428,1674
1814.175641246101,1625
1816.1599858115628,1573
1818.1438345307652,1567
1820.127187664738,1621
1822.1100454745924,1600
1824.092408221516,1583
1826.0742761667766,1666
1828.055649571721,1621
1830.0365286977735,1628
1832.0169138064398,1675
1833.9968051593014,1571
1835.9762030180214,1600
1837.9551076443408,1624
1839.9335193000788,1627
1841.9114382471344,1664
1843.888864747485,1560
1845.8657990631878,1619
1847.842241456378,1590
1849.8181921892697,1586
1851.7936515241558,1633
1853.7686197234098,1590
1855.7430970494815,1563
1857.7170837649014,1590
1859.6905801322787,1592
1861.6635864143004,1609
1863.6361028737338,1604
1865.608129773424,1628
1867.5796673762961,1562
1869.5507159453537,1604
1871.521275743678,1645
1873.4913470344313,1612
1875.4609300808534,1616
1877.4300251462632,1609
1879.3986324940588,1627
1881.366752387717,1639
1883.3343850907936,1698
1885.3015308669228,1651
1887.268189979819,1591
1889.2343626932739,1715
1891.2000492711595,1657
1893.1652499774254,1717
1895.1299650761011,1594
1897.0941948312952,1582
1899.0579395071945,1664
1901.0211993680641,1635
1902.98397467825,1660
1904.9462657021745,1655
1906.9080727043415,1622
1908.869395949332,1653
1910.8302357018065,1644
1912.790592226504,1629
1914.7504657882428,1644
1916.7098566519212,1662
1918.6687650825133,1627
1920.6271913450764,1626
1922.5851357047422,1645
1924.5425984267245,1617
1926.499579776314,1590
1928.4560800188833,1701
1930.4120994198802,1626
1932.367638244833,1665
1934.32269675935,1655
1936.2772752291175,1572
1938.231373919899,1676
1940.1849930975404,1651
1942.1381330279637,1566
1944.0907939771696,1613
1946.0429762112412,1661
1947.9946799963363,1654
1949.9459055986945,1612
1951.896653284633,1657
1953.8469233205478,1677
1955.7967159729142,1633
1957.7460315082863,1665
1959.6948701932974,1638
1961.6432322946594,1629
1963.5911180791632,1610
1965.5385278136787,1534
1967.4854617651545,1585
1969.4319202006182,1656
1971.377903387176,1643
1973.3234115920136,1568
1975.268445082395,1648
1977.2130041256642,1598
1979.1570889892423,1608
1981.1006999406304,1577
1983.04383724741,1655
1984.986501177238,1597
1986.928691997853,1604
1988.8704099770712,1647
1990.811655382789,1655
1992.7524284829801,1667
1994.692729545698,1612
1996.6325588390755,1577
1998.5719166313224,1632
2000.5108031907307,1647
2002.4492187856677,1600
2004.387163684583,1550
2006.3246381560011,1568
2008.2616424685298,1698
2010.1981768908527,1614
2012.1342416917332,1626
2014.069837140014,1625
2016.0049635046162,1608
2017.9396210545406,1619
2019.8738100588666,1598
2021.8075307867502,1646
2023.740783507431,1552
2025.6735684902228,1607
2027.6058860045214,1607
2029.5377363198004,1596
2031.4691197056118,1583
2033.4000364315875,1525
2035.3304867674374,1568
2037.260470982952,1593
2039.189989347998,1618
2041.1190421325232,1625
2043.047629606554,1606
2044.9757520401945,1661
2046.9034097036288,1644
2048.8306028671195,1602
2050.7573318010086,1627
2052.683596775716,1591
2054.609398061742,1569
2056.5347359296647,1574
2058.4596106501403,1633
2060.384022493906,1592
2062.3079717317764,1585
2064.231458634646,1553
2066.1544834734873,1602
2068.077046519352,1656
2069.99914804337,1579
2071.9207883167524,1550
2073.8419676107865,1603
2075.7626861968406,1606
2077.6829443463607,1633
2079.6027423308715,1620
2081.522080421977,1607
2083.440958891362,1604
2085.359378010786,1649
2087.2773380520907,1620
2089.194839287196,1580
2091.111881988101,1591
2093.0284664268825,1538
2094.9445928756973,1534
2096.86026160678,1599
2098.775472892446,1622
2100.690227005088,1536
2102.604524217178,1648
2104.5183648012676,1595
2106.431749029985,1585
2108.34467717604,1559
2110.2571495122206,1595
2112.169166311393,1650
2114.080727846503,1638
2115.9918343905747,1644
2117.902486216711,1630
2119.8126835980956,1580
2121.722426807987,1634
2123.6317161197285,1598
2125.5405518067364,1663
2127.448934142509,1586
2129.356863400624,1651
2131.264339854737,1662
2133.1713637785815,1578
2135.077935445972,1609
2136.9840551308002,1604
2138.889723107037,1618
2140.7949396487334,1604
2142.699705030018,1610
2144.6040195250994,1581
2146.507883408264,1686
2148.4112969538774,1609
2150.3142604363848,1582
2152.2167741303097,1621
2154.1188383102535,1738
2156.0204532508997,1641
2157.9216192270064,1642
2159.822336513414,1592
2161.7226053850413,1640
2163.622426116884,1612
2165.5217989840185,1643
2167.4207242616,1681
2169.319202224862,1594
2171.2172331491165,1653
2173.1148173097563,1677
2175.0119549822507,1649
2176.90864644215,1626
2178.8048919650823,1614
2180.7006918267534,1635
2182.596046302952,1645
2184.4909556695407,1623
2186.3854202024645,1676
2188.279440177746,1670
2190.173015871487,1657
2192.066147559868,1659
2193.958835519149,1594
2195.851080025667,1639
2197.7428813558417,1685
2199.6342397861667,1656
2201.5251555932186,1708
2203.415629053651,1675
2205.3056604441986,1681
2207.19525004167,1686
2209.084398122958,1626
2210.9731049650327,1708
2212.861370844941,1685
2214.749196039812,1690
2216.636580826851,1656
2218.523525483344,1675
2220.410030286655,1744
2222.296095514226,1739
2224.1817214435805,1680
2226.066908352319,1770
2227.951656518121,1672
2229.835966218746,1711
2231.71983773203,1673
2233.6032713358913,1567
2235.486267308324,1672
2237.3688259274036,1722
2239.2509474712824,1680
2241.132632218193,1745
2243.013880446447,1738
2244.8946924344323,1664
2246.7750684606203,1687
2248.6550088035574,1778
2250.534513741871,1783
2252.413583554265,1711
2254.292218519526,1698
2256.170418916517,1707
2258.0481850241786,1707
2259.925517121534,1726
2261.8024154876825,1655
2263.678880401803,1714
2265.5549121431536,1713
2267.430510991071,1730
2269.305677224971,1680
2271.180411124348,1690
2273.0547129687766,1659
2274.9285830379076,1680
2276.8020216114737,1647
2278.6750289692845,1666
2280.5476053912294,1671
2282.4197511572766,1686
2284.2914665474727,1775
2286.162751841943,1785
2288.0336073208937,1700
2289.904033264608,1717
2291.774029953448,1650
2293.6435976678554,1704
2295.5127366883517,1712
2297.381447295534,1715
2299.2497297700825,1642
2301.1175843927526,1698
2302.9850114443825,1669
2304.852011205885,1601
2306.7185839582553,1628
2308.5847299825664,1598
2310.4504495599676,1601
2312.3157429716925,1595
2314.1806104990483,1589
2316.0450524234247,1592
2317.9090690262888,1550
2319.772660589186,1601
2321.635827393742,1590
2323.498569721661,1674
2325.3608878547248,1677
2327.2227820747967,1548
2329.0842526638157,1581
2330.945299903803,1594
2332.805924076857,1543
2334.6661254651535,1597
2336.525904350951,1551
2338.3852610165827,1636
2340.244195744464,1634
2342.102708817088,1620
2343.9608005170253,1642
2345.8184711269287,1632
2347.675720929526,1570
2349.532550207628,1555
2351.38895924412,1605
2353.24494832197,1587
2355.100517724223,1608
2356.955667734004,1575
2358.810398634514,1608
2360.664710709037,1626
2362.5186042409337,1608
2364.3720795136437,1546
2366.225136810686,1597
2368.0777764156583,1614
2369.929998612237,1546
2371.7818036841777,1601
2373.633191915315,1574
2375.484163589562,1581
2377.3347189909114,1668
2379.184858403434,1625
2381.03458211128,1655
2382.8838903986775,1642
2384.732783549936,1613
2386.5812618494406,1556
2388.4293255816588,1615
2390.2769750311327,1628
2392.1242104824883,1613
2393.971032220427,1640
2395.8174405297295,1608
2397.6634356952563,1612
2399.509018001947,1634
2401.3541877348193,1653
2403.1989451789705,1649
2405.043290619576,1578
2406.8872243418905,1614
2408.730746631247,1616
2410.5738577730594,1642
2412.4165580528183,1643
2414.258847756095,1698
2416.100727168537,1607
2417.9421965758734,1606
2419.783256263912,1623
2421.623906518538,1646
2423.4641476257157,1665
2425.303979871491,1641
2427.143403541984,1592
2428.9824189233977,1661
2430.821026302012,1582
2432.6592259641866,1633
2434.497018196361,1661
2436.33440328505,1683
2438.171381516851,1672
2440.00795317844,1660
2441.844118556569,1633
2443.6798779380724,1630
2445.5152316098606,1703
2447.3501798589255,1631
2449.1847229723357,1630
2451.0188612372403,1637
2452.8525949408663,1633
2454.6859243705203,1661
2456.518849813587,1559
2458.3513715575314,1656
2460.183489889895,1649
2462.015205098301,1655
2463.8465174704493,1614
2465.67742729412,1608
2467.5079348571717,1574
2469.338040447542,1612
2471.1677443532476,1648
2472.9970468623833,1639
2474.825948263123,1628
2476.6544488437207,1579
2478.482548892508,1654
2480.310248697896,1615
2482.137548548374,1558
2483.9644487325118,1735
2485.790949538956,1685
2487.617051256433,1659
2489.44275417375,1634
2491.26805857979,1586
2493.0929647635157,1674
2494.917473013971,1685
2496.741583620276,1618
2498.5652968716304,1645
2500.3886130573137,1672
2502.2115324666834,1732
2504.0340553891765,1645
2505.856182114308,1655
2507.6779129316733,1648
2509.499248130945,1677
2511.3201880018764,1672
2513.140732834298,1719
2514.9608829181198,1707
2516.780638543331,1649
2518.6,1629
2520.418967578273,1679
2522.237541568376,1670
2524.0557222606144,1665
2525.8735099453706,1652
2527.6909049131086,1690
2529.507907454368,1646
2531.32451785977,1714
2533.140736420014,1664
2534.9565634258774,1692
2536.771999168218,1640
2538.5870439379714,1675
2540.4016980261526,1722
2542.2159617238544,1805
2544.02983532225,1789
2545.8433191125914,1701
2547.656413386209,1767
2549.4691184345115,1795
2551.2814345489874,1725
2553.093362021204,1715
2554.904901142808,1714
2556.716052205523,1777
2558.526815501153,1764
2560.3371913215824,1755
2562.147179958771,1787
2563.956781704761,1854
2565.7659968516705,1820
2567.5748256916986,1753
2569.3832685171224,1814
2571.1913256202984,1804
2572.9989972936614,1830
2574.806283829725,1825
2576.613185521084,1867
2578.4197026604074,1799
2580.2258355404483,1846
2582.031584454035,1846
2583.836949694077,1799
2585.6419315535613,1814
2587.4465303255533,1792
2589.2507463032002,1916
2591.0545797797245,1817
2592.8580310484303,1858
2594.6611004026995,1823
2596.463788135992,1812
2598.266094541849,1772
2600.0680199138874,1829
2601.869564545807,1834
2603.670728731383,1844
2605.4715127644704,1896
2607.2719169390048,1877
2609.071941548998,1857
2610.8715868885433,1865
2612.670853251811,1890
2614.469740933052,1870
2616.268250226594,1877
2618.0663814268455,1898
2619.864134828292,1857
2621.6615107255006,1866
2623.458509413115,1853
2625.2551311858597,1791
2627.0513763385347,1808
2628.8472451660223,1806
2630.6427379632833,1822
2632.4378550253564,1784
2634.232596647359,1786
2636.026963124488,1790
2637.8209547520187,1821
2639.6145718253065,1777
2641.407814639785,1785
2643.200683490966,1792
2644.9931786744414,1763
2646.7853004858807,1819
2648.577049221034,1778
2650.3684251757277,1698
2652.1594286458712,1749
2653.9500599274484,1762
2655.740319316525,1761
2657.5302071092437,1747
2659.3197236018286,1730
2661.10886909058,1725
2662.8976438718782,1679
2664.686048242183,1828
2666.4740824980327,1702
2668.2617469360443,1750
2670.0490418529134,1704
2671.8359675454153,1675
2673.622524310403,1738
2675.408712444811,1684
2677.1945322456495,1695
2678.979984010009,1659
2680.76506803506,1719
2682.5497846180497,1667
2684.334134056306,1717
2686.1181166472343,1711
2687.9017326883213,1738
2689.6849824771293,1659
2691.4678663113013,1675
2693.2503844885596,1677
2695.032537306705,1669
2696.8143250636167,1675
2698.5957480572542,1640
2700.3768065856534,1654
2702.1575009469316,1629
2703.937831439283,1663
2705.717798360982,1668
2707.4974020103837,1695
2709.276642685917,1589
2711.055520686095,1635
2712.834036309506,1697
2714.612189854819,1584
2716.389981620782,1557
2718.1674119062204,1659
2719.944481010041,1601
2721.721189231226,1558
2723.4975368688415,1620
2725.273524222027,1618
2727.0491515900053,1589
2728.824419272075,1552
2730.5993275676146,1667
2732.3738767760838,1594
2734.148067197016,1620
2735.921899130031,1629
2737.6953728748194,1642
2739.468488731156,1620
2741.2412469988926,1638
2743.0136479779617,1626
2744.785691968372,1622
2746.5573792702116,1587
2748.3287101836504,1626
2750.099685008934,1592
2751.870304046388,1626
2753.640567596418,1592
2755.4104759595057,1556
2757.1800294362156,1587
2758.949228327187,1570
2760.7180729331412,1649
2762.486563554877,1574
2764.254700493272,1568
2766.022484049284,1569
2767.789914523947,1659
2769.5569922183786,1593
2771.3237174337705,1601
2773.090090471394,1635
2774.8561116326036,1574
2776.6217812188274,1599
2778.3870995315756,1583
2780.1520668724356,1596
2781.9166835430747,1593
2783.6809498452394,1534
2785.444866080754,1581
2787.2084325515225,1534
2788.971649559527,1604
2790.73451740683,1579
2792.4970363955713,1575
2794.2592068279705,1563
2796.0210290063264,1611
2797.7825032330147,1617
2799.543629810493,1556
2801.304409041296,1614
2803.0648412280366,1605
2804.8249266734088,1566
2806.5846656801846,1572
2808.344058551212,1593
2810.1031055894246,1563
2811.8618070978273,1605
2813.6201633795085,1599
2815.378174737636,1583
2817.1358414754536,1551
2818.893163896285,1594
2820.6501423035334,1651
2822.4067770006814,1603
2824.1630682912883,1551
2825.9190164789957,1593
2827.6746218675207,1614
2829.429884760661,1577
2831.184805462294,1595
2832.9393842763743,1590
2834.693621506936,1596
2836.4475174580916,1578
2838.201072434034,1643
2839.954286739034,1600
2841.707160677441,1551
2843.459694553685,1618
2845.2118886722724,1530
2846.96374333779,1603
2848.7152588549034,1603
2850.4664355283567,1601
2852.217273662973,1641
2853.9677735636546,1605
2855.7179355353833,1599
2857.4677598832186,1579
2859.217246912299,1636
2860.9663969278427,1604
2862.715210235146,1603
2864.4636871395846,1640
2866.211827946614,1575
2867.9596329617652,1593
2869.7071024906536,1607
2871.4542368389684,1586
2873.20103631248,1594
2874.947501217038,1605
2876.6936318585695,1570
2878.4394285430812,1559
2880.1848915766604,1581
2881.9300212654707,1539
2883.6748179157553,1495
2885.4192818338374,1554
2887.1634133261173,1591
2888.907212699077,1584
2890.6506802592744,1571
2892.393816313348,1620
2894.1366211680142,1598
2895.8790951300693,1634
2897.621238506388,1617
2899.363051603925,1626
2901.1045347297118,1618
2902.8456881908596,1590
2904.58651229456,1582
2906.327007348081,1601
2908.067173658772,1567
2909.8070115340597,1546
2911.5465212814497,1531
2913.285703208527,1611
2915.0245576229563,1554
2916.7630848324807,1605
2918.5012851449196,1647
2920.2391588681758,1611
2921.976706310227,1596
2923.7139277791334,1627
2925.4508235830313,1530
2927.187394030137,1599
2928.923639428745,1633
2930.6595600872306,1641
2932.395156314046,1498
2934.1304284177218,1589
2935.8653767068713,1581
2937.6000014901815,1632
2939.3343030764227,1581
2941.068281774442,1572
2942.8019378931644,1584
2944.5352717415976,1570
2946.2682836288236,1601
2948.0009738640065,1620
2949.7333427563885,1568
2951.465390615289,1568
2953.1971177501086,1607
2954.9285244703265,1564
2956.6596110855,1660
2958.3903779052657,1619
2960.1208252393385,1593
2961.8509533975125,1612
2963.5807626896617,1603
2965.3102534257378,1573
2967.0394259157715,1549
2968.768280469873,1562
2970.496817398232,1570
2972.2250370111146,1541
2973.952939618869,1549
2975.6805255319196,1579
2977.4077950607707,1597
2979.134748516006,1597
2980.861386208289,1612
2982.587708448359,1598
2984.313715547037,1632
2986.039407815222,1610
2987.764785563891,1634
2989.489849104102,1535
2991.2145987469908,1594
2992.9390348037705,1573
2994.6631575857346,1569
2996.3869674042576,1542
2998.1104645707887,1545
2999.83364939686,1610
3001.5565221940783,1591
3003.2790832741334,1606
3005.0013329487924,1532
3006.7232715298996,1556
3008.4448993293804,1628
3010.166216659239,1590
3011.887223831558,1599
3013.607921158498,1540
3015.3283089522993,1515
3017.0483875252826,1575
3018.7681571898443,1471
3020.4876182584626,1568
3022.2067710436927,1578
3023.9256158581707,1584
3025.644153014609,1588
3027.362382825801,1590
3029.0803056046193,1495
3030.797921664012,1575
3032.5152313170106,1626
3034.2322348767225,1561
3035.9489326563353,1561
3037.665324969115,1632
3039.3814121284063,1606
3041.097194447633,1542
3042.812672240299,1570
3044.5278458199855,1553
3046.2427155003525,1577
3047.9572815951406,1633
3049.671544418167,1596
3051.38550428333,1576
3053.0991615046073,1541
3054.812516396051,1620
3056.5255692717974,1556
3058.2383204460575,1594
3059.9507702331257,1594
3061.662918947372,1587
3063.3747669032446,1568
3065.0863144152736,1584
3066.7975617980674,1585
3068.508509366309,1592
3070.219157434767,1540
3071.9295063182844,1530
3073.639556331785,1596
3075.3493077902704,1595
3077.058761008821,1649
3078.7679163025964,1552
3080.476773986837,1629
3082.1853343768594,1583
3083.89359778806,1530
3085.6015645359153,1573
3087.3092349359786,1559
3089.016609303884,1565
3090.7236879553434,1599
3092.4304712061476,1538
3094.136959372166,1559
3095.843152769349,1660
3097.5490517137237,1567
3099.2546565213966,1586
3100.959967508554,1564
3102.66498499146,1556
3104.3697092864577,1534
3106.0741407099695,1517
3107.778279578498,1609
3109.482126208622,1629
3111.1856809170004,1543
3112.8889440203716,1532
3114.5919158355528,1663
3116.294596679439,1613
3117.996986869006,1583
3119.6990867213062,1557
3121.4008965534726,1557
3123.102416682717,1585
3124.803647426329,1640
3126.5045891016784,1581
3128.205242026213,1627
3129.90560651746,1556
3131.605682893025,1547
3133.3054714705922,1572
3135.0049725679282,1615
3136.7041865028714,1573
3138.4031135933465,1585
3140.101754157353,1627
3141.800108512971,1656
3143.498176978357,1603
3145.1959598717494,1665
3146.8934575114636,1597
3148.5906702158954,1612
3150.2875983035183,1515
3151.9842420928853,1584
3153.680601902627,1585
3155.376678051456,1593
3157.07247085816,1533
3158.767980641609,1585
3160.463207720748,1541
3162.158152414606,1620
3163.8528150422862,1592
3165.5471959229726,1578
3167.2412953759303,1573
3168.9351137204976,1625
3170.628651276098,1569
3172.3219083622307,1611
3174.014885298474,1654
3175.707582404485,1589
3177.4000000000005,1570
3179.092138404835,1577
3180.7839979388846,1604
3182.47557892212,1646
3184.166881674594,1538
3185.8579065164386,1550
3187.5486537678626,1590
3189.2391237491547,1590
3190.9293167806827,1554
3192.6192331828934,1582
3194.3088732763117,1613
3195.998237381542,1542
3197.687325819268,1571
3199.376138910251,1595
3201.064676975334,1666
3202.7529403354347,1592
3204.4409293115523,1569
3206.1286442247647,1586
3207.816085396229,1585
3209.5032531471825,1588
3211.190147798936,1562
3212.8767696728846,1570
3214.5631190905015,1531
3216.2491963733373,1557
3217.9350018430214,1555
3219.6205358212637,1599
3221.305798629851,1560
3222.990790590651,1490
3224.6755120256103,1545
3226.359963256751,1545
3228.0441446061795,1520
3229.7280563960758,1549
3231.411698948703,1526
3233.0950725863995,1523
3234.778177631587,1569
3236.461014406761,1646
3238.1435832345005,1597
3239.8258844374595,1571
3241.507918338374,1559
3243.1896852600576,1587
3244.8711855254023,1568
3246.552419457381,1537
3248.233387379042,1558
3249.914089613516,1604
3251.59452648401,1608
3253.274698313813,1553
3254.95460542629,1598
3256.6342481448855,1504
3258.313626793125,1536
3259.9927416946084,1537
3261.6715931730196,1504
3263.3501815521176,1528
3265.0285071557437,1547
3266.706570307815,1584
3268.3843713323286,1546
3270.0619105533615,1585
3271.739188295068,1575
3273.4162048816834,1522
3275.0929606375184,1524
3276.769455886966,1558
3278.445690954498,1535
3280.1216661646613,1583
3281.797381842087,1583
3283.4728383114807,1603
3285.1480358976296,1569
3286.8229749253996,1607
3288.4976557197333,1603
3290.172078605655,1578
3291.846243908266,1526
3293.5201519527463,1518
3295.193803064357,1573
3296.8671975684374,1577
3298.5403357904024,1533
3300.21321805575,1589
3301.8858446900567,1543
3303.558216018975,1541
3305.23033236824,1569
3306.9021940636603,1604
3308.57380143113,1546
3310.2451547966184,1567
3311.916254486174,1621
3313.5871008259246,1604
3315.2576941420766,1549
3316.9280347609147,1567
3318.5981230088046,1529
3320.2679592121895,1596
3321.9375436975924,1595
3323.606876791612,1549
3325.27595882093,1529
3326.944790112305,1534
3328.6133709925753,1546
3330.2817017886573,1514
3331.949782827547,1583
3333.617614436319,1547
3335.2851969421245,1556
3336.952530672199,1642
3338.619615953853,1544
3340.286453114475,1595
3341.9530424815357,1591
3343.619384382583,1614
3345.2854791452437,1538
3346.951327097224,1591
3348.6169285663073,1555
3350.2822838803577,1596
3351.947393367319,1628
3353.61225735521,1581
3355.2768761721345,1546
3356.9412501462693,1560
3358.605379605873,1536
3360.2692648792827,1534
3361.9329062949146,1543
3363.596304181263,1499
