CollectionTime,9/20/2024 11:19:48 AM
ExposureUsed,3
CalibratedSpectrum
-962.7078968117929,494
-959.9714848408522,514
-957.2358232597828,522
-954.5009119013725,518
-951.7667505983302,571
-949.0333391832855,550
-946.3006774887896,566
-943.5687653473143,539
-940.837602591253,546
-938.1071890529199,523
-935.3775245645503,539
-932.6486089583007,548
-929.9204420662485,548
-927.1930237203925,544
-924.4663537526524,565
-921.7404319948689,585
-919.0152582788041,541
-916.2908324361409,575
-913.5671542984834,537
-910.8442236973568,519
-908.1220404642074,539
-905.4006044304027,527
-902.679915427231,545
-899.959973285902,516
-897.2407778375464,528
-894.5223289132158,518
-891.8046263438832,506
-889.0876699604426,520
-886.3714595937089,530
-883.6559950744183,547
-880.9412762332282,513
-878.2273029007168,523
-875.5140749073835,509
-872.8015920836489,528
-870.0898542598545,536
-867.3788612662631,531
-864.6686129330585,527
-861.9591090903457,497
-859.2503495681506,492
-856.5423341964203,521
-853.8350628050229,537
-851.1285352237478,543
-848.4227512823054,553
-845.7177108103272,543
-843.0134136373656,538
-840.3098595928943,545
-837.6070485063082,525
-834.9049802069229,553
-832.2036545239757,538
-829.5030712866244,529
-826.8032303239481,569
-824.1041314649472,512
-821.4057745385428,556
-818.7081593735775,525
-816.0112857988148,563
-813.3151536429393,554
-810.6197627345566,535
-807.9251129021936,530
-805.2312039742981,523
-802.5380357792392,569
-799.8456081453069,546
-797.1539209007124,579
-794.462973873588,535
-791.772766891987,567
-789.083299783884,592
-786.3945723771743,558
-783.7065844996748,550
-781.0193359791231,534
-778.3328266431781,540
-775.6470563194197,541
-772.9620248353489,517
-770.2777320183878,550
-767.5941776958798,564
-764.9113616950891,569
-762.2292838432011,588
-759.5479439673222,515
-756.8673418944801,548
-754.1874774516235,563
-751.5083504656222,565
-748.8299607632671,571
-746.15230817127,556
-743.475392516264,546
-740.7992136248035,559
-738.1237713233636,588
-735.4490654383407,567
-732.7750957960521,579
-730.1018622227365,569
-727.4293645445534,566
-724.7576025875837,560
-722.0865761778291,553
-719.4162851412126,582
-716.7467293035781,585
-714.0779084906909,563
-711.409822528237,603
-708.7424712418238,577
-706.0758544569796,602
-703.4099719991541,594
-700.7448236937178,557
-698.0804093659622,568
-695.4167288411002,596
-692.7537819442656,558
-690.0915685005134,563
-687.4300883348199,614
-684.7693412720819,631
-682.1093271371178,631
-679.4500457546669,603
-676.7914969493897,588
-674.1336805458676,603
-671.4765963686034,603
-668.8202442420206,621
-666.1646239904642,603
-663.5097354382001,624
-660.8555784094151,616
-658.2021527282176,587
-655.5494582186366,606
-652.8974947046223,604
-650.2462620100463,648
-647.5957599587009,606
-644.9459883742998,644
-642.2969470804776,637
-639.6486359007902,639
-637.0010546587141,636
-634.3542031776476,658
-631.7080812809096,651
-629.0626887917401,640
-626.4180255333008,633
-623.7740913286734,658
-621.1308860008619,663
-618.4884093727904,626
-615.8466612673046,642
-613.2056415071715,656
-610.5653499150785,647
-607.9257863136347,648
-605.28695052537,662
-602.6488423727357,648
-600.0114616781036,669
-597.3748082637674,632
-594.7388819519412,667
-592.1036825647604,667
-589.4692099242818,673
-586.8354638524829,677
-584.2024441712624,651
-581.5701507024403,711
-578.9385832677575,677
-576.3077416888759,673
-573.6776257873787,608
-571.0482353847704,640
-568.4195703024757,741
-565.7916303618415,720
-563.164415384135,663
-560.5379251905453,718
-557.9121596021815,684
-555.2871184400748,661
-552.6628015251767,724
-550.0392086783606,662
-547.4163397204204,717
-544.794194472071,691
-542.1727727539491,750
-539.5520743866118,720
-536.9320991905377,720
-534.3128469861261,788
-531.6943175936979,780
-529.0765108334947,759
-526.4594265256793,783
-523.8430644903358,954
-521.2274245474689,1083
-518.612506517005,1128
-515.9983102187913,1137
-513.3848354725959,1188
-510.77208209810846,1292
-508.16004991493924,1317
-505.5487387426199,1357
-502.9381484006032,1394
-500.3282787082628,1411
-497.71912948489364,1352
-495.1107005497117,1266
-492.5029917218539,1097
-489.8960028203786,965
-487.28973366426493,888
-484.68418407241325,839
-482.07935386364494,761
-479.47524285670266,791
-476.87185087025,798
-474.2691777228715,831
-471.66722323307334,819
-469.0659872192821,836
-466.4654694998459,827
-463.86566989303384,855
-461.26658821703614,803
-458.66822428996414,823
-456.07057792985,826
-453.4736489546475,832
-450.877437182231,860
-448.28194243039627,849
-445.68716451686,808
-443.09310325926003,790
-440.49975847515555,767
-437.9071299820263,825
-435.31521759727354,843
-432.72402113821954,784
-430.13354042210767,811
-427.5437752661022,834
-424.95472548728867,826
-422.36639090267386,870
-419.7787713291855,880
-417.1918665836721,858
-414.60567648290385,877
-412.0202008435715,813
-409.4354394822874,852
-406.8513922155845,836
-404.26805885991723,865
-401.685439231661,884
-399.103533147112,883
-396.522340422488,908
-393.9418608739278,898
-391.3620943174908,890
-388.7830405691583,877
-386.2046994448317,815
-383.6270707603344,818
-381.05015433141045,734
-378.473949973725,713
-375.8984575028645,719
-373.32367673433623,672
-370.74960748356875,628
-368.1762495659117,620
-365.60360279663576,592
-363.03166699093265,555
-360.4604419639154,568
-357.8899275306178,518
-355.32012350599507,535
-352.7510297049233,493
-350.1826459421999,526
-347.61497203254316,485
-345.04800779059235,466
-342.4817530309082,494
-339.91620756797226,523
-337.35137121618743,527
-334.7872437898774,499
-332.22382510328725,512
-329.66111497058273,462
-327.09911320585127,460
-324.53781962310075,519
-321.9772340362607,527
-319.4173562591816,483
-316.8581861056348,475
-314.2997233893127,458
-311.7419679238294,463
-309.1849195227194,533
-306.62857799943856,510
-304.0729431673641,560
-301.51801483979375,502
-298.963792829947,503
-296.41027695096386,547
-293.85746701590574,560
-291.3053628377552,608
-288.7539642294155,585
-286.2032710037115,565
-283.65328297338897,541
-281.1039999511146,638
-278.5554217494762,655
-276.007548180983,630
-273.4603790580651,628
-270.9139141930734,600
-268.3681533982807,661
-265.8230964858798,726
-263.27874326798565,787
-260.7350935566336,750
-258.1921471637804,784
-255.6499039013039,843
-253.10836358100266,852
-250.56752601459698,774
-248.02739101372765,729
-245.48795838995704,690
-242.94922795476816,694
-240.41119951956557,766
-237.8738728956746,777
-235.33724789434166,767
-232.80132432673452,670
-230.2661020039418,655
-227.73158073697357,706
-225.19776033676033,743
-222.66464061415422,771
-220.1322213799284,691
-217.60050244477725,658
-215.06948361931552,714
-212.53916471408013,859
-210.00954553952818,828
-207.48062590603843,751
-204.9524056239104,729
-202.4248845033651,788
-199.8980623545441,843
-197.37193898751036,853
-194.84651421224817,829
-192.32178783866232,807
-189.79775967657952,869
-187.27442953574644,906
-184.7517972258321,922
-182.2298625564256,863
-179.7086253370378,810
-177.18808537710026,778
-174.66824248596583,935
-172.14909647290835,936
-169.6306471471229,1045
-167.11289431772548,1016
-164.59583779375328,948
-162.07947738416453,1127
-159.5638128978386,1203
-157.04884414357605,1296
-154.53457093009854,1455
-152.02099306604828,1138
-149.50811035998936,1169
-146.99592262040665,1263
-144.48442965570587,1425
-141.97363127421409,1321
-139.46352728417958,1483
-136.95411749377126,1601
-134.44540171107985,1384
-131.93737974411636,1216
-129.43005140081357,1179
-126.92341648902493,1381
-124.41747481652521,1569
-121.91222619101006,2080
-119.40767042009657,2368
-116.90380731132257,2347
-114.40063667214702,2779
-111.8981583099503,3548
-109.3963720320337,4142
-106.89527764561933,5074
-104.39487495785067,6083
-101.89516377579241,8655
-99.39614390642998,14048
-96.89781515667039,20309
-94.40017733334128,21722
-91.90323024319173,18488
-89.40697369289148,13786
-86.91140748903172,8268
-84.41653143812482,5180
-81.92234534660395,6362
-79.42884902082358,10018
-76.93604226705907,15126
-74.4439248915071,19089
-71.95249670028534,20614
-69.46175749943245,19119
-66.97170709490854,14267
-64.48234529259423,9584
-61.99367189829195,7892
-59.50568671772464,7603
-57.01838955653636,6334
-54.53178022029283,5801
-52.045858514480074,6959
-49.560624244506016,8142
-47.07607721569923,8798
-44.59221723330904,9040
-42.10904410250669,11296
-39.62655762838392,13097
-37.14475761595372,14080
-34.66364387015028,17500
-32.18321619582866,23474
-29.70347439776515,26409
-27.224418280657005,30867
-24.74604764912317,38997
-22.26836230770266,48464
-19.7913620608565,65038
-17.315046712966478,65038
-14.83941606833514,65038
-12.36446993118659,65038
-9.89020810566592,65038
-7.416630395839093,65038
-4.94373660569363,65038
-2.471526539137585,65038
-6.821210263296962E-13,65038
2.47084320796705,65038
4.941003281093458,65038
7.410480415786196,65038
9.879274808531363,65038
12.347386655893956,65038
14.814816154518212,65038
17.28156350112681,65038
19.74762889252179,65038
22.21301252558385,65038
24.67771459727237,21836
27.141735304626195,5436
29.605074844762612,4552
32.06773341487792,3923
34.52971121224755,4356
36.99100843422559,4604
39.45162527824516,3604
41.91156194181792,2652
44.370818622535126,2797
46.82939551806646,3127
49.287292826160524,3797
51.74451074464503,3611
54.201049471426245,2351
56.65690920448981,2055
59.112090141899785,2171
61.56659248179983,2522
64.02041642241159,2815
66.4735621620365,2857
68.92602989905402,2701
71.37781983192338,2810
73.82893215918205,2466
76.27936707944684,1726
78.72912479141326,1508
81.17820549385567,1704
83.62660938562783,1836
86.07433666566146,1630
88.5213875329681,1585
90.96776218663751,1654
93.41346082583925,1966
95.85848364982041,2316
98.30283085790859,1991
100.7465026495089,1642
103.18949922410604,1508
105.63182078126385,1282
108.07346752062438,1430
110.51443964190923,1676
112.95473734491827,1733
115.39436082953114,1310
117.83331029570547,1274
120.27158594347827,1436
122.7091879729652,1488
125.1461165843615,1614
127.58237197794062,1668
130.01795435405518,1664
132.4528639131364,1419
134.88710085569494,1279
137.32066538231982,1328
139.75355769367923,1415
142.1857779905207,1165
144.61732647366978,1057
147.04820334403132,1115
149.47840880258934,1147
151.90794305040674,1188
154.33680628862487,1186
156.76499871846443,1335
159.19252054122433,1483
161.61937195828352,1496
164.04555317109896,1532
166.47106438120693,1551
168.89590579022217,1682
171.320077599839,1890
173.7435800118302,1998
176.16641322804742,2331
178.58857745042144,2192
181.01007288096173,2090
183.43089972175687,2018
185.85105817497413,2055
188.27054844285988,2058
190.6893707277394,2135
193.10752523201643,2175
195.5250121581745,2164
197.9418317087751,2149
200.3579840864594,2188
202.7734694939469,2280
205.18828813403627,2340
207.6024402096051,2287
210.01592592360964,2397
212.42874547908548,2370
214.84089907914665,2399
217.2523869269868,2284
219.66320922587727,2276
222.0733661791695,2162
224.48285799029293,2286
226.8916848627572,2306
229.29984700014882,2453
231.7073446061355,2459
234.11417788446204,2366
236.520347038953,2487
238.92585227351185,2588
241.33069379212054,2599
243.73487179884035,2598
246.1383864978112,2580
248.541238093252,2595
250.9434267894609,2588
253.34495279081432,2611
255.74581630176783,2622
258.1460175268563,2651
260.54555667069314,2614
262.9444339379703,2444
265.3426495334594,2494
267.7402036620107,2585
270.1370965285529,2553
272.53332833809407,2378
274.9288992957214,2424
277.32380960660055,2319
279.718059475976,2301
282.1116491091717,2360
284.5045787115897,2382
286.89684848871195,2274
289.2884586460981,2435
291.67940938938807,2371
294.0697009242996,2350
296.4593334566299,2341
298.84830719225477,2258
301.23662233712923,2210
303.6242790972866,2215
306.01127767884,2203
308.39761828798066,2131
310.78330113097934,2191
313.16832641418534,2096
315.5526943440269,2111
317.9364051270112,2146
320.3194589697242,2135
322.70185607883093,2075
325.0835966610754,2059
327.4646809232805,1988
329.8451090723478,2046
332.2248813152577,1975
334.6039978590701,2016
336.9824589109231,2008
339.36026467803447,1983
341.7374153677,1943
344.113911187295,1953
346.48975234427337,1968
348.8649390461686,2001
351.2394715005918,1935
353.61334991523415,1872
355.9865744978655,1902
358.35914545633375,1932
360.73106299856715,1971
363.10232733257146,1881
365.47293866643247,1901
367.84289720831396,1922
370.2122031664593,1763
372.5808567491905,1882
374.9488581649083,1860
377.31620762209275,1781
379.6829053293021,1822
382.0489514951745,1753
384.4143463284262,1769
386.7790900378528,1786
389.14318283232853,1826
391.50662492080653,1789
393.86941651231916,1834
396.23155781597745,1770
398.5930490409713,1856
400.9538903965696,1761
403.3140820921202,1816
405.6736243370498,1782
408.03251734086336,1783
410.3907613131465,1798
412.74835646356166,1751
415.10530300185144,1737
417.4616011378372,1752
419.81725108141893,1696
422.1722530425758,1681
424.5266072313656,1821
426.880313857925,1754
429.2333731324701,1748
431.58578526529516,1695
433.9375504667738,1678
436.2886689473588,1751
438.63914091758113,1771
440.9889665880513,1787
443.33814616945835,1743
445.68667987257015,1753
448.03456790823395,1797
450.3818104873759,1726
452.72840782100013,1641
455.07436012019105,1685
457.41966759611057,1712
459.7643304600007,1703
462.10834892318155,1695
464.4517231970525,1711
466.79445349309174,1742
469.1365400228566,1719
471.4779829979826,1714
473.81878263018564,1657
476.15893913125876,1717
478.4984527130747,1709
480.8373235875855,1765
483.17555196682144,1776
485.5131380628919,1817
487.8500820879857,1924
490.1863842543697,1974
492.52204477439034,1951
494.8570638604725,2109
497.1914417251204,2274
499.52517858091653,2467
501.85827464052306,2761
504.19073011668036,3010
506.5225452222086,3071
508.85372017000566,3063
511.18425517304956,3194
513.514150444396,3535
515.8434061971808,4378
518.1720226446176,4946
520.4999999999999,5081
522.8273384766991,4776
525.1540382881666,4674
527.480099647932,4078
529.8055227696037,3258
532.1303078668694,2539
534.454455153496,2019
536.777964843328,1900
539.1008371502907,1839
541.4230722883866,1746
543.744670471698,1748
546.0656319143858,1734
548.3859568306899,1753
550.7056454349294,1753
553.0246979415016,1719
555.3431145648834,1744
557.6608955196306,1731
559.978041020377,1728
562.2945512818363,1639
564.6104265188006,1654
566.9256669461412,1696
569.2402727788082,1660
571.5542442318302,1688
573.8675815203156,1766
576.1802848594508,1719
578.4923544645015,1715
580.8037905508126,1694
583.114593333807,1709
585.4247630289875,1662
587.7342998519354,1776
590.0432040183106,1716
592.3514757438526,1689
594.6591152443794,1633
596.9661227357875,1722
599.2724984340531,1692
601.578242555231,1667
603.8833553154542,1670
606.1878369309362,1656
608.4916876179676,1652
610.7949075929192,1666
613.0974970722403,1708
615.3994562724587,1697
617.7007854101818,1648
620.0014847020951,1702
622.3015543649641,1698
624.6009946156324,1694
626.8998056710224,1737
629.1979877481361,1693
631.4955410640538,1724
633.7924658359349,1757
636.0887622810175,1791
638.3844306166192,1763
640.6794710601358,1644
642.9738838290426,1678
645.2676691408932,1705
647.5608272133207,1706
649.853358264037,1750
652.1452625108324,1756
654.4365401715764,1707
656.7271914642178,1741
659.0172166067838,1738
661.3066158173809,1820
663.5953893141935,1833
665.8835373154867,1813
668.1710600396028,1759
670.4579577049639,1817
672.7442305300709,1885
675.0298787335033,1770
677.3149025339197,1757
679.599302150058,1721
681.8830778007342,1756
684.1662297048437,1747
686.4487580813608,1780
688.7306631493387,1766
691.0119451279091,1732
693.2926042362834,1682
695.5726406937516,1764
697.8520547196814,1727
700.1308465335215,1784
702.4090163547982,1719
704.6865644031171,1737
706.9634908981619,1723
709.2397960596965,1805
711.5154801075631,1727
713.7905432616823,1738
716.0649857420548,1759
718.3388077687592,1815
720.612009561953,1704
722.8845913418733,1700
725.1565533288352,1727
727.427895743234,1739
729.6986188055427,1711
731.9687227363137,1742
734.238207756178,1690
736.5070740858458,1768
738.7753219461066,1732
741.0429515578281,1728
743.3099631419569,1694
745.5763569195191,1730
747.8421331116193,1799
750.1072919394409,1677
752.3718336242467,1695
754.6357583873777,1786
756.8990664502545,1762
759.1617580343765,1707
761.423833361321,1760
763.6852926527457,1733
765.9461361303862,1791
768.206364016058,1745
770.4659765316536,1738
772.7249738991469,1766
774.9833563405886,1838
777.2411240781092,1723
779.4982773339183,1746
781.7548163303044,1743
784.010741289634,1785
786.2660524343538,1873
788.5207499869881,1782
790.7748341701416,1804
793.0283052064964,1808
795.2811633188143,1816
797.5334087299362,1806
799.7850416627813,1761
802.0360623403484,1779
804.2864709857143,1840
806.5362678220353,1875
808.7854530725468,1827
811.0340269605625,1751
813.2819897094754,1778
815.5293415427581,1766
817.77608268396,1764
820.0222133567116,1799
822.2677337847211,1715
824.5126441917765,1742
826.7569448017433,1769
829.0006358385675,1827
831.2437175262731,1759
833.4861900889629,1736
835.7280537508192,1834
837.9693087361026,1859
840.2099552691533,1746
842.4499935743896,1761
844.689423876309,1798
846.9282463994886,1740
849.1664613685833,1734
851.4040690083276,1806
853.6410695435349,1807
855.877463199097,1791
858.1132501999847,1759
860.3484307712487,1816
862.5830051380175,1730
864.8169735254988,1789
867.0503361589791,1763
869.2830932638243,1807
871.5152450654786,1816
873.7467917894654,1785
875.9777336613873,1781
878.2080709069252,1767
880.4378037518389,1812
882.666932421968,1756
884.8954571432301,1823
887.1233781416219,1815
889.3506956432192,1803
891.5774098741766,1794
893.803521060728,1838
896.0290294291852,1788
898.2539352059397,1816
900.4782386174619,1777
902.7019398903011,1828
904.925039251085,1783
907.147536926521,1819
909.3694331433943,1691
911.59072812857,1772
913.8114221089921,1792
916.0315153116827,1727
918.2510079637437,1731
920.4699002923547,1696
922.6881925247761,1778
924.905884888345,1701
927.1229776104793,1687
929.3394709186747,1799
931.555365040506,1756
933.7706602036275,1788
935.9853566357709,1800
938.1994545647489,1771
940.4129542184515,1711
942.6258558248488,1775
944.8381596119883,1774
947.0498658079974,1789
949.2609746410825,1751
951.4714863395287,1825
953.6814011316998,1816
955.8907192460387,1747
958.0994409110671,1728
960.3075663553858,1651
962.5150958076741,1782
964.7220294966913,1777
966.928367651274,1714
969.1341105003388,1791
971.3392582728806,1686
973.5438111979742,1716
975.747769504772,1762
977.9511334225061,1721
980.153903180487,1666
982.3560790081052,1683
984.5576611348289,1640
986.7586497902058,1710
988.9590452038618,1673
991.158847605503,1726
993.3580572249133,1599
995.5566742919558,1666
997.7546990365728,1601
999.952131688785,1536
1002.1489724786926,1594
1004.3452216364743,1542
1006.5408793923874,1530
1008.7359459767691,1500
1010.9304216200343,1555
1013.1243065526781,1450
1015.3176010052733,1471
1017.510305208472,1519
1019.7024193930064,1440
1021.8939437896848,1511
1024.0848786293977,1464
1026.2752241431122,1506
1028.4649805618747,1474
1030.6541481168115,1493
1032.842727039127,1461
1035.0307175601051,1461
1037.2181199111074,1430
1039.4049343235752,1431
1041.591161029029,1403
1043.7768002590683,1494
1045.9618522453698,1414
1048.1463172196918,1477
1050.3301954138697,1400
1052.513487059818,1411
1054.69619238953,1419
1056.8783116350783,1426
1059.0598450286152,1337
1061.2407928023704,1448
1063.4211551886528,1415
1065.6009324198508,1467
1067.780124728432,1481
1069.9587323469414,1399
1072.1367555080046,1432
1074.314194444325,1379
1076.4910493886855,1423
1078.667320573947,1443
1080.843008233051,1422
1083.0181125990161,1451
1085.1926339049414,1368
1087.3665723840027,1350
1089.5399282694575,1433
1091.7127017946405,1365
1093.8848931929647,1426
1096.0565026979243,1383
1098.2275305430899,1299
1100.3979769621128,1402
1102.567842188722,1353
1104.737126456726,1378
1106.9058300000124,1369
1109.0739530525475,1296
1111.2414958483764,1358
1113.4084586216231,1347
1115.5748416064907,1350
1117.7406450372605,1367
1119.9058691482942,1321
1122.0705141740304,1356
1124.2345803489884,1383
1126.3980679077658,1285
1128.5609770850388,1330
1130.7233081155623,1377
1132.8850612341707,1382
1135.0462366757774,1333
1137.2068346753745,1335
1139.3668554680326,1335
1141.526299288901,1338
1143.68516637321,1340
1145.8434569562655,1312
1148.001171273455,1339
1150.158309560244,1279
1152.3148720521767,1366
1154.470858984876,1358
1156.626270594044,1319
1158.7811071154629,1274
1160.9353687849912,1315
1163.089055838569,1328
1165.242168512213,1345
1167.3947070420209,1360
1169.5466716641677,1355
1171.6980626149075,1361
1173.8488801305748,1320
1175.9991244475814,1384
1178.1487958024186,1346
1180.2978944316555,1291
1182.4464205719428,1366
1184.5943744600072,1317
1186.7417563326567,1318
1188.8885664267755,1352
1191.0348049793297,1334
1193.1804722273619,1353
1195.325568407995,1285
1197.4700937584303,1292
1199.614048515948,1360
1201.7574329179074,1367
1203.900247201746,1341
1206.042491604982,1358
1208.1841663652099,1358
1210.3252717201053,1371
1212.465807907422,1349
1214.6057751649923,1376
1216.7451737307279,1330
1218.8840038426192,1387
1221.0222657387353,1382
1223.1599596572241,1371
1225.2970858363137,1409
1227.4336445143094,1389
1229.5696359295966,1413
1231.705060320639,1352
1233.8399179259786,1392
1235.9742089842384,1431
1238.107933734118,1400
1240.2410924143974,1407
1242.373685263935,1439
1244.5057125216676,1429
1246.6371744266116,1385
1248.7680712178621,1367
1250.898403134593,1371
1253.028170416058,1425
1255.1573733015875,1404
1257.2860120305932,1469
1259.4140868425648,1415
1261.54159797707,1452
1263.6685456737569,1430
1265.7949301723515,1401
1267.9207517126597,1428
1270.046010534565,1430
1272.1707068780306,1451
1274.2948409830983,1455
1276.4184130898889,1464
1278.541423438603,1408
1280.6638722695184,1439
1282.785759822993,1446
1284.9070863394636,1497
1287.0278520594447,1489
1289.1480572235314,1511
1291.2677020723963,1548
1293.3867868467923,1512
1295.5053117875495,1525
1297.623277135579,1475
1299.740683131868,1503
1301.8575300174857,1584
1303.973818033578,1552
1306.0895474213703,1676
1308.2047184221678,1594
1310.3193312773528,1591
1312.4333862283888,1563
1314.5468835168163,1611
1316.659823384255,1605
1318.7722060724045,1624
1320.8840318230418,1643
1322.9953008780249,1632
1325.1060134792888,1610
1327.2161698688478,1649
1329.3257702887959,1598
1331.4348149813054,1630
1333.5433041886276,1592
1335.6512381530933,1597
1337.7586171171101,1625
1339.8654413231675,1607
1341.9717110138317,1586
1344.0774264317488,1635
1346.1825878196432,1575
1348.2871954203192,1592
1350.3912494766587,1498
1352.4947502316231,1582
1354.5976979282532,1525
1356.7000928096686,1551
1358.8019351190665,1509
1360.9032250997243,1556
1363.0039629949988,1471
1365.1041490483235,1527
1367.2037835032133,1493
1369.3028666032606,1490
1371.401398592137,1519
1373.4993797135926,1456
1375.5968102114575,1483
1377.6936903296396,1481
1379.7900203121262,1530
1381.8858004029835,1523
1383.9810308463561,1563
1386.075711886469,1518
1388.1698437676241,1508
1390.2634267342032,1504
1392.356461030667,1520
1394.4489469015557,1484
1396.5408845914872,1500
1398.6322743451592,1480
1400.7231164073469,1562
1402.813411022907,1521
1404.903158436773,1517
1406.9923588939578,1521
1409.0810126395531,1515
1411.1691199187303,1545
1413.2566809767386,1563
1415.343696058907,1562
1417.4301654106425,1558
1419.5160892774315,1504
1421.6014679048399,1610
1423.6863015385125,1544
1425.7705904241707,1518
1427.8543348076178,1515
1429.9375349347342,1563
1432.0201910514802,1587
1434.102303403894,1549
1436.1838722380944,1587
1438.2648978002767,1605
1440.3453803367174,1515
1442.4253200937692,1635
1444.5047173178677,1598
1446.5835722555234,1661
1448.6618851533285,1619
1450.739656257952,1685
1452.8168858161434,1690
1454.8935740747306,1658
1456.96972128062,1727
1459.045327680797,1660
1461.120393522327,1648
1463.1949190523528,1678
1465.2689045180973,1708
1467.3423501668608,1760
1469.415256246024,1744
1471.4876230030463,1763
1473.559450685465,1728
1475.6307395408976,1814
1477.7014898170391,1838
1479.771701761665,1831
1481.8413756226287,1769
1483.9105116478618,1858
1485.9791100853772,1869
1488.0471711832643,1951
1490.1146951896926,1939
1492.1816823529098,1932
1494.2481329212433,1890
1496.3140471430984,1885
1498.3794252669609,1916
1500.4442675413939,1974
1502.5085742150404,2020
1504.572345536622,1888
1506.6355817549388,1931
1508.6982831188702,1994
1510.7604498773744,1976
1512.8220822794883,2048
1514.8831805743293,2076
1516.9437450110909,2000
1519.003775839048,2006
1521.0632733075522,2113
1523.1222376660367,2030
1525.1806691640113,2031
1527.2385680510652,2107
1529.2959345768668,2093
1531.3527689911643,2116
1533.4090715437833,2154
1535.4648424846291,2114
1537.5200820636855,2195
1539.5747905310159,2241
1541.6289681367616,2360
1543.6826151311434,2312
1545.7357317644614,2250
1547.7883182870937,2247
1549.8403749494987,2415
1551.8919020022113,2402
1553.9428996958477,2408
1555.9933682811015,2476
1558.0433080087469,2534
1560.0927191296346,2605
1562.1416018946961,2534
1564.1899565549415,2547
1566.2377833614592,2581
1568.2850825654164,2559
1570.3318544180606,2505
1572.3780991707158,2504
1574.423817074788,2412
1576.4690083817595,2447
1578.5136733431923,2302
1580.5578122107272,2258
1582.601425236085,2264
1584.6445126710646,2168
1586.6870747675434,2092
1588.7291117774776,2051
1590.7706239529034,2005
1592.8116115459347,2008
1594.8520748087658,1837
1596.8920139936686,1864
1598.9314293529933,1884
1600.9703211391711,1765
1603.008689604711,1752
1605.0465350022005,1710
1607.0838575843068,1648
1609.1206576037753,1637
1611.1569353134305,1666
1613.1926909661765,1618
1615.2279248149953,1621
1617.2626371129481,1600
1619.2968281131757,1544
1621.3304980688963,1519
1623.3636472334088,1556
1625.39627586009,1543
1627.428384202396,1553
1629.459972513861,1472
1631.4910410480993,1487
1633.5215900588028,1447
1635.551619799744,1503
1637.5811305247717,1441
1639.6101224878166,1398
1641.6385959428862,1376
1643.6665511440683,1485
1645.693988345528,1453
1647.7209078015112,1440
1649.7473097663405,1408
1651.7731944944203,1299
1653.7985622402307,1378
1655.823413258333,1431
1657.847747803366,1422
1659.8715661300494,1427
1661.8948684931793,1355
1663.9176551476316,1414
1665.9399263483624,1364
1667.9616823504057,1353
1669.982923408873,1375
1672.0036497789574,1361
1674.0238617159293,1369
1676.043559475138,1308
1678.0627433120121,1320
1680.081413482059,1327
1682.0995702408654,1305
1684.117213844096,1358
1686.134344547495,1383
1688.1509626068864,1351
1690.1670682781705,1369
1692.182661817329,1319
1694.1977434804217,1402
1696.2123135235875,1380
1698.226372203043,1357
1700.2399197750851,1377
1702.2529564960905,1374
1704.2654826225112,1302
1706.277498410882,1323
1708.2890041178139,1317
1710.2999999999988,1346
1712.3104863142066,1318
1714.3204633172854,1286
1716.329931266163,1350
1718.3388904178469,1310
1720.3473410294214,1364
1722.3552833580516,1390
1724.3627176609807,1353
1726.3696441955308,1354
1728.3760632191033,1396
1730.3819749891782,1282
1732.3873797633146,1368
1734.3922777991502,1355
1736.3966693544012,1327
1738.4005546868639,1323
1740.4039340544127,1399
1742.406807715001,1362
1744.4091759266616,1333
1746.4110389475054,1321
1748.4123970357223,1302
1750.413250449582,1300
1752.4135994474318,1291
1754.4134442876993,1267
1756.4127852288902,1299
1758.4116225295893,1302
1760.4099564484595,1321
1762.407787244244,1286
1764.405115175764,1310
1766.4019405019203,1287
1768.3982634816916,1297
1770.3940843741357,1334
1772.3894034383907,1303
1774.3842209336717,1273
1776.378537119274,1359
1778.372352254571,1276
1780.3656665990156,1308
1782.3584804121397,1267
1784.3507939535534,1316
1786.3426074829463,1273
1788.3339212600863,1312
1790.3247355448211,1291
1792.3150505970766,1309
1794.3048666768573,1318
1796.2941840442477,1290
1798.2830029594106,1249
1800.2713236825884,1297
1802.2591464741004,1288
1804.2464715943465,1324
1806.2332993038058,1351
1808.2196298630352,1310
1810.2054635326708,1280
1812.190800573428,1318
1814.175641246101,1271
1816.1599858115628,1289
1818.1438345307652,1258
1820.127187664738,1323
1822.1100454745924,1272
1824.092408221516,1241
1826.0742761667766,1268
1828.055649571721,1278
1830.0365286977735,1263
1832.0169138064398,1338
1833.9968051593014,1309
1835.9762030180214,1304
1837.9551076443408,1276
1839.9335193000788,1272
1841.9114382471344,1348
1843.888864747485,1260
1845.8657990631878,1217
1847.842241456378,1312
1849.8181921892697,1245
1851.7936515241558,1282
1853.7686197234098,1285
1855.7430970494815,1274
1857.7170837649014,1231
1859.6905801322787,1262
1861.6635864143004,1278
1863.6361028737338,1243
1865.608129773424,1306
1867.5796673762961,1311
1869.5507159453537,1316
1871.521275743678,1304
1873.4913470344313,1330
1875.4609300808534,1299
1877.4300251462632,1311
1879.3986324940588,1310
1881.366752387717,1280
1883.3343850907936,1296
1885.3015308669228,1258
1887.268189979819,1284
1889.2343626932739,1297
1891.2000492711595,1304
1893.1652499774254,1301
1895.1299650761011,1332
1897.0941948312952,1330
1899.0579395071945,1250
1901.0211993680641,1295
1902.98397467825,1272
1904.9462657021745,1280
1906.9080727043415,1321
1908.869395949332,1320
1910.8302357018065,1362
1912.790592226504,1285
1914.7504657882428,1233
1916.7098566519212,1328
1918.6687650825133,1314
1920.6271913450764,1297
1922.5851357047422,1236
1924.5425984267245,1266
1926.499579776314,1297
1928.4560800188833,1291
1930.4120994198802,1304
1932.367638244833,1297
1934.32269675935,1317
1936.2772752291175,1354
1938.231373919899,1323
1940.1849930975404,1354
1942.1381330279637,1244
1944.0907939771696,1266
1946.0429762112412,1254
1947.9946799963363,1301
1949.9459055986945,1355
1951.896653284633,1235
1953.8469233205478,1366
1955.7967159729142,1303
1957.7460315082863,1307
1959.6948701932974,1283
1961.6432322946594,1281
1963.5911180791632,1295
1965.5385278136787,1263
1967.4854617651545,1302
1969.4319202006182,1299
1971.377903387176,1258
1973.3234115920136,1298
1975.268445082395,1289
1977.2130041256642,1291
1979.1570889892423,1336
1981.1006999406304,1281
1983.04383724741,1300
1984.986501177238,1254
1986.928691997853,1283
1988.8704099770712,1271
1990.811655382789,1267
1992.7524284829801,1273
1994.692729545698,1236
1996.6325588390755,1279
1998.5719166313224,1249
2000.5108031907307,1253
2002.4492187856677,1227
2004.387163684583,1252
2006.3246381560011,1254
2008.2616424685298,1239
2010.1981768908527,1255
2012.1342416917332,1216
2014.069837140014,1296
2016.0049635046162,1270
2017.9396210545406,1235
2019.8738100588666,1264
2021.8075307867502,1307
2023.740783507431,1236
2025.6735684902228,1244
2027.6058860045214,1258
2029.5377363198004,1257
2031.4691197056118,1278
2033.4000364315875,1286
2035.3304867674374,1301
2037.260470982952,1301
2039.189989347998,1223
2041.1190421325232,1203
2043.047629606554,1188
2044.9757520401945,1251
2046.9034097036288,1235
2048.8306028671195,1248
2050.7573318010086,1214
2052.683596775716,1266
2054.609398061742,1248
2056.5347359296647,1286
2058.4596106501403,1213
2060.384022493906,1253
2062.3079717317764,1267
2064.231458634646,1253
2066.1544834734873,1229
2068.077046519352,1224
2069.99914804337,1237
2071.9207883167524,1234
2073.8419676107865,1176
2075.7626861968406,1286
2077.6829443463607,1232
2079.6027423308715,1245
2081.522080421977,1217
2083.440958891362,1205
2085.359378010786,1223
2087.2773380520907,1231
2089.194839287196,1252
2091.111881988101,1230
2093.0284664268825,1235
2094.9445928756973,1179
2096.86026160678,1291
2098.775472892446,1230
2100.690227005088,1317
2102.604524217178,1223
2104.5183648012676,1237
2106.431749029985,1264
2108.34467717604,1276
2110.2571495122206,1260
2112.169166311393,1225
2114.080727846503,1255
2115.9918343905747,1169
2117.902486216711,1245
2119.8126835980956,1222
2121.722426807987,1210
2123.6317161197285,1261
2125.5405518067364,1271
2127.448934142509,1277
2129.356863400624,1307
2131.264339854737,1314
2133.1713637785815,1289
2135.077935445972,1254
2136.9840551308002,1245
2138.889723107037,1270
2140.7949396487334,1271
2142.699705030018,1280
2144.6040195250994,1214
2146.507883408264,1228
2148.4112969538774,1277
2150.3142604363848,1284
2152.2167741303097,1278
2154.1188383102535,1274
2156.0204532508997,1270
2157.9216192270064,1269
2159.822336513414,1267
2161.7226053850413,1278
2163.622426116884,1241
2165.5217989840185,1262
2167.4207242616,1277
2169.319202224862,1281
2171.2172331491165,1296
2173.1148173097563,1299
2175.0119549822507,1277
2176.90864644215,1310
2178.8048919650823,1319
2180.7006918267534,1321
2182.596046302952,1312
2184.4909556695407,1285
2186.3854202024645,1327
2188.279440177746,1358
2190.173015871487,1340
2192.066147559868,1323
2193.958835519149,1222
2195.851080025667,1310
2197.7428813558417,1292
2199.6342397861667,1330
2201.5251555932186,1331
2203.415629053651,1302
2205.3056604441986,1361
2207.19525004167,1317
2209.084398122958,1291
2210.9731049650327,1335
2212.861370844941,1324
2214.749196039812,1342
2216.636580826851,1322
2218.523525483344,1343
2220.410030286655,1361
2222.296095514226,1343
2224.1817214435805,1344
2226.066908352319,1318
2227.951656518121,1320
2229.835966218746,1316
2231.71983773203,1355
2233.6032713358913,1309
2235.486267308324,1332
2237.3688259274036,1366
2239.2509474712824,1291
2241.132632218193,1389
2243.013880446447,1366
2244.8946924344323,1327
2246.7750684606203,1306
2248.6550088035574,1306
2250.534513741871,1349
2252.413583554265,1337
2254.292218519526,1381
2256.170418916517,1353
2258.0481850241786,1366
2259.925517121534,1291
2261.8024154876825,1279
2263.678880401803,1344
2265.5549121431536,1304
2267.430510991071,1312
2269.305677224971,1367
2271.180411124348,1249
2273.0547129687766,1297
2274.9285830379076,1300
2276.8020216114737,1339
2278.6750289692845,1283
2280.5476053912294,1366
2282.4197511572766,1346
2284.2914665474727,1389
2286.162751841943,1293
2288.0336073208937,1373
2289.904033264608,1360
2291.774029953448,1350
2293.6435976678554,1347
2295.5127366883517,1324
2297.381447295534,1225
2299.2497297700825,1296
2301.1175843927526,1251
2302.9850114443825,1226
2304.852011205885,1242
2306.7185839582553,1245
2308.5847299825664,1202
2310.4504495599676,1205
2312.3157429716925,1177
2314.1806104990483,1219
2316.0450524234247,1226
2317.9090690262888,1178
2319.772660589186,1189
2321.635827393742,1215
2323.498569721661,1179
2325.3608878547248,1234
2327.2227820747967,1251
2329.0842526638157,1221
2330.945299903803,1230
2332.805924076857,1170
2334.6661254651535,1163
2336.525904350951,1184
2338.3852610165827,1155
2340.244195744464,1172
2342.102708817088,1174
2343.9608005170253,1248
2345.8184711269287,1226
2347.675720929526,1257
2349.532550207628,1213
2351.38895924412,1158
2353.24494832197,1211
2355.100517724223,1218
2356.955667734004,1203
2358.810398634514,1178
2360.664710709037,1157
2362.5186042409337,1187
2364.3720795136437,1245
2366.225136810686,1222
2368.0777764156583,1176
2369.929998612237,1199
2371.7818036841777,1171
2373.633191915315,1113
2375.484163589562,1186
2377.3347189909114,1186
2379.184858403434,1178
2381.03458211128,1234
2382.8838903986775,1230
2384.732783549936,1185
2386.5812618494406,1192
2388.4293255816588,1226
2390.2769750311327,1173
2392.1242104824883,1208
2393.971032220427,1225
2395.8174405297295,1203
2397.6634356952563,1193
2399.509018001947,1211
2401.3541877348193,1211
2403.1989451789705,1209
2405.043290619576,1237
2406.8872243418905,1228
2408.730746631247,1183
2410.5738577730594,1204
2412.4165580528183,1197
2414.258847756095,1283
2416.100727168537,1207
2417.9421965758734,1178
2419.783256263912,1262
2421.623906518538,1199
2423.4641476257157,1226
2425.303979871491,1192
2427.143403541984,1235
2428.9824189233977,1215
2430.821026302012,1211
2432.6592259641866,1217
2434.497018196361,1210
2436.33440328505,1256
2438.171381516851,1213
2440.00795317844,1237
2441.844118556569,1216
2443.6798779380724,1243
2445.5152316098606,1226
2447.3501798589255,1252
2449.1847229723357,1191
2451.0188612372403,1259
2452.8525949408663,1276
2454.6859243705203,1227
2456.518849813587,1273
2458.3513715575314,1195
2460.183489889895,1246
2462.015205098301,1195
2463.8465174704493,1204
2465.67742729412,1181
2467.5079348571717,1230
2469.338040447542,1210
2471.1677443532476,1205
2472.9970468623833,1219
2474.825948263123,1256
2476.6544488437207,1229
2478.482548892508,1155
2480.310248697896,1235
2482.137548548374,1202
2483.9644487325118,1181
2485.790949538956,1242
2487.617051256433,1275
2489.44275417375,1249
2491.26805857979,1295
2493.0929647635157,1338
2494.917473013971,1262
2496.741583620276,1304
2498.5652968716304,1244
2500.3886130573137,1237
2502.2115324666834,1208
2504.0340553891765,1224
2505.856182114308,1255
2507.6779129316733,1292
2509.499248130945,1320
2511.3201880018764,1234
2513.140732834298,1264
2514.9608829181198,1277
2516.780638543331,1278
2518.6,1194
2520.418967578273,1262
2522.237541568376,1273
2524.0557222606144,1322
2525.8735099453706,1289
2527.6909049131086,1251
2529.507907454368,1297
2531.32451785977,1298
2533.140736420014,1286
2534.9565634258774,1277
2536.771999168218,1310
2538.5870439379714,1337
2540.4016980261526,1341
2542.2159617238544,1316
2544.02983532225,1290
2545.8433191125914,1323
2547.656413386209,1383
2549.4691184345115,1325
2551.2814345489874,1327
2553.093362021204,1350
2554.904901142808,1362
2556.716052205523,1378
2558.526815501153,1376
2560.3371913215824,1336
2562.147179958771,1405
2563.956781704761,1384
2565.7659968516705,1374
2567.5748256916986,1391
2569.3832685171224,1435
2571.1913256202984,1412
2572.9989972936614,1391
2574.806283829725,1391
2576.613185521084,1443
2578.4197026604074,1415
2580.2258355404483,1411
2582.031584454035,1430
2583.836949694077,1455
2585.6419315535613,1416
2587.4465303255533,1380
2589.2507463032002,1450
2591.0545797797245,1470
2592.8580310484303,1406
2594.6611004026995,1463
2596.463788135992,1457
2598.266094541849,1392
2600.0680199138874,1407
2601.869564545807,1415
2603.670728731383,1442
2605.4715127644704,1360
2607.2719169390048,1461
2609.071941548998,1443
2610.8715868885433,1385
2612.670853251811,1453
2614.469740933052,1462
2616.268250226594,1377
2618.0663814268455,1446
2619.864134828292,1430
2621.6615107255006,1421
2623.458509413115,1414
2625.2551311858597,1376
2627.0513763385347,1389
2628.8472451660223,1399
2630.6427379632833,1321
2632.4378550253564,1378
2634.232596647359,1355
2636.026963124488,1386
2637.8209547520187,1357
2639.6145718253065,1346
2641.407814639785,1394
2643.200683490966,1318
2644.9931786744414,1412
2646.7853004858807,1354
2648.577049221034,1356
2650.3684251757277,1359
2652.1594286458712,1316
2653.9500599274484,1326
2655.740319316525,1326
2657.5302071092437,1324
2659.3197236018286,1243
2661.10886909058,1299
2662.8976438718782,1316
2664.686048242183,1266
2666.4740824980327,1354
2668.2617469360443,1268
2670.0490418529134,1249
2671.8359675454153,1314
2673.622524310403,1314
2675.408712444811,1258
2677.1945322456495,1316
2678.979984010009,1254
2680.76506803506,1323
2682.5497846180497,1244
2684.334134056306,1243
2686.1181166472343,1260
2687.9017326883213,1279
2689.6849824771293,1236
2691.4678663113013,1270
2693.2503844885596,1241
2695.032537306705,1216
2696.8143250636167,1245
2698.5957480572542,1197
2700.3768065856534,1230
2702.1575009469316,1186
2703.937831439283,1231
2705.717798360982,1186
2707.4974020103837,1193
2709.276642685917,1192
2711.055520686095,1208
2712.834036309506,1159
2714.612189854819,1211
2716.389981620782,1182
2718.1674119062204,1199
2719.944481010041,1192
2721.721189231226,1189
2723.4975368688415,1172
2725.273524222027,1241
2727.0491515900053,1182
2728.824419272075,1179
2730.5993275676146,1218
2732.3738767760838,1231
2734.148067197016,1165
2735.921899130031,1189
2737.6953728748194,1155
2739.468488731156,1159
2741.2412469988926,1213
2743.0136479779617,1197
2744.785691968372,1161
2746.5573792702116,1215
2748.3287101836504,1216
2750.099685008934,1186
2751.870304046388,1180
2753.640567596418,1201
2755.4104759595057,1207
2757.1800294362156,1214
2758.949228327187,1117
2760.7180729331412,1133
2762.486563554877,1183
2764.254700493272,1228
2766.022484049284,1173
2767.789914523947,1174
2769.5569922183786,1163
2771.3237174337705,1189
2773.090090471394,1151
2774.8561116326036,1166
2776.6217812188274,1228
2778.3870995315756,1230
2780.1520668724356,1228
2781.9166835430747,1173
2783.6809498452394,1113
2785.444866080754,1221
2787.2084325515225,1160
2788.971649559527,1178
2790.73451740683,1184
2792.4970363955713,1196
2794.2592068279705,1220
2796.0210290063264,1162
2797.7825032330147,1126
2799.543629810493,1140
2801.304409041296,1162
2803.0648412280366,1196
2804.8249266734088,1172
2806.5846656801846,1181
2808.344058551212,1210
2810.1031055894246,1138
2811.8618070978273,1221
2813.6201633795085,1155
2815.378174737636,1153
2817.1358414754536,1136
2818.893163896285,1124
2820.6501423035334,1173
2822.4067770006814,1130
2824.1630682912883,1152
2825.9190164789957,1160
2827.6746218675207,1208
2829.429884760661,1148
2831.184805462294,1164
2832.9393842763743,1153
2834.693621506936,1187
2836.4475174580916,1198
2838.201072434034,1147
2839.954286739034,1149
2841.707160677441,1161
2843.459694553685,1194
2845.2118886722724,1220
2846.96374333779,1184
2848.7152588549034,1184
2850.4664355283567,1176
2852.217273662973,1153
2853.9677735636546,1202
2855.7179355353833,1189
2857.4677598832186,1200
2859.217246912299,1181
2860.9663969278427,1174
2862.715210235146,1154
2864.4636871395846,1208
2866.211827946614,1130
2867.9596329617652,1116
2869.7071024906536,1187
2871.4542368389684,1125
2873.20103631248,1211
2874.947501217038,1119
2876.6936318585695,1138
2878.4394285430812,1137
2880.1848915766604,1149
2881.9300212654707,1161
2883.6748179157553,1204
2885.4192818338374,1164
2887.1634133261173,1197
2888.907212699077,1151
2890.6506802592744,1123
2892.393816313348,1176
2894.1366211680142,1148
2895.8790951300693,1189
2897.621238506388,1123
2899.363051603925,1178
2901.1045347297118,1180
2902.8456881908596,1178
2904.58651229456,1161
2906.327007348081,1164
2908.067173658772,1157
2909.8070115340597,1192
2911.5465212814497,1165
2913.285703208527,1154
2915.0245576229563,1089
2916.7630848324807,1146
2918.5012851449196,1166
2920.2391588681758,1144
2921.976706310227,1124
2923.7139277791334,1190
2925.4508235830313,1108
2927.187394030137,1172
2928.923639428745,1143
2930.6595600872306,1136
2932.395156314046,1170
2934.1304284177218,1147
2935.8653767068713,1148
2937.6000014901815,1180
2939.3343030764227,1181
2941.068281774442,1148
2942.8019378931644,1172
2944.5352717415976,1174
2946.2682836288236,1178
2948.0009738640065,1206
2949.7333427563885,1176
2951.465390615289,1189
2953.1971177501086,1206
2954.9285244703265,1156
2956.6596110855,1172
2958.3903779052657,1165
2960.1208252393385,1132
2961.8509533975125,1194
2963.5807626896617,1180
2965.3102534257378,1129
2967.0394259157715,1157
2968.768280469873,1102
2970.496817398232,1117
2972.2250370111146,1132
2973.952939618869,1146
2975.6805255319196,1160
2977.4077950607707,1199
2979.134748516006,1162
2980.861386208289,1113
2982.587708448359,1150
2984.313715547037,1158
2986.039407815222,1162
2987.764785563891,1179
2989.489849104102,1168
2991.2145987469908,1116
2992.9390348037705,1111
2994.6631575857346,1130
2996.3869674042576,1151
2998.1104645707887,1128
2999.83364939686,1155
3001.5565221940783,1131
3003.2790832741334,1231
3005.0013329487924,1185
3006.7232715298996,1154
3008.4448993293804,1134
3010.166216659239,1101
3011.887223831558,1152
3013.607921158498,1107
3015.3283089522993,1113
3017.0483875252826,1189
3018.7681571898443,1134
3020.4876182584626,1093
3022.2067710436927,1123
3023.9256158581707,1198
3025.644153014609,1161
3027.362382825801,1116
3029.0803056046193,1112
3030.797921664012,1135
3032.5152313170106,1138
3034.2322348767225,1150
3035.9489326563353,1104
3037.665324969115,1146
3039.3814121284063,1080
3041.097194447633,1127
3042.812672240299,1127
3044.5278458199855,1125
3046.2427155003525,1153
3047.9572815951406,1129
3049.671544418167,1177
3051.38550428333,1135
3053.0991615046073,1161
3054.812516396051,1107
3056.5255692717974,1125
3058.2383204460575,1181
3059.9507702331257,1126
3061.662918947372,1139
3063.3747669032446,1138
3065.0863144152736,1148
3066.7975617980674,1115
3068.508509366309,1134
3070.219157434767,1138
3071.9295063182844,1094
3073.639556331785,1112
3075.3493077902704,1130
3077.058761008821,1109
3078.7679163025964,1159
3080.476773986837,1129
3082.1853343768594,1127
3083.89359778806,1122
3085.6015645359153,1177
3087.3092349359786,1154
3089.016609303884,1122
3090.7236879553434,1165
3092.4304712061476,1147
3094.136959372166,1149
3095.843152769349,1136
3097.5490517137237,1110
3099.2546565213966,1125
3100.959967508554,1121
3102.66498499146,1173
3104.3697092864577,1130
3106.0741407099695,1161
3107.778279578498,1143
3109.482126208622,1164
3111.1856809170004,1144
3112.8889440203716,1130
3114.5919158355528,1132
3116.294596679439,1156
3117.996986869006,1174
3119.6990867213062,1162
3121.4008965534726,1164
3123.102416682717,1160
3124.803647426329,1190
3126.5045891016784,1162
3128.205242026213,1148
3129.90560651746,1176
3131.605682893025,1194
3133.3054714705922,1134
3135.0049725679282,1149
3136.7041865028714,1154
3138.4031135933465,1118
3140.101754157353,1116
3141.800108512971,1157
3143.498176978357,1168
3145.1959598717494,1139
3146.8934575114636,1108
3148.5906702158954,1112
3150.2875983035183,1102
3151.9842420928853,1075
3153.680601902627,1128
3155.376678051456,1118
3157.07247085816,1198
3158.767980641609,1112
3160.463207720748,1110
3162.158152414606,1130
3163.8528150422862,1101
3165.5471959229726,1152
3167.2412953759303,1158
3168.9351137204976,1140
3170.628651276098,1183
3172.3219083622307,1134
3174.014885298474,1145
3175.707582404485,1197
3177.4000000000005,1147
3179.092138404835,1136
3180.7839979388846,1171
3182.47557892212,1099
3184.166881674594,1120
3185.8579065164386,1147
3187.5486537678626,1133
3189.2391237491547,1127
3190.9293167806827,1126
3192.6192331828934,1112
3194.3088732763117,1104
3195.998237381542,1136
3197.687325819268,1154
3199.376138910251,1178
3201.064676975334,1142
3202.7529403354347,1064
3204.4409293115523,1084
3206.1286442247647,1128
3207.816085396229,1104
3209.5032531471825,1086
3211.190147798936,1160
3212.8767696728846,1140
3214.5631190905015,1041
3216.2491963733373,1079
3217.9350018430214,1130
3219.6205358212637,1078
3221.305798629851,1082
3222.990790590651,1115
3224.6755120256103,1124
3226.359963256751,1102
3228.0441446061795,1110
3229.7280563960758,1157
3231.411698948703,1098
3233.0950725863995,1107
3234.778177631587,1128
3236.461014406761,1135
3238.1435832345005,1132
3239.8258844374595,1149
3241.507918338374,1142
3243.1896852600576,1151
3244.8711855254023,1126
3246.552419457381,1123
3248.233387379042,1080
3249.914089613516,1144
3251.59452648401,1122
3253.274698313813,1118
3254.95460542629,1110
3256.6342481448855,1121
3258.313626793125,1115
3259.9927416946084,1040
3261.6715931730196,1091
3263.3501815521176,1121
3265.0285071557437,1097
3266.706570307815,1118
3268.3843713323286,1088
3270.0619105533615,1086
3271.739188295068,1148
3273.4162048816834,1122
3275.0929606375184,1147
3276.769455886966,1119
3278.445690954498,1093
3280.1216661646613,1113
3281.797381842087,1089
3283.4728383114807,1134
3285.1480358976296,1111
3286.8229749253996,1107
3288.4976557197333,1189
3290.172078605655,1098
3291.846243908266,1127
3293.5201519527463,1105
3295.193803064357,1112
3296.8671975684374,1100
3298.5403357904024,1123
3300.21321805575,1059
3301.8858446900567,1095
3303.558216018975,1160
3305.23033236824,1093
3306.9021940636603,1097
3308.57380143113,1121
3310.2451547966184,1153
3311.916254486174,1130
3313.5871008259246,1158
3315.2576941420766,1110
3316.9280347609147,1109
3318.5981230088046,1153
3320.2679592121895,1104
3321.9375436975924,1112
3323.606876791612,1114
3325.27595882093,1129
3326.944790112305,1063
3328.6133709925753,1099
3330.2817017886573,1095
3331.949782827547,1064
3333.617614436319,1084
3335.2851969421245,1105
3336.952530672199,1094
3338.619615953853,1131
3340.286453114475,1120
3341.9530424815357,1111
3343.619384382583,1088
3345.2854791452437,1107
3346.951327097224,1104
3348.6169285663073,1125
3350.2822838803577,1120
3351.947393367319,1143
3353.61225735521,1134
3355.2768761721345,1085
3356.9412501462693,1089
3358.605379605873,1096
3360.2692648792827,1108
3361.9329062949146,1091
3363.596304181263,1072
