CollectionTime,9/20/2024 11:20:14 AM
ExposureUsed,3
CalibratedSpectrum
-962.7078968117929,536
-959.9714848408522,559
-957.2358232597828,587
-954.5009119013725,583
-951.7667505983302,588
-949.0333391832855,597
-946.3006774887896,598
-943.5687653473143,576
-940.837602591253,615
-938.1071890529199,544
-935.3775245645503,573
-932.6486089583007,556
-929.9204420662485,592
-927.1930237203925,573
-924.4663537526524,593
-921.7404319948689,608
-919.0152582788041,608
-916.2908324361409,627
-913.5671542984834,581
-910.8442236973568,572
-908.1220404642074,572
-905.4006044304027,563
-902.679915427231,587
-899.959973285902,549
-897.2407778375464,556
-894.5223289132158,565
-891.8046263438832,529
-889.0876699604426,583
-886.3714595937089,577
-883.6559950744183,555
-880.9412762332282,538
-878.2273029007168,574
-875.5140749073835,583
-872.8015920836489,576
-870.0898542598545,562
-867.3788612662631,595
-864.6686129330585,611
-861.9591090903457,581
-859.2503495681506,567
-856.5423341964203,550
-853.8350628050229,570
-851.1285352237478,588
-848.4227512823054,590
-845.7177108103272,586
-843.0134136373656,591
-840.3098595928943,576
-837.6070485063082,611
-834.9049802069229,592
-832.2036545239757,536
-829.5030712866244,545
-826.8032303239481,574
-824.1041314649472,616
-821.4057745385428,608
-818.7081593735775,590
-816.0112857988148,583
-813.3151536429393,554
-810.6197627345566,587
-807.9251129021936,579
-805.2312039742981,612
-802.5380357792392,615
-799.8456081453069,636
-797.1539209007124,608
-794.462973873588,620
-791.772766891987,645
-789.083299783884,635
-786.3945723771743,610
-783.7065844996748,598
-781.0193359791231,589
-778.3328266431781,593
-775.6470563194197,588
-772.9620248353489,572
-770.2777320183878,601
-767.5941776958798,599
-764.9113616950891,627
-762.2292838432011,598
-759.5479439673222,576
-756.8673418944801,602
-754.1874774516235,640
-751.5083504656222,600
-748.8299607632671,600
-746.15230817127,671
-743.475392516264,630
-740.7992136248035,612
-738.1237713233636,630
-735.4490654383407,598
-732.7750957960521,610
-730.1018622227365,613
-727.4293645445534,623
-724.7576025875837,626
-722.0865761778291,572
-719.4162851412126,649
-716.7467293035781,637
-714.0779084906909,658
-711.409822528237,674
-708.7424712418238,670
-706.0758544569796,634
-703.4099719991541,618
-700.7448236937178,650
-698.0804093659622,630
-695.4167288411002,631
-692.7537819442656,604
-690.0915685005134,613
-687.4300883348199,662
-684.7693412720819,666
-682.1093271371178,643
-679.4500457546669,610
-676.7914969493897,615
-674.1336805458676,626
-671.4765963686034,661
-668.8202442420206,662
-666.1646239904642,636
-663.5097354382001,644
-660.8555784094151,656
-658.2021527282176,624
-655.5494582186366,634
-652.8974947046223,648
-650.2462620100463,696
-647.5957599587009,659
-644.9459883742998,714
-642.2969470804776,670
-639.6486359007902,689
-637.0010546587141,684
-634.3542031776476,685
-631.7080812809096,686
-629.0626887917401,714
-626.4180255333008,674
-623.7740913286734,672
-621.1308860008619,681
-618.4884093727904,689
-615.8466612673046,680
-613.2056415071715,648
-610.5653499150785,697
-607.9257863136347,690
-605.28695052537,670
-602.6488423727357,691
-600.0114616781036,685
-597.3748082637674,699
-594.7388819519412,732
-592.1036825647604,697
-589.4692099242818,717
-586.8354638524829,724
-584.2024441712624,719
-581.5701507024403,778
-578.9385832677575,758
-576.3077416888759,768
-573.6776257873787,703
-571.0482353847704,702
-568.4195703024757,705
-565.7916303618415,732
-563.164415384135,694
-560.5379251905453,735
-557.9121596021815,697
-555.2871184400748,730
-552.6628015251767,781
-550.0392086783606,719
-547.4163397204204,760
-544.794194472071,783
-542.1727727539491,774
-539.5520743866118,767
-536.9320991905377,823
-534.3128469861261,813
-531.6943175936979,858
-529.0765108334947,811
-526.4594265256793,872
-523.8430644903358,957
-521.2274245474689,1058
-518.612506517005,1155
-515.9983102187913,1204
-513.3848354725959,1229
-510.77208209810846,1278
-508.16004991493924,1395
-505.5487387426199,1437
-502.9381484006032,1390
-500.3282787082628,1409
-497.71912948489364,1371
-495.1107005497117,1228
-492.5029917218539,1021
-489.8960028203786,972
-487.28973366426493,888
-484.68418407241325,914
-482.07935386364494,834
-479.47524285670266,884
-476.87185087025,862
-474.2691777228715,921
-471.66722323307334,872
-469.0659872192821,908
-466.4654694998459,870
-463.86566989303384,861
-461.26658821703614,830
-458.66822428996414,856
-456.07057792985,887
-453.4736489546475,878
-450.877437182231,865
-448.28194243039627,881
-445.68716451686,857
-443.09310325926003,820
-440.49975847515555,836
-437.9071299820263,891
-435.31521759727354,930
-432.72402113821954,888
-430.13354042210767,880
-427.5437752661022,854
-424.95472548728867,874
-422.36639090267386,924
-419.7787713291855,944
-417.1918665836721,929
-414.60567648290385,947
-412.0202008435715,911
-409.4354394822874,970
-406.8513922155845,915
-404.26805885991723,944
-401.685439231661,974
-399.103533147112,962
-396.522340422488,966
-393.9418608739278,884
-391.3620943174908,924
-388.7830405691583,861
-386.2046994448317,850
-383.6270707603344,872
-381.05015433141045,878
-378.473949973725,785
-375.8984575028645,803
-373.32367673433623,720
-370.74960748356875,737
-368.1762495659117,664
-365.60360279663576,595
-363.03166699093265,588
-360.4604419639154,534
-357.8899275306178,533
-355.32012350599507,534
-352.7510297049233,503
-350.1826459421999,509
-347.61497203254316,479
-345.04800779059235,510
-342.4817530309082,540
-339.91620756797226,560
-337.35137121618743,553
-334.7872437898774,545
-332.22382510328725,534
-329.66111497058273,509
-327.09911320585127,458
-324.53781962310075,549
-321.9772340362607,512
-319.4173562591816,509
-316.8581861056348,494
-314.2997233893127,513
-311.7419679238294,514
-309.1849195227194,552
-306.62857799943856,594
-304.0729431673641,536
-301.51801483979375,491
-298.963792829947,520
-296.41027695096386,507
-293.85746701590574,549
-291.3053628377552,571
-288.7539642294155,599
-286.2032710037115,586
-283.65328297338897,602
-281.1039999511146,654
-278.5554217494762,631
-276.007548180983,609
-273.4603790580651,604
-270.9139141930734,583
-268.3681533982807,632
-265.8230964858798,642
-263.27874326798565,764
-260.7350935566336,770
-258.1921471637804,747
-255.6499039013039,776
-253.10836358100266,780
-250.56752601459698,700
-248.02739101372765,724
-245.48795838995704,705
-242.94922795476816,737
-240.41119951956557,762
-237.8738728956746,707
-235.33724789434166,732
-232.80132432673452,738
-230.2661020039418,704
-227.73158073697357,731
-225.19776033676033,722
-222.66464061415422,843
-220.1322213799284,812
-217.60050244477725,765
-215.06948361931552,747
-212.53916471408013,867
-210.00954553952818,808
-207.48062590603843,786
-204.9524056239104,755
-202.4248845033651,847
-199.8980623545441,868
-197.37193898751036,896
-194.84651421224817,883
-192.32178783866232,857
-189.79775967657952,785
-187.27442953574644,894
-184.7517972258321,885
-182.2298625564256,851
-179.7086253370378,813
-177.18808537710026,807
-174.66824248596583,923
-172.14909647290835,1015
-169.6306471471229,998
-167.11289431772548,953
-164.59583779375328,980
-162.07947738416453,1066
-159.5638128978386,1361
-157.04884414357605,1436
-154.53457093009854,1482
-152.02099306604828,1164
-149.50811035998936,1144
-146.99592262040665,1311
-144.48442965570587,1358
-141.97363127421409,1252
-139.46352728417958,1397
-136.95411749377126,1498
-134.44540171107985,1297
-131.93737974411636,1125
-129.43005140081357,1089
-126.92341648902493,1292
-124.41747481652521,1652
-121.91222619101006,2094
-119.40767042009657,2401
-116.90380731132257,2399
-114.40063667214702,2644
-111.8981583099503,3391
-109.3963720320337,3895
-106.89527764561933,4661
-104.39487495785067,5780
-101.89516377579241,8367
-99.39614390642998,13877
-96.89781515667039,19763
-94.40017733334128,20819
-91.90323024319173,17190
-89.40697369289148,12695
-86.91140748903172,7633
-84.41653143812482,4802
-81.92234534660395,6331
-79.42884902082358,10648
-76.93604226705907,15875
-74.4439248915071,19528
-71.95249670028534,21085
-69.46175749943245,19277
-66.97170709490854,14051
-64.48234529259423,9137
-61.99367189829195,6805
-59.50568671772464,6349
-57.01838955653636,5443
-54.53178022029283,4418
-52.045858514480074,5514
-49.560624244506016,8517
-47.07607721569923,8369
-44.59221723330904,8529
-42.10904410250669,11530
-39.62655762838392,15098
-37.14475761595372,16518
-34.66364387015028,16355
-32.18321619582866,21365
-29.70347439776515,24615
-27.224418280657005,25005
-24.74604764912317,31424
-22.26836230770266,43350
-19.7913620608565,65038
-17.315046712966478,65038
-14.83941606833514,65038
-12.36446993118659,65038
-9.89020810566592,65038
-7.416630395839093,65038
-4.94373660569363,65038
-2.471526539137585,65038
-6.821210263296962E-13,65038
2.47084320796705,65038
4.941003281093458,65038
7.410480415786196,65038
9.879274808531363,65038
12.347386655893956,65038
14.814816154518212,65038
17.28156350112681,65038
19.74762889252179,65038
22.21301252558385,22826
24.67771459727237,5279
27.141735304626195,4936
29.605074844762612,4312
32.06773341487792,3275
34.52971121224755,3698
36.99100843422559,3661
39.45162527824516,3155
41.91156194181792,3080
44.370818622535126,3578
46.82939551806646,3139
49.287292826160524,4002
51.74451074464503,3925
54.201049471426245,2926
56.65690920448981,2545
59.112090141899785,2293
61.56659248179983,2431
64.02041642241159,2032
66.4735621620365,2246
68.92602989905402,2444
71.37781983192338,2639
73.82893215918205,2096
76.27936707944684,1678
78.72912479141326,1700
81.17820549385567,1802
83.62660938562783,1571
86.07433666566146,1304
88.5213875329681,1249
90.96776218663751,1553
93.41346082583925,1767
95.85848364982041,1909
98.30283085790859,1885
100.7465026495089,1386
103.18949922410604,1225
105.63182078126385,1052
108.07346752062438,1362
110.51443964190923,1499
112.95473734491827,1428
115.39436082953114,1229
117.83331029570547,1048
120.27158594347827,1205
122.7091879729652,1387
125.1461165843615,1553
127.58237197794062,1453
130.01795435405518,1434
132.4528639131364,1194
134.88710085569494,1141
137.32066538231982,1277
139.75355769367923,1209
142.1857779905207,1139
144.61732647366978,995
147.04820334403132,1044
149.47840880258934,1191
151.90794305040674,1250
154.33680628862487,1258
156.76499871846443,1410
159.19252054122433,1495
161.61937195828352,1498
164.04555317109896,1413
166.47106438120693,1604
168.89590579022217,1759
171.320077599839,2046
173.7435800118302,2137
176.16641322804742,2131
178.58857745042144,2222
181.01007288096173,2212
183.43089972175687,2132
185.85105817497413,2119
188.27054844285988,2128
190.6893707277394,2202
193.10752523201643,2225
195.5250121581745,2279
197.9418317087751,2334
200.3579840864594,2239
202.7734694939469,2278
205.18828813403627,2378
207.6024402096051,2491
210.01592592360964,2399
212.42874547908548,2374
214.84089907914665,2297
217.2523869269868,2323
219.66320922587727,2265
222.0733661791695,2235
224.48285799029293,2310
226.8916848627572,2342
229.29984700014882,2262
231.7073446061355,2343
234.11417788446204,2361
236.520347038953,2480
238.92585227351185,2453
241.33069379212054,2594
243.73487179884035,2611
246.1383864978112,2543
248.541238093252,2553
250.9434267894609,2613
253.34495279081432,2551
255.74581630176783,2560
258.1460175268563,2542
260.54555667069314,2605
262.9444339379703,2592
265.3426495334594,2642
267.7402036620107,2641
270.1370965285529,2621
272.53332833809407,2416
274.9288992957214,2347
277.32380960660055,2380
279.718059475976,2326
282.1116491091717,2374
284.5045787115897,2287
286.89684848871195,2288
289.2884586460981,2321
291.67940938938807,2373
294.0697009242996,2360
296.4593334566299,2360
298.84830719225477,2308
301.23662233712923,2318
303.6242790972866,2303
306.01127767884,2245
308.39761828798066,2204
310.78330113097934,2172
313.16832641418534,2190
315.5526943440269,2139
317.9364051270112,2157
320.3194589697242,2070
322.70185607883093,2170
325.0835966610754,2168
327.4646809232805,2074
329.8451090723478,2135
332.2248813152577,2059
334.6039978590701,2076
336.9824589109231,2001
339.36026467803447,2050
341.7374153677,1969
344.113911187295,1970
346.48975234427337,2027
348.8649390461686,2024
351.2394715005918,1974
353.61334991523415,1932
355.9865744978655,1973
358.35914545633375,2015
360.73106299856715,2028
363.10232733257146,2006
365.47293866643247,1868
367.84289720831396,1892
370.2122031664593,1897
372.5808567491905,1908
374.9488581649083,1852
377.31620762209275,1888
379.6829053293021,1858
382.0489514951745,1834
384.4143463284262,1860
386.7790900378528,1911
389.14318283232853,1853
391.50662492080653,1871
393.86941651231916,1877
396.23155781597745,1904
398.5930490409713,1966
400.9538903965696,1898
403.3140820921202,1869
405.6736243370498,1886
408.03251734086336,1845
410.3907613131465,1845
412.74835646356166,1804
415.10530300185144,1863
417.4616011378372,1800
419.81725108141893,1818
422.1722530425758,1800
424.5266072313656,1816
426.880313857925,1798
429.2333731324701,1797
431.58578526529516,1774
433.9375504667738,1738
436.2886689473588,1703
438.63914091758113,1830
440.9889665880513,1826
443.33814616945835,1764
445.68667987257015,1770
448.03456790823395,1783
450.3818104873759,1759
452.72840782100013,1791
455.07436012019105,1765
457.41966759611057,1699
459.7643304600007,1713
462.10834892318155,1758
464.4517231970525,1724
466.79445349309174,1779
469.1365400228566,1809
471.4779829979826,1752
473.81878263018564,1777
476.15893913125876,1835
478.4984527130747,1814
480.8373235875855,1895
483.17555196682144,1899
485.5131380628919,1866
487.8500820879857,1939
490.1863842543697,1929
492.52204477439034,2034
494.8570638604725,2123
497.1914417251204,2264
499.52517858091653,2545
501.85827464052306,2713
504.19073011668036,2948
506.5225452222086,3002
508.85372017000566,3056
511.18425517304956,3099
513.514150444396,3510
515.8434061971808,4362
518.1720226446176,4860
520.4999999999999,4978
522.8273384766991,4849
525.1540382881666,4506
527.480099647932,4022
529.8055227696037,3276
532.1303078668694,2500
534.454455153496,2203
536.777964843328,1899
539.1008371502907,1864
541.4230722883866,1877
543.744670471698,1824
546.0656319143858,1806
548.3859568306899,1776
550.7056454349294,1764
553.0246979415016,1717
555.3431145648834,1744
557.6608955196306,1721
559.978041020377,1718
562.2945512818363,1719
564.6104265188006,1759
566.9256669461412,1737
569.2402727788082,1753
571.5542442318302,1787
573.8675815203156,1768
576.1802848594508,1803
578.4923544645015,1832
580.8037905508126,1862
583.114593333807,1898
585.4247630289875,1804
587.7342998519354,1736
590.0432040183106,1823
592.3514757438526,1829
594.6591152443794,1781
596.9661227357875,1812
599.2724984340531,1748
601.578242555231,1718
603.8833553154542,1814
606.1878369309362,1725
608.4916876179676,1677
610.7949075929192,1742
613.0974970722403,1818
615.3994562724587,1738
617.7007854101818,1727
620.0014847020951,1710
622.3015543649641,1782
624.6009946156324,1778
626.8998056710224,1807
629.1979877481361,1813
631.4955410640538,1777
633.7924658359349,1789
636.0887622810175,1828
638.3844306166192,1861
640.6794710601358,1794
642.9738838290426,1755
645.2676691408932,1871
647.5608272133207,1855
649.853358264037,1804
652.1452625108324,1898
654.4365401715764,1803
656.7271914642178,1793
659.0172166067838,1843
661.3066158173809,1783
663.5953893141935,1905
665.8835373154867,1872
668.1710600396028,1829
670.4579577049639,1834
672.7442305300709,1843
675.0298787335033,1831
677.3149025339197,1850
679.599302150058,1825
681.8830778007342,1856
684.1662297048437,1827
686.4487580813608,1828
688.7306631493387,1869
691.0119451279091,1933
693.2926042362834,1882
695.5726406937516,1843
697.8520547196814,1882
700.1308465335215,1874
702.4090163547982,1827
704.6865644031171,1901
706.9634908981619,1789
709.2397960596965,1814
711.5154801075631,1858
713.7905432616823,1798
716.0649857420548,1842
718.3388077687592,1779
720.612009561953,1769
722.8845913418733,1837
725.1565533288352,1816
727.427895743234,1816
729.6986188055427,1820
731.9687227363137,1790
734.238207756178,1764
736.5070740858458,1846
738.7753219461066,1785
741.0429515578281,1848
743.3099631419569,1853
745.5763569195191,1697
747.8421331116193,1758
750.1072919394409,1813
752.3718336242467,1919
754.6357583873777,1843
756.8990664502545,1839
759.1617580343765,1842
761.423833361321,1839
763.6852926527457,1848
765.9461361303862,1860
768.206364016058,1843
770.4659765316536,1828
772.7249738991469,1852
774.9833563405886,1871
777.2411240781092,1885
779.4982773339183,1809
781.7548163303044,1805
784.010741289634,1852
786.2660524343538,1891
788.5207499869881,1786
790.7748341701416,1831
793.0283052064964,1872
795.2811633188143,1902
797.5334087299362,1908
799.7850416627813,1870
802.0360623403484,1811
804.2864709857143,1781
806.5362678220353,1836
808.7854530725468,1810
811.0340269605625,1857
813.2819897094754,1877
815.5293415427581,1920
817.77608268396,1853
820.0222133567116,1860
822.2677337847211,1811
824.5126441917765,1859
826.7569448017433,1885
829.0006358385675,1818
831.2437175262731,1804
833.4861900889629,1765
835.7280537508192,1848
837.9693087361026,1812
840.2099552691533,1847
842.4499935743896,1932
844.689423876309,1832
846.9282463994886,1867
849.1664613685833,1899
851.4040690083276,1807
853.6410695435349,1851
855.877463199097,1915
858.1132501999847,1830
860.3484307712487,1835
862.5830051380175,1852
864.8169735254988,1858
867.0503361589791,1849
869.2830932638243,1823
871.5152450654786,1879
873.7467917894654,1906
875.9777336613873,1872
878.2080709069252,1880
880.4378037518389,1796
882.666932421968,1829
884.8954571432301,1866
887.1233781416219,1859
889.3506956432192,1875
891.5774098741766,1841
893.803521060728,1867
896.0290294291852,1842
898.2539352059397,1833
900.4782386174619,1923
902.7019398903011,1884
904.925039251085,1894
907.147536926521,1810
909.3694331433943,1791
911.59072812857,1809
913.8114221089921,1816
916.0315153116827,1810
918.2510079637437,1830
920.4699002923547,1827
922.6881925247761,1804
924.905884888345,1847
927.1229776104793,1752
929.3394709186747,1825
931.555365040506,1774
933.7706602036275,1792
935.9853566357709,1757
938.1994545647489,1792
940.4129542184515,1853
942.6258558248488,1820
944.8381596119883,1829
947.0498658079974,1801
949.2609746410825,1803
951.4714863395287,1778
953.6814011316998,1857
955.8907192460387,1763
958.0994409110671,1768
960.3075663553858,1838
962.5150958076741,1837
964.7220294966913,1814
966.928367651274,1806
969.1341105003388,1794
971.3392582728806,1718
973.5438111979742,1769
975.747769504772,1778
977.9511334225061,1770
980.153903180487,1730
982.3560790081052,1795
984.5576611348289,1727
986.7586497902058,1681
988.9590452038618,1654
991.158847605503,1752
993.3580572249133,1642
995.5566742919558,1610
997.7546990365728,1604
999.952131688785,1639
1002.1489724786926,1672
1004.3452216364743,1562
1006.5408793923874,1646
1008.7359459767691,1677
1010.9304216200343,1561
1013.1243065526781,1598
1015.3176010052733,1550
1017.510305208472,1575
1019.7024193930064,1520
1021.8939437896848,1591
1024.0848786293977,1551
1026.2752241431122,1526
1028.4649805618747,1537
1030.6541481168115,1499
1032.842727039127,1505
1035.0307175601051,1642
1037.2181199111074,1486
1039.4049343235752,1489
1041.591161029029,1526
1043.7768002590683,1562
1045.9618522453698,1469
1048.1463172196918,1519
1050.3301954138697,1491
1052.513487059818,1542
1054.69619238953,1498
1056.8783116350783,1489
1059.0598450286152,1428
1061.2407928023704,1447
1063.4211551886528,1411
1065.6009324198508,1403
1067.780124728432,1457
1069.9587323469414,1483
1072.1367555080046,1452
1074.314194444325,1403
1076.4910493886855,1444
1078.667320573947,1459
1080.843008233051,1481
1083.0181125990161,1463
1085.1926339049414,1490
1087.3665723840027,1464
1089.5399282694575,1414
1091.7127017946405,1401
1093.8848931929647,1450
1096.0565026979243,1482
1098.2275305430899,1458
1100.3979769621128,1400
1102.567842188722,1410
1104.737126456726,1386
1106.9058300000124,1399
1109.0739530525475,1404
1111.2414958483764,1449
1113.4084586216231,1395
1115.5748416064907,1397
1117.7406450372605,1415
1119.9058691482942,1414
1122.0705141740304,1437
1124.2345803489884,1463
1126.3980679077658,1425
1128.5609770850388,1506
1130.7233081155623,1410
1132.8850612341707,1424
1135.0462366757774,1382
1137.2068346753745,1431
1139.3668554680326,1346
1141.526299288901,1330
1143.68516637321,1380
1145.8434569562655,1412
1148.001171273455,1420
1150.158309560244,1461
1152.3148720521767,1361
1154.470858984876,1388
1156.626270594044,1410
1158.7811071154629,1402
1160.9353687849912,1410
1163.089055838569,1455
1165.242168512213,1383
1167.3947070420209,1459
1169.5466716641677,1392
1171.6980626149075,1403
1173.8488801305748,1382
1175.9991244475814,1393
1178.1487958024186,1404
1180.2978944316555,1350
1182.4464205719428,1358
1184.5943744600072,1371
1186.7417563326567,1321
1188.8885664267755,1376
1191.0348049793297,1376
1193.1804722273619,1407
1195.325568407995,1369
1197.4700937584303,1337
1199.614048515948,1418
1201.7574329179074,1405
1203.900247201746,1414
1206.042491604982,1359
1208.1841663652099,1374
1210.3252717201053,1413
1212.465807907422,1406
1214.6057751649923,1406
1216.7451737307279,1378
1218.8840038426192,1395
1221.0222657387353,1366
1223.1599596572241,1422
1225.2970858363137,1453
1227.4336445143094,1481
1229.5696359295966,1453
1231.705060320639,1509
1233.8399179259786,1381
1235.9742089842384,1432
1238.107933734118,1441
1240.2410924143974,1367
1242.373685263935,1502
1244.5057125216676,1408
1246.6371744266116,1494
1248.7680712178621,1464
1250.898403134593,1497
1253.028170416058,1494
1255.1573733015875,1483
1257.2860120305932,1455
1259.4140868425648,1436
1261.54159797707,1454
1263.6685456737569,1444
1265.7949301723515,1457
1267.9207517126597,1475
1270.046010534565,1538
1272.1707068780306,1512
1274.2948409830983,1500
1276.4184130898889,1509
1278.541423438603,1485
1280.6638722695184,1498
1282.785759822993,1492
1284.9070863394636,1510
1287.0278520594447,1565
1289.1480572235314,1577
1291.2677020723963,1569
1293.3867868467923,1629
1295.5053117875495,1577
1297.623277135579,1602
1299.740683131868,1600
1301.8575300174857,1579
1303.973818033578,1631
1306.0895474213703,1613
1308.2047184221678,1691
1310.3193312773528,1640
1312.4333862283888,1628
1314.5468835168163,1590
1316.659823384255,1675
1318.7722060724045,1598
1320.8840318230418,1706
1322.9953008780249,1694
1325.1060134792888,1676
1327.2161698688478,1654
1329.3257702887959,1660
1331.4348149813054,1679
1333.5433041886276,1610
1335.6512381530933,1627
1337.7586171171101,1617
1339.8654413231675,1625
1341.9717110138317,1691
1344.0774264317488,1645
1346.1825878196432,1656
1348.2871954203192,1696
1350.3912494766587,1610
1352.4947502316231,1631
1354.5976979282532,1624
1356.7000928096686,1574
1358.8019351190665,1575
1360.9032250997243,1561
1363.0039629949988,1593
1365.1041490483235,1590
1367.2037835032133,1554
1369.3028666032606,1568
1371.401398592137,1555
1373.4993797135926,1569
1375.5968102114575,1603
1377.6936903296396,1556
1379.7900203121262,1558
1381.8858004029835,1610
1383.9810308463561,1534
1386.075711886469,1556
1388.1698437676241,1558
1390.2634267342032,1615
1392.356461030667,1621
1394.4489469015557,1606
1396.5408845914872,1529
1398.6322743451592,1522
1400.7231164073469,1566
1402.813411022907,1579
1404.903158436773,1555
1406.9923588939578,1559
1409.0810126395531,1490
1411.1691199187303,1545
1413.2566809767386,1551
1415.343696058907,1558
1417.4301654106425,1538
1419.5160892774315,1681
1421.6014679048399,1598
1423.6863015385125,1565
1425.7705904241707,1612
1427.8543348076178,1554
1429.9375349347342,1577
1432.0201910514802,1614
1434.102303403894,1563
1436.1838722380944,1632
1438.2648978002767,1607
1440.3453803367174,1660
1442.4253200937692,1654
1444.5047173178677,1725
1446.5835722555234,1723
1448.6618851533285,1701
1450.739656257952,1693
1452.8168858161434,1710
1454.8935740747306,1680
1456.96972128062,1763
1459.045327680797,1824
1461.120393522327,1751
1463.1949190523528,1756
1465.2689045180973,1839
1467.3423501668608,1902
1469.415256246024,1775
1471.4876230030463,1860
1473.559450685465,1886
1475.6307395408976,1842
1477.7014898170391,1851
1479.771701761665,1931
1481.8413756226287,1960
1483.9105116478618,1971
1485.9791100853772,1953
1488.0471711832643,2009
1490.1146951896926,1977
1492.1816823529098,1971
1494.2481329212433,2045
1496.3140471430984,2064
1498.3794252669609,1994
1500.4442675413939,2045
1502.5085742150404,2039
1504.572345536622,1997
1506.6355817549388,2020
1508.6982831188702,2084
1510.7604498773744,2098
1512.8220822794883,2085
1514.8831805743293,2099
1516.9437450110909,2116
1519.003775839048,2101
1521.0632733075522,2104
1523.1222376660367,2219
1525.1806691640113,2219
1527.2385680510652,2173
1529.2959345768668,2170
1531.3527689911643,2184
1533.4090715437833,2261
1535.4648424846291,2224
1537.5200820636855,2284
1539.5747905310159,2348
1541.6289681367616,2312
1543.6826151311434,2301
1545.7357317644614,2332
1547.7883182870937,2496
1549.8403749494987,2491
1551.8919020022113,2489
1553.9428996958477,2495
1555.9933682811015,2603
1558.0433080087469,2602
1560.0927191296346,2660
1562.1416018946961,2641
1564.1899565549415,2756
1566.2377833614592,2680
1568.2850825654164,2646
1570.3318544180606,2611
1572.3780991707158,2467
1574.423817074788,2562
1576.4690083817595,2444
1578.5136733431923,2493
1580.5578122107272,2339
1582.601425236085,2267
1584.6445126710646,2224
1586.6870747675434,2185
1588.7291117774776,2130
1590.7706239529034,2066
1592.8116115459347,2022
1594.8520748087658,1966
1596.8920139936686,1956
1598.9314293529933,1972
1600.9703211391711,1838
1603.008689604711,1826
1605.0465350022005,1813
1607.0838575843068,1770
1609.1206576037753,1672
1611.1569353134305,1652
1613.1926909661765,1722
1615.2279248149953,1692
1617.2626371129481,1634
1619.2968281131757,1608
1621.3304980688963,1594
1623.3636472334088,1553
1625.39627586009,1550
1627.428384202396,1534
1629.459972513861,1571
1631.4910410480993,1554
1633.5215900588028,1507
1635.551619799744,1515
1637.5811305247717,1514
1639.6101224878166,1462
1641.6385959428862,1515
1643.6665511440683,1454
1645.693988345528,1495
1647.7209078015112,1466
1649.7473097663405,1463
1651.7731944944203,1413
1653.7985622402307,1470
1655.823413258333,1461
1657.847747803366,1492
1659.8715661300494,1490
1661.8948684931793,1431
1663.9176551476316,1447
1665.9399263483624,1451
1667.9616823504057,1446
1669.982923408873,1472
1672.0036497789574,1462
1674.0238617159293,1409
1676.043559475138,1356
1678.0627433120121,1338
1680.081413482059,1441
1682.0995702408654,1403
1684.117213844096,1410
1686.134344547495,1428
1688.1509626068864,1447
1690.1670682781705,1435
1692.182661817329,1364
1694.1977434804217,1402
1696.2123135235875,1422
1698.226372203043,1454
1700.2399197750851,1442
1702.2529564960905,1376
1704.2654826225112,1421
1706.277498410882,1373
1708.2890041178139,1455
1710.2999999999988,1401
1712.3104863142066,1332
1714.3204633172854,1388
1716.329931266163,1322
1718.3388904178469,1359
1720.3473410294214,1357
1722.3552833580516,1337
1724.3627176609807,1372
1726.3696441955308,1394
1728.3760632191033,1356
1730.3819749891782,1395
1732.3873797633146,1353
1734.3922777991502,1370
1736.3966693544012,1327
1738.4005546868639,1346
1740.4039340544127,1385
1742.406807715001,1358
1744.4091759266616,1356
1746.4110389475054,1343
1748.4123970357223,1356
1750.413250449582,1376
1752.4135994474318,1468
1754.4134442876993,1414
1756.4127852288902,1378
1758.4116225295893,1401
1760.4099564484595,1329
1762.407787244244,1374
1764.405115175764,1372
1766.4019405019203,1376
1768.3982634816916,1341
1770.3940843741357,1332
1772.3894034383907,1345
1774.3842209336717,1399
1776.378537119274,1353
1778.372352254571,1391
1780.3656665990156,1331
1782.3584804121397,1321
1784.3507939535534,1332
1786.3426074829463,1358
1788.3339212600863,1329
1790.3247355448211,1366
1792.3150505970766,1377
1794.3048666768573,1401
1796.2941840442477,1346
1798.2830029594106,1363
1800.2713236825884,1360
1802.2591464741004,1326
1804.2464715943465,1308
1806.2332993038058,1291
1808.2196298630352,1329
1810.2054635326708,1358
1812.190800573428,1339
1814.175641246101,1317
1816.1599858115628,1347
1818.1438345307652,1297
1820.127187664738,1381
1822.1100454745924,1295
1824.092408221516,1382
1826.0742761667766,1377
1828.055649571721,1325
1830.0365286977735,1372
1832.0169138064398,1341
1833.9968051593014,1347
1835.9762030180214,1426
1837.9551076443408,1398
1839.9335193000788,1380
1841.9114382471344,1320
1843.888864747485,1303
1845.8657990631878,1344
1847.842241456378,1359
1849.8181921892697,1315
1851.7936515241558,1336
1853.7686197234098,1278
1855.7430970494815,1304
1857.7170837649014,1319
1859.6905801322787,1378
1861.6635864143004,1338
1863.6361028737338,1322
1865.608129773424,1373
1867.5796673762961,1316
1869.5507159453537,1356
1871.521275743678,1328
1873.4913470344313,1356
1875.4609300808534,1392
1877.4300251462632,1324
1879.3986324940588,1346
1881.366752387717,1423
1883.3343850907936,1317
1885.3015308669228,1375
1887.268189979819,1329
1889.2343626932739,1357
1891.2000492711595,1333
1893.1652499774254,1362
1895.1299650761011,1382
1897.0941948312952,1366
1899.0579395071945,1373
1901.0211993680641,1399
1902.98397467825,1355
1904.9462657021745,1341
1906.9080727043415,1412
1908.869395949332,1342
1910.8302357018065,1354
1912.790592226504,1314
1914.7504657882428,1338
1916.7098566519212,1340
1918.6687650825133,1351
1920.6271913450764,1377
1922.5851357047422,1369
1924.5425984267245,1437
1926.499579776314,1364
1928.4560800188833,1377
1930.4120994198802,1375
1932.367638244833,1345
1934.32269675935,1369
1936.2772752291175,1380
1938.231373919899,1378
1940.1849930975404,1404
1942.1381330279637,1346
1944.0907939771696,1318
1946.0429762112412,1312
1947.9946799963363,1367
1949.9459055986945,1344
1951.896653284633,1303
1953.8469233205478,1333
1955.7967159729142,1302
1957.7460315082863,1346
1959.6948701932974,1334
1961.6432322946594,1328
1963.5911180791632,1257
1965.5385278136787,1287
1967.4854617651545,1326
1969.4319202006182,1301
1971.377903387176,1340
1973.3234115920136,1312
1975.268445082395,1289
1977.2130041256642,1374
1979.1570889892423,1285
1981.1006999406304,1273
1983.04383724741,1299
1984.986501177238,1311
1986.928691997853,1346
1988.8704099770712,1315
1990.811655382789,1289
1992.7524284829801,1318
1994.692729545698,1344
1996.6325588390755,1374
1998.5719166313224,1326
2000.5108031907307,1316
2002.4492187856677,1336
2004.387163684583,1323
2006.3246381560011,1301
2008.2616424685298,1297
2010.1981768908527,1298
2012.1342416917332,1301
2014.069837140014,1294
2016.0049635046162,1323
2017.9396210545406,1295
2019.8738100588666,1318
2021.8075307867502,1322
2023.740783507431,1314
2025.6735684902228,1321
2027.6058860045214,1279
2029.5377363198004,1262
2031.4691197056118,1311
2033.4000364315875,1314
2035.3304867674374,1330
2037.260470982952,1273
2039.189989347998,1273
2041.1190421325232,1343
2043.047629606554,1266
2044.9757520401945,1311
2046.9034097036288,1329
2048.8306028671195,1291
2050.7573318010086,1309
2052.683596775716,1274
2054.609398061742,1347
2056.5347359296647,1264
2058.4596106501403,1298
2060.384022493906,1285
2062.3079717317764,1305
2064.231458634646,1204
2066.1544834734873,1286
2068.077046519352,1331
2069.99914804337,1300
2071.9207883167524,1308
2073.8419676107865,1316
2075.7626861968406,1279
2077.6829443463607,1330
2079.6027423308715,1325
2081.522080421977,1322
2083.440958891362,1330
2085.359378010786,1328
2087.2773380520907,1309
2089.194839287196,1309
2091.111881988101,1258
2093.0284664268825,1303
2094.9445928756973,1295
2096.86026160678,1295
2098.775472892446,1345
2100.690227005088,1311
2102.604524217178,1290
2104.5183648012676,1270
2106.431749029985,1320
2108.34467717604,1373
2110.2571495122206,1291
2112.169166311393,1301
2114.080727846503,1312
2115.9918343905747,1320
2117.902486216711,1275
2119.8126835980956,1304
2121.722426807987,1293
2123.6317161197285,1308
2125.5405518067364,1308
2127.448934142509,1282
2129.356863400624,1294
2131.264339854737,1308
2133.1713637785815,1288
2135.077935445972,1280
2136.9840551308002,1343
2138.889723107037,1331
2140.7949396487334,1299
2142.699705030018,1318
2144.6040195250994,1351
2146.507883408264,1368
2148.4112969538774,1273
2150.3142604363848,1330
2152.2167741303097,1373
2154.1188383102535,1273
2156.0204532508997,1331
2157.9216192270064,1335
2159.822336513414,1285
2161.7226053850413,1312
2163.622426116884,1265
2165.5217989840185,1337
2167.4207242616,1349
2169.319202224862,1312
2171.2172331491165,1336
2173.1148173097563,1286
2175.0119549822507,1382
2176.90864644215,1358
2178.8048919650823,1327
2180.7006918267534,1342
2182.596046302952,1335
2184.4909556695407,1321
2186.3854202024645,1295
2188.279440177746,1288
2190.173015871487,1327
2192.066147559868,1277
2193.958835519149,1336
2195.851080025667,1331
2197.7428813558417,1315
2199.6342397861667,1317
2201.5251555932186,1348
2203.415629053651,1360
2205.3056604441986,1273
2207.19525004167,1332
2209.084398122958,1369
2210.9731049650327,1347
2212.861370844941,1345
2214.749196039812,1388
2216.636580826851,1385
2218.523525483344,1322
2220.410030286655,1345
2222.296095514226,1329
2224.1817214435805,1325
2226.066908352319,1364
2227.951656518121,1361
2229.835966218746,1309
2231.71983773203,1308
2233.6032713358913,1325
2235.486267308324,1353
2237.3688259274036,1307
2239.2509474712824,1375
2241.132632218193,1386
2243.013880446447,1349
2244.8946924344323,1322
2246.7750684606203,1342
2248.6550088035574,1362
2250.534513741871,1310
2252.413583554265,1367
2254.292218519526,1334
2256.170418916517,1398
2258.0481850241786,1351
2259.925517121534,1370
2261.8024154876825,1365
2263.678880401803,1325
2265.5549121431536,1356
2267.430510991071,1346
2269.305677224971,1389
2271.180411124348,1365
2273.0547129687766,1327
2274.9285830379076,1358
2276.8020216114737,1384
2278.6750289692845,1364
2280.5476053912294,1324
2282.4197511572766,1299
2284.2914665474727,1380
2286.162751841943,1376
2288.0336073208937,1366
2289.904033264608,1326
2291.774029953448,1362
2293.6435976678554,1425
2295.5127366883517,1330
2297.381447295534,1341
2299.2497297700825,1274
2301.1175843927526,1327
2302.9850114443825,1319
2304.852011205885,1253
2306.7185839582553,1251
2308.5847299825664,1230
2310.4504495599676,1239
2312.3157429716925,1191
2314.1806104990483,1232
2316.0450524234247,1186
2317.9090690262888,1245
2319.772660589186,1248
2321.635827393742,1207
2323.498569721661,1239
2325.3608878547248,1234
2327.2227820747967,1243
2329.0842526638157,1240
2330.945299903803,1237
2332.805924076857,1224
2334.6661254651535,1177
2336.525904350951,1229
2338.3852610165827,1225
2340.244195744464,1230
2342.102708817088,1153
2343.9608005170253,1240
2345.8184711269287,1257
2347.675720929526,1246
2349.532550207628,1235
2351.38895924412,1226
2353.24494832197,1221
2355.100517724223,1256
2356.955667734004,1235
2358.810398634514,1167
2360.664710709037,1250
2362.5186042409337,1221
2364.3720795136437,1207
2366.225136810686,1325
2368.0777764156583,1261
2369.929998612237,1219
2371.7818036841777,1305
2373.633191915315,1251
2375.484163589562,1235
2377.3347189909114,1206
2379.184858403434,1258
2381.03458211128,1241
2382.8838903986775,1248
2384.732783549936,1256
2386.5812618494406,1311
2388.4293255816588,1274
2390.2769750311327,1273
2392.1242104824883,1246
2393.971032220427,1286
2395.8174405297295,1259
2397.6634356952563,1250
2399.509018001947,1248
2401.3541877348193,1250
2403.1989451789705,1245
2405.043290619576,1236
2406.8872243418905,1269
2408.730746631247,1228
2410.5738577730594,1217
2412.4165580528183,1257
2414.258847756095,1276
2416.100727168537,1286
2417.9421965758734,1254
2419.783256263912,1270
2421.623906518538,1247
2423.4641476257157,1265
2425.303979871491,1252
2427.143403541984,1282
2428.9824189233977,1240
2430.821026302012,1303
2432.6592259641866,1268
2434.497018196361,1251
2436.33440328505,1238
2438.171381516851,1306
2440.00795317844,1222
2441.844118556569,1294
2443.6798779380724,1269
2445.5152316098606,1286
2447.3501798589255,1272
2449.1847229723357,1297
2451.0188612372403,1253
2452.8525949408663,1228
2454.6859243705203,1234
2456.518849813587,1258
2458.3513715575314,1274
2460.183489889895,1256
2462.015205098301,1247
2463.8465174704493,1262
2465.67742729412,1258
2467.5079348571717,1263
2469.338040447542,1219
2471.1677443532476,1240
2472.9970468623833,1250
2474.825948263123,1259
2476.6544488437207,1286
2478.482548892508,1254
2480.310248697896,1273
2482.137548548374,1298
2483.9644487325118,1290
2485.790949538956,1263
2487.617051256433,1327
2489.44275417375,1268
2491.26805857979,1281
2493.0929647635157,1293
2494.917473013971,1350
2496.741583620276,1312
2498.5652968716304,1258
2500.3886130573137,1277
2502.2115324666834,1360
2504.0340553891765,1304
2505.856182114308,1247
2507.6779129316733,1302
2509.499248130945,1260
2511.3201880018764,1313
2513.140732834298,1286
2514.9608829181198,1359
2516.780638543331,1342
2518.6,1315
2520.418967578273,1326
2522.237541568376,1247
2524.0557222606144,1259
2525.8735099453706,1304
2527.6909049131086,1298
2529.507907454368,1346
2531.32451785977,1303
2533.140736420014,1304
2534.9565634258774,1319
2536.771999168218,1357
2538.5870439379714,1303
2540.4016980261526,1344
2542.2159617238544,1392
2544.02983532225,1350
2545.8433191125914,1350
2547.656413386209,1400
2549.4691184345115,1403
2551.2814345489874,1399
2553.093362021204,1461
2554.904901142808,1412
2556.716052205523,1463
2558.526815501153,1441
2560.3371913215824,1450
2562.147179958771,1391
2563.956781704761,1445
2565.7659968516705,1454
2567.5748256916986,1417
2569.3832685171224,1391
2571.1913256202984,1421
2572.9989972936614,1428
2574.806283829725,1424
2576.613185521084,1481
2578.4197026604074,1516
2580.2258355404483,1404
2582.031584454035,1450
2583.836949694077,1528
2585.6419315535613,1492
2587.4465303255533,1461
2589.2507463032002,1456
2591.0545797797245,1474
2592.8580310484303,1507
2594.6611004026995,1471
2596.463788135992,1528
2598.266094541849,1481
2600.0680199138874,1420
2601.869564545807,1486
2603.670728731383,1485
2605.4715127644704,1482
2607.2719169390048,1471
2609.071941548998,1449
2610.8715868885433,1475
2612.670853251811,1498
2614.469740933052,1461
2616.268250226594,1476
2618.0663814268455,1444
2619.864134828292,1462
2621.6615107255006,1470
2623.458509413115,1416
2625.2551311858597,1497
2627.0513763385347,1441
2628.8472451660223,1459
2630.6427379632833,1386
2632.4378550253564,1400
2634.232596647359,1427
2636.026963124488,1453
2637.8209547520187,1419
2639.6145718253065,1415
2641.407814639785,1384
2643.200683490966,1398
2644.9931786744414,1413
2646.7853004858807,1393
2648.577049221034,1361
2650.3684251757277,1369
2652.1594286458712,1335
2653.9500599274484,1321
2655.740319316525,1347
2657.5302071092437,1326
2659.3197236018286,1354
2661.10886909058,1316
2662.8976438718782,1385
2664.686048242183,1363
2666.4740824980327,1320
2668.2617469360443,1285
2670.0490418529134,1306
2671.8359675454153,1319
2673.622524310403,1289
2675.408712444811,1291
2677.1945322456495,1318
2678.979984010009,1294
2680.76506803506,1357
2682.5497846180497,1304
2684.334134056306,1280
2686.1181166472343,1305
2687.9017326883213,1252
2689.6849824771293,1251
2691.4678663113013,1330
2693.2503844885596,1326
2695.032537306705,1282
2696.8143250636167,1232
2698.5957480572542,1296
2700.3768065856534,1278
2702.1575009469316,1252
2703.937831439283,1246
2705.717798360982,1279
2707.4974020103837,1232
2709.276642685917,1261
2711.055520686095,1259
2712.834036309506,1223
2714.612189854819,1260
2716.389981620782,1247
2718.1674119062204,1183
2719.944481010041,1245
2721.721189231226,1201
2723.4975368688415,1218
2725.273524222027,1228
2727.0491515900053,1217
2728.824419272075,1207
2730.5993275676146,1277
2732.3738767760838,1229
2734.148067197016,1237
2735.921899130031,1199
2737.6953728748194,1247
2739.468488731156,1209
2741.2412469988926,1212
2743.0136479779617,1209
2744.785691968372,1207
2746.5573792702116,1266
2748.3287101836504,1204
2750.099685008934,1248
2751.870304046388,1204
2753.640567596418,1188
2755.4104759595057,1206
2757.1800294362156,1206
2758.949228327187,1283
2760.7180729331412,1238
2762.486563554877,1198
2764.254700493272,1198
2766.022484049284,1206
2767.789914523947,1228
2769.5569922183786,1207
2771.3237174337705,1195
2773.090090471394,1275
2774.8561116326036,1222
2776.6217812188274,1199
2778.3870995315756,1223
2780.1520668724356,1199
2781.9166835430747,1159
2783.6809498452394,1166
2785.444866080754,1227
2787.2084325515225,1229
2788.971649559527,1198
2790.73451740683,1197
2792.4970363955713,1193
2794.2592068279705,1203
2796.0210290063264,1190
2797.7825032330147,1213
2799.543629810493,1196
2801.304409041296,1267
2803.0648412280366,1199
2804.8249266734088,1238
2806.5846656801846,1201
2808.344058551212,1173
2810.1031055894246,1227
2811.8618070978273,1231
2813.6201633795085,1248
2815.378174737636,1217
2817.1358414754536,1194
2818.893163896285,1221
2820.6501423035334,1204
2822.4067770006814,1202
2824.1630682912883,1211
2825.9190164789957,1207
2827.6746218675207,1188
2829.429884760661,1199
2831.184805462294,1197
2832.9393842763743,1159
2834.693621506936,1237
2836.4475174580916,1204
2838.201072434034,1194
2839.954286739034,1194
2841.707160677441,1162
2843.459694553685,1201
2845.2118886722724,1201
2846.96374333779,1205
2848.7152588549034,1168
2850.4664355283567,1241
2852.217273662973,1215
2853.9677735636546,1260
2855.7179355353833,1229
2857.4677598832186,1232
2859.217246912299,1137
2860.9663969278427,1196
2862.715210235146,1174
2864.4636871395846,1204
2866.211827946614,1181
2867.9596329617652,1202
2869.7071024906536,1214
2871.4542368389684,1216
2873.20103631248,1207
2874.947501217038,1205
2876.6936318585695,1233
2878.4394285430812,1167
2880.1848915766604,1172
2881.9300212654707,1199
2883.6748179157553,1170
2885.4192818338374,1249
2887.1634133261173,1206
2888.907212699077,1188
2890.6506802592744,1203
2892.393816313348,1155
2894.1366211680142,1166
2895.8790951300693,1212
2897.621238506388,1187
2899.363051603925,1199
2901.1045347297118,1184
2902.8456881908596,1215
2904.58651229456,1180
2906.327007348081,1219
2908.067173658772,1177
2909.8070115340597,1245
2911.5465212814497,1139
2913.285703208527,1246
2915.0245576229563,1225
2916.7630848324807,1193
2918.5012851449196,1280
2920.2391588681758,1201
2921.976706310227,1195
2923.7139277791334,1153
2925.4508235830313,1192
2927.187394030137,1192
2928.923639428745,1150
2930.6595600872306,1199
2932.395156314046,1174
2934.1304284177218,1198
2935.8653767068713,1204
2937.6000014901815,1200
2939.3343030764227,1192
2941.068281774442,1213
2942.8019378931644,1194
2944.5352717415976,1254
2946.2682836288236,1212
2948.0009738640065,1200
2949.7333427563885,1242
2951.465390615289,1188
2953.1971177501086,1209
2954.9285244703265,1256
2956.6596110855,1180
2958.3903779052657,1167
2960.1208252393385,1203
2961.8509533975125,1167
2963.5807626896617,1198
2965.3102534257378,1185
2967.0394259157715,1189
2968.768280469873,1166
2970.496817398232,1183
2972.2250370111146,1189
2973.952939618869,1216
2975.6805255319196,1226
2977.4077950607707,1228
2979.134748516006,1238
2980.861386208289,1228
2982.587708448359,1195
2984.313715547037,1181
2986.039407815222,1230
2987.764785563891,1143
2989.489849104102,1220
2991.2145987469908,1180
2992.9390348037705,1211
2994.6631575857346,1183
2996.3869674042576,1196
2998.1104645707887,1224
2999.83364939686,1171
3001.5565221940783,1124
3003.2790832741334,1153
3005.0013329487924,1152
3006.7232715298996,1139
3008.4448993293804,1180
3010.166216659239,1183
3011.887223831558,1167
3013.607921158498,1166
3015.3283089522993,1159
3017.0483875252826,1210
3018.7681571898443,1174
3020.4876182584626,1164
3022.2067710436927,1168
3023.9256158581707,1211
3025.644153014609,1136
3027.362382825801,1167
3029.0803056046193,1140
3030.797921664012,1228
3032.5152313170106,1166
3034.2322348767225,1199
3035.9489326563353,1164
3037.665324969115,1163
3039.3814121284063,1161
3041.097194447633,1173
3042.812672240299,1236
3044.5278458199855,1193
3046.2427155003525,1154
3047.9572815951406,1158
3049.671544418167,1155
3051.38550428333,1154
3053.0991615046073,1143
3054.812516396051,1190
3056.5255692717974,1182
3058.2383204460575,1221
3059.9507702331257,1193
3061.662918947372,1189
3063.3747669032446,1192
3065.0863144152736,1155
3066.7975617980674,1125
3068.508509366309,1165
3070.219157434767,1155
3071.9295063182844,1129
3073.639556331785,1190
3075.3493077902704,1169
3077.058761008821,1164
3078.7679163025964,1164
3080.476773986837,1161
3082.1853343768594,1132
3083.89359778806,1155
3085.6015645359153,1198
3087.3092349359786,1111
3089.016609303884,1170
3090.7236879553434,1111
3092.4304712061476,1147
3094.136959372166,1178
3095.843152769349,1150
3097.5490517137237,1172
3099.2546565213966,1167
3100.959967508554,1158
3102.66498499146,1243
3104.3697092864577,1145
3106.0741407099695,1246
3107.778279578498,1167
3109.482126208622,1201
3111.1856809170004,1209
3112.8889440203716,1201
3114.5919158355528,1206
3116.294596679439,1169
3117.996986869006,1184
3119.6990867213062,1184
3121.4008965534726,1192
3123.102416682717,1192
3124.803647426329,1189
3126.5045891016784,1176
3128.205242026213,1161
3129.90560651746,1137
3131.605682893025,1158
3133.3054714705922,1196
3135.0049725679282,1176
3136.7041865028714,1127
3138.4031135933465,1144
3140.101754157353,1163
3141.800108512971,1176
3143.498176978357,1167
3145.1959598717494,1163
3146.8934575114636,1209
3148.5906702158954,1168
3150.2875983035183,1185
3151.9842420928853,1165
3153.680601902627,1183
3155.376678051456,1161
3157.07247085816,1168
3158.767980641609,1133
3160.463207720748,1166
3162.158152414606,1128
3163.8528150422862,1125
3165.5471959229726,1166
3167.2412953759303,1169
3168.9351137204976,1210
3170.628651276098,1126
3172.3219083622307,1186
3174.014885298474,1160
3175.707582404485,1186
3177.4000000000005,1193
3179.092138404835,1120
3180.7839979388846,1206
3182.47557892212,1166
3184.166881674594,1191
3185.8579065164386,1167
3187.5486537678626,1188
3189.2391237491547,1148
3190.9293167806827,1100
3192.6192331828934,1135
3194.3088732763117,1167
3195.998237381542,1171
3197.687325819268,1158
3199.376138910251,1142
3201.064676975334,1163
3202.7529403354347,1127
3204.4409293115523,1147
3206.1286442247647,1149
3207.816085396229,1157
3209.5032531471825,1186
3211.190147798936,1121
3212.8767696728846,1164
3214.5631190905015,1115
3216.2491963733373,1126
3217.9350018430214,1109
3219.6205358212637,1122
3221.305798629851,1137
3222.990790590651,1111
3224.6755120256103,1172
3226.359963256751,1156
3228.0441446061795,1130
3229.7280563960758,1122
3231.411698948703,1116
3233.0950725863995,1186
3234.778177631587,1207
3236.461014406761,1157
3238.1435832345005,1178
3239.8258844374595,1185
3241.507918338374,1142
3243.1896852600576,1145
3244.8711855254023,1205
3246.552419457381,1218
3248.233387379042,1175
3249.914089613516,1168
3251.59452648401,1140
3253.274698313813,1185
3254.95460542629,1144
3256.6342481448855,1128
3258.313626793125,1146
3259.9927416946084,1128
3261.6715931730196,1213
3263.3501815521176,1150
3265.0285071557437,1112
3266.706570307815,1189
3268.3843713323286,1166
3270.0619105533615,1135
3271.739188295068,1179
3273.4162048816834,1152
3275.0929606375184,1149
3276.769455886966,1189
3278.445690954498,1198
3280.1216661646613,1154
3281.797381842087,1164
3283.4728383114807,1181
3285.1480358976296,1148
3286.8229749253996,1156
3288.4976557197333,1133
3290.172078605655,1110
3291.846243908266,1107
3293.5201519527463,1144
3295.193803064357,1114
3296.8671975684374,1121
3298.5403357904024,1159
3300.21321805575,1174
3301.8858446900567,1159
3303.558216018975,1113
3305.23033236824,1119
3306.9021940636603,1158
3308.57380143113,1178
3310.2451547966184,1214
3311.916254486174,1131
3313.5871008259246,1160
3315.2576941420766,1191
3316.9280347609147,1164
3318.5981230088046,1117
3320.2679592121895,1143
3321.9375436975924,1182
3323.606876791612,1125
3325.27595882093,1126
3326.944790112305,1136
3328.6133709925753,1156
3330.2817017886573,1163
3331.949782827547,1126
3333.617614436319,1159
3335.2851969421245,1156
3336.952530672199,1132
3338.619615953853,1124
3340.286453114475,1142
3341.9530424815357,1224
3343.619384382583,1141
3345.2854791452437,1153
3346.951327097224,1177
3348.6169285663073,1146
3350.2822838803577,1111
3351.947393367319,1161
3353.61225735521,1181
3355.2768761721345,1203
3356.9412501462693,1141
3358.605379605873,1147
3360.2692648792827,1097
3361.9329062949146,1172
3363.596304181263,1121
