CollectionTime,9/20/2024 11:24:42 AM
ExposureUsed,3
CalibratedSpectrum
-962.7078968117929,603
-959.9714848408522,654
-957.2358232597828,565
-954.5009119013725,533
-951.7667505983302,567
-949.0333391832855,643
-946.3006774887896,616
-943.5687653473143,551
-940.837602591253,568
-938.1071890529199,541
-935.3775245645503,562
-932.6486089583007,553
-929.9204420662485,552
-927.1930237203925,568
-924.4663537526524,597
-921.7404319948689,613
-919.0152582788041,604
-916.2908324361409,607
-913.5671542984834,561
-910.8442236973568,551
-908.1220404642074,542
-905.4006044304027,581
-902.679915427231,590
-899.959973285902,553
-897.2407778375464,559
-894.5223289132158,561
-891.8046263438832,539
-889.0876699604426,557
-886.3714595937089,594
-883.6559950744183,546
-880.9412762332282,503
-878.2273029007168,561
-875.5140749073835,546
-872.8015920836489,524
-870.0898542598545,513
-867.3788612662631,512
-864.6686129330585,490
-861.9591090903457,511
-859.2503495681506,514
-856.5423341964203,511
-853.8350628050229,576
-851.1285352237478,622
-848.4227512823054,623
-845.7177108103272,606
-843.0134136373656,537
-840.3098595928943,550
-837.6070485063082,586
-834.9049802069229,589
-832.2036545239757,538
-829.5030712866244,538
-826.8032303239481,605
-824.1041314649472,610
-821.4057745385428,571
-818.7081593735775,588
-816.0112857988148,583
-813.3151536429393,600
-810.6197627345566,570
-807.9251129021936,544
-805.2312039742981,586
-802.5380357792392,583
-799.8456081453069,572
-797.1539209007124,613
-794.462973873588,646
-791.772766891987,631
-789.083299783884,597
-786.3945723771743,555
-783.7065844996748,516
-781.0193359791231,550
-778.3328266431781,517
-775.6470563194197,545
-772.9620248353489,549
-770.2777320183878,590
-767.5941776958798,620
-764.9113616950891,623
-762.2292838432011,587
-759.5479439673222,524
-756.8673418944801,558
-754.1874774516235,575
-751.5083504656222,586
-748.8299607632671,553
-746.15230817127,586
-743.475392516264,571
-740.7992136248035,594
-738.1237713233636,610
-735.4490654383407,589
-732.7750957960521,549
-730.1018622227365,593
-727.4293645445534,604
-724.7576025875837,563
-722.0865761778291,592
-719.4162851412126,577
-716.7467293035781,622
-714.0779084906909,615
-711.409822528237,689
-708.7424712418238,621
-706.0758544569796,615
-703.4099719991541,572
-700.7448236937178,606
-698.0804093659622,589
-695.4167288411002,583
-692.7537819442656,586
-690.0915685005134,581
-687.4300883348199,618
-684.7693412720819,599
-682.1093271371178,653
-679.4500457546669,616
-676.7914969493897,612
-674.1336805458676,591
-671.4765963686034,609
-668.8202442420206,606
-666.1646239904642,592
-663.5097354382001,583
-660.8555784094151,570
-658.2021527282176,605
-655.5494582186366,672
-652.8974947046223,672
-650.2462620100463,618
-647.5957599587009,702
-644.9459883742998,690
-642.2969470804776,679
-639.6486359007902,635
-637.0010546587141,633
-634.3542031776476,725
-631.7080812809096,629
-629.0626887917401,632
-626.4180255333008,618
-623.7740913286734,666
-621.1308860008619,701
-618.4884093727904,710
-615.8466612673046,690
-613.2056415071715,679
-610.5653499150785,674
-607.9257863136347,715
-605.28695052537,696
-602.6488423727357,660
-600.0114616781036,660
-597.3748082637674,675
-594.7388819519412,699
-592.1036825647604,721
-589.4692099242818,705
-586.8354638524829,730
-584.2024441712624,809
-581.5701507024403,790
-578.9385832677575,815
-576.3077416888759,828
-573.6776257873787,736
-571.0482353847704,776
-568.4195703024757,739
-565.7916303618415,757
-563.164415384135,728
-560.5379251905453,776
-557.9121596021815,710
-555.2871184400748,690
-552.6628015251767,706
-550.0392086783606,719
-547.4163397204204,741
-544.794194472071,759
-542.1727727539491,773
-539.5520743866118,823
-536.9320991905377,907
-534.3128469861261,994
-531.6943175936979,943
-529.0765108334947,922
-526.4594265256793,965
-523.8430644903358,1129
-521.2274245474689,1313
-518.612506517005,1420
-515.9983102187913,1454
-513.3848354725959,1674
-510.77208209810846,2013
-508.16004991493924,2189
-505.5487387426199,2230
-502.9381484006032,2279
-500.3282787082628,2060
-497.71912948489364,1808
-495.1107005497117,1532
-492.5029917218539,1263
-489.8960028203786,1127
-487.28973366426493,994
-484.68418407241325,966
-482.07935386364494,890
-479.47524285670266,887
-476.87185087025,922
-474.2691777228715,952
-471.66722323307334,994
-469.0659872192821,885
-466.4654694998459,958
-463.86566989303384,878
-461.26658821703614,877
-458.66822428996414,854
-456.07057792985,909
-453.4736489546475,962
-450.877437182231,890
-448.28194243039627,866
-445.68716451686,871
-443.09310325926003,915
-440.49975847515555,856
-437.9071299820263,828
-435.31521759727354,952
-432.72402113821954,940
-430.13354042210767,882
-427.5437752661022,907
-424.95472548728867,923
-422.36639090267386,998
-419.7787713291855,1050
-417.1918665836721,998
-414.60567648290385,1027
-412.0202008435715,987
-409.4354394822874,1041
-406.8513922155845,1002
-404.26805885991723,1008
-401.685439231661,1022
-399.103533147112,997
-396.522340422488,1029
-393.9418608739278,957
-391.3620943174908,955
-388.7830405691583,922
-386.2046994448317,877
-383.6270707603344,933
-381.05015433141045,953
-378.473949973725,894
-375.8984575028645,847
-373.32367673433623,804
-370.74960748356875,799
-368.1762495659117,786
-365.60360279663576,706
-363.03166699093265,662
-360.4604419639154,621
-357.8899275306178,613
-355.32012350599507,640
-352.7510297049233,636
-350.1826459421999,670
-347.61497203254316,660
-345.04800779059235,669
-342.4817530309082,679
-339.91620756797226,710
-337.35137121618743,717
-334.7872437898774,790
-332.22382510328725,736
-329.66111497058273,636
-327.09911320585127,626
-324.53781962310075,680
-321.9772340362607,647
-319.4173562591816,665
-316.8581861056348,668
-314.2997233893127,750
-311.7419679238294,801
-309.1849195227194,788
-306.62857799943856,823
-304.0729431673641,704
-301.51801483979375,696
-298.963792829947,674
-296.41027695096386,677
-293.85746701590574,635
-291.3053628377552,750
-288.7539642294155,750
-286.2032710037115,780
-283.65328297338897,805
-281.1039999511146,860
-278.5554217494762,769
-276.007548180983,914
-273.4603790580651,801
-270.9139141930734,781
-268.3681533982807,870
-265.8230964858798,927
-263.27874326798565,965
-260.7350935566336,942
-258.1921471637804,843
-255.6499039013039,874
-253.10836358100266,1119
-250.56752601459698,1056
-248.02739101372765,1081
-245.48795838995704,1070
-242.94922795476816,1112
-240.41119951956557,1060
-237.8738728956746,942
-235.33724789434166,987
-232.80132432673452,1009
-230.2661020039418,980
-227.73158073697357,1031
-225.19776033676033,1185
-222.66464061415422,1358
-220.1322213799284,1298
-217.60050244477725,1136
-215.06948361931552,1139
-212.53916471408013,1217
-210.00954553952818,1044
-207.48062590603843,1063
-204.9524056239104,1342
-202.4248845033651,1449
-199.8980623545441,1372
-197.37193898751036,1539
-194.84651421224817,1515
-192.32178783866232,1385
-189.79775967657952,1270
-187.27442953574644,1161
-184.7517972258321,1168
-182.2298625564256,1122
-179.7086253370378,1219
-177.18808537710026,1259
-174.66824248596583,1305
-172.14909647290835,1479
-169.6306471471229,1479
-167.11289431772548,1339
-164.59583779375328,1242
-162.07947738416453,1467
-159.5638128978386,1874
-157.04884414357605,2021
-154.53457093009854,1757
-152.02099306604828,1497
-149.50811035998936,1779
-146.99592262040665,1976
-144.48442965570587,2118
-141.97363127421409,1889
-139.46352728417958,1846
-136.95411749377126,1768
-134.44540171107985,1686
-131.93737974411636,1643
-129.43005140081357,1609
-126.92341648902493,1718
-124.41747481652521,2079
-121.91222619101006,2459
-119.40767042009657,2854
-116.90380731132257,3263
-114.40063667214702,4273
-111.8981583099503,5623
-109.3963720320337,7776
-106.89527764561933,10052
-104.39487495785067,11014
-101.89516377579241,12062
-99.39614390642998,16789
-96.89781515667039,23355
-94.40017733334128,27872
-91.90323024319173,29610
-89.40697369289148,26121
-86.91140748903172,16228
-84.41653143812482,10692
-81.92234534660395,11637
-79.42884902082358,14823
-76.93604226705907,18286
-74.4439248915071,19662
-71.95249670028534,19244
-69.46175749943245,15583
-66.97170709490854,12703
-64.48234529259423,11269
-61.99367189829195,11488
-59.50568671772464,12198
-57.01838955653636,11466
-54.53178022029283,13733
-52.045858514480074,18452
-49.560624244506016,19951
-47.07607721569923,24718
-44.59221723330904,32374
-42.10904410250669,38317
-39.62655762838392,46151
-37.14475761595372,52342
-34.66364387015028,64512
-32.18321619582866,65034
-29.70347439776515,65034
-27.224418280657005,65034
-24.74604764912317,65034
-22.26836230770266,65034
-19.7913620608565,65034
-17.315046712966478,65034
-14.83941606833514,65034
-12.36446993118659,65034
-9.89020810566592,65034
-7.416630395839093,65034
-4.94373660569363,65034
-2.471526539137585,65034
-6.821210263296962E-13,65034
2.47084320796705,65034
4.941003281093458,65034
7.410480415786196,65034
9.879274808531363,65034
12.347386655893956,65034
14.814816154518212,65034
17.28156350112681,65034
19.74762889252179,65034
22.21301252558385,65034
24.67771459727237,25951
27.141735304626195,9121
29.605074844762612,8499
32.06773341487792,7941
34.52971121224755,6597
36.99100843422559,5069
39.45162527824516,4950
41.91156194181792,6619
44.370818622535126,7157
46.82939551806646,7366
49.287292826160524,6680
51.74451074464503,5912
54.201049471426245,4658
56.65690920448981,3691
59.112090141899785,4602
61.56659248179983,4931
64.02041642241159,5251
66.4735621620365,3906
68.92602989905402,3900
71.37781983192338,3909
73.82893215918205,3499
76.27936707944684,2907
78.72912479141326,2705
81.17820549385567,2601
83.62660938562783,2722
86.07433666566146,2483
88.5213875329681,2293
90.96776218663751,2590
93.41346082583925,2895
95.85848364982041,3245
98.30283085790859,2929
100.7465026495089,2413
103.18949922410604,2256
105.63182078126385,2165
108.07346752062438,2302
110.51443964190923,2290
112.95473734491827,2467
115.39436082953114,2421
117.83331029570547,1974
120.27158594347827,2069
122.7091879729652,2314
125.1461165843615,2486
127.58237197794062,2763
130.01795435405518,3063
132.4528639131364,2670
134.88710085569494,2168
137.32066538231982,2134
139.75355769367923,2204
142.1857779905207,1974
144.61732647366978,1441
147.04820334403132,1395
149.47840880258934,1759
151.90794305040674,2290
154.33680628862487,2594
156.76499871846443,2577
159.19252054122433,2415
161.61937195828352,2253
164.04555317109896,2217
166.47106438120693,2316
168.89590579022217,2350
171.320077599839,2348
173.7435800118302,2713
176.16641322804742,2959
178.58857745042144,3158
181.01007288096173,2965
183.43089972175687,2632
185.85105817497413,2517
188.27054844285988,2457
190.6893707277394,2465
193.10752523201643,2684
195.5250121581745,3089
197.9418317087751,3228
200.3579840864594,2880
202.7734694939469,2816
205.18828813403627,2997
207.6024402096051,2834
210.01592592360964,2804
212.42874547908548,2687
214.84089907914665,2736
217.2523869269868,2906
219.66320922587727,2749
222.0733661791695,2656
224.48285799029293,2825
226.8916848627572,2784
229.29984700014882,2881
231.7073446061355,2736
234.11417788446204,2713
236.520347038953,2707
238.92585227351185,2668
241.33069379212054,2820
243.73487179884035,2944
246.1383864978112,2912
248.541238093252,2827
250.9434267894609,2753
253.34495279081432,2627
255.74581630176783,2729
258.1460175268563,2729
260.54555667069314,2701
262.9444339379703,2611
265.3426495334594,2822
267.7402036620107,3052
270.1370965285529,3027
272.53332833809407,2809
274.9288992957214,2762
277.32380960660055,2639
279.718059475976,2678
282.1116491091717,2723
284.5045787115897,2694
286.89684848871195,2651
289.2884586460981,2687
291.67940938938807,2812
294.0697009242996,2783
296.4593334566299,2727
298.84830719225477,2854
301.23662233712923,2741
303.6242790972866,2626
306.01127767884,2687
308.39761828798066,2511
310.78330113097934,2478
313.16832641418534,2400
315.5526943440269,2410
317.9364051270112,2410
320.3194589697242,2368
322.70185607883093,2385
325.0835966610754,2343
327.4646809232805,2255
329.8451090723478,2324
332.2248813152577,2359
334.6039978590701,2374
336.9824589109231,2369
339.36026467803447,2256
341.7374153677,2279
344.113911187295,2293
346.48975234427337,2362
348.8649390461686,2212
351.2394715005918,2273
353.61334991523415,2258
355.9865744978655,2214
358.35914545633375,2156
360.73106299856715,2269
363.10232733257146,2190
365.47293866643247,2222
367.84289720831396,2117
370.2122031664593,2097
372.5808567491905,2115
374.9488581649083,2109
377.31620762209275,2182
379.6829053293021,2182
382.0489514951745,2097
384.4143463284262,2121
386.7790900378528,2059
389.14318283232853,2049
391.50662492080653,2053
393.86941651231916,2079
396.23155781597745,2047
398.5930490409713,2134
400.9538903965696,2172
403.3140820921202,2071
405.6736243370498,2046
408.03251734086336,1976
410.3907613131465,2030
412.74835646356166,2011
415.10530300185144,2009
417.4616011378372,1912
419.81725108141893,2047
422.1722530425758,2098
424.5266072313656,2083
426.880313857925,1938
429.2333731324701,2048
431.58578526529516,1960
433.9375504667738,1952
436.2886689473588,1998
438.63914091758113,1978
440.9889665880513,1931
443.33814616945835,1916
445.68667987257015,1966
448.03456790823395,1873
450.3818104873759,1889
452.72840782100013,1951
455.07436012019105,1918
457.41966759611057,1826
459.7643304600007,1901
462.10834892318155,1890
464.4517231970525,1890
466.79445349309174,1931
469.1365400228566,1939
471.4779829979826,2030
473.81878263018564,1999
476.15893913125876,2017
478.4984527130747,1978
480.8373235875855,2101
483.17555196682144,2120
485.5131380628919,2055
487.8500820879857,2209
490.1863842543697,2373
492.52204477439034,2447
494.8570638604725,2628
497.1914417251204,2979
499.52517858091653,3391
501.85827464052306,4069
504.19073011668036,4689
506.5225452222086,5053
508.85372017000566,5275
511.18425517304956,5383
513.514150444396,5815
515.8434061971808,6495
518.1720226446176,7060
520.4999999999999,6726
522.8273384766991,6119
525.1540382881666,5691
527.480099647932,5095
529.8055227696037,4018
532.1303078668694,2919
534.454455153496,2424
536.777964843328,2191
539.1008371502907,2082
541.4230722883866,2071
543.744670471698,2019
546.0656319143858,2125
548.3859568306899,2013
550.7056454349294,1938
553.0246979415016,1966
555.3431145648834,1928
557.6608955196306,1891
559.978041020377,1961
562.2945512818363,1973
564.6104265188006,1990
566.9256669461412,1931
569.2402727788082,2030
571.5542442318302,2007
573.8675815203156,2027
576.1802848594508,2018
578.4923544645015,1991
580.8037905508126,2040
583.114593333807,2085
585.4247630289875,2107
587.7342998519354,1986
590.0432040183106,1901
592.3514757438526,1972
594.6591152443794,2051
596.9661227357875,2008
599.2724984340531,1947
601.578242555231,1902
603.8833553154542,1929
606.1878369309362,1928
608.4916876179676,1956
610.7949075929192,1924
613.0974970722403,1911
615.3994562724587,1870
617.7007854101818,1936
620.0014847020951,1919
622.3015543649641,1933
624.6009946156324,1922
626.8998056710224,1957
629.1979877481361,1944
631.4955410640538,1958
633.7924658359349,2077
636.0887622810175,2028
638.3844306166192,1999
640.6794710601358,1907
642.9738838290426,1902
645.2676691408932,1952
647.5608272133207,1941
649.853358264037,1999
652.1452625108324,2039
654.4365401715764,1987
656.7271914642178,2041
659.0172166067838,1985
661.3066158173809,1982
663.5953893141935,1950
665.8835373154867,1995
668.1710600396028,2015
670.4579577049639,1929
672.7442305300709,1995
675.0298787335033,1995
677.3149025339197,1997
679.599302150058,1947
681.8830778007342,1919
684.1662297048437,1966
686.4487580813608,2058
688.7306631493387,1990
691.0119451279091,1940
693.2926042362834,1946
695.5726406937516,2033
697.8520547196814,2068
700.1308465335215,1946
702.4090163547982,1958
704.6865644031171,1930
706.9634908981619,1967
709.2397960596965,1937
711.5154801075631,2017
713.7905432616823,1985
716.0649857420548,1972
718.3388077687592,1973
720.612009561953,2015
722.8845913418733,1977
725.1565533288352,2032
727.427895743234,2002
729.6986188055427,1956
731.9687227363137,1944
734.238207756178,1934
736.5070740858458,1967
738.7753219461066,1876
741.0429515578281,1954
743.3099631419569,2005
745.5763569195191,2033
747.8421331116193,1979
750.1072919394409,1994
752.3718336242467,2051
754.6357583873777,1950
756.8990664502545,1911
759.1617580343765,1960
761.423833361321,2023
763.6852926527457,2025
765.9461361303862,2005
768.206364016058,2105
770.4659765316536,2026
772.7249738991469,2055
774.9833563405886,2056
777.2411240781092,2035
779.4982773339183,2090
781.7548163303044,2018
784.010741289634,1947
786.2660524343538,2081
788.5207499869881,2037
790.7748341701416,2014
793.0283052064964,2075
795.2811633188143,2034
797.5334087299362,2078
799.7850416627813,2039
802.0360623403484,2105
804.2864709857143,2022
806.5362678220353,2102
808.7854530725468,2092
811.0340269605625,2058
813.2819897094754,2097
815.5293415427581,2028
817.77608268396,2086
820.0222133567116,2130
822.2677337847211,2030
824.5126441917765,1983
826.7569448017433,1988
829.0006358385675,1978
831.2437175262731,1986
833.4861900889629,2000
835.7280537508192,1970
837.9693087361026,2042
840.2099552691533,2033
842.4499935743896,2017
844.689423876309,1944
846.9282463994886,2039
849.1664613685833,2077
851.4040690083276,1980
853.6410695435349,1947
855.877463199097,1985
858.1132501999847,2015
860.3484307712487,2090
862.5830051380175,2002
864.8169735254988,1950
867.0503361589791,2016
869.2830932638243,2063
871.5152450654786,2113
873.7467917894654,2100
875.9777336613873,2044
878.2080709069252,2008
880.4378037518389,2037
882.666932421968,2003
884.8954571432301,2139
887.1233781416219,2064
889.3506956432192,2060
891.5774098741766,2057
893.803521060728,2033
896.0290294291852,2055
898.2539352059397,2043
900.4782386174619,2070
902.7019398903011,2037
904.925039251085,2052
907.147536926521,2007
909.3694331433943,2068
911.59072812857,2075
913.8114221089921,2094
916.0315153116827,2098
918.2510079637437,2114
920.4699002923547,2126
922.6881925247761,2079
924.905884888345,2157
927.1229776104793,2089
929.3394709186747,2042
931.555365040506,2081
933.7706602036275,2064
935.9853566357709,2177
938.1994545647489,2056
940.4129542184515,2050
942.6258558248488,2100
944.8381596119883,2086
947.0498658079974,2113
949.2609746410825,2022
951.4714863395287,2046
953.6814011316998,2066
955.8907192460387,2056
958.0994409110671,2099
960.3075663553858,2038
962.5150958076741,2136
964.7220294966913,1994
966.928367651274,1982
969.1341105003388,2081
971.3392582728806,2048
973.5438111979742,2056
975.747769504772,1981
977.9511334225061,1973
980.153903180487,1922
982.3560790081052,1917
984.5576611348289,1863
986.7586497902058,1914
988.9590452038618,1861
991.158847605503,1955
993.3580572249133,1810
995.5566742919558,1791
997.7546990365728,1703
999.952131688785,1605
1002.1489724786926,1694
1004.3452216364743,1714
1006.5408793923874,1644
1008.7359459767691,1691
1010.9304216200343,1670
1013.1243065526781,1672
1015.3176010052733,1630
1017.510305208472,1558
1019.7024193930064,1665
1021.8939437896848,1658
1024.0848786293977,1580
1026.2752241431122,1645
1028.4649805618747,1661
1030.6541481168115,1617
1032.842727039127,1606
1035.0307175601051,1539
1037.2181199111074,1560
1039.4049343235752,1522
1041.591161029029,1546
1043.7768002590683,1576
1045.9618522453698,1549
1048.1463172196918,1505
1050.3301954138697,1468
1052.513487059818,1536
1054.69619238953,1525
1056.8783116350783,1521
1059.0598450286152,1531
1061.2407928023704,1496
1063.4211551886528,1540
1065.6009324198508,1509
1067.780124728432,1482
1069.9587323469414,1439
1072.1367555080046,1504
1074.314194444325,1544
1076.4910493886855,1561
1078.667320573947,1551
1080.843008233051,1492
1083.0181125990161,1467
1085.1926339049414,1435
1087.3665723840027,1486
1089.5399282694575,1497
1091.7127017946405,1461
1093.8848931929647,1501
1096.0565026979243,1496
1098.2275305430899,1360
1100.3979769621128,1460
1102.567842188722,1486
1104.737126456726,1406
1106.9058300000124,1436
1109.0739530525475,1437
1111.2414958483764,1424
1113.4084586216231,1449
1115.5748416064907,1499
1117.7406450372605,1409
1119.9058691482942,1432
1122.0705141740304,1451
1124.2345803489884,1484
1126.3980679077658,1469
1128.5609770850388,1435
1130.7233081155623,1448
1132.8850612341707,1387
1135.0462366757774,1425
1137.2068346753745,1459
1139.3668554680326,1435
1141.526299288901,1349
1143.68516637321,1371
1145.8434569562655,1385
1148.001171273455,1347
1150.158309560244,1417
1152.3148720521767,1416
1154.470858984876,1363
1156.626270594044,1416
1158.7811071154629,1413
1160.9353687849912,1464
1163.089055838569,1396
1165.242168512213,1416
1167.3947070420209,1406
1169.5466716641677,1345
1171.6980626149075,1334
1173.8488801305748,1393
1175.9991244475814,1376
1178.1487958024186,1385
1180.2978944316555,1410
1182.4464205719428,1381
1184.5943744600072,1368
1186.7417563326567,1431
1188.8885664267755,1357
1191.0348049793297,1398
1193.1804722273619,1397
1195.325568407995,1386
1197.4700937584303,1353
1199.614048515948,1364
1201.7574329179074,1372
1203.900247201746,1352
1206.042491604982,1379
1208.1841663652099,1390
1210.3252717201053,1390
1212.465807907422,1420
1214.6057751649923,1439
1216.7451737307279,1350
1218.8840038426192,1419
1221.0222657387353,1414
1223.1599596572241,1372
1225.2970858363137,1316
1227.4336445143094,1388
1229.5696359295966,1398
1231.705060320639,1444
1233.8399179259786,1348
1235.9742089842384,1364
1238.107933734118,1450
1240.2410924143974,1401
1242.373685263935,1405
1244.5057125216676,1343
1246.6371744266116,1419
1248.7680712178621,1418
1250.898403134593,1369
1253.028170416058,1356
1255.1573733015875,1396
1257.2860120305932,1383
1259.4140868425648,1365
1261.54159797707,1444
1263.6685456737569,1370
1265.7949301723515,1376
1267.9207517126597,1342
1270.046010534565,1370
1272.1707068780306,1353
1274.2948409830983,1432
1276.4184130898889,1336
1278.541423438603,1363
1280.6638722695184,1404
1282.785759822993,1396
1284.9070863394636,1417
1287.0278520594447,1387
1289.1480572235314,1360
1291.2677020723963,1335
1293.3867868467923,1393
1295.5053117875495,1387
1297.623277135579,1406
1299.740683131868,1446
1301.8575300174857,1436
1303.973818033578,1478
1306.0895474213703,1361
1308.2047184221678,1409
1310.3193312773528,1398
1312.4333862283888,1368
1314.5468835168163,1366
1316.659823384255,1364
1318.7722060724045,1399
1320.8840318230418,1417
1322.9953008780249,1455
1325.1060134792888,1469
1327.2161698688478,1414
1329.3257702887959,1416
1331.4348149813054,1442
1333.5433041886276,1375
1335.6512381530933,1440
1337.7586171171101,1432
1339.8654413231675,1415
1341.9717110138317,1440
1344.0774264317488,1397
1346.1825878196432,1384
1348.2871954203192,1466
1350.3912494766587,1451
1352.4947502316231,1435
1354.5976979282532,1441
1356.7000928096686,1435
1358.8019351190665,1357
1360.9032250997243,1407
1363.0039629949988,1465
1365.1041490483235,1440
1367.2037835032133,1403
1369.3028666032606,1418
1371.401398592137,1429
1373.4993797135926,1411
1375.5968102114575,1429
1377.6936903296396,1402
1379.7900203121262,1366
1381.8858004029835,1438
1383.9810308463561,1417
1386.075711886469,1412
1388.1698437676241,1443
1390.2634267342032,1381
1392.356461030667,1467
1394.4489469015557,1436
1396.5408845914872,1400
1398.6322743451592,1420
1400.7231164073469,1413
1402.813411022907,1485
1404.903158436773,1487
1406.9923588939578,1464
1409.0810126395531,1411
1411.1691199187303,1385
1413.2566809767386,1428
1415.343696058907,1401
1417.4301654106425,1470
1419.5160892774315,1470
1421.6014679048399,1420
1423.6863015385125,1419
1425.7705904241707,1423
1427.8543348076178,1480
1429.9375349347342,1475
1432.0201910514802,1462
1434.102303403894,1491
1436.1838722380944,1403
1438.2648978002767,1504
1440.3453803367174,1490
1442.4253200937692,1504
1444.5047173178677,1460
1446.5835722555234,1401
1448.6618851533285,1412
1450.739656257952,1492
1452.8168858161434,1462
1454.8935740747306,1404
1456.96972128062,1436
1459.045327680797,1429
1461.120393522327,1441
1463.1949190523528,1463
1465.2689045180973,1412
1467.3423501668608,1380
1469.415256246024,1463
1471.4876230030463,1438
1473.559450685465,1448
1475.6307395408976,1471
1477.7014898170391,1473
1479.771701761665,1478
1481.8413756226287,1519
1483.9105116478618,1445
1485.9791100853772,1407
1488.0471711832643,1417
1490.1146951896926,1492
1492.1816823529098,1450
1494.2481329212433,1416
1496.3140471430984,1497
1498.3794252669609,1429
1500.4442675413939,1484
1502.5085742150404,1463
1504.572345536622,1496
1506.6355817549388,1507
1508.6982831188702,1506
1510.7604498773744,1455
1512.8220822794883,1478
1514.8831805743293,1472
1516.9437450110909,1431
1519.003775839048,1424
1521.0632733075522,1476
1523.1222376660367,1483
1525.1806691640113,1442
1527.2385680510652,1388
1529.2959345768668,1407
1531.3527689911643,1436
1533.4090715437833,1419
1535.4648424846291,1460
1537.5200820636855,1475
1539.5747905310159,1433
1541.6289681367616,1425
1543.6826151311434,1436
1545.7357317644614,1505
1547.7883182870937,1445
1549.8403749494987,1466
1551.8919020022113,1441
1553.9428996958477,1476
1555.9933682811015,1432
1558.0433080087469,1460
1560.0927191296346,1517
1562.1416018946961,1454
1564.1899565549415,1439
1566.2377833614592,1453
1568.2850825654164,1470
1570.3318544180606,1510
1572.3780991707158,1451
1574.423817074788,1515
1576.4690083817595,1532
1578.5136733431923,1415
1580.5578122107272,1437
1582.601425236085,1433
1584.6445126710646,1429
1586.6870747675434,1429
1588.7291117774776,1446
1590.7706239529034,1490
1592.8116115459347,1480
1594.8520748087658,1499
1596.8920139936686,1401
1598.9314293529933,1434
1600.9703211391711,1447
1603.008689604711,1413
1605.0465350022005,1439
1607.0838575843068,1432
1609.1206576037753,1403
1611.1569353134305,1433
1613.1926909661765,1406
1615.2279248149953,1438
1617.2626371129481,1413
1619.2968281131757,1449
1621.3304980688963,1422
1623.3636472334088,1393
1625.39627586009,1397
1627.428384202396,1468
1629.459972513861,1442
1631.4910410480993,1382
1633.5215900588028,1431
1635.551619799744,1411
1637.5811305247717,1383
1639.6101224878166,1381
1641.6385959428862,1386
1643.6665511440683,1395
1645.693988345528,1390
1647.7209078015112,1442
1649.7473097663405,1361
1651.7731944944203,1382
1653.7985622402307,1378
1655.823413258333,1353
1657.847747803366,1359
1659.8715661300494,1369
1661.8948684931793,1385
1663.9176551476316,1368
1665.9399263483624,1384
1667.9616823504057,1342
1669.982923408873,1426
1672.0036497789574,1415
1674.0238617159293,1385
1676.043559475138,1405
1678.0627433120121,1370
1680.081413482059,1383
1682.0995702408654,1397
1684.117213844096,1406
1686.134344547495,1396
1688.1509626068864,1420
1690.1670682781705,1420
1692.182661817329,1364
1694.1977434804217,1396
1696.2123135235875,1453
1698.226372203043,1420
1700.2399197750851,1478
1702.2529564960905,1375
1704.2654826225112,1422
1706.277498410882,1459
1708.2890041178139,1415
1710.2999999999988,1340
1712.3104863142066,1434
1714.3204633172854,1380
1716.329931266163,1414
1718.3388904178469,1413
1720.3473410294214,1385
1722.3552833580516,1428
1724.3627176609807,1392
1726.3696441955308,1409
1728.3760632191033,1418
1730.3819749891782,1449
1732.3873797633146,1391
1734.3922777991502,1387
1736.3966693544012,1416
1738.4005546868639,1414
1740.4039340544127,1455
1742.406807715001,1383
1744.4091759266616,1469
1746.4110389475054,1390
1748.4123970357223,1435
1750.413250449582,1454
1752.4135994474318,1402
1754.4134442876993,1493
1756.4127852288902,1456
1758.4116225295893,1415
1760.4099564484595,1414
1762.407787244244,1413
1764.405115175764,1393
1766.4019405019203,1419
1768.3982634816916,1443
1770.3940843741357,1402
1772.3894034383907,1424
1774.3842209336717,1402
1776.378537119274,1477
1778.372352254571,1435
1780.3656665990156,1418
1782.3584804121397,1456
1784.3507939535534,1451
1786.3426074829463,1454
1788.3339212600863,1454
1790.3247355448211,1450
1792.3150505970766,1433
1794.3048666768573,1422
1796.2941840442477,1429
1798.2830029594106,1448
1800.2713236825884,1414
1802.2591464741004,1417
1804.2464715943465,1435
1806.2332993038058,1482
1808.2196298630352,1390
1810.2054635326708,1439
1812.190800573428,1460
1814.175641246101,1430
1816.1599858115628,1410
1818.1438345307652,1441
1820.127187664738,1408
1822.1100454745924,1418
1824.092408221516,1407
1826.0742761667766,1443
1828.055649571721,1405
1830.0365286977735,1388
1832.0169138064398,1464
1833.9968051593014,1417
1835.9762030180214,1467
1837.9551076443408,1453
1839.9335193000788,1462
1841.9114382471344,1451
1843.888864747485,1433
1845.8657990631878,1405
1847.842241456378,1390
1849.8181921892697,1410
1851.7936515241558,1422
1853.7686197234098,1336
1855.7430970494815,1452
1857.7170837649014,1429
1859.6905801322787,1404
1861.6635864143004,1390
1863.6361028737338,1382
1865.608129773424,1366
1867.5796673762961,1397
1869.5507159453537,1323
1871.521275743678,1397
1873.4913470344313,1418
1875.4609300808534,1411
1877.4300251462632,1477
1879.3986324940588,1413
1881.366752387717,1451
1883.3343850907936,1447
1885.3015308669228,1398
1887.268189979819,1371
1889.2343626932739,1449
1891.2000492711595,1443
1893.1652499774254,1383
1895.1299650761011,1445
1897.0941948312952,1405
1899.0579395071945,1449
1901.0211993680641,1412
1902.98397467825,1419
1904.9462657021745,1412
1906.9080727043415,1405
1908.869395949332,1395
1910.8302357018065,1387
1912.790592226504,1381
1914.7504657882428,1361
1916.7098566519212,1422
1918.6687650825133,1358
1920.6271913450764,1356
1922.5851357047422,1408
1924.5425984267245,1338
1926.499579776314,1413
1928.4560800188833,1419
1930.4120994198802,1436
1932.367638244833,1347
1934.32269675935,1370
1936.2772752291175,1450
1938.231373919899,1406
1940.1849930975404,1335
1942.1381330279637,1382
1944.0907939771696,1392
1946.0429762112412,1423
1947.9946799963363,1366
1949.9459055986945,1416
1951.896653284633,1432
1953.8469233205478,1383
1955.7967159729142,1322
1957.7460315082863,1404
1959.6948701932974,1445
1961.6432322946594,1352
1963.5911180791632,1459
1965.5385278136787,1405
1967.4854617651545,1409
1969.4319202006182,1400
1971.377903387176,1379
1973.3234115920136,1431
1975.268445082395,1415
1977.2130041256642,1394
1979.1570889892423,1414
1981.1006999406304,1391
1983.04383724741,1455
1984.986501177238,1449
1986.928691997853,1407
1988.8704099770712,1416
1990.811655382789,1440
1992.7524284829801,1406
1994.692729545698,1401
1996.6325588390755,1405
1998.5719166313224,1390
2000.5108031907307,1365
2002.4492187856677,1435
2004.387163684583,1429
2006.3246381560011,1400
2008.2616424685298,1431
2010.1981768908527,1396
2012.1342416917332,1406
2014.069837140014,1380
2016.0049635046162,1377
2017.9396210545406,1431
2019.8738100588666,1424
2021.8075307867502,1472
2023.740783507431,1404
2025.6735684902228,1369
2027.6058860045214,1410
2029.5377363198004,1398
2031.4691197056118,1427
2033.4000364315875,1394
2035.3304867674374,1357
2037.260470982952,1385
2039.189989347998,1411
2041.1190421325232,1420
2043.047629606554,1390
2044.9757520401945,1379
2046.9034097036288,1424
2048.8306028671195,1391
2050.7573318010086,1410
2052.683596775716,1374
2054.609398061742,1408
2056.5347359296647,1370
2058.4596106501403,1446
2060.384022493906,1380
2062.3079717317764,1388
2064.231458634646,1393
2066.1544834734873,1495
2068.077046519352,1442
2069.99914804337,1358
2071.9207883167524,1406
2073.8419676107865,1465
2075.7626861968406,1419
2077.6829443463607,1436
2079.6027423308715,1366
2081.522080421977,1379
2083.440958891362,1427
2085.359378010786,1409
2087.2773380520907,1423
2089.194839287196,1394
2091.111881988101,1466
2093.0284664268825,1365
2094.9445928756973,1419
2096.86026160678,1419
2098.775472892446,1409
2100.690227005088,1425
2102.604524217178,1431
2104.5183648012676,1415
2106.431749029985,1411
2108.34467717604,1418
2110.2571495122206,1486
2112.169166311393,1429
2114.080727846503,1393
2115.9918343905747,1428
2117.902486216711,1430
2119.8126835980956,1397
2121.722426807987,1455
2123.6317161197285,1425
2125.5405518067364,1504
2127.448934142509,1501
2129.356863400624,1492
2131.264339854737,1452
2133.1713637785815,1512
2135.077935445972,1460
2136.9840551308002,1503
2138.889723107037,1467
2140.7949396487334,1446
2142.699705030018,1417
2144.6040195250994,1453
2146.507883408264,1446
2148.4112969538774,1479
2150.3142604363848,1506
2152.2167741303097,1481
2154.1188383102535,1407
2156.0204532508997,1421
2157.9216192270064,1509
2159.822336513414,1446
2161.7226053850413,1432
2163.622426116884,1485
2165.5217989840185,1432
2167.4207242616,1432
2169.319202224862,1429
2171.2172331491165,1433
2173.1148173097563,1489
2175.0119549822507,1446
2176.90864644215,1496
2178.8048919650823,1506
2180.7006918267534,1476
2182.596046302952,1535
2184.4909556695407,1505
2186.3854202024645,1492
2188.279440177746,1460
2190.173015871487,1538
2192.066147559868,1454
2193.958835519149,1504
2195.851080025667,1444
2197.7428813558417,1475
2199.6342397861667,1494
2201.5251555932186,1513
2203.415629053651,1500
2205.3056604441986,1451
2207.19525004167,1429
2209.084398122958,1486
2210.9731049650327,1486
2212.861370844941,1511
2214.749196039812,1522
2216.636580826851,1534
2218.523525483344,1474
2220.410030286655,1529
2222.296095514226,1516
2224.1817214435805,1540
2226.066908352319,1524
2227.951656518121,1546
2229.835966218746,1451
2231.71983773203,1523
2233.6032713358913,1456
2235.486267308324,1453
2237.3688259274036,1494
2239.2509474712824,1547
2241.132632218193,1538
2243.013880446447,1575
2244.8946924344323,1571
2246.7750684606203,1486
2248.6550088035574,1543
2250.534513741871,1555
2252.413583554265,1528
2254.292218519526,1417
2256.170418916517,1475
2258.0481850241786,1474
2259.925517121534,1461
2261.8024154876825,1477
2263.678880401803,1460
2265.5549121431536,1503
2267.430510991071,1508
2269.305677224971,1532
2271.180411124348,1459
2273.0547129687766,1455
2274.9285830379076,1436
2276.8020216114737,1456
2278.6750289692845,1413
2280.5476053912294,1465
2282.4197511572766,1529
2284.2914665474727,1517
2286.162751841943,1500
2288.0336073208937,1554
2289.904033264608,1471
2291.774029953448,1483
2293.6435976678554,1487
2295.5127366883517,1488
2297.381447295534,1439
2299.2497297700825,1394
2301.1175843927526,1439
2302.9850114443825,1294
2304.852011205885,1286
2306.7185839582553,1331
2308.5847299825664,1261
2310.4504495599676,1259
2312.3157429716925,1197
2314.1806104990483,1277
2316.0450524234247,1315
2317.9090690262888,1245
2319.772660589186,1338
2321.635827393742,1272
2323.498569721661,1333
2325.3608878547248,1235
2327.2227820747967,1204
2329.0842526638157,1229
2330.945299903803,1247
2332.805924076857,1233
2334.6661254651535,1236
2336.525904350951,1273
2338.3852610165827,1205
2340.244195744464,1250
2342.102708817088,1240
2343.9608005170253,1199
2345.8184711269287,1267
2347.675720929526,1306
2349.532550207628,1246
2351.38895924412,1329
2353.24494832197,1240
2355.100517724223,1222
2356.955667734004,1218
2358.810398634514,1234
2360.664710709037,1308
2362.5186042409337,1227
2364.3720795136437,1294
2366.225136810686,1206
2368.0777764156583,1281
2369.929998612237,1191
2371.7818036841777,1223
2373.633191915315,1214
2375.484163589562,1238
2377.3347189909114,1266
2379.184858403434,1227
2381.03458211128,1238
2382.8838903986775,1296
2384.732783549936,1271
2386.5812618494406,1249
2388.4293255816588,1261
2390.2769750311327,1252
2392.1242104824883,1305
2393.971032220427,1255
2395.8174405297295,1265
2397.6634356952563,1293
2399.509018001947,1222
2401.3541877348193,1241
2403.1989451789705,1253
2405.043290619576,1243
2406.8872243418905,1212
2408.730746631247,1227
2410.5738577730594,1217
2412.4165580528183,1290
2414.258847756095,1290
2416.100727168537,1274
2417.9421965758734,1269
2419.783256263912,1281
2421.623906518538,1192
2423.4641476257157,1286
2425.303979871491,1285
2427.143403541984,1269
2428.9824189233977,1257
2430.821026302012,1284
2432.6592259641866,1211
2434.497018196361,1284
2436.33440328505,1294
2438.171381516851,1238
2440.00795317844,1229
2441.844118556569,1296
2443.6798779380724,1241
2445.5152316098606,1234
2447.3501798589255,1308
2449.1847229723357,1225
2451.0188612372403,1238
2452.8525949408663,1241
2454.6859243705203,1258
2456.518849813587,1230
2458.3513715575314,1248
2460.183489889895,1313
2462.015205098301,1249
2463.8465174704493,1206
2465.67742729412,1232
2467.5079348571717,1258
2469.338040447542,1250
2471.1677443532476,1253
2472.9970468623833,1237
2474.825948263123,1236
2476.6544488437207,1191
2478.482548892508,1250
2480.310248697896,1213
2482.137548548374,1253
2483.9644487325118,1238
2485.790949538956,1201
2487.617051256433,1212
2489.44275417375,1292
2491.26805857979,1224
2493.0929647635157,1262
2494.917473013971,1238
2496.741583620276,1243
2498.5652968716304,1250
2500.3886130573137,1232
2502.2115324666834,1271
2504.0340553891765,1212
2505.856182114308,1287
2507.6779129316733,1259
2509.499248130945,1260
2511.3201880018764,1271
2513.140732834298,1216
2514.9608829181198,1206
2516.780638543331,1262
2518.6,1253
2520.418967578273,1265
2522.237541568376,1242
2524.0557222606144,1255
2525.8735099453706,1312
2527.6909049131086,1255
2529.507907454368,1221
2531.32451785977,1225
2533.140736420014,1252
2534.9565634258774,1256
2536.771999168218,1231
2538.5870439379714,1249
2540.4016980261526,1266
2542.2159617238544,1250
2544.02983532225,1213
2545.8433191125914,1214
2547.656413386209,1261
2549.4691184345115,1233
2551.2814345489874,1251
2553.093362021204,1254
2554.904901142808,1233
2556.716052205523,1176
2558.526815501153,1241
2560.3371913215824,1241
2562.147179958771,1254
2563.956781704761,1216
2565.7659968516705,1299
2567.5748256916986,1225
2569.3832685171224,1239
2571.1913256202984,1221
2572.9989972936614,1227
2574.806283829725,1172
2576.613185521084,1226
2578.4197026604074,1227
2580.2258355404483,1224
2582.031584454035,1220
2583.836949694077,1248
2585.6419315535613,1252
2587.4465303255533,1240
2589.2507463032002,1265
2591.0545797797245,1269
2592.8580310484303,1244
2594.6611004026995,1235
2596.463788135992,1187
2598.266094541849,1252
2600.0680199138874,1242
2601.869564545807,1195
2603.670728731383,1226
2605.4715127644704,1235
2607.2719169390048,1232
2609.071941548998,1269
2610.8715868885433,1218
2612.670853251811,1256
2614.469740933052,1250
2616.268250226594,1285
2618.0663814268455,1238
2619.864134828292,1229
2621.6615107255006,1243
2623.458509413115,1248
2625.2551311858597,1267
2627.0513763385347,1260
2628.8472451660223,1219
2630.6427379632833,1246
2632.4378550253564,1225
2634.232596647359,1227
2636.026963124488,1225
2637.8209547520187,1260
2639.6145718253065,1265
2641.407814639785,1211
2643.200683490966,1313
2644.9931786744414,1268
2646.7853004858807,1208
2648.577049221034,1237
2650.3684251757277,1184
2652.1594286458712,1209
2653.9500599274484,1302
2655.740319316525,1242
2657.5302071092437,1254
2659.3197236018286,1243
2661.10886909058,1242
2662.8976438718782,1251
2664.686048242183,1265
2666.4740824980327,1254
2668.2617469360443,1249
2670.0490418529134,1213
2671.8359675454153,1271
2673.622524310403,1210
2675.408712444811,1239
2677.1945322456495,1303
2678.979984010009,1284
2680.76506803506,1211
2682.5497846180497,1249
2684.334134056306,1228
2686.1181166472343,1230
2687.9017326883213,1184
2689.6849824771293,1231
2691.4678663113013,1242
2693.2503844885596,1270
2695.032537306705,1270
2696.8143250636167,1244
2698.5957480572542,1247
2700.3768065856534,1266
2702.1575009469316,1232
2703.937831439283,1247
2705.717798360982,1322
2707.4974020103837,1213
2709.276642685917,1253
2711.055520686095,1224
2712.834036309506,1234
2714.612189854819,1258
2716.389981620782,1249
2718.1674119062204,1177
2719.944481010041,1284
2721.721189231226,1251
2723.4975368688415,1242
2725.273524222027,1199
2727.0491515900053,1230
2728.824419272075,1230
2730.5993275676146,1212
2732.3738767760838,1247
2734.148067197016,1236
2735.921899130031,1278
2737.6953728748194,1248
2739.468488731156,1250
2741.2412469988926,1254
2743.0136479779617,1286
2744.785691968372,1224
2746.5573792702116,1257
2748.3287101836504,1264
2750.099685008934,1240
2751.870304046388,1235
2753.640567596418,1257
2755.4104759595057,1275
2757.1800294362156,1238
2758.949228327187,1271
2760.7180729331412,1284
2762.486563554877,1259
2764.254700493272,1200
2766.022484049284,1257
2767.789914523947,1272
2769.5569922183786,1206
2771.3237174337705,1287
2773.090090471394,1244
2774.8561116326036,1288
2776.6217812188274,1253
2778.3870995315756,1264
2780.1520668724356,1248
2781.9166835430747,1257
2783.6809498452394,1280
2785.444866080754,1324
2787.2084325515225,1299
2788.971649559527,1240
2790.73451740683,1308
2792.4970363955713,1204
2794.2592068279705,1205
2796.0210290063264,1220
2797.7825032330147,1242
2799.543629810493,1294
2801.304409041296,1239
2803.0648412280366,1213
2804.8249266734088,1256
2806.5846656801846,1265
2808.344058551212,1297
2810.1031055894246,1245
2811.8618070978273,1287
2813.6201633795085,1223
2815.378174737636,1269
2817.1358414754536,1227
2818.893163896285,1272
2820.6501423035334,1244
2822.4067770006814,1283
2824.1630682912883,1244
2825.9190164789957,1266
2827.6746218675207,1262
2829.429884760661,1253
2831.184805462294,1298
2832.9393842763743,1255
2834.693621506936,1278
2836.4475174580916,1236
2838.201072434034,1208
2839.954286739034,1247
2841.707160677441,1290
2843.459694553685,1270
2845.2118886722724,1279
2846.96374333779,1277
2848.7152588549034,1263
2850.4664355283567,1254
2852.217273662973,1282
2853.9677735636546,1253
2855.7179355353833,1291
2857.4677598832186,1258
2859.217246912299,1259
2860.9663969278427,1218
2862.715210235146,1221
2864.4636871395846,1266
2866.211827946614,1255
2867.9596329617652,1210
2869.7071024906536,1250
2871.4542368389684,1235
2873.20103631248,1269
2874.947501217038,1238
2876.6936318585695,1302
2878.4394285430812,1304
2880.1848915766604,1253
2881.9300212654707,1226
2883.6748179157553,1267
2885.4192818338374,1246
2887.1634133261173,1277
2888.907212699077,1258
2890.6506802592744,1250
2892.393816313348,1258
2894.1366211680142,1263
2895.8790951300693,1288
2897.621238506388,1274
2899.363051603925,1277
2901.1045347297118,1288
2902.8456881908596,1287
2904.58651229456,1289
2906.327007348081,1252
2908.067173658772,1222
2909.8070115340597,1209
2911.5465212814497,1259
2913.285703208527,1266
2915.0245576229563,1279
2916.7630848324807,1276
2918.5012851449196,1282
2920.2391588681758,1272
2921.976706310227,1203
2923.7139277791334,1236
2925.4508235830313,1227
2927.187394030137,1275
2928.923639428745,1247
2930.6595600872306,1243
2932.395156314046,1252
2934.1304284177218,1241
2935.8653767068713,1241
2937.6000014901815,1217
2939.3343030764227,1296
2941.068281774442,1251
2942.8019378931644,1282
2944.5352717415976,1252
2946.2682836288236,1290
2948.0009738640065,1267
2949.7333427563885,1236
2951.465390615289,1206
2953.1971177501086,1277
2954.9285244703265,1236
2956.6596110855,1234
2958.3903779052657,1218
2960.1208252393385,1221
2961.8509533975125,1234
2963.5807626896617,1253
2965.3102534257378,1223
2967.0394259157715,1305
2968.768280469873,1262
2970.496817398232,1263
2972.2250370111146,1288
2973.952939618869,1292
2975.6805255319196,1255
2977.4077950607707,1226
2979.134748516006,1258
2980.861386208289,1344
2982.587708448359,1213
2984.313715547037,1301
2986.039407815222,1231
2987.764785563891,1220
2989.489849104102,1219
2991.2145987469908,1211
2992.9390348037705,1220
2994.6631575857346,1260
2996.3869674042576,1237
2998.1104645707887,1181
2999.83364939686,1209
3001.5565221940783,1232
3003.2790832741334,1195
3005.0013329487924,1294
3006.7232715298996,1261
3008.4448993293804,1241
3010.166216659239,1235
3011.887223831558,1205
3013.607921158498,1211
3015.3283089522993,1221
3017.0483875252826,1241
3018.7681571898443,1223
3020.4876182584626,1250
3022.2067710436927,1229
3023.9256158581707,1274
3025.644153014609,1240
3027.362382825801,1259
3029.0803056046193,1214
3030.797921664012,1259
3032.5152313170106,1231
3034.2322348767225,1252
3035.9489326563353,1214
3037.665324969115,1194
3039.3814121284063,1216
3041.097194447633,1257
3042.812672240299,1275
3044.5278458199855,1245
3046.2427155003525,1243
3047.9572815951406,1259
3049.671544418167,1237
3051.38550428333,1294
3053.0991615046073,1256
3054.812516396051,1263
3056.5255692717974,1250
3058.2383204460575,1277
3059.9507702331257,1232
3061.662918947372,1229
3063.3747669032446,1228
3065.0863144152736,1180
3066.7975617980674,1247
3068.508509366309,1286
3070.219157434767,1196
3071.9295063182844,1160
3073.639556331785,1260
3075.3493077902704,1256
3077.058761008821,1251
3078.7679163025964,1218
3080.476773986837,1269
3082.1853343768594,1193
3083.89359778806,1219
3085.6015645359153,1215
3087.3092349359786,1229
3089.016609303884,1226
3090.7236879553434,1249
3092.4304712061476,1234
3094.136959372166,1259
3095.843152769349,1221
3097.5490517137237,1227
3099.2546565213966,1201
3100.959967508554,1231
3102.66498499146,1223
3104.3697092864577,1184
3106.0741407099695,1268
3107.778279578498,1249
3109.482126208622,1233
3111.1856809170004,1220
3112.8889440203716,1287
3114.5919158355528,1243
3116.294596679439,1250
3117.996986869006,1276
3119.6990867213062,1303
3121.4008965534726,1276
3123.102416682717,1266
3124.803647426329,1211
3126.5045891016784,1237
3128.205242026213,1193
3129.90560651746,1240
3131.605682893025,1237
3133.3054714705922,1202
3135.0049725679282,1254
3136.7041865028714,1243
3138.4031135933465,1246
3140.101754157353,1224
3141.800108512971,1239
3143.498176978357,1208
3145.1959598717494,1213
3146.8934575114636,1191
3148.5906702158954,1234
3150.2875983035183,1199
3151.9842420928853,1209
3153.680601902627,1200
3155.376678051456,1209
3157.07247085816,1219
3158.767980641609,1209
3160.463207720748,1166
3162.158152414606,1190
3163.8528150422862,1178
3165.5471959229726,1277
3167.2412953759303,1233
3168.9351137204976,1229
3170.628651276098,1293
3172.3219083622307,1202
3174.014885298474,1246
3175.707582404485,1274
3177.4000000000005,1210
3179.092138404835,1272
3180.7839979388846,1236
3182.47557892212,1257
3184.166881674594,1227
3185.8579065164386,1220
3187.5486537678626,1229
3189.2391237491547,1213
3190.9293167806827,1262
3192.6192331828934,1190
3194.3088732763117,1227
3195.998237381542,1261
3197.687325819268,1232
3199.376138910251,1260
3201.064676975334,1231
3202.7529403354347,1230
3204.4409293115523,1220
3206.1286442247647,1259
3207.816085396229,1265
3209.5032531471825,1198
3211.190147798936,1218
3212.8767696728846,1169
3214.5631190905015,1229
3216.2491963733373,1210
3217.9350018430214,1218
3219.6205358212637,1236
3221.305798629851,1170
3222.990790590651,1188
3224.6755120256103,1179
3226.359963256751,1197
3228.0441446061795,1217
3229.7280563960758,1218
3231.411698948703,1201
3233.0950725863995,1199
3234.778177631587,1184
3236.461014406761,1179
3238.1435832345005,1197
3239.8258844374595,1264
3241.507918338374,1251
3243.1896852600576,1204
3244.8711855254023,1215
3246.552419457381,1277
3248.233387379042,1259
3249.914089613516,1251
3251.59452648401,1218
3253.274698313813,1259
3254.95460542629,1190
3256.6342481448855,1189
3258.313626793125,1136
3259.9927416946084,1171
3261.6715931730196,1170
3263.3501815521176,1164
3265.0285071557437,1166
3266.706570307815,1170
3268.3843713323286,1230
3270.0619105533615,1216
3271.739188295068,1212
3273.4162048816834,1170
3275.0929606375184,1230
3276.769455886966,1204
3278.445690954498,1273
3280.1216661646613,1168
3281.797381842087,1241
3283.4728383114807,1237
3285.1480358976296,1310
3286.8229749253996,1225
3288.4976557197333,1270
3290.172078605655,1229
3291.846243908266,1214
3293.5201519527463,1213
3295.193803064357,1208
3296.8671975684374,1223
3298.5403357904024,1188
3300.21321805575,1197
3301.8858446900567,1248
3303.558216018975,1226
3305.23033236824,1230
3306.9021940636603,1214
3308.57380143113,1225
3310.2451547966184,1289
3311.916254486174,1220
3313.5871008259246,1249
3315.2576941420766,1274
3316.9280347609147,1243
3318.5981230088046,1223
3320.2679592121895,1251
3321.9375436975924,1197
3323.606876791612,1227
3325.27595882093,1199
3326.944790112305,1206
3328.6133709925753,1191
3330.2817017886573,1212
3331.949782827547,1199
3333.617614436319,1245
3335.2851969421245,1201
3336.952530672199,1219
3338.619615953853,1263
3340.286453114475,1178
3341.9530424815357,1197
3343.619384382583,1228
3345.2854791452437,1231
3346.951327097224,1202
3348.6169285663073,1212
3350.2822838803577,1200
3351.947393367319,1252
3353.61225735521,1270
3355.2768761721345,1221
3356.9412501462693,1207
3358.605379605873,1238
3360.2692648792827,1226
3361.9329062949146,1209
3363.596304181263,1198
