CollectionTime,9/20/2024 11:25:31 AM
ExposureUsed,3
CalibratedSpectrum
-962.7078968117929,553
-959.9714848408522,581
-957.2358232597828,529
-954.5009119013725,561
-951.7667505983302,548
-949.0333391832855,589
-946.3006774887896,591
-943.5687653473143,568
-940.837602591253,560
-938.1071890529199,558
-935.3775245645503,579
-932.6486089583007,551
-929.9204420662485,545
-927.1930237203925,559
-924.4663537526524,578
-921.7404319948689,569
-919.0152582788041,601
-916.2908324361409,585
-913.5671542984834,553
-910.8442236973568,521
-908.1220404642074,554
-905.4006044304027,581
-902.679915427231,568
-899.959973285902,523
-897.2407778375464,541
-894.5223289132158,563
-891.8046263438832,555
-889.0876699604426,555
-886.3714595937089,585
-883.6559950744183,526
-880.9412762332282,554
-878.2273029007168,563
-875.5140749073835,542
-872.8015920836489,488
-870.0898542598545,511
-867.3788612662631,512
-864.6686129330585,513
-861.9591090903457,508
-859.2503495681506,540
-856.5423341964203,518
-853.8350628050229,514
-851.1285352237478,569
-848.4227512823054,573
-845.7177108103272,565
-843.0134136373656,584
-840.3098595928943,534
-837.6070485063082,573
-834.9049802069229,566
-832.2036545239757,561
-829.5030712866244,569
-826.8032303239481,597
-824.1041314649472,571
-821.4057745385428,554
-818.7081593735775,530
-816.0112857988148,532
-813.3151536429393,570
-810.6197627345566,571
-807.9251129021936,543
-805.2312039742981,575
-802.5380357792392,604
-799.8456081453069,561
-797.1539209007124,570
-794.462973873588,537
-791.772766891987,595
-789.083299783884,557
-786.3945723771743,567
-783.7065844996748,542
-781.0193359791231,556
-778.3328266431781,569
-775.6470563194197,518
-772.9620248353489,533
-770.2777320183878,579
-767.5941776958798,610
-764.9113616950891,581
-762.2292838432011,528
-759.5479439673222,534
-756.8673418944801,548
-754.1874774516235,574
-751.5083504656222,581
-748.8299607632671,570
-746.15230817127,560
-743.475392516264,637
-740.7992136248035,584
-738.1237713233636,571
-735.4490654383407,573
-732.7750957960521,550
-730.1018622227365,571
-727.4293645445534,587
-724.7576025875837,553
-722.0865761778291,575
-719.4162851412126,551
-716.7467293035781,585
-714.0779084906909,680
-711.409822528237,686
-708.7424712418238,623
-706.0758544569796,604
-703.4099719991541,590
-700.7448236937178,596
-698.0804093659622,580
-695.4167288411002,597
-692.7537819442656,597
-690.0915685005134,575
-687.4300883348199,608
-684.7693412720819,611
-682.1093271371178,637
-679.4500457546669,640
-676.7914969493897,587
-674.1336805458676,603
-671.4765963686034,608
-668.8202442420206,610
-666.1646239904642,628
-663.5097354382001,595
-660.8555784094151,575
-658.2021527282176,595
-655.5494582186366,591
-652.8974947046223,608
-650.2462620100463,637
-647.5957599587009,634
-644.9459883742998,672
-642.2969470804776,648
-639.6486359007902,638
-637.0010546587141,659
-634.3542031776476,691
-631.7080812809096,668
-629.0626887917401,623
-626.4180255333008,599
-623.7740913286734,678
-621.1308860008619,658
-618.4884093727904,689
-615.8466612673046,655
-613.2056415071715,650
-610.5653499150785,657
-607.9257863136347,718
-605.28695052537,697
-602.6488423727357,648
-600.0114616781036,663
-597.3748082637674,702
-594.7388819519412,679
-592.1036825647604,707
-589.4692099242818,675
-586.8354638524829,689
-584.2024441712624,733
-581.5701507024403,710
-578.9385832677575,765
-576.3077416888759,744
-573.6776257873787,706
-571.0482353847704,735
-568.4195703024757,691
-565.7916303618415,727
-563.164415384135,681
-560.5379251905453,745
-557.9121596021815,730
-555.2871184400748,704
-552.6628015251767,706
-550.0392086783606,713
-547.4163397204204,738
-544.794194472071,761
-542.1727727539491,769
-539.5520743866118,830
-536.9320991905377,879
-534.3128469861261,966
-531.6943175936979,926
-529.0765108334947,915
-526.4594265256793,933
-523.8430644903358,1088
-521.2274245474689,1287
-518.612506517005,1319
-515.9983102187913,1456
-513.3848354725959,1685
-510.77208209810846,2020
-508.16004991493924,2139
-505.5487387426199,2123
-502.9381484006032,2154
-500.3282787082628,2034
-497.71912948489364,1806
-495.1107005497117,1475
-492.5029917218539,1233
-489.8960028203786,1123
-487.28973366426493,998
-484.68418407241325,981
-482.07935386364494,873
-479.47524285670266,864
-476.87185087025,927
-474.2691777228715,934
-471.66722323307334,944
-469.0659872192821,902
-466.4654694998459,911
-463.86566989303384,877
-461.26658821703614,873
-458.66822428996414,842
-456.07057792985,874
-453.4736489546475,885
-450.877437182231,886
-448.28194243039627,863
-445.68716451686,897
-443.09310325926003,835
-440.49975847515555,848
-437.9071299820263,846
-435.31521759727354,919
-432.72402113821954,906
-430.13354042210767,958
-427.5437752661022,903
-424.95472548728867,847
-422.36639090267386,1022
-419.7787713291855,1070
-417.1918665836721,948
-414.60567648290385,960
-412.0202008435715,979
-409.4354394822874,997
-406.8513922155845,931
-404.26805885991723,995
-401.685439231661,1033
-399.103533147112,992
-396.522340422488,967
-393.9418608739278,942
-391.3620943174908,891
-388.7830405691583,856
-386.2046994448317,883
-383.6270707603344,894
-381.05015433141045,926
-378.473949973725,842
-375.8984575028645,834
-373.32367673433623,786
-370.74960748356875,806
-368.1762495659117,714
-365.60360279663576,672
-363.03166699093265,659
-360.4604419639154,614
-357.8899275306178,594
-355.32012350599507,591
-352.7510297049233,636
-350.1826459421999,655
-347.61497203254316,606
-345.04800779059235,635
-342.4817530309082,644
-339.91620756797226,629
-337.35137121618743,657
-334.7872437898774,682
-332.22382510328725,710
-329.66111497058273,639
-327.09911320585127,623
-324.53781962310075,688
-321.9772340362607,675
-319.4173562591816,622
-316.8581861056348,685
-314.2997233893127,636
-311.7419679238294,663
-309.1849195227194,750
-306.62857799943856,777
-304.0729431673641,665
-301.51801483979375,667
-298.963792829947,617
-296.41027695096386,637
-293.85746701590574,613
-291.3053628377552,663
-288.7539642294155,696
-286.2032710037115,763
-283.65328297338897,699
-281.1039999511146,794
-278.5554217494762,738
-276.007548180983,875
-273.4603790580651,792
-270.9139141930734,809
-268.3681533982807,798
-265.8230964858798,806
-263.27874326798565,828
-260.7350935566336,823
-258.1921471637804,831
-255.6499039013039,920
-253.10836358100266,979
-250.56752601459698,897
-248.02739101372765,897
-245.48795838995704,919
-242.94922795476816,930
-240.41119951956557,948
-237.8738728956746,883
-235.33724789434166,880
-232.80132432673452,943
-230.2661020039418,887
-227.73158073697357,901
-225.19776033676033,983
-222.66464061415422,1060
-220.1322213799284,1001
-217.60050244477725,986
-215.06948361931552,1043
-212.53916471408013,1064
-210.00954553952818,978
-207.48062590603843,990
-204.9524056239104,1036
-202.4248845033651,1216
-199.8980623545441,1088
-197.37193898751036,1127
-194.84651421224817,1216
-192.32178783866232,1045
-189.79775967657952,1126
-187.27442953574644,1142
-184.7517972258321,1208
-182.2298625564256,1037
-179.7086253370378,1054
-177.18808537710026,1025
-174.66824248596583,1172
-172.14909647290835,1284
-169.6306471471229,1262
-167.11289431772548,1204
-164.59583779375328,1166
-162.07947738416453,1352
-159.5638128978386,1668
-157.04884414357605,1670
-154.53457093009854,1492
-152.02099306604828,1311
-149.50811035998936,1374
-146.99592262040665,1541
-144.48442965570587,1748
-141.97363127421409,1605
-139.46352728417958,1697
-136.95411749377126,1694
-134.44540171107985,1651
-131.93737974411636,1641
-129.43005140081357,1602
-126.92341648902493,1758
-124.41747481652521,1902
-121.91222619101006,2286
-119.40767042009657,2541
-116.90380731132257,2804
-114.40063667214702,3658
-111.8981583099503,5082
-109.3963720320337,7659
-106.89527764561933,9951
-104.39487495785067,10685
-101.89516377579241,12575
-99.39614390642998,17086
-96.89781515667039,23760
-94.40017733334128,28661
-91.90323024319173,30836
-89.40697369289148,28223
-86.91140748903172,18303
-84.41653143812482,11943
-81.92234534660395,11856
-79.42884902082358,14021
-76.93604226705907,16730
-74.4439248915071,18005
-71.95249670028534,16854
-69.46175749943245,13084
-66.97170709490854,11154
-64.48234529259423,10027
-61.99367189829195,11147
-59.50568671772464,11876
-57.01838955653636,11633
-54.53178022029283,13084
-52.045858514480074,17039
-49.560624244506016,18303
-47.07607721569923,19561
-44.59221723330904,23009
-42.10904410250669,26766
-39.62655762838392,27561
-37.14475761595372,27633
-34.66364387015028,32342
-32.18321619582866,35901
-29.70347439776515,38883
-27.224418280657005,46400
-24.74604764912317,55481
-22.26836230770266,61061
-19.7913620608565,65034
-17.315046712966478,65034
-14.83941606833514,65034
-12.36446993118659,65034
-9.89020810566592,65034
-7.416630395839093,65034
-4.94373660569363,65034
-2.471526539137585,65034
-6.821210263296962E-13,65034
2.47084320796705,65034
4.941003281093458,65034
7.410480415786196,65034
9.879274808531363,65034
12.347386655893956,65034
14.814816154518212,65034
17.28156350112681,65034
19.74762889252179,65034
22.21301252558385,65034
24.67771459727237,24633
27.141735304626195,8182
29.605074844762612,6978
32.06773341487792,6152
34.52971121224755,5256
36.99100843422559,4231
39.45162527824516,4227
41.91156194181792,5693
44.370818622535126,5682
46.82939551806646,5722
49.287292826160524,5407
51.74451074464503,5102
54.201049471426245,4002
56.65690920448981,2918
59.112090141899785,3423
61.56659248179983,3454
64.02041642241159,3986
66.4735621620365,3588
68.92602989905402,3760
71.37781983192338,3789
73.82893215918205,3177
76.27936707944684,2358
78.72912479141326,2391
81.17820549385567,2219
83.62660938562783,2168
86.07433666566146,2170
88.5213875329681,2171
90.96776218663751,2454
93.41346082583925,2463
95.85848364982041,2813
98.30283085790859,2560
100.7465026495089,1938
103.18949922410604,1890
105.63182078126385,1950
108.07346752062438,1989
110.51443964190923,1921
112.95473734491827,2019
115.39436082953114,1999
117.83331029570547,1734
120.27158594347827,1826
122.7091879729652,1872
125.1461165843615,1925
127.58237197794062,2234
130.01795435405518,2239
132.4528639131364,1933
134.88710085569494,1650
137.32066538231982,1546
139.75355769367923,1629
142.1857779905207,1471
144.61732647366978,1239
147.04820334403132,1222
149.47840880258934,1313
151.90794305040674,1601
154.33680628862487,1688
156.76499871846443,1822
159.19252054122433,1755
161.61937195828352,1791
164.04555317109896,1952
166.47106438120693,2096
168.89590579022217,2143
171.320077599839,2116
173.7435800118302,2329
176.16641322804742,2392
178.58857745042144,2519
181.01007288096173,2508
183.43089972175687,2341
185.85105817497413,2394
188.27054844285988,2290
190.6893707277394,2431
193.10752523201643,2532
195.5250121581745,2688
197.9418317087751,2633
200.3579840864594,2496
202.7734694939469,2552
205.18828813403627,2751
207.6024402096051,2800
210.01592592360964,2645
212.42874547908548,2730
214.84089907914665,2580
217.2523869269868,2605
219.66320922587727,2631
222.0733661791695,2506
224.48285799029293,2588
226.8916848627572,2727
229.29984700014882,2575
231.7073446061355,2695
234.11417788446204,2625
236.520347038953,2588
238.92585227351185,2655
241.33069379212054,2777
243.73487179884035,2840
246.1383864978112,2620
248.541238093252,2588
250.9434267894609,2630
253.34495279081432,2573
255.74581630176783,2630
258.1460175268563,2602
260.54555667069314,2580
262.9444339379703,2548
265.3426495334594,2638
267.7402036620107,2954
270.1370965285529,2842
272.53332833809407,2731
274.9288992957214,2583
277.32380960660055,2556
279.718059475976,2570
282.1116491091717,2701
284.5045787115897,2568
286.89684848871195,2586
289.2884586460981,2575
291.67940938938807,2744
294.0697009242996,2768
296.4593334566299,2678
298.84830719225477,2635
301.23662233712923,2626
303.6242790972866,2505
306.01127767884,2561
308.39761828798066,2408
310.78330113097934,2409
313.16832641418534,2399
315.5526943440269,2441
317.9364051270112,2382
320.3194589697242,2361
322.70185607883093,2438
325.0835966610754,2301
327.4646809232805,2345
329.8451090723478,2287
332.2248813152577,2345
334.6039978590701,2360
336.9824589109231,2355
339.36026467803447,2260
341.7374153677,2186
344.113911187295,2159
346.48975234427337,2235
348.8649390461686,2232
351.2394715005918,2179
353.61334991523415,2165
355.9865744978655,2198
358.35914545633375,2211
360.73106299856715,2126
363.10232733257146,2109
365.47293866643247,2107
367.84289720831396,2072
370.2122031664593,2136
372.5808567491905,2132
374.9488581649083,2110
377.31620762209275,2108
379.6829053293021,2018
382.0489514951745,1935
384.4143463284262,2009
386.7790900378528,2051
389.14318283232853,2115
391.50662492080653,2018
393.86941651231916,2023
396.23155781597745,2012
398.5930490409713,2065
400.9538903965696,2067
403.3140820921202,2091
405.6736243370498,2024
408.03251734086336,1986
410.3907613131465,1989
412.74835646356166,2017
415.10530300185144,2040
417.4616011378372,2034
419.81725108141893,1986
422.1722530425758,1993
424.5266072313656,2000
426.880313857925,2031
429.2333731324701,2004
431.58578526529516,2012
433.9375504667738,1956
436.2886689473588,1915
438.63914091758113,1983
440.9889665880513,1944
443.33814616945835,1972
445.68667987257015,1977
448.03456790823395,1885
450.3818104873759,1980
452.72840782100013,1904
455.07436012019105,1863
457.41966759611057,1814
459.7643304600007,1845
462.10834892318155,1902
464.4517231970525,1899
466.79445349309174,2008
469.1365400228566,1996
471.4779829979826,1898
473.81878263018564,2026
476.15893913125876,1937
478.4984527130747,2039
480.8373235875855,2003
483.17555196682144,2156
485.5131380628919,2153
487.8500820879857,2178
490.1863842543697,2294
492.52204477439034,2327
494.8570638604725,2587
497.1914417251204,2813
499.52517858091653,3278
501.85827464052306,3951
504.19073011668036,4577
506.5225452222086,4904
508.85372017000566,4980
511.18425517304956,5101
513.514150444396,5432
515.8434061971808,6258
518.1720226446176,6743
520.4999999999999,6568
522.8273384766991,6152
525.1540382881666,5659
527.480099647932,4968
529.8055227696037,3876
532.1303078668694,2901
534.454455153496,2517
536.777964843328,2251
539.1008371502907,2124
541.4230722883866,2111
543.744670471698,2090
546.0656319143858,2070
548.3859568306899,2005
550.7056454349294,1932
553.0246979415016,1905
555.3431145648834,1876
557.6608955196306,1894
559.978041020377,1879
562.2945512818363,1933
564.6104265188006,1957
566.9256669461412,1905
569.2402727788082,1894
571.5542442318302,1967
573.8675815203156,1885
576.1802848594508,1943
578.4923544645015,2052
580.8037905508126,2063
583.114593333807,1967
585.4247630289875,2023
587.7342998519354,2015
590.0432040183106,1926
592.3514757438526,1966
594.6591152443794,1954
596.9661227357875,1979
599.2724984340531,1938
601.578242555231,1936
603.8833553154542,1834
606.1878369309362,1932
608.4916876179676,1925
610.7949075929192,1917
613.0974970722403,1901
615.3994562724587,1850
617.7007854101818,1855
620.0014847020951,1972
622.3015543649641,1899
624.6009946156324,1937
626.8998056710224,1900
629.1979877481361,1892
631.4955410640538,1953
633.7924658359349,2004
636.0887622810175,1905
638.3844306166192,1884
640.6794710601358,1969
642.9738838290426,1923
645.2676691408932,1929
647.5608272133207,1928
649.853358264037,1963
652.1452625108324,1997
654.4365401715764,1957
656.7271914642178,1926
659.0172166067838,1963
661.3066158173809,1911
663.5953893141935,2010
665.8835373154867,1882
668.1710600396028,1946
670.4579577049639,1989
672.7442305300709,1945
675.0298787335033,2027
677.3149025339197,2030
679.599302150058,1940
681.8830778007342,1898
684.1662297048437,1932
686.4487580813608,1980
688.7306631493387,1984
691.0119451279091,2037
693.2926042362834,2021
695.5726406937516,1989
697.8520547196814,1982
700.1308465335215,1948
702.4090163547982,1866
704.6865644031171,1973
706.9634908981619,1967
709.2397960596965,1977
711.5154801075631,1916
713.7905432616823,1954
716.0649857420548,1925
718.3388077687592,1894
720.612009561953,1922
722.8845913418733,1867
725.1565533288352,1931
727.427895743234,1914
729.6986188055427,1921
731.9687227363137,1906
734.238207756178,1931
736.5070740858458,1938
738.7753219461066,2001
741.0429515578281,1971
743.3099631419569,2005
745.5763569195191,1933
747.8421331116193,1955
750.1072919394409,1906
752.3718336242467,1995
754.6357583873777,1940
756.8990664502545,1909
759.1617580343765,1877
761.423833361321,1947
763.6852926527457,1970
765.9461361303862,1974
768.206364016058,1994
770.4659765316536,1999
772.7249738991469,1996
774.9833563405886,1974
777.2411240781092,2116
779.4982773339183,2173
781.7548163303044,2011
784.010741289634,1997
786.2660524343538,2093
788.5207499869881,2076
790.7748341701416,2021
793.0283052064964,2100
795.2811633188143,1956
797.5334087299362,2031
799.7850416627813,2059
802.0360623403484,2018
804.2864709857143,1969
806.5362678220353,2024
808.7854530725468,2091
811.0340269605625,2001
813.2819897094754,2037
815.5293415427581,2001
817.77608268396,2032
820.0222133567116,2123
822.2677337847211,1996
824.5126441917765,1907
826.7569448017433,1960
829.0006358385675,1969
831.2437175262731,1926
833.4861900889629,1993
835.7280537508192,2043
837.9693087361026,2020
840.2099552691533,2019
842.4499935743896,2050
844.689423876309,2078
846.9282463994886,1980
849.1664613685833,1972
851.4040690083276,1931
853.6410695435349,1974
855.877463199097,2031
858.1132501999847,1935
860.3484307712487,2014
862.5830051380175,2084
864.8169735254988,2029
867.0503361589791,2044
869.2830932638243,2059
871.5152450654786,2149
873.7467917894654,2023
875.9777336613873,2063
878.2080709069252,2109
880.4378037518389,2075
882.666932421968,2067
884.8954571432301,2094
887.1233781416219,2072
889.3506956432192,2073
891.5774098741766,1988
893.803521060728,2047
896.0290294291852,1992
898.2539352059397,2017
900.4782386174619,2022
902.7019398903011,1975
904.925039251085,2086
907.147536926521,2055
909.3694331433943,2107
911.59072812857,2033
913.8114221089921,2078
916.0315153116827,2075
918.2510079637437,2018
920.4699002923547,2084
922.6881925247761,2123
924.905884888345,2048
927.1229776104793,2062
929.3394709186747,1992
931.555365040506,2119
933.7706602036275,1994
935.9853566357709,2072
938.1994545647489,2076
940.4129542184515,2071
942.6258558248488,2099
944.8381596119883,2039
947.0498658079974,2073
949.2609746410825,2089
951.4714863395287,2072
953.6814011316998,2095
955.8907192460387,2052
958.0994409110671,2059
960.3075663553858,2179
962.5150958076741,1969
964.7220294966913,2009
966.928367651274,1999
969.1341105003388,2013
971.3392582728806,1899
973.5438111979742,1921
975.747769504772,1860
977.9511334225061,1934
980.153903180487,1901
982.3560790081052,1887
984.5576611348289,1865
986.7586497902058,1937
988.9590452038618,1906
991.158847605503,1790
993.3580572249133,1850
995.5566742919558,1826
997.7546990365728,1738
999.952131688785,1780
1002.1489724786926,1681
1004.3452216364743,1719
1006.5408793923874,1697
1008.7359459767691,1635
1010.9304216200343,1665
1013.1243065526781,1606
1015.3176010052733,1645
1017.510305208472,1616
1019.7024193930064,1649
1021.8939437896848,1545
1024.0848786293977,1598
1026.2752241431122,1597
1028.4649805618747,1552
1030.6541481168115,1598
1032.842727039127,1523
1035.0307175601051,1532
1037.2181199111074,1598
1039.4049343235752,1616
1041.591161029029,1549
1043.7768002590683,1542
1045.9618522453698,1542
1048.1463172196918,1511
1050.3301954138697,1503
1052.513487059818,1526
1054.69619238953,1487
1056.8783116350783,1559
1059.0598450286152,1483
1061.2407928023704,1538
1063.4211551886528,1535
1065.6009324198508,1547
1067.780124728432,1535
1069.9587323469414,1558
1072.1367555080046,1529
1074.314194444325,1523
1076.4910493886855,1534
1078.667320573947,1491
1080.843008233051,1476
1083.0181125990161,1430
1085.1926339049414,1430
1087.3665723840027,1504
1089.5399282694575,1476
1091.7127017946405,1442
1093.8848931929647,1448
1096.0565026979243,1459
1098.2275305430899,1465
1100.3979769621128,1447
1102.567842188722,1445
1104.737126456726,1413
1106.9058300000124,1431
1109.0739530525475,1365
1111.2414958483764,1390
1113.4084586216231,1409
1115.5748416064907,1380
1117.7406450372605,1426
1119.9058691482942,1406
1122.0705141740304,1402
1124.2345803489884,1471
1126.3980679077658,1408
1128.5609770850388,1461
1130.7233081155623,1416
1132.8850612341707,1425
1135.0462366757774,1457
1137.2068346753745,1437
1139.3668554680326,1409
1141.526299288901,1430
1143.68516637321,1406
1145.8434569562655,1423
1148.001171273455,1465
1150.158309560244,1394
1152.3148720521767,1368
1154.470858984876,1397
1156.626270594044,1401
1158.7811071154629,1449
1160.9353687849912,1406
1163.089055838569,1365
1165.242168512213,1292
1167.3947070420209,1337
1169.5466716641677,1371
1171.6980626149075,1379
1173.8488801305748,1323
1175.9991244475814,1334
1178.1487958024186,1348
1180.2978944316555,1358
1182.4464205719428,1301
1184.5943744600072,1380
1186.7417563326567,1443
1188.8885664267755,1325
1191.0348049793297,1387
1193.1804722273619,1362
1195.325568407995,1419
1197.4700937584303,1383
1199.614048515948,1360
1201.7574329179074,1392
1203.900247201746,1335
1206.042491604982,1360
1208.1841663652099,1335
1210.3252717201053,1365
1212.465807907422,1361
1214.6057751649923,1394
1216.7451737307279,1321
1218.8840038426192,1392
1221.0222657387353,1384
1223.1599596572241,1350
1225.2970858363137,1304
1227.4336445143094,1351
1229.5696359295966,1412
1231.705060320639,1421
1233.8399179259786,1411
1235.9742089842384,1496
1238.107933734118,1385
1240.2410924143974,1373
1242.373685263935,1445
1244.5057125216676,1391
1246.6371744266116,1346
1248.7680712178621,1379
1250.898403134593,1354
1253.028170416058,1406
1255.1573733015875,1351
1257.2860120305932,1371
1259.4140868425648,1317
1261.54159797707,1354
1263.6685456737569,1397
1265.7949301723515,1434
1267.9207517126597,1385
1270.046010534565,1401
1272.1707068780306,1392
1274.2948409830983,1403
1276.4184130898889,1391
1278.541423438603,1410
1280.6638722695184,1463
1282.785759822993,1397
1284.9070863394636,1411
1287.0278520594447,1363
1289.1480572235314,1418
1291.2677020723963,1411
1293.3867868467923,1402
1295.5053117875495,1394
1297.623277135579,1397
1299.740683131868,1432
1301.8575300174857,1433
1303.973818033578,1406
1306.0895474213703,1450
1308.2047184221678,1491
1310.3193312773528,1483
1312.4333862283888,1409
1314.5468835168163,1375
1316.659823384255,1438
1318.7722060724045,1414
1320.8840318230418,1434
1322.9953008780249,1407
1325.1060134792888,1411
1327.2161698688478,1416
1329.3257702887959,1486
1331.4348149813054,1439
1333.5433041886276,1416
1335.6512381530933,1483
1337.7586171171101,1499
1339.8654413231675,1373
1341.9717110138317,1405
1344.0774264317488,1481
1346.1825878196432,1450
1348.2871954203192,1488
1350.3912494766587,1369
1352.4947502316231,1428
1354.5976979282532,1400
1356.7000928096686,1439
1358.8019351190665,1401
1360.9032250997243,1448
1363.0039629949988,1413
1365.1041490483235,1425
1367.2037835032133,1376
1369.3028666032606,1429
1371.401398592137,1484
1373.4993797135926,1501
1375.5968102114575,1447
1377.6936903296396,1422
1379.7900203121262,1447
1381.8858004029835,1418
1383.9810308463561,1378
1386.075711886469,1445
1388.1698437676241,1374
1390.2634267342032,1394
1392.356461030667,1455
1394.4489469015557,1443
1396.5408845914872,1454
1398.6322743451592,1438
1400.7231164073469,1442
1402.813411022907,1476
1404.903158436773,1438
1406.9923588939578,1422
1409.0810126395531,1467
1411.1691199187303,1433
1413.2566809767386,1456
1415.343696058907,1431
1417.4301654106425,1462
1419.5160892774315,1453
1421.6014679048399,1447
1423.6863015385125,1475
1425.7705904241707,1462
1427.8543348076178,1470
1429.9375349347342,1450
1432.0201910514802,1488
1434.102303403894,1451
1436.1838722380944,1426
1438.2648978002767,1387
1440.3453803367174,1422
1442.4253200937692,1461
1444.5047173178677,1375
1446.5835722555234,1466
1448.6618851533285,1424
1450.739656257952,1467
1452.8168858161434,1416
1454.8935740747306,1418
1456.96972128062,1421
1459.045327680797,1412
1461.120393522327,1396
1463.1949190523528,1443
1465.2689045180973,1444
1467.3423501668608,1462
1469.415256246024,1425
1471.4876230030463,1482
1473.559450685465,1411
1475.6307395408976,1493
1477.7014898170391,1436
1479.771701761665,1466
1481.8413756226287,1472
1483.9105116478618,1465
1485.9791100853772,1480
1488.0471711832643,1374
1490.1146951896926,1461
1492.1816823529098,1415
1494.2481329212433,1429
1496.3140471430984,1370
1498.3794252669609,1422
1500.4442675413939,1430
1502.5085742150404,1414
1504.572345536622,1496
1506.6355817549388,1491
1508.6982831188702,1484
1510.7604498773744,1434
1512.8220822794883,1433
1514.8831805743293,1440
1516.9437450110909,1469
1519.003775839048,1436
1521.0632733075522,1430
1523.1222376660367,1427
1525.1806691640113,1450
1527.2385680510652,1459
1529.2959345768668,1430
1531.3527689911643,1467
1533.4090715437833,1467
1535.4648424846291,1427
1537.5200820636855,1429
1539.5747905310159,1491
1541.6289681367616,1498
1543.6826151311434,1462
1545.7357317644614,1466
1547.7883182870937,1473
1549.8403749494987,1502
1551.8919020022113,1487
1553.9428996958477,1472
1555.9933682811015,1450
1558.0433080087469,1511
1560.0927191296346,1491
1562.1416018946961,1437
1564.1899565549415,1552
1566.2377833614592,1501
1568.2850825654164,1419
1570.3318544180606,1514
1572.3780991707158,1442
1574.423817074788,1489
1576.4690083817595,1581
1578.5136733431923,1500
1580.5578122107272,1465
1582.601425236085,1462
1584.6445126710646,1523
1586.6870747675434,1520
1588.7291117774776,1501
1590.7706239529034,1455
1592.8116115459347,1501
1594.8520748087658,1421
1596.8920139936686,1463
1598.9314293529933,1444
1600.9703211391711,1440
1603.008689604711,1449
1605.0465350022005,1408
1607.0838575843068,1427
1609.1206576037753,1431
1611.1569353134305,1398
1613.1926909661765,1443
1615.2279248149953,1371
1617.2626371129481,1419
1619.2968281131757,1426
1621.3304980688963,1408
1623.3636472334088,1430
1625.39627586009,1367
1627.428384202396,1389
1629.459972513861,1432
1631.4910410480993,1396
1633.5215900588028,1440
1635.551619799744,1439
1637.5811305247717,1392
1639.6101224878166,1424
1641.6385959428862,1384
1643.6665511440683,1372
1645.693988345528,1438
1647.7209078015112,1428
1649.7473097663405,1348
1651.7731944944203,1348
1653.7985622402307,1331
1655.823413258333,1377
1657.847747803366,1418
1659.8715661300494,1395
1661.8948684931793,1348
1663.9176551476316,1394
1665.9399263483624,1395
1667.9616823504057,1330
1669.982923408873,1370
1672.0036497789574,1346
1674.0238617159293,1334
1676.043559475138,1393
1678.0627433120121,1290
1680.081413482059,1385
1682.0995702408654,1414
1684.117213844096,1397
1686.134344547495,1385
1688.1509626068864,1314
1690.1670682781705,1332
1692.182661817329,1358
1694.1977434804217,1326
1696.2123135235875,1363
1698.226372203043,1401
1700.2399197750851,1371
1702.2529564960905,1389
1704.2654826225112,1362
1706.277498410882,1403
1708.2890041178139,1411
1710.2999999999988,1337
1712.3104863142066,1352
1714.3204633172854,1435
1716.329931266163,1419
1718.3388904178469,1373
1720.3473410294214,1395
1722.3552833580516,1372
1724.3627176609807,1410
1726.3696441955308,1355
1728.3760632191033,1365
1730.3819749891782,1370
1732.3873797633146,1356
1734.3922777991502,1386
1736.3966693544012,1383
1738.4005546868639,1369
1740.4039340544127,1340
1742.406807715001,1344
1744.4091759266616,1410
1746.4110389475054,1431
1748.4123970357223,1401
1750.413250449582,1359
1752.4135994474318,1400
1754.4134442876993,1358
1756.4127852288902,1361
1758.4116225295893,1373
1760.4099564484595,1398
1762.407787244244,1378
1764.405115175764,1378
1766.4019405019203,1429
1768.3982634816916,1396
1770.3940843741357,1382
1772.3894034383907,1439
1774.3842209336717,1412
1776.378537119274,1385
1778.372352254571,1354
1780.3656665990156,1424
1782.3584804121397,1381
1784.3507939535534,1358
1786.3426074829463,1403
1788.3339212600863,1397
1790.3247355448211,1356
1792.3150505970766,1417
1794.3048666768573,1448
1796.2941840442477,1413
1798.2830029594106,1373
1800.2713236825884,1371
1802.2591464741004,1439
1804.2464715943465,1322
1806.2332993038058,1369
1808.2196298630352,1475
1810.2054635326708,1348
1812.190800573428,1359
1814.175641246101,1407
1816.1599858115628,1390
1818.1438345307652,1390
1820.127187664738,1452
1822.1100454745924,1419
1824.092408221516,1410
1826.0742761667766,1357
1828.055649571721,1419
1830.0365286977735,1435
1832.0169138064398,1448
1833.9968051593014,1371
1835.9762030180214,1390
1837.9551076443408,1324
1839.9335193000788,1343
1841.9114382471344,1422
1843.888864747485,1403
1845.8657990631878,1390
1847.842241456378,1353
1849.8181921892697,1420
1851.7936515241558,1365
1853.7686197234098,1393
1855.7430970494815,1360
1857.7170837649014,1369
1859.6905801322787,1399
1861.6635864143004,1419
1863.6361028737338,1432
1865.608129773424,1421
1867.5796673762961,1425
1869.5507159453537,1459
1871.521275743678,1433
1873.4913470344313,1413
1875.4609300808534,1431
1877.4300251462632,1420
1879.3986324940588,1394
1881.366752387717,1370
1883.3343850907936,1391
1885.3015308669228,1409
1887.268189979819,1386
1889.2343626932739,1425
1891.2000492711595,1401
1893.1652499774254,1412
1895.1299650761011,1345
1897.0941948312952,1392
1899.0579395071945,1434
1901.0211993680641,1426
1902.98397467825,1461
1904.9462657021745,1411
1906.9080727043415,1413
1908.869395949332,1369
1910.8302357018065,1408
1912.790592226504,1418
1914.7504657882428,1356
1916.7098566519212,1399
1918.6687650825133,1366
1920.6271913450764,1377
1922.5851357047422,1359
1924.5425984267245,1394
1926.499579776314,1387
1928.4560800188833,1438
1930.4120994198802,1384
1932.367638244833,1408
1934.32269675935,1442
1936.2772752291175,1404
1938.231373919899,1375
1940.1849930975404,1356
1942.1381330279637,1317
1944.0907939771696,1369
1946.0429762112412,1368
1947.9946799963363,1412
1949.9459055986945,1361
1951.896653284633,1391
1953.8469233205478,1390
1955.7967159729142,1340
1957.7460315082863,1427
1959.6948701932974,1372
1961.6432322946594,1455
1963.5911180791632,1389
1965.5385278136787,1421
1967.4854617651545,1370
1969.4319202006182,1390
1971.377903387176,1428
1973.3234115920136,1434
1975.268445082395,1378
1977.2130041256642,1381
1979.1570889892423,1330
1981.1006999406304,1359
1983.04383724741,1406
1984.986501177238,1421
1986.928691997853,1396
1988.8704099770712,1375
1990.811655382789,1414
1992.7524284829801,1386
1994.692729545698,1400
1996.6325588390755,1369
1998.5719166313224,1401
2000.5108031907307,1357
2002.4492187856677,1368
2004.387163684583,1345
2006.3246381560011,1388
2008.2616424685298,1398
2010.1981768908527,1412
2012.1342416917332,1408
2014.069837140014,1372
2016.0049635046162,1391
2017.9396210545406,1339
2019.8738100588666,1380
2021.8075307867502,1373
2023.740783507431,1401
2025.6735684902228,1351
2027.6058860045214,1348
2029.5377363198004,1362
2031.4691197056118,1392
2033.4000364315875,1335
2035.3304867674374,1389
2037.260470982952,1352
2039.189989347998,1359
2041.1190421325232,1355
2043.047629606554,1358
2044.9757520401945,1361
2046.9034097036288,1407
2048.8306028671195,1422
2050.7573318010086,1363
2052.683596775716,1344
2054.609398061742,1354
2056.5347359296647,1387
2058.4596106501403,1386
2060.384022493906,1326
2062.3079717317764,1326
2064.231458634646,1358
2066.1544834734873,1433
2068.077046519352,1431
2069.99914804337,1376
2071.9207883167524,1423
2073.8419676107865,1381
2075.7626861968406,1398
2077.6829443463607,1407
2079.6027423308715,1407
2081.522080421977,1419
2083.440958891362,1367
2085.359378010786,1387
2087.2773380520907,1413
2089.194839287196,1400
2091.111881988101,1473
2093.0284664268825,1411
2094.9445928756973,1432
2096.86026160678,1396
2098.775472892446,1403
2100.690227005088,1420
2102.604524217178,1414
2104.5183648012676,1391
2106.431749029985,1387
2108.34467717604,1398
2110.2571495122206,1407
2112.169166311393,1424
2114.080727846503,1415
2115.9918343905747,1375
2117.902486216711,1354
2119.8126835980956,1366
2121.722426807987,1473
2123.6317161197285,1418
2125.5405518067364,1412
2127.448934142509,1394
2129.356863400624,1463
2131.264339854737,1471
2133.1713637785815,1482
2135.077935445972,1449
2136.9840551308002,1474
2138.889723107037,1433
2140.7949396487334,1475
2142.699705030018,1450
2144.6040195250994,1390
2146.507883408264,1420
2148.4112969538774,1447
2150.3142604363848,1469
2152.2167741303097,1488
2154.1188383102535,1478
2156.0204532508997,1433
2157.9216192270064,1413
2159.822336513414,1397
2161.7226053850413,1465
2163.622426116884,1456
2165.5217989840185,1517
2167.4207242616,1432
2169.319202224862,1467
2171.2172331491165,1470
2173.1148173097563,1526
2175.0119549822507,1508
2176.90864644215,1480
2178.8048919650823,1497
2180.7006918267534,1493
2182.596046302952,1460
2184.4909556695407,1518
2186.3854202024645,1452
2188.279440177746,1536
2190.173015871487,1465
2192.066147559868,1459
2193.958835519149,1547
2195.851080025667,1509
2197.7428813558417,1484
2199.6342397861667,1542
2201.5251555932186,1550
2203.415629053651,1464
2205.3056604441986,1496
2207.19525004167,1520
2209.084398122958,1549
2210.9731049650327,1553
2212.861370844941,1548
2214.749196039812,1538
2216.636580826851,1563
2218.523525483344,1547
2220.410030286655,1554
2222.296095514226,1478
2224.1817214435805,1591
2226.066908352319,1559
2227.951656518121,1530
2229.835966218746,1519
2231.71983773203,1523
2233.6032713358913,1585
2235.486267308324,1528
2237.3688259274036,1512
2239.2509474712824,1592
2241.132632218193,1517
2243.013880446447,1559
2244.8946924344323,1507
2246.7750684606203,1528
2248.6550088035574,1530
2250.534513741871,1544
2252.413583554265,1540
2254.292218519526,1562
2256.170418916517,1465
2258.0481850241786,1502
2259.925517121534,1496
2261.8024154876825,1532
2263.678880401803,1564
2265.5549121431536,1549
2267.430510991071,1534
2269.305677224971,1527
2271.180411124348,1537
2273.0547129687766,1503
2274.9285830379076,1524
2276.8020216114737,1521
2278.6750289692845,1531
2280.5476053912294,1565
2282.4197511572766,1565
2284.2914665474727,1609
2286.162751841943,1577
2288.0336073208937,1605
2289.904033264608,1558
2291.774029953448,1559
2293.6435976678554,1534
2295.5127366883517,1480
2297.381447295534,1499
2299.2497297700825,1442
2301.1175843927526,1392
2302.9850114443825,1360
2304.852011205885,1421
2306.7185839582553,1273
2308.5847299825664,1264
2310.4504495599676,1316
2312.3157429716925,1279
2314.1806104990483,1282
2316.0450524234247,1251
2317.9090690262888,1315
2319.772660589186,1198
2321.635827393742,1245
2323.498569721661,1229
2325.3608878547248,1276
2327.2227820747967,1294
2329.0842526638157,1239
2330.945299903803,1266
2332.805924076857,1206
2334.6661254651535,1235
2336.525904350951,1263
2338.3852610165827,1260
2340.244195744464,1260
2342.102708817088,1246
2343.9608005170253,1204
2345.8184711269287,1234
2347.675720929526,1213
2349.532550207628,1256
2351.38895924412,1236
2353.24494832197,1251
2355.100517724223,1209
2356.955667734004,1279
2358.810398634514,1232
2360.664710709037,1271
2362.5186042409337,1261
2364.3720795136437,1238
2366.225136810686,1246
2368.0777764156583,1270
2369.929998612237,1229
2371.7818036841777,1239
2373.633191915315,1283
2375.484163589562,1247
2377.3347189909114,1259
2379.184858403434,1279
2381.03458211128,1319
2382.8838903986775,1251
2384.732783549936,1227
2386.5812618494406,1223
2388.4293255816588,1262
2390.2769750311327,1196
2392.1242104824883,1210
2393.971032220427,1222
2395.8174405297295,1252
2397.6634356952563,1310
2399.509018001947,1241
2401.3541877348193,1319
2403.1989451789705,1243
2405.043290619576,1198
2406.8872243418905,1262
2408.730746631247,1296
2410.5738577730594,1182
2412.4165580528183,1268
2414.258847756095,1252
2416.100727168537,1246
2417.9421965758734,1287
2419.783256263912,1210
2421.623906518538,1201
2423.4641476257157,1218
2425.303979871491,1245
2427.143403541984,1276
2428.9824189233977,1282
2430.821026302012,1249
2432.6592259641866,1227
2434.497018196361,1264
2436.33440328505,1245
2438.171381516851,1282
2440.00795317844,1251
2441.844118556569,1262
2443.6798779380724,1300
2445.5152316098606,1263
2447.3501798589255,1212
2449.1847229723357,1213
2451.0188612372403,1270
2452.8525949408663,1213
2454.6859243705203,1192
2456.518849813587,1268
2458.3513715575314,1268
2460.183489889895,1270
2462.015205098301,1231
2463.8465174704493,1276
2465.67742729412,1236
2467.5079348571717,1323
2469.338040447542,1252
2471.1677443532476,1238
2472.9970468623833,1262
2474.825948263123,1230
2476.6544488437207,1234
2478.482548892508,1235
2480.310248697896,1262
2482.137548548374,1227
2483.9644487325118,1233
2485.790949538956,1265
2487.617051256433,1240
2489.44275417375,1205
2491.26805857979,1237
2493.0929647635157,1245
2494.917473013971,1254
2496.741583620276,1256
2498.5652968716304,1278
2500.3886130573137,1266
2502.2115324666834,1265
2504.0340553891765,1257
2505.856182114308,1280
2507.6779129316733,1272
2509.499248130945,1273
2511.3201880018764,1255
2513.140732834298,1265
2514.9608829181198,1202
2516.780638543331,1223
2518.6,1223
2520.418967578273,1238
2522.237541568376,1268
2524.0557222606144,1284
2525.8735099453706,1263
2527.6909049131086,1267
2529.507907454368,1242
2531.32451785977,1213
2533.140736420014,1286
2534.9565634258774,1212
2536.771999168218,1276
2538.5870439379714,1326
2540.4016980261526,1306
2542.2159617238544,1232
2544.02983532225,1275
2545.8433191125914,1243
2547.656413386209,1246
2549.4691184345115,1287
2551.2814345489874,1270
2553.093362021204,1221
2554.904901142808,1180
2556.716052205523,1276
2558.526815501153,1260
2560.3371913215824,1239
2562.147179958771,1280
2563.956781704761,1302
2565.7659968516705,1234
2567.5748256916986,1241
2569.3832685171224,1252
2571.1913256202984,1182
2572.9989972936614,1271
2574.806283829725,1237
2576.613185521084,1219
2578.4197026604074,1242
2580.2258355404483,1220
2582.031584454035,1275
2583.836949694077,1245
2585.6419315535613,1292
2587.4465303255533,1242
2589.2507463032002,1277
2591.0545797797245,1287
2592.8580310484303,1239
2594.6611004026995,1221
2596.463788135992,1207
2598.266094541849,1279
2600.0680199138874,1285
2601.869564545807,1221
2603.670728731383,1250
2605.4715127644704,1257
2607.2719169390048,1261
2609.071941548998,1259
2610.8715868885433,1286
2612.670853251811,1233
2614.469740933052,1297
2616.268250226594,1201
2618.0663814268455,1289
2619.864134828292,1264
2621.6615107255006,1217
2623.458509413115,1284
2625.2551311858597,1292
2627.0513763385347,1273
2628.8472451660223,1224
2630.6427379632833,1212
2632.4378550253564,1232
2634.232596647359,1232
2636.026963124488,1275
2637.8209547520187,1232
2639.6145718253065,1305
2641.407814639785,1283
2643.200683490966,1291
2644.9931786744414,1326
2646.7853004858807,1238
2648.577049221034,1230
2650.3684251757277,1227
2652.1594286458712,1196
2653.9500599274484,1253
2655.740319316525,1232
2657.5302071092437,1234
2659.3197236018286,1213
2661.10886909058,1265
2662.8976438718782,1292
2664.686048242183,1301
2666.4740824980327,1237
2668.2617469360443,1197
2670.0490418529134,1210
2671.8359675454153,1239
2673.622524310403,1256
2675.408712444811,1206
2677.1945322456495,1238
2678.979984010009,1172
2680.76506803506,1187
2682.5497846180497,1201
2684.334134056306,1270
2686.1181166472343,1282
2687.9017326883213,1191
2689.6849824771293,1276
2691.4678663113013,1267
2693.2503844885596,1284
2695.032537306705,1208
2696.8143250636167,1257
2698.5957480572542,1238
2700.3768065856534,1219
2702.1575009469316,1216
2703.937831439283,1203
2705.717798360982,1216
2707.4974020103837,1292
2709.276642685917,1262
2711.055520686095,1250
2712.834036309506,1255
2714.612189854819,1251
2716.389981620782,1221
2718.1674119062204,1194
2719.944481010041,1249
2721.721189231226,1254
2723.4975368688415,1353
2725.273524222027,1279
2727.0491515900053,1247
2728.824419272075,1281
2730.5993275676146,1294
2732.3738767760838,1254
2734.148067197016,1267
2735.921899130031,1271
2737.6953728748194,1276
2739.468488731156,1242
2741.2412469988926,1236
2743.0136479779617,1249
2744.785691968372,1205
2746.5573792702116,1228
2748.3287101836504,1217
2750.099685008934,1258
2751.870304046388,1243
2753.640567596418,1286
2755.4104759595057,1202
2757.1800294362156,1206
2758.949228327187,1242
2760.7180729331412,1195
2762.486563554877,1222
2764.254700493272,1212
2766.022484049284,1259
2767.789914523947,1222
2769.5569922183786,1282
2771.3237174337705,1248
2773.090090471394,1228
2774.8561116326036,1271
2776.6217812188274,1248
2778.3870995315756,1215
2780.1520668724356,1253
2781.9166835430747,1258
2783.6809498452394,1230
2785.444866080754,1249
2787.2084325515225,1253
2788.971649559527,1234
2790.73451740683,1251
2792.4970363955713,1266
2794.2592068279705,1280
2796.0210290063264,1206
2797.7825032330147,1267
2799.543629810493,1331
2801.304409041296,1215
2803.0648412280366,1225
2804.8249266734088,1289
2806.5846656801846,1214
2808.344058551212,1253
2810.1031055894246,1288
2811.8618070978273,1234
2813.6201633795085,1265
2815.378174737636,1271
2817.1358414754536,1298
2818.893163896285,1212
2820.6501423035334,1260
2822.4067770006814,1256
2824.1630682912883,1262
2825.9190164789957,1201
2827.6746218675207,1259
2829.429884760661,1267
2831.184805462294,1277
2832.9393842763743,1326
2834.693621506936,1279
2836.4475174580916,1238
2838.201072434034,1261
2839.954286739034,1289
2841.707160677441,1266
2843.459694553685,1266
2845.2118886722724,1314
2846.96374333779,1266
2848.7152588549034,1299
2850.4664355283567,1265
2852.217273662973,1277
2853.9677735636546,1279
2855.7179355353833,1282
2857.4677598832186,1289
2859.217246912299,1284
2860.9663969278427,1235
2862.715210235146,1263
2864.4636871395846,1298
2866.211827946614,1283
2867.9596329617652,1222
2869.7071024906536,1282
2871.4542368389684,1221
2873.20103631248,1285
2874.947501217038,1235
2876.6936318585695,1269
2878.4394285430812,1282
2880.1848915766604,1207
2881.9300212654707,1258
2883.6748179157553,1252
2885.4192818338374,1236
2887.1634133261173,1263
2888.907212699077,1231
2890.6506802592744,1235
2892.393816313348,1280
2894.1366211680142,1287
2895.8790951300693,1238
2897.621238506388,1232
2899.363051603925,1254
2901.1045347297118,1248
2902.8456881908596,1250
2904.58651229456,1251
2906.327007348081,1214
2908.067173658772,1255
2909.8070115340597,1299
2911.5465212814497,1280
2913.285703208527,1232
2915.0245576229563,1276
2916.7630848324807,1225
2918.5012851449196,1273
2920.2391588681758,1237
2921.976706310227,1210
2923.7139277791334,1313
2925.4508235830313,1241
2927.187394030137,1227
2928.923639428745,1227
2930.6595600872306,1261
2932.395156314046,1306
2934.1304284177218,1248
2935.8653767068713,1279
2937.6000014901815,1301
2939.3343030764227,1303
2941.068281774442,1250
2942.8019378931644,1311
2944.5352717415976,1310
2946.2682836288236,1265
2948.0009738640065,1206
2949.7333427563885,1277
2951.465390615289,1237
2953.1971177501086,1327
2954.9285244703265,1302
2956.6596110855,1265
2958.3903779052657,1264
2960.1208252393385,1244
2961.8509533975125,1301
2963.5807626896617,1329
2965.3102534257378,1249
2967.0394259157715,1236
2968.768280469873,1252
2970.496817398232,1256
2972.2250370111146,1272
2973.952939618869,1276
2975.6805255319196,1282
2977.4077950607707,1281
2979.134748516006,1311
2980.861386208289,1269
2982.587708448359,1274
2984.313715547037,1259
2986.039407815222,1318
2987.764785563891,1255
2989.489849104102,1306
2991.2145987469908,1261
2992.9390348037705,1293
2994.6631575857346,1230
2996.3869674042576,1229
2998.1104645707887,1248
2999.83364939686,1279
3001.5565221940783,1287
3003.2790832741334,1203
3005.0013329487924,1196
3006.7232715298996,1252
3008.4448993293804,1243
3010.166216659239,1205
3011.887223831558,1251
3013.607921158498,1276
3015.3283089522993,1235
3017.0483875252826,1221
3018.7681571898443,1256
3020.4876182584626,1255
3022.2067710436927,1250
3023.9256158581707,1238
3025.644153014609,1252
3027.362382825801,1207
3029.0803056046193,1237
3030.797921664012,1227
3032.5152313170106,1234
3034.2322348767225,1223
3035.9489326563353,1275
3037.665324969115,1212
3039.3814121284063,1204
3041.097194447633,1258
3042.812672240299,1233
3044.5278458199855,1222
3046.2427155003525,1317
3047.9572815951406,1252
3049.671544418167,1235
3051.38550428333,1252
3053.0991615046073,1275
3054.812516396051,1232
3056.5255692717974,1288
3058.2383204460575,1209
3059.9507702331257,1292
3061.662918947372,1252
3063.3747669032446,1316
3065.0863144152736,1239
3066.7975617980674,1255
3068.508509366309,1239
3070.219157434767,1199
3071.9295063182844,1243
3073.639556331785,1241
3075.3493077902704,1213
3077.058761008821,1221
3078.7679163025964,1236
3080.476773986837,1241
3082.1853343768594,1249
3083.89359778806,1256
3085.6015645359153,1184
3087.3092349359786,1225
3089.016609303884,1242
3090.7236879553434,1194
3092.4304712061476,1319
3094.136959372166,1215
3095.843152769349,1185
3097.5490517137237,1238
3099.2546565213966,1206
3100.959967508554,1257
3102.66498499146,1256
3104.3697092864577,1214
3106.0741407099695,1242
3107.778279578498,1240
3109.482126208622,1237
3111.1856809170004,1229
3112.8889440203716,1254
3114.5919158355528,1270
3116.294596679439,1257
3117.996986869006,1246
3119.6990867213062,1253
3121.4008965534726,1241
3123.102416682717,1198
3124.803647426329,1225
3126.5045891016784,1230
3128.205242026213,1239
3129.90560651746,1213
3131.605682893025,1227
3133.3054714705922,1243
3135.0049725679282,1226
3136.7041865028714,1242
3138.4031135933465,1233
3140.101754157353,1211
3141.800108512971,1199
3143.498176978357,1222
3145.1959598717494,1303
3146.8934575114636,1227
3148.5906702158954,1275
3150.2875983035183,1280
3151.9842420928853,1203
3153.680601902627,1264
3155.376678051456,1216
3157.07247085816,1222
3158.767980641609,1216
3160.463207720748,1249
3162.158152414606,1195
3163.8528150422862,1227
3165.5471959229726,1278
3167.2412953759303,1224
3168.9351137204976,1219
3170.628651276098,1229
3172.3219083622307,1208
3174.014885298474,1256
3175.707582404485,1254
3177.4000000000005,1233
3179.092138404835,1278
3180.7839979388846,1249
3182.47557892212,1221
3184.166881674594,1228
3185.8579065164386,1258
3187.5486537678626,1226
3189.2391237491547,1214
3190.9293167806827,1183
3192.6192331828934,1203
3194.3088732763117,1206
3195.998237381542,1231
3197.687325819268,1233
3199.376138910251,1219
3201.064676975334,1186
3202.7529403354347,1244
3204.4409293115523,1149
3206.1286442247647,1243
3207.816085396229,1186
3209.5032531471825,1179
3211.190147798936,1212
3212.8767696728846,1163
3214.5631190905015,1193
3216.2491963733373,1195
3217.9350018430214,1189
3219.6205358212637,1151
3221.305798629851,1218
3222.990790590651,1194
3224.6755120256103,1189
3226.359963256751,1196
3228.0441446061795,1212
3229.7280563960758,1186
3231.411698948703,1281
3233.0950725863995,1282
3234.778177631587,1247
3236.461014406761,1287
3238.1435832345005,1221
3239.8258844374595,1257
3241.507918338374,1218
3243.1896852600576,1231
3244.8711855254023,1239
3246.552419457381,1248
3248.233387379042,1237
3249.914089613516,1250
3251.59452648401,1204
3253.274698313813,1205
3254.95460542629,1205
3256.6342481448855,1186
3258.313626793125,1186
3259.9927416946084,1133
3261.6715931730196,1176
3263.3501815521176,1120
3265.0285071557437,1226
3266.706570307815,1155
3268.3843713323286,1230
3270.0619105533615,1198
3271.739188295068,1275
3273.4162048816834,1185
3275.0929606375184,1181
3276.769455886966,1237
3278.445690954498,1198
3280.1216661646613,1234
3281.797381842087,1250
3283.4728383114807,1246
3285.1480358976296,1268
3286.8229749253996,1204
3288.4976557197333,1287
3290.172078605655,1259
3291.846243908266,1235
3293.5201519527463,1248
3295.193803064357,1179
3296.8671975684374,1204
3298.5403357904024,1288
3300.21321805575,1209
3301.8858446900567,1186
3303.558216018975,1225
3305.23033236824,1258
3306.9021940636603,1223
3308.57380143113,1251
3310.2451547966184,1217
3311.916254486174,1257
3313.5871008259246,1223
3315.2576941420766,1267
3316.9280347609147,1264
3318.5981230088046,1225
3320.2679592121895,1170
3321.9375436975924,1202
3323.606876791612,1190
3325.27595882093,1194
3326.944790112305,1196
3328.6133709925753,1240
3330.2817017886573,1195
3331.949782827547,1239
3333.617614436319,1215
3335.2851969421245,1214
3336.952530672199,1241
3338.619615953853,1235
3340.286453114475,1259
3341.9530424815357,1172
3343.619384382583,1253
3345.2854791452437,1259
3346.951327097224,1264
3348.6169285663073,1250
3350.2822838803577,1214
3351.947393367319,1223
3353.61225735521,1199
3355.2768761721345,1211
3356.9412501462693,1285
3358.605379605873,1197
3360.2692648792827,1174
3361.9329062949146,1182
3363.596304181263,1179
