CollectionTime,9/20/2024 11:28:06 AM
ExposureUsed,3
CalibratedSpectrum
-962.7078968117929,536
-959.9714848408522,529
-957.2358232597828,528
-954.5009119013725,498
-951.7667505983302,545
-949.0333391832855,550
-946.3006774887896,556
-943.5687653473143,552
-940.837602591253,538
-938.1071890529199,511
-935.3775245645503,528
-932.6486089583007,569
-929.9204420662485,533
-927.1930237203925,549
-924.4663537526524,546
-921.7404319948689,520
-919.0152582788041,581
-916.2908324361409,577
-913.5671542984834,526
-910.8442236973568,498
-908.1220404642074,493
-905.4006044304027,561
-902.679915427231,535
-899.959973285902,523
-897.2407778375464,529
-894.5223289132158,564
-891.8046263438832,495
-889.0876699604426,533
-886.3714595937089,555
-883.6559950744183,560
-880.9412762332282,549
-878.2273029007168,531
-875.5140749073835,512
-872.8015920836489,513
-870.0898542598545,536
-867.3788612662631,540
-864.6686129330585,534
-861.9591090903457,511
-859.2503495681506,503
-856.5423341964203,516
-853.8350628050229,530
-851.1285352237478,546
-848.4227512823054,577
-845.7177108103272,542
-843.0134136373656,525
-840.3098595928943,548
-837.6070485063082,540
-834.9049802069229,541
-832.2036545239757,548
-829.5030712866244,570
-826.8032303239481,578
-824.1041314649472,535
-821.4057745385428,572
-818.7081593735775,538
-816.0112857988148,562
-813.3151536429393,561
-810.6197627345566,543
-807.9251129021936,545
-805.2312039742981,532
-802.5380357792392,568
-799.8456081453069,533
-797.1539209007124,552
-794.462973873588,576
-791.772766891987,562
-789.083299783884,576
-786.3945723771743,565
-783.7065844996748,518
-781.0193359791231,533
-778.3328266431781,553
-775.6470563194197,546
-772.9620248353489,547
-770.2777320183878,549
-767.5941776958798,588
-764.9113616950891,576
-762.2292838432011,558
-759.5479439673222,538
-756.8673418944801,519
-754.1874774516235,547
-751.5083504656222,597
-748.8299607632671,555
-746.15230817127,571
-743.475392516264,596
-740.7992136248035,576
-738.1237713233636,555
-735.4490654383407,553
-732.7750957960521,551
-730.1018622227365,575
-727.4293645445534,587
-724.7576025875837,573
-722.0865761778291,539
-719.4162851412126,565
-716.7467293035781,564
-714.0779084906909,590
-711.409822528237,593
-708.7424712418238,552
-706.0758544569796,571
-703.4099719991541,579
-700.7448236937178,584
-698.0804093659622,597
-695.4167288411002,567
-692.7537819442656,586
-690.0915685005134,554
-687.4300883348199,614
-684.7693412720819,601
-682.1093271371178,569
-679.4500457546669,610
-676.7914969493897,583
-674.1336805458676,586
-671.4765963686034,609
-668.8202442420206,620
-666.1646239904642,598
-663.5097354382001,587
-660.8555784094151,605
-658.2021527282176,598
-655.5494582186366,597
-652.8974947046223,618
-650.2462620100463,622
-647.5957599587009,631
-644.9459883742998,640
-642.2969470804776,650
-639.6486359007902,624
-637.0010546587141,639
-634.3542031776476,709
-631.7080812809096,667
-629.0626887917401,623
-626.4180255333008,623
-623.7740913286734,636
-621.1308860008619,713
-618.4884093727904,727
-615.8466612673046,660
-613.2056415071715,616
-610.5653499150785,652
-607.9257863136347,700
-605.28695052537,644
-602.6488423727357,659
-600.0114616781036,630
-597.3748082637674,626
-594.7388819519412,656
-592.1036825647604,697
-589.4692099242818,703
-586.8354638524829,725
-584.2024441712624,681
-581.5701507024403,679
-578.9385832677575,722
-576.3077416888759,750
-573.6776257873787,717
-571.0482353847704,700
-568.4195703024757,695
-565.7916303618415,673
-563.164415384135,725
-560.5379251905453,705
-557.9121596021815,642
-555.2871184400748,698
-552.6628015251767,690
-550.0392086783606,691
-547.4163397204204,702
-544.794194472071,711
-542.1727727539491,691
-539.5520743866118,772
-536.9320991905377,782
-534.3128469861261,863
-531.6943175936979,816
-529.0765108334947,771
-526.4594265256793,848
-523.8430644903358,985
-521.2274245474689,1113
-518.612506517005,1160
-515.9983102187913,1225
-513.3848354725959,1255
-510.77208209810846,1392
-508.16004991493924,1465
-505.5487387426199,1550
-502.9381484006032,1550
-500.3282787082628,1583
-497.71912948489364,1408
-495.1107005497117,1282
-492.5029917218539,1135
-489.8960028203786,1002
-487.28973366426493,869
-484.68418407241325,831
-482.07935386364494,826
-479.47524285670266,814
-476.87185087025,814
-474.2691777228715,814
-471.66722323307334,787
-469.0659872192821,766
-466.4654694998459,814
-463.86566989303384,819
-461.26658821703614,820
-458.66822428996414,817
-456.07057792985,873
-453.4736489546475,887
-450.877437182231,844
-448.28194243039627,866
-445.68716451686,860
-443.09310325926003,808
-440.49975847515555,799
-437.9071299820263,766
-435.31521759727354,806
-432.72402113821954,848
-430.13354042210767,827
-427.5437752661022,777
-424.95472548728867,851
-422.36639090267386,859
-419.7787713291855,916
-417.1918665836721,948
-414.60567648290385,914
-412.0202008435715,922
-409.4354394822874,928
-406.8513922155845,850
-404.26805885991723,873
-401.685439231661,920
-399.103533147112,881
-396.522340422488,876
-393.9418608739278,849
-391.3620943174908,880
-388.7830405691583,825
-386.2046994448317,861
-383.6270707603344,819
-381.05015433141045,786
-378.473949973725,732
-375.8984575028645,723
-373.32367673433623,695
-370.74960748356875,676
-368.1762495659117,677
-365.60360279663576,584
-363.03166699093265,589
-360.4604419639154,531
-357.8899275306178,535
-355.32012350599507,552
-352.7510297049233,555
-350.1826459421999,551
-347.61497203254316,560
-345.04800779059235,500
-342.4817530309082,524
-339.91620756797226,577
-337.35137121618743,606
-334.7872437898774,676
-332.22382510328725,629
-329.66111497058273,571
-327.09911320585127,509
-324.53781962310075,511
-321.9772340362607,549
-319.4173562591816,565
-316.8581861056348,603
-314.2997233893127,609
-311.7419679238294,586
-309.1849195227194,634
-306.62857799943856,709
-304.0729431673641,712
-301.51801483979375,628
-298.963792829947,577
-296.41027695096386,618
-293.85746701590574,609
-291.3053628377552,740
-288.7539642294155,769
-286.2032710037115,737
-283.65328297338897,722
-281.1039999511146,834
-278.5554217494762,720
-276.007548180983,709
-273.4603790580651,695
-270.9139141930734,723
-268.3681533982807,821
-265.8230964858798,917
-263.27874326798565,908
-260.7350935566336,891
-258.1921471637804,887
-255.6499039013039,827
-253.10836358100266,866
-250.56752601459698,886
-248.02739101372765,844
-245.48795838995704,824
-242.94922795476816,815
-240.41119951956557,882
-237.8738728956746,814
-235.33724789434166,762
-232.80132432673452,765
-230.2661020039418,778
-227.73158073697357,788
-225.19776033676033,873
-222.66464061415422,979
-220.1322213799284,887
-217.60050244477725,912
-215.06948361931552,943
-212.53916471408013,1008
-210.00954553952818,916
-207.48062590603843,853
-204.9524056239104,864
-202.4248845033651,959
-199.8980623545441,1018
-197.37193898751036,1091
-194.84651421224817,1150
-192.32178783866232,1124
-189.79775967657952,1100
-187.27442953574644,1059
-184.7517972258321,1092
-182.2298625564256,1119
-179.7086253370378,954
-177.18808537710026,1075
-174.66824248596583,1212
-172.14909647290835,1154
-169.6306471471229,1161
-167.11289431772548,1064
-164.59583779375328,1099
-162.07947738416453,1264
-159.5638128978386,1576
-157.04884414357605,1664
-154.53457093009854,1602
-152.02099306604828,1476
-149.50811035998936,1443
-146.99592262040665,1610
-144.48442965570587,1779
-141.97363127421409,1560
-139.46352728417958,1410
-136.95411749377126,1521
-134.44540171107985,1490
-131.93737974411636,1345
-129.43005140081357,1393
-126.92341648902493,1717
-124.41747481652521,1694
-121.91222619101006,2049
-119.40767042009657,2482
-116.90380731132257,2686
-114.40063667214702,3335
-111.8981583099503,4181
-109.3963720320337,5050
-106.89527764561933,5688
-104.39487495785067,5795
-101.89516377579241,6127
-99.39614390642998,9054
-96.89781515667039,13076
-94.40017733334128,17319
-91.90323024319173,21215
-89.40697369289148,20156
-86.91140748903172,13029
-84.41653143812482,7378
-81.92234534660395,4994
-79.42884902082358,7246
-76.93604226705907,12186
-74.4439248915071,17185
-71.95249670028534,21622
-69.46175749943245,20603
-66.97170709490854,19434
-64.48234529259423,15670
-61.99367189829195,13458
-59.50568671772464,11501
-57.01838955653636,10062
-54.53178022029283,12406
-52.045858514480074,15052
-49.560624244506016,16426
-47.07607721569923,23925
-44.59221723330904,28266
-42.10904410250669,36027
-39.62655762838392,40183
-37.14475761595372,44046
-34.66364387015028,48747
-32.18321619582866,47842
-29.70347439776515,48639
-27.224418280657005,53440
-24.74604764912317,51646
-22.26836230770266,55160
-19.7913620608565,65037
-17.315046712966478,65037
-14.83941606833514,65037
-12.36446993118659,65037
-9.89020810566592,65037
-7.416630395839093,65037
-4.94373660569363,65037
-2.471526539137585,65037
-6.821210263296962E-13,65037
2.47084320796705,65037
4.941003281093458,65037
7.410480415786196,65037
9.879274808531363,65037
12.347386655893956,65037
14.814816154518212,65037
17.28156350112681,65037
19.74762889252179,65037
22.21301252558385,65037
24.67771459727237,23582
27.141735304626195,5453
29.605074844762612,6023
32.06773341487792,7242
34.52971121224755,7207
36.99100843422559,5338
39.45162527824516,6078
41.91156194181792,5038
44.370818622535126,4330
46.82939551806646,5527
49.287292826160524,4857
51.74451074464503,4558
54.201049471426245,3875
56.65690920448981,2363
59.112090141899785,2737
61.56659248179983,3475
64.02041642241159,3750
66.4735621620365,2971
68.92602989905402,3099
71.37781983192338,3424
73.82893215918205,3510
76.27936707944684,2872
78.72912479141326,2669
81.17820549385567,2488
83.62660938562783,2398
86.07433666566146,2492
88.5213875329681,2537
90.96776218663751,2156
93.41346082583925,2167
95.85848364982041,2625
98.30283085790859,2820
100.7465026495089,2375
103.18949922410604,2254
105.63182078126385,2210
108.07346752062438,2083
110.51443964190923,1896
112.95473734491827,1936
115.39436082953114,2149
117.83331029570547,1668
120.27158594347827,1773
122.7091879729652,1976
125.1461165843615,2244
127.58237197794062,2151
130.01795435405518,2347
132.4528639131364,2447
134.88710085569494,2009
137.32066538231982,1705
139.75355769367923,1680
142.1857779905207,1614
144.61732647366978,1420
147.04820334403132,1373
149.47840880258934,1419
151.90794305040674,1563
154.33680628862487,1760
156.76499871846443,1777
159.19252054122433,1772
161.61937195828352,1928
164.04555317109896,1970
166.47106438120693,1954
168.89590579022217,1906
171.320077599839,1974
173.7435800118302,2036
176.16641322804742,2404
178.58857745042144,2472
181.01007288096173,2483
183.43089972175687,2321
185.85105817497413,2276
188.27054844285988,2276
190.6893707277394,2212
193.10752523201643,2239
195.5250121581745,2617
197.9418317087751,2587
200.3579840864594,2498
202.7734694939469,2418
205.18828813403627,2532
207.6024402096051,2438
210.01592592360964,2509
212.42874547908548,2390
214.84089907914665,2466
217.2523869269868,2397
219.66320922587727,2418
222.0733661791695,2337
224.48285799029293,2459
226.8916848627572,2457
229.29984700014882,2469
231.7073446061355,2515
234.11417788446204,2492
236.520347038953,2409
238.92585227351185,2442
241.33069379212054,2540
243.73487179884035,2528
246.1383864978112,2603
248.541238093252,2602
250.9434267894609,2697
253.34495279081432,2686
255.74581630176783,2497
258.1460175268563,2597
260.54555667069314,2502
262.9444339379703,2433
265.3426495334594,2502
267.7402036620107,2613
270.1370965285529,2515
272.53332833809407,2444
274.9288992957214,2523
277.32380960660055,2346
279.718059475976,2474
282.1116491091717,2496
284.5045787115897,2457
286.89684848871195,2374
289.2884586460981,2369
291.67940938938807,2456
294.0697009242996,2365
296.4593334566299,2342
298.84830719225477,2468
301.23662233712923,2302
303.6242790972866,2237
306.01127767884,2297
308.39761828798066,2258
310.78330113097934,2261
313.16832641418534,2294
315.5526943440269,2194
317.9364051270112,2218
320.3194589697242,2156
322.70185607883093,2206
325.0835966610754,2125
327.4646809232805,2104
329.8451090723478,2083
332.2248813152577,2099
334.6039978590701,2113
336.9824589109231,2093
339.36026467803447,2050
341.7374153677,2082
344.113911187295,2025
346.48975234427337,2058
348.8649390461686,2005
351.2394715005918,2064
353.61334991523415,1986
355.9865744978655,2044
358.35914545633375,1984
360.73106299856715,1989
363.10232733257146,2066
365.47293866643247,2056
367.84289720831396,2034
370.2122031664593,1933
372.5808567491905,1958
374.9488581649083,2014
377.31620762209275,1955
379.6829053293021,1918
382.0489514951745,2052
384.4143463284262,1879
386.7790900378528,1925
389.14318283232853,1898
391.50662492080653,1811
393.86941651231916,1727
396.23155781597745,1812
398.5930490409713,1907
400.9538903965696,1906
403.3140820921202,1940
405.6736243370498,1883
408.03251734086336,1830
410.3907613131465,1760
412.74835646356166,1834
415.10530300185144,1855
417.4616011378372,1860
419.81725108141893,1816
422.1722530425758,1805
424.5266072313656,1850
426.880313857925,1840
429.2333731324701,1846
431.58578526529516,1805
433.9375504667738,1775
436.2886689473588,1861
438.63914091758113,1786
440.9889665880513,1773
443.33814616945835,1806
445.68667987257015,1854
448.03456790823395,1765
450.3818104873759,1828
452.72840782100013,1729
455.07436012019105,1666
457.41966759611057,1729
459.7643304600007,1706
462.10834892318155,1686
464.4517231970525,1677
466.79445349309174,1749
469.1365400228566,1742
471.4779829979826,1761
473.81878263018564,1809
476.15893913125876,1818
478.4984527130747,1771
480.8373235875855,1829
483.17555196682144,1821
485.5131380628919,1873
487.8500820879857,1977
490.1863842543697,2023
492.52204477439034,2118
494.8570638604725,2205
497.1914417251204,2399
499.52517858091653,2678
501.85827464052306,3056
504.19073011668036,3322
506.5225452222086,3530
508.85372017000566,3644
511.18425517304956,3774
513.514150444396,4128
515.8434061971808,4881
518.1720226446176,5542
520.4999999999999,5489
522.8273384766991,5268
525.1540382881666,4929
527.480099647932,4323
529.8055227696037,3509
532.1303078668694,2618
534.454455153496,2113
536.777964843328,2033
539.1008371502907,1904
541.4230722883866,1781
543.744670471698,1808
546.0656319143858,1817
548.3859568306899,1879
550.7056454349294,1708
553.0246979415016,1775
555.3431145648834,1733
557.6608955196306,1766
559.978041020377,1751
562.2945512818363,1815
564.6104265188006,1745
566.9256669461412,1725
569.2402727788082,1723
571.5542442318302,1707
573.8675815203156,1777
576.1802848594508,1720
578.4923544645015,1714
580.8037905508126,1696
583.114593333807,1747
585.4247630289875,1766
587.7342998519354,1775
590.0432040183106,1719
592.3514757438526,1722
594.6591152443794,1747
596.9661227357875,1745
599.2724984340531,1673
601.578242555231,1651
603.8833553154542,1701
606.1878369309362,1695
608.4916876179676,1808
610.7949075929192,1831
613.0974970722403,1737
615.3994562724587,1633
617.7007854101818,1669
620.0014847020951,1664
622.3015543649641,1690
624.6009946156324,1698
626.8998056710224,1760
629.1979877481361,1809
631.4955410640538,1735
633.7924658359349,1786
636.0887622810175,1677
638.3844306166192,1753
640.6794710601358,1682
642.9738838290426,1809
645.2676691408932,1744
647.5608272133207,1737
649.853358264037,1705
652.1452625108324,1772
654.4365401715764,1827
656.7271914642178,1801
659.0172166067838,1754
661.3066158173809,1810
663.5953893141935,1729
665.8835373154867,1753
668.1710600396028,1781
670.4579577049639,1766
672.7442305300709,1802
675.0298787335033,1751
677.3149025339197,1790
679.599302150058,1787
681.8830778007342,1678
684.1662297048437,1794
686.4487580813608,1865
688.7306631493387,1773
691.0119451279091,1802
693.2926042362834,1796
695.5726406937516,1787
697.8520547196814,1754
700.1308465335215,1829
702.4090163547982,1757
704.6865644031171,1709
706.9634908981619,1820
709.2397960596965,1729
711.5154801075631,1753
713.7905432616823,1829
716.0649857420548,1803
718.3388077687592,1839
720.612009561953,1713
722.8845913418733,1758
725.1565533288352,1787
727.427895743234,1812
729.6986188055427,1780
731.9687227363137,1784
734.238207756178,1776
736.5070740858458,1796
738.7753219461066,1755
741.0429515578281,1825
743.3099631419569,1846
745.5763569195191,1772
747.8421331116193,1793
750.1072919394409,1788
752.3718336242467,1744
754.6357583873777,1784
756.8990664502545,1793
759.1617580343765,1782
761.423833361321,1800
763.6852926527457,1832
765.9461361303862,1819
768.206364016058,1826
770.4659765316536,1918
772.7249738991469,1803
774.9833563405886,1811
777.2411240781092,1824
779.4982773339183,1779
781.7548163303044,1812
784.010741289634,1842
786.2660524343538,1922
788.5207499869881,1851
790.7748341701416,1921
793.0283052064964,1857
795.2811633188143,1853
797.5334087299362,1851
799.7850416627813,1890
802.0360623403484,1912
804.2864709857143,1875
806.5362678220353,1825
808.7854530725468,1795
811.0340269605625,1813
813.2819897094754,1926
815.5293415427581,1882
817.77608268396,1820
820.0222133567116,1806
822.2677337847211,1770
824.5126441917765,1840
826.7569448017433,1812
829.0006358385675,1739
831.2437175262731,1746
833.4861900889629,1797
835.7280537508192,1864
837.9693087361026,1801
840.2099552691533,1799
842.4499935743896,1765
844.689423876309,1802
846.9282463994886,1855
849.1664613685833,1779
851.4040690083276,1759
853.6410695435349,1837
855.877463199097,1822
858.1132501999847,1759
860.3484307712487,1831
862.5830051380175,1852
864.8169735254988,1836
867.0503361589791,1846
869.2830932638243,1820
871.5152450654786,1796
873.7467917894654,1852
875.9777336613873,1870
878.2080709069252,1903
880.4378037518389,1826
882.666932421968,1915
884.8954571432301,1810
887.1233781416219,1850
889.3506956432192,1835
891.5774098741766,1756
893.803521060728,1894
896.0290294291852,1841
898.2539352059397,1886
900.4782386174619,1830
902.7019398903011,1796
904.925039251085,1856
907.147536926521,1774
909.3694331433943,1820
911.59072812857,1846
913.8114221089921,1838
916.0315153116827,1822
918.2510079637437,1808
920.4699002923547,1779
922.6881925247761,1845
924.905884888345,1833
927.1229776104793,1823
929.3394709186747,1821
931.555365040506,1765
933.7706602036275,1786
935.9853566357709,1742
938.1994545647489,1837
940.4129542184515,1807
942.6258558248488,1807
944.8381596119883,1828
947.0498658079974,1804
949.2609746410825,1822
951.4714863395287,1808
953.6814011316998,1849
955.8907192460387,1805
958.0994409110671,1904
960.3075663553858,1843
962.5150958076741,1816
964.7220294966913,1725
966.928367651274,1823
969.1341105003388,1791
971.3392582728806,1742
973.5438111979742,1741
975.747769504772,1769
977.9511334225061,1844
980.153903180487,1661
982.3560790081052,1742
984.5576611348289,1699
986.7586497902058,1753
988.9590452038618,1703
991.158847605503,1681
993.3580572249133,1671
995.5566742919558,1658
997.7546990365728,1646
999.952131688785,1637
1002.1489724786926,1619
1004.3452216364743,1544
1006.5408793923874,1565
1008.7359459767691,1510
1010.9304216200343,1523
1013.1243065526781,1525
1015.3176010052733,1524
1017.510305208472,1456
1019.7024193930064,1506
1021.8939437896848,1540
1024.0848786293977,1505
1026.2752241431122,1485
1028.4649805618747,1493
1030.6541481168115,1523
1032.842727039127,1478
1035.0307175601051,1441
1037.2181199111074,1398
1039.4049343235752,1532
1041.591161029029,1430
1043.7768002590683,1441
1045.9618522453698,1427
1048.1463172196918,1383
1050.3301954138697,1442
1052.513487059818,1473
1054.69619238953,1480
1056.8783116350783,1423
1059.0598450286152,1417
1061.2407928023704,1459
1063.4211551886528,1454
1065.6009324198508,1423
1067.780124728432,1392
1069.9587323469414,1405
1072.1367555080046,1404
1074.314194444325,1417
1076.4910493886855,1417
1078.667320573947,1389
1080.843008233051,1428
1083.0181125990161,1412
1085.1926339049414,1391
1087.3665723840027,1367
1089.5399282694575,1392
1091.7127017946405,1398
1093.8848931929647,1411
1096.0565026979243,1370
1098.2275305430899,1394
1100.3979769621128,1359
1102.567842188722,1397
1104.737126456726,1344
1106.9058300000124,1378
1109.0739530525475,1365
1111.2414958483764,1321
1113.4084586216231,1387
1115.5748416064907,1345
1117.7406450372605,1349
1119.9058691482942,1338
1122.0705141740304,1393
1124.2345803489884,1336
1126.3980679077658,1375
1128.5609770850388,1371
1130.7233081155623,1348
1132.8850612341707,1375
1135.0462366757774,1340
1137.2068346753745,1411
1139.3668554680326,1427
1141.526299288901,1318
1143.68516637321,1340
1145.8434569562655,1354
1148.001171273455,1369
1150.158309560244,1307
1152.3148720521767,1382
1154.470858984876,1317
1156.626270594044,1343
1158.7811071154629,1334
1160.9353687849912,1404
1163.089055838569,1378
1165.242168512213,1333
1167.3947070420209,1352
1169.5466716641677,1392
1171.6980626149075,1325
1173.8488801305748,1333
1175.9991244475814,1296
1178.1487958024186,1349
1180.2978944316555,1281
1182.4464205719428,1327
1184.5943744600072,1361
1186.7417563326567,1328
1188.8885664267755,1348
1191.0348049793297,1367
1193.1804722273619,1334
1195.325568407995,1298
1197.4700937584303,1331
1199.614048515948,1353
1201.7574329179074,1316
1203.900247201746,1327
1206.042491604982,1326
1208.1841663652099,1357
1210.3252717201053,1316
1212.465807907422,1324
1214.6057751649923,1315
1216.7451737307279,1371
1218.8840038426192,1395
1221.0222657387353,1365
1223.1599596572241,1347
1225.2970858363137,1349
1227.4336445143094,1307
1229.5696359295966,1292
1231.705060320639,1344
1233.8399179259786,1314
1235.9742089842384,1385
1238.107933734118,1326
1240.2410924143974,1289
1242.373685263935,1328
1244.5057125216676,1377
1246.6371744266116,1341
1248.7680712178621,1371
1250.898403134593,1379
1253.028170416058,1292
1255.1573733015875,1301
1257.2860120305932,1397
1259.4140868425648,1374
1261.54159797707,1379
1263.6685456737569,1419
1265.7949301723515,1462
1267.9207517126597,1370
1270.046010534565,1377
1272.1707068780306,1430
1274.2948409830983,1381
1276.4184130898889,1434
1278.541423438603,1440
1280.6638722695184,1426
1282.785759822993,1446
1284.9070863394636,1457
1287.0278520594447,1423
1289.1480572235314,1430
1291.2677020723963,1445
1293.3867868467923,1458
1295.5053117875495,1452
1297.623277135579,1424
1299.740683131868,1422
1301.8575300174857,1431
1303.973818033578,1479
1306.0895474213703,1480
1308.2047184221678,1521
1310.3193312773528,1518
1312.4333862283888,1554
1314.5468835168163,1453
1316.659823384255,1508
1318.7722060724045,1496
1320.8840318230418,1515
1322.9953008780249,1526
1325.1060134792888,1592
1327.2161698688478,1637
1329.3257702887959,1577
1331.4348149813054,1556
1333.5433041886276,1481
1335.6512381530933,1506
1337.7586171171101,1519
1339.8654413231675,1526
1341.9717110138317,1484
1344.0774264317488,1454
1346.1825878196432,1513
1348.2871954203192,1470
1350.3912494766587,1445
1352.4947502316231,1505
1354.5976979282532,1507
1356.7000928096686,1525
1358.8019351190665,1487
1360.9032250997243,1449
1363.0039629949988,1448
1365.1041490483235,1438
1367.2037835032133,1439
1369.3028666032606,1520
1371.401398592137,1492
1373.4993797135926,1407
1375.5968102114575,1415
1377.6936903296396,1422
1379.7900203121262,1464
1381.8858004029835,1365
1383.9810308463561,1434
1386.075711886469,1413
1388.1698437676241,1410
1390.2634267342032,1437
1392.356461030667,1401
1394.4489469015557,1417
1396.5408845914872,1434
1398.6322743451592,1420
1400.7231164073469,1413
1402.813411022907,1437
1404.903158436773,1467
1406.9923588939578,1425
1409.0810126395531,1411
1411.1691199187303,1412
1413.2566809767386,1462
1415.343696058907,1449
1417.4301654106425,1427
1419.5160892774315,1429
1421.6014679048399,1456
1423.6863015385125,1441
1425.7705904241707,1461
1427.8543348076178,1460
1429.9375349347342,1451
1432.0201910514802,1488
1434.102303403894,1453
1436.1838722380944,1496
1438.2648978002767,1485
1440.3453803367174,1453
1442.4253200937692,1468
1444.5047173178677,1415
1446.5835722555234,1389
1448.6618851533285,1454
1450.739656257952,1459
1452.8168858161434,1464
1454.8935740747306,1561
1456.96972128062,1454
1459.045327680797,1410
1461.120393522327,1473
1463.1949190523528,1512
1465.2689045180973,1527
1467.3423501668608,1537
1469.415256246024,1492
1471.4876230030463,1480
1473.559450685465,1502
1475.6307395408976,1502
1477.7014898170391,1442
1479.771701761665,1501
1481.8413756226287,1548
1483.9105116478618,1480
1485.9791100853772,1502
1488.0471711832643,1559
1490.1146951896926,1519
1492.1816823529098,1563
1494.2481329212433,1522
1496.3140471430984,1532
1498.3794252669609,1631
1500.4442675413939,1592
1502.5085742150404,1583
1504.572345536622,1585
1506.6355817549388,1570
1508.6982831188702,1605
1510.7604498773744,1668
1512.8220822794883,1573
1514.8831805743293,1664
1516.9437450110909,1691
1519.003775839048,1677
1521.0632733075522,1595
1523.1222376660367,1584
1525.1806691640113,1614
1527.2385680510652,1670
1529.2959345768668,1641
1531.3527689911643,1633
1533.4090715437833,1627
1535.4648424846291,1652
1537.5200820636855,1713
1539.5747905310159,1783
1541.6289681367616,1786
1543.6826151311434,1760
1545.7357317644614,1772
1547.7883182870937,1738
1549.8403749494987,1798
1551.8919020022113,1832
1553.9428996958477,1882
1555.9933682811015,1908
1558.0433080087469,1927
1560.0927191296346,1901
1562.1416018946961,1846
1564.1899565549415,1937
1566.2377833614592,1884
1568.2850825654164,1912
1570.3318544180606,1954
1572.3780991707158,1874
1574.423817074788,1870
1576.4690083817595,1811
1578.5136733431923,1783
1580.5578122107272,1806
1582.601425236085,1774
1584.6445126710646,1750
1586.6870747675434,1768
1588.7291117774776,1732
1590.7706239529034,1614
1592.8116115459347,1646
1594.8520748087658,1613
1596.8920139936686,1620
1598.9314293529933,1570
1600.9703211391711,1586
1603.008689604711,1576
1605.0465350022005,1485
1607.0838575843068,1519
1609.1206576037753,1499
1611.1569353134305,1441
1613.1926909661765,1426
1615.2279248149953,1401
1617.2626371129481,1474
1619.2968281131757,1528
1621.3304980688963,1450
1623.3636472334088,1424
1625.39627586009,1449
1627.428384202396,1392
1629.459972513861,1477
1631.4910410480993,1379
1633.5215900588028,1377
1635.551619799744,1421
1637.5811305247717,1375
1639.6101224878166,1383
1641.6385959428862,1352
1643.6665511440683,1368
1645.693988345528,1336
1647.7209078015112,1367
1649.7473097663405,1359
1651.7731944944203,1325
1653.7985622402307,1309
1655.823413258333,1275
1657.847747803366,1316
1659.8715661300494,1324
1661.8948684931793,1307
1663.9176551476316,1374
1665.9399263483624,1316
1667.9616823504057,1315
1669.982923408873,1294
1672.0036497789574,1327
1674.0238617159293,1297
1676.043559475138,1265
1678.0627433120121,1276
1680.081413482059,1303
1682.0995702408654,1275
1684.117213844096,1297
1686.134344547495,1338
1688.1509626068864,1247
1690.1670682781705,1292
1692.182661817329,1273
1694.1977434804217,1325
1696.2123135235875,1278
1698.226372203043,1356
1700.2399197750851,1342
1702.2529564960905,1316
1704.2654826225112,1311
1706.277498410882,1349
1708.2890041178139,1367
1710.2999999999988,1279
1712.3104863142066,1339
1714.3204633172854,1332
1716.329931266163,1302
1718.3388904178469,1317
1720.3473410294214,1306
1722.3552833580516,1272
1724.3627176609807,1312
1726.3696441955308,1338
1728.3760632191033,1267
1730.3819749891782,1363
1732.3873797633146,1299
1734.3922777991502,1304
1736.3966693544012,1272
1738.4005546868639,1325
1740.4039340544127,1290
1742.406807715001,1296
1744.4091759266616,1363
1746.4110389475054,1280
1748.4123970357223,1291
1750.413250449582,1301
1752.4135994474318,1282
1754.4134442876993,1311
1756.4127852288902,1342
1758.4116225295893,1288
1760.4099564484595,1302
1762.407787244244,1261
1764.405115175764,1343
1766.4019405019203,1324
1768.3982634816916,1337
1770.3940843741357,1283
1772.3894034383907,1295
1774.3842209336717,1272
1776.378537119274,1333
1778.372352254571,1297
1780.3656665990156,1318
1782.3584804121397,1294
1784.3507939535534,1287
1786.3426074829463,1318
1788.3339212600863,1314
1790.3247355448211,1370
1792.3150505970766,1312
1794.3048666768573,1312
1796.2941840442477,1295
1798.2830029594106,1339
1800.2713236825884,1321
1802.2591464741004,1219
1804.2464715943465,1307
1806.2332993038058,1296
1808.2196298630352,1290
1810.2054635326708,1274
1812.190800573428,1310
1814.175641246101,1292
1816.1599858115628,1330
1818.1438345307652,1302
1820.127187664738,1319
1822.1100454745924,1305
1824.092408221516,1323
1826.0742761667766,1265
1828.055649571721,1231
1830.0365286977735,1247
1832.0169138064398,1297
1833.9968051593014,1304
1835.9762030180214,1288
1837.9551076443408,1294
1839.9335193000788,1309
1841.9114382471344,1283
1843.888864747485,1317
1845.8657990631878,1317
1847.842241456378,1298
1849.8181921892697,1281
1851.7936515241558,1230
1853.7686197234098,1240
1855.7430970494815,1315
1857.7170837649014,1286
1859.6905801322787,1265
1861.6635864143004,1249
1863.6361028737338,1275
1865.608129773424,1276
1867.5796673762961,1267
1869.5507159453537,1275
1871.521275743678,1352
1873.4913470344313,1315
1875.4609300808534,1358
1877.4300251462632,1264
1879.3986324940588,1295
1881.366752387717,1331
1883.3343850907936,1313
1885.3015308669228,1253
1887.268189979819,1294
1889.2343626932739,1340
1891.2000492711595,1294
1893.1652499774254,1327
1895.1299650761011,1328
1897.0941948312952,1315
1899.0579395071945,1293
1901.0211993680641,1316
1902.98397467825,1350
1904.9462657021745,1288
1906.9080727043415,1263
1908.869395949332,1294
1910.8302357018065,1280
1912.790592226504,1360
1914.7504657882428,1336
1916.7098566519212,1331
1918.6687650825133,1223
1920.6271913450764,1277
1922.5851357047422,1292
1924.5425984267245,1320
1926.499579776314,1312
1928.4560800188833,1288
1930.4120994198802,1343
1932.367638244833,1342
1934.32269675935,1364
1936.2772752291175,1321
1938.231373919899,1342
1940.1849930975404,1268
1942.1381330279637,1332
1944.0907939771696,1330
1946.0429762112412,1296
1947.9946799963363,1268
1949.9459055986945,1292
1951.896653284633,1330
1953.8469233205478,1304
1955.7967159729142,1239
1957.7460315082863,1253
1959.6948701932974,1241
1961.6432322946594,1318
1963.5911180791632,1292
1965.5385278136787,1363
1967.4854617651545,1281
1969.4319202006182,1257
1971.377903387176,1321
1973.3234115920136,1327
1975.268445082395,1270
1977.2130041256642,1368
1979.1570889892423,1307
1981.1006999406304,1261
1983.04383724741,1310
1984.986501177238,1300
1986.928691997853,1304
1988.8704099770712,1270
1990.811655382789,1298
1992.7524284829801,1308
1994.692729545698,1288
1996.6325588390755,1268
1998.5719166313224,1343
2000.5108031907307,1342
2002.4492187856677,1299
2004.387163684583,1311
2006.3246381560011,1329
2008.2616424685298,1318
2010.1981768908527,1234
2012.1342416917332,1300
2014.069837140014,1325
2016.0049635046162,1278
2017.9396210545406,1215
2019.8738100588666,1272
2021.8075307867502,1300
2023.740783507431,1287
2025.6735684902228,1294
2027.6058860045214,1236
2029.5377363198004,1333
2031.4691197056118,1287
2033.4000364315875,1318
2035.3304867674374,1309
2037.260470982952,1270
2039.189989347998,1271
2041.1190421325232,1334
2043.047629606554,1238
2044.9757520401945,1303
2046.9034097036288,1349
2048.8306028671195,1334
2050.7573318010086,1288
2052.683596775716,1300
2054.609398061742,1271
2056.5347359296647,1306
2058.4596106501403,1275
2060.384022493906,1292
2062.3079717317764,1298
2064.231458634646,1296
2066.1544834734873,1214
2068.077046519352,1281
2069.99914804337,1320
2071.9207883167524,1291
2073.8419676107865,1255
2075.7626861968406,1278
2077.6829443463607,1303
2079.6027423308715,1308
2081.522080421977,1301
2083.440958891362,1246
2085.359378010786,1275
2087.2773380520907,1333
2089.194839287196,1257
2091.111881988101,1262
2093.0284664268825,1328
2094.9445928756973,1262
2096.86026160678,1260
2098.775472892446,1277
2100.690227005088,1243
2102.604524217178,1278
2104.5183648012676,1296
2106.431749029985,1245
2108.34467717604,1287
2110.2571495122206,1315
2112.169166311393,1236
2114.080727846503,1308
2115.9918343905747,1301
2117.902486216711,1338
2119.8126835980956,1322
2121.722426807987,1306
2123.6317161197285,1323
2125.5405518067364,1341
2127.448934142509,1289
2129.356863400624,1329
2131.264339854737,1295
2133.1713637785815,1281
2135.077935445972,1303
2136.9840551308002,1299
2138.889723107037,1299
2140.7949396487334,1353
2142.699705030018,1321
2144.6040195250994,1283
2146.507883408264,1307
2148.4112969538774,1332
2150.3142604363848,1303
2152.2167741303097,1320
2154.1188383102535,1284
2156.0204532508997,1323
2157.9216192270064,1342
2159.822336513414,1313
2161.7226053850413,1352
2163.622426116884,1342
2165.5217989840185,1299
2167.4207242616,1298
2169.319202224862,1326
2171.2172331491165,1357
2173.1148173097563,1315
2175.0119549822507,1337
2176.90864644215,1356
2178.8048919650823,1251
2180.7006918267534,1305
2182.596046302952,1346
2184.4909556695407,1311
2186.3854202024645,1372
2188.279440177746,1370
2190.173015871487,1308
2192.066147559868,1321
2193.958835519149,1320
2195.851080025667,1333
2197.7428813558417,1253
2199.6342397861667,1293
2201.5251555932186,1329
2203.415629053651,1325
2205.3056604441986,1357
2207.19525004167,1293
2209.084398122958,1425
2210.9731049650327,1363
2212.861370844941,1363
2214.749196039812,1348
2216.636580826851,1400
2218.523525483344,1351
2220.410030286655,1349
2222.296095514226,1347
2224.1817214435805,1411
2226.066908352319,1402
2227.951656518121,1317
2229.835966218746,1432
2231.71983773203,1358
2233.6032713358913,1413
2235.486267308324,1386
2237.3688259274036,1367
2239.2509474712824,1363
2241.132632218193,1338
2243.013880446447,1381
2244.8946924344323,1376
2246.7750684606203,1328
2248.6550088035574,1333
2250.534513741871,1431
2252.413583554265,1370
2254.292218519526,1330
2256.170418916517,1369
2258.0481850241786,1331
2259.925517121534,1354
2261.8024154876825,1346
2263.678880401803,1341
2265.5549121431536,1357
2267.430510991071,1320
2269.305677224971,1319
2271.180411124348,1337
2273.0547129687766,1311
2274.9285830379076,1338
2276.8020216114737,1345
2278.6750289692845,1364
2280.5476053912294,1355
2282.4197511572766,1347
2284.2914665474727,1307
2286.162751841943,1420
2288.0336073208937,1426
2289.904033264608,1395
2291.774029953448,1368
2293.6435976678554,1362
2295.5127366883517,1358
2297.381447295534,1342
2299.2497297700825,1336
2301.1175843927526,1308
2302.9850114443825,1206
2304.852011205885,1209
2306.7185839582553,1217
2308.5847299825664,1232
2310.4504495599676,1195
2312.3157429716925,1196
2314.1806104990483,1218
2316.0450524234247,1191
2317.9090690262888,1197
2319.772660589186,1211
2321.635827393742,1212
2323.498569721661,1173
2325.3608878547248,1169
2327.2227820747967,1168
2329.0842526638157,1161
2330.945299903803,1210
2332.805924076857,1222
2334.6661254651535,1205
2336.525904350951,1168
2338.3852610165827,1221
2340.244195744464,1193
2342.102708817088,1195
2343.9608005170253,1140
2345.8184711269287,1216
2347.675720929526,1186
2349.532550207628,1230
2351.38895924412,1203
2353.24494832197,1216
2355.100517724223,1239
2356.955667734004,1211
2358.810398634514,1176
2360.664710709037,1213
2362.5186042409337,1187
2364.3720795136437,1260
2366.225136810686,1196
2368.0777764156583,1190
2369.929998612237,1179
2371.7818036841777,1194
2373.633191915315,1165
2375.484163589562,1176
2377.3347189909114,1186
2379.184858403434,1221
2381.03458211128,1174
2382.8838903986775,1182
2384.732783549936,1190
2386.5812618494406,1201
2388.4293255816588,1188
2390.2769750311327,1228
2392.1242104824883,1203
2393.971032220427,1203
2395.8174405297295,1194
2397.6634356952563,1237
2399.509018001947,1235
2401.3541877348193,1254
2403.1989451789705,1217
2405.043290619576,1213
2406.8872243418905,1199
2408.730746631247,1178
2410.5738577730594,1230
2412.4165580528183,1188
2414.258847756095,1187
2416.100727168537,1160
2417.9421965758734,1180
2419.783256263912,1165
2421.623906518538,1190
2423.4641476257157,1240
2425.303979871491,1221
2427.143403541984,1215
2428.9824189233977,1261
2430.821026302012,1251
2432.6592259641866,1196
2434.497018196361,1233
2436.33440328505,1228
2438.171381516851,1257
2440.00795317844,1189
2441.844118556569,1170
2443.6798779380724,1201
2445.5152316098606,1188
2447.3501798589255,1187
2449.1847229723357,1203
2451.0188612372403,1205
2452.8525949408663,1185
2454.6859243705203,1217
2456.518849813587,1229
2458.3513715575314,1248
2460.183489889895,1235
2462.015205098301,1159
2463.8465174704493,1191
2465.67742729412,1219
2467.5079348571717,1217
2469.338040447542,1128
2471.1677443532476,1220
2472.9970468623833,1171
2474.825948263123,1275
2476.6544488437207,1220
2478.482548892508,1221
2480.310248697896,1221
2482.137548548374,1211
2483.9644487325118,1173
2485.790949538956,1221
2487.617051256433,1219
2489.44275417375,1191
2491.26805857979,1224
2493.0929647635157,1212
2494.917473013971,1202
2496.741583620276,1227
2498.5652968716304,1244
2500.3886130573137,1203
2502.2115324666834,1251
2504.0340553891765,1244
2505.856182114308,1212
2507.6779129316733,1279
2509.499248130945,1249
2511.3201880018764,1200
2513.140732834298,1242
2514.9608829181198,1216
2516.780638543331,1179
2518.6,1233
2520.418967578273,1270
2522.237541568376,1230
2524.0557222606144,1221
2525.8735099453706,1228
2527.6909049131086,1280
2529.507907454368,1233
2531.32451785977,1217
2533.140736420014,1241
2534.9565634258774,1249
2536.771999168218,1276
2538.5870439379714,1252
2540.4016980261526,1268
2542.2159617238544,1286
2544.02983532225,1312
2545.8433191125914,1305
2547.656413386209,1261
2549.4691184345115,1237
2551.2814345489874,1246
2553.093362021204,1241
2554.904901142808,1330
2556.716052205523,1321
2558.526815501153,1287
2560.3371913215824,1320
2562.147179958771,1229
2563.956781704761,1282
2565.7659968516705,1325
2567.5748256916986,1306
2569.3832685171224,1243
2571.1913256202984,1282
2572.9989972936614,1350
2574.806283829725,1294
2576.613185521084,1299
2578.4197026604074,1285
2580.2258355404483,1259
2582.031584454035,1320
2583.836949694077,1332
2585.6419315535613,1311
2587.4465303255533,1281
2589.2507463032002,1242
2591.0545797797245,1275
2592.8580310484303,1293
2594.6611004026995,1333
2596.463788135992,1309
2598.266094541849,1283
2600.0680199138874,1298
2601.869564545807,1360
2603.670728731383,1359
2605.4715127644704,1240
2607.2719169390048,1293
2609.071941548998,1323
2610.8715868885433,1268
2612.670853251811,1326
2614.469740933052,1287
2616.268250226594,1314
2618.0663814268455,1327
2619.864134828292,1341
2621.6615107255006,1257
2623.458509413115,1282
2625.2551311858597,1297
2627.0513763385347,1307
2628.8472451660223,1245
2630.6427379632833,1259
2632.4378550253564,1321
2634.232596647359,1301
2636.026963124488,1271
2637.8209547520187,1252
2639.6145718253065,1284
2641.407814639785,1256
2643.200683490966,1254
2644.9931786744414,1294
2646.7853004858807,1253
2648.577049221034,1258
2650.3684251757277,1274
2652.1594286458712,1227
2653.9500599274484,1263
2655.740319316525,1267
2657.5302071092437,1252
2659.3197236018286,1223
2661.10886909058,1269
2662.8976438718782,1249
2664.686048242183,1252
2666.4740824980327,1265
2668.2617469360443,1209
2670.0490418529134,1243
2671.8359675454153,1239
2673.622524310403,1270
2675.408712444811,1292
2677.1945322456495,1248
2678.979984010009,1244
2680.76506803506,1215
2682.5497846180497,1249
2684.334134056306,1220
2686.1181166472343,1225
2687.9017326883213,1217
2689.6849824771293,1199
2691.4678663113013,1244
2693.2503844885596,1226
2695.032537306705,1229
2696.8143250636167,1221
2698.5957480572542,1250
2700.3768065856534,1220
2702.1575009469316,1215
2703.937831439283,1193
2705.717798360982,1224
2707.4974020103837,1211
2709.276642685917,1164
2711.055520686095,1178
2712.834036309506,1185
2714.612189854819,1247
2716.389981620782,1241
2718.1674119062204,1167
2719.944481010041,1232
2721.721189231226,1205
2723.4975368688415,1236
2725.273524222027,1190
2727.0491515900053,1185
2728.824419272075,1175
2730.5993275676146,1217
2732.3738767760838,1197
2734.148067197016,1200
2735.921899130031,1171
2737.6953728748194,1170
2739.468488731156,1166
2741.2412469988926,1162
2743.0136479779617,1200
2744.785691968372,1246
2746.5573792702116,1201
2748.3287101836504,1151
2750.099685008934,1177
2751.870304046388,1178
2753.640567596418,1191
2755.4104759595057,1162
2757.1800294362156,1163
2758.949228327187,1212
2760.7180729331412,1164
2762.486563554877,1157
2764.254700493272,1138
2766.022484049284,1203
2767.789914523947,1213
2769.5569922183786,1214
2771.3237174337705,1203
2773.090090471394,1153
2774.8561116326036,1208
2776.6217812188274,1235
2778.3870995315756,1195
2780.1520668724356,1142
2781.9166835430747,1158
2783.6809498452394,1147
2785.444866080754,1166
2787.2084325515225,1164
2788.971649559527,1142
2790.73451740683,1211
2792.4970363955713,1196
2794.2592068279705,1185
2796.0210290063264,1197
2797.7825032330147,1162
2799.543629810493,1164
2801.304409041296,1169
2803.0648412280366,1183
2804.8249266734088,1167
2806.5846656801846,1161
2808.344058551212,1166
2810.1031055894246,1177
2811.8618070978273,1151
2813.6201633795085,1213
2815.378174737636,1183
2817.1358414754536,1198
2818.893163896285,1195
2820.6501423035334,1151
2822.4067770006814,1141
2824.1630682912883,1172
2825.9190164789957,1162
2827.6746218675207,1164
2829.429884760661,1144
2831.184805462294,1162
2832.9393842763743,1220
2834.693621506936,1187
2836.4475174580916,1218
2838.201072434034,1126
2839.954286739034,1186
2841.707160677441,1185
2843.459694553685,1203
2845.2118886722724,1194
2846.96374333779,1191
2848.7152588549034,1191
2850.4664355283567,1232
2852.217273662973,1174
2853.9677735636546,1198
2855.7179355353833,1214
2857.4677598832186,1232
2859.217246912299,1189
2860.9663969278427,1184
2862.715210235146,1193
2864.4636871395846,1170
2866.211827946614,1191
2867.9596329617652,1217
2869.7071024906536,1228
2871.4542368389684,1186
2873.20103631248,1197
2874.947501217038,1153
2876.6936318585695,1217
2878.4394285430812,1202
2880.1848915766604,1164
2881.9300212654707,1188
2883.6748179157553,1206
2885.4192818338374,1183
2887.1634133261173,1222
2888.907212699077,1185
2890.6506802592744,1159
2892.393816313348,1152
2894.1366211680142,1206
2895.8790951300693,1209
2897.621238506388,1182
2899.363051603925,1191
2901.1045347297118,1200
2902.8456881908596,1193
2904.58651229456,1205
2906.327007348081,1218
2908.067173658772,1191
2909.8070115340597,1138
2911.5465212814497,1223
2913.285703208527,1158
2915.0245576229563,1133
2916.7630848324807,1213
2918.5012851449196,1209
2920.2391588681758,1145
2921.976706310227,1177
2923.7139277791334,1153
2925.4508235830313,1164
2927.187394030137,1191
2928.923639428745,1151
2930.6595600872306,1168
2932.395156314046,1253
2934.1304284177218,1186
2935.8653767068713,1209
2937.6000014901815,1215
2939.3343030764227,1173
2941.068281774442,1189
2942.8019378931644,1175
2944.5352717415976,1198
2946.2682836288236,1193
2948.0009738640065,1233
2949.7333427563885,1173
2951.465390615289,1198
2953.1971177501086,1151
2954.9285244703265,1212
2956.6596110855,1152
2958.3903779052657,1207
2960.1208252393385,1166
2961.8509533975125,1180
2963.5807626896617,1199
2965.3102534257378,1141
2967.0394259157715,1161
2968.768280469873,1171
2970.496817398232,1245
2972.2250370111146,1183
2973.952939618869,1144
2975.6805255319196,1159
2977.4077950607707,1199
2979.134748516006,1185
2980.861386208289,1148
2982.587708448359,1153
2984.313715547037,1141
2986.039407815222,1172
2987.764785563891,1158
2989.489849104102,1242
2991.2145987469908,1206
2992.9390348037705,1165
2994.6631575857346,1164
2996.3869674042576,1175
2998.1104645707887,1202
2999.83364939686,1157
3001.5565221940783,1174
3003.2790832741334,1152
3005.0013329487924,1193
3006.7232715298996,1156
3008.4448993293804,1150
3010.166216659239,1179
3011.887223831558,1202
3013.607921158498,1221
3015.3283089522993,1196
3017.0483875252826,1151
3018.7681571898443,1164
3020.4876182584626,1175
3022.2067710436927,1153
3023.9256158581707,1137
3025.644153014609,1183
3027.362382825801,1119
3029.0803056046193,1191
3030.797921664012,1185
3032.5152313170106,1142
3034.2322348767225,1162
3035.9489326563353,1163
3037.665324969115,1185
3039.3814121284063,1226
3041.097194447633,1185
3042.812672240299,1153
3044.5278458199855,1195
3046.2427155003525,1156
3047.9572815951406,1103
3049.671544418167,1171
3051.38550428333,1147
3053.0991615046073,1181
3054.812516396051,1177
3056.5255692717974,1185
3058.2383204460575,1143
3059.9507702331257,1212
3061.662918947372,1176
3063.3747669032446,1147
3065.0863144152736,1217
3066.7975617980674,1181
3068.508509366309,1176
3070.219157434767,1157
3071.9295063182844,1167
3073.639556331785,1200
3075.3493077902704,1185
3077.058761008821,1150
3078.7679163025964,1146
3080.476773986837,1128
3082.1853343768594,1172
3083.89359778806,1137
3085.6015645359153,1108
3087.3092349359786,1191
3089.016609303884,1128
3090.7236879553434,1155
3092.4304712061476,1190
3094.136959372166,1152
3095.843152769349,1140
3097.5490517137237,1216
3099.2546565213966,1122
3100.959967508554,1140
3102.66498499146,1174
3104.3697092864577,1160
3106.0741407099695,1130
3107.778279578498,1172
3109.482126208622,1147
3111.1856809170004,1150
3112.8889440203716,1116
3114.5919158355528,1114
3116.294596679439,1187
3117.996986869006,1229
3119.6990867213062,1212
3121.4008965534726,1182
3123.102416682717,1207
3124.803647426329,1180
3126.5045891016784,1180
3128.205242026213,1140
3129.90560651746,1168
3131.605682893025,1146
3133.3054714705922,1179
3135.0049725679282,1187
3136.7041865028714,1177
3138.4031135933465,1117
3140.101754157353,1136
3141.800108512971,1165
3143.498176978357,1163
3145.1959598717494,1164
3146.8934575114636,1175
3148.5906702158954,1136
3150.2875983035183,1150
3151.9842420928853,1126
3153.680601902627,1123
3155.376678051456,1129
3157.07247085816,1152
3158.767980641609,1160
3160.463207720748,1146
3162.158152414606,1174
3163.8528150422862,1159
3165.5471959229726,1174
3167.2412953759303,1172
3168.9351137204976,1174
3170.628651276098,1176
3172.3219083622307,1167
3174.014885298474,1163
3175.707582404485,1140
3177.4000000000005,1149
3179.092138404835,1174
3180.7839979388846,1225
3182.47557892212,1168
3184.166881674594,1198
3185.8579065164386,1164
3187.5486537678626,1188
3189.2391237491547,1171
3190.9293167806827,1159
3192.6192331828934,1158
3194.3088732763117,1164
3195.998237381542,1141
3197.687325819268,1154
3199.376138910251,1175
3201.064676975334,1129
3202.7529403354347,1142
3204.4409293115523,1173
3206.1286442247647,1133
3207.816085396229,1151
3209.5032531471825,1105
3211.190147798936,1111
3212.8767696728846,1141
3214.5631190905015,1133
3216.2491963733373,1190
3217.9350018430214,1152
3219.6205358212637,1134
3221.305798629851,1101
3222.990790590651,1081
3224.6755120256103,1145
3226.359963256751,1183
3228.0441446061795,1107
3229.7280563960758,1158
3231.411698948703,1091
3233.0950725863995,1139
3234.778177631587,1131
3236.461014406761,1162
3238.1435832345005,1167
3239.8258844374595,1179
3241.507918338374,1122
3243.1896852600576,1155
3244.8711855254023,1122
3246.552419457381,1112
3248.233387379042,1137
3249.914089613516,1133
3251.59452648401,1129
3253.274698313813,1167
3254.95460542629,1177
3256.6342481448855,1118
3258.313626793125,1109
3259.9927416946084,1149
3261.6715931730196,1134
3263.3501815521176,1115
3265.0285071557437,1132
3266.706570307815,1115
3268.3843713323286,1122
3270.0619105533615,1156
3271.739188295068,1145
3273.4162048816834,1151
3275.0929606375184,1165
3276.769455886966,1193
3278.445690954498,1194
3280.1216661646613,1163
3281.797381842087,1168
3283.4728383114807,1203
3285.1480358976296,1155
3286.8229749253996,1133
3288.4976557197333,1151
3290.172078605655,1134
3291.846243908266,1113
3293.5201519527463,1116
3295.193803064357,1133
3296.8671975684374,1116
3298.5403357904024,1172
3300.21321805575,1166
3301.8858446900567,1186
3303.558216018975,1089
3305.23033236824,1089
3306.9021940636603,1119
3308.57380143113,1156
3310.2451547966184,1124
3311.916254486174,1159
3313.5871008259246,1125
3315.2576941420766,1183
3316.9280347609147,1159
3318.5981230088046,1147
3320.2679592121895,1157
3321.9375436975924,1131
3323.606876791612,1131
3325.27595882093,1139
3326.944790112305,1077
3328.6133709925753,1121
3330.2817017886573,1160
3331.949782827547,1124
3333.617614436319,1109
3335.2851969421245,1138
3336.952530672199,1168
3338.619615953853,1177
3340.286453114475,1172
3341.9530424815357,1155
3343.619384382583,1176
3345.2854791452437,1198
3346.951327097224,1132
3348.6169285663073,1118
3350.2822838803577,1184
3351.947393367319,1119
3353.61225735521,1129
3355.2768761721345,1119
3356.9412501462693,1136
3358.605379605873,1164
3360.2692648792827,1114
3361.9329062949146,1122
3363.596304181263,1107
