CollectionTime,9/20/2024 11:26:11 AM
ExposureUsed,3
CalibratedSpectrum
-962.7078968117929,575
-959.9714848408522,596
-957.2358232597828,541
-954.5009119013725,555
-951.7667505983302,572
-949.0333391832855,587
-946.3006774887896,587
-943.5687653473143,586
-940.837602591253,582
-938.1071890529199,562
-935.3775245645503,607
-932.6486089583007,562
-929.9204420662485,569
-927.1930237203925,539
-924.4663537526524,596
-921.7404319948689,576
-919.0152582788041,605
-916.2908324361409,616
-913.5671542984834,550
-910.8442236973568,528
-908.1220404642074,559
-905.4006044304027,575
-902.679915427231,575
-899.959973285902,552
-897.2407778375464,538
-894.5223289132158,562
-891.8046263438832,558
-889.0876699604426,581
-886.3714595937089,579
-883.6559950744183,542
-880.9412762332282,569
-878.2273029007168,550
-875.5140749073835,528
-872.8015920836489,528
-870.0898542598545,524
-867.3788612662631,501
-864.6686129330585,495
-861.9591090903457,531
-859.2503495681506,568
-856.5423341964203,558
-853.8350628050229,557
-851.1285352237478,590
-848.4227512823054,598
-845.7177108103272,600
-843.0134136373656,584
-840.3098595928943,542
-837.6070485063082,575
-834.9049802069229,629
-832.2036545239757,566
-829.5030712866244,600
-826.8032303239481,604
-824.1041314649472,598
-821.4057745385428,578
-818.7081593735775,581
-816.0112857988148,571
-813.3151536429393,587
-810.6197627345566,577
-807.9251129021936,563
-805.2312039742981,558
-802.5380357792392,595
-799.8456081453069,592
-797.1539209007124,596
-794.462973873588,639
-791.772766891987,596
-789.083299783884,579
-786.3945723771743,527
-783.7065844996748,544
-781.0193359791231,549
-778.3328266431781,535
-775.6470563194197,533
-772.9620248353489,556
-770.2777320183878,562
-767.5941776958798,626
-764.9113616950891,616
-762.2292838432011,532
-759.5479439673222,557
-756.8673418944801,547
-754.1874774516235,590
-751.5083504656222,567
-748.8299607632671,571
-746.15230817127,598
-743.475392516264,596
-740.7992136248035,591
-738.1237713233636,583
-735.4490654383407,595
-732.7750957960521,593
-730.1018622227365,596
-727.4293645445534,570
-724.7576025875837,588
-722.0865761778291,566
-719.4162851412126,601
-716.7467293035781,561
-714.0779084906909,660
-711.409822528237,655
-708.7424712418238,666
-706.0758544569796,627
-703.4099719991541,601
-700.7448236937178,628
-698.0804093659622,623
-695.4167288411002,610
-692.7537819442656,600
-690.0915685005134,568
-687.4300883348199,617
-684.7693412720819,636
-682.1093271371178,655
-679.4500457546669,633
-676.7914969493897,610
-674.1336805458676,596
-671.4765963686034,618
-668.8202442420206,596
-666.1646239904642,617
-663.5097354382001,600
-660.8555784094151,595
-658.2021527282176,614
-655.5494582186366,660
-652.8974947046223,655
-650.2462620100463,637
-647.5957599587009,651
-644.9459883742998,679
-642.2969470804776,663
-639.6486359007902,633
-637.0010546587141,668
-634.3542031776476,702
-631.7080812809096,682
-629.0626887917401,646
-626.4180255333008,647
-623.7740913286734,661
-621.1308860008619,684
-618.4884093727904,753
-615.8466612673046,681
-613.2056415071715,697
-610.5653499150785,653
-607.9257863136347,716
-605.28695052537,686
-602.6488423727357,639
-600.0114616781036,669
-597.3748082637674,710
-594.7388819519412,668
-592.1036825647604,739
-589.4692099242818,672
-586.8354638524829,750
-584.2024441712624,775
-581.5701507024403,784
-578.9385832677575,807
-576.3077416888759,807
-573.6776257873787,777
-571.0482353847704,754
-568.4195703024757,719
-565.7916303618415,745
-563.164415384135,725
-560.5379251905453,792
-557.9121596021815,704
-555.2871184400748,698
-552.6628015251767,711
-550.0392086783606,752
-547.4163397204204,724
-544.794194472071,803
-542.1727727539491,751
-539.5520743866118,843
-536.9320991905377,890
-534.3128469861261,921
-531.6943175936979,966
-529.0765108334947,948
-526.4594265256793,980
-523.8430644903358,1147
-521.2274245474689,1231
-518.612506517005,1315
-515.9983102187913,1351
-513.3848354725959,1547
-510.77208209810846,1790
-508.16004991493924,1985
-505.5487387426199,2078
-502.9381484006032,2044
-500.3282787082628,1952
-497.71912948489364,1715
-495.1107005497117,1494
-492.5029917218539,1300
-489.8960028203786,1161
-487.28973366426493,1030
-484.68418407241325,924
-482.07935386364494,938
-479.47524285670266,922
-476.87185087025,957
-474.2691777228715,968
-471.66722323307334,910
-469.0659872192821,908
-466.4654694998459,934
-463.86566989303384,906
-461.26658821703614,889
-458.66822428996414,871
-456.07057792985,926
-453.4736489546475,943
-450.877437182231,905
-448.28194243039627,885
-445.68716451686,880
-443.09310325926003,886
-440.49975847515555,858
-437.9071299820263,844
-435.31521759727354,926
-432.72402113821954,934
-430.13354042210767,972
-427.5437752661022,958
-424.95472548728867,929
-422.36639090267386,1031
-419.7787713291855,1114
-417.1918665836721,1001
-414.60567648290385,991
-412.0202008435715,1002
-409.4354394822874,1003
-406.8513922155845,946
-404.26805885991723,976
-401.685439231661,991
-399.103533147112,987
-396.522340422488,988
-393.9418608739278,892
-391.3620943174908,892
-388.7830405691583,905
-386.2046994448317,935
-383.6270707603344,941
-381.05015433141045,924
-378.473949973725,874
-375.8984575028645,809
-373.32367673433623,772
-370.74960748356875,779
-368.1762495659117,741
-365.60360279663576,675
-363.03166699093265,646
-360.4604419639154,604
-357.8899275306178,575
-355.32012350599507,589
-352.7510297049233,604
-350.1826459421999,634
-347.61497203254316,591
-345.04800779059235,618
-342.4817530309082,669
-339.91620756797226,672
-337.35137121618743,677
-334.7872437898774,770
-332.22382510328725,730
-329.66111497058273,635
-327.09911320585127,653
-324.53781962310075,711
-321.9772340362607,703
-319.4173562591816,642
-316.8581861056348,686
-314.2997233893127,670
-311.7419679238294,687
-309.1849195227194,760
-306.62857799943856,763
-304.0729431673641,692
-301.51801483979375,708
-298.963792829947,650
-296.41027695096386,629
-293.85746701590574,631
-291.3053628377552,666
-288.7539642294155,687
-286.2032710037115,708
-283.65328297338897,689
-281.1039999511146,771
-278.5554217494762,785
-276.007548180983,904
-273.4603790580651,801
-270.9139141930734,750
-268.3681533982807,750
-265.8230964858798,784
-263.27874326798565,799
-260.7350935566336,805
-258.1921471637804,755
-255.6499039013039,856
-253.10836358100266,946
-250.56752601459698,927
-248.02739101372765,964
-245.48795838995704,942
-242.94922795476816,947
-240.41119951956557,1020
-237.8738728956746,965
-235.33724789434166,902
-232.80132432673452,965
-230.2661020039418,977
-227.73158073697357,966
-225.19776033676033,975
-222.66464061415422,1145
-220.1322213799284,1112
-217.60050244477725,1075
-215.06948361931552,1087
-212.53916471408013,1103
-210.00954553952818,1018
-207.48062590603843,955
-204.9524056239104,1135
-202.4248845033651,1369
-199.8980623545441,1205
-197.37193898751036,1318
-194.84651421224817,1218
-192.32178783866232,1068
-189.79775967657952,1094
-187.27442953574644,1112
-184.7517972258321,1059
-182.2298625564256,1017
-179.7086253370378,1076
-177.18808537710026,1104
-174.66824248596583,1111
-172.14909647290835,1276
-169.6306471471229,1243
-167.11289431772548,1134
-164.59583779375328,1119
-162.07947738416453,1327
-159.5638128978386,1689
-157.04884414357605,1674
-154.53457093009854,1478
-152.02099306604828,1360
-149.50811035998936,1454
-146.99592262040665,1527
-144.48442965570587,1715
-141.97363127421409,1638
-139.46352728417958,1696
-136.95411749377126,1672
-134.44540171107985,1699
-131.93737974411636,1693
-129.43005140081357,1541
-126.92341648902493,1667
-124.41747481652521,1916
-121.91222619101006,2259
-119.40767042009657,2564
-116.90380731132257,2849
-114.40063667214702,3712
-111.8981583099503,5048
-109.3963720320337,7512
-106.89527764561933,9289
-104.39487495785067,10808
-101.89516377579241,12710
-99.39614390642998,16394
-96.89781515667039,22389
-94.40017733334128,28655
-91.90323024319173,34302
-89.40697369289148,34590
-86.91140748903172,25097
-84.41653143812482,16240
-81.92234534660395,12889
-79.42884902082358,12776
-76.93604226705907,15345
-74.4439248915071,16731
-71.95249670028534,15237
-69.46175749943245,11723
-66.97170709490854,10793
-64.48234529259423,10232
-61.99367189829195,11020
-59.50568671772464,11386
-57.01838955653636,11356
-54.53178022029283,12675
-52.045858514480074,16026
-49.560624244506016,17376
-47.07607721569923,18599
-44.59221723330904,21953
-42.10904410250669,25704
-39.62655762838392,28263
-37.14475761595372,32623
-34.66364387015028,41565
-32.18321619582866,47281
-29.70347439776515,50120
-27.224418280657005,57289
-24.74604764912317,63375
-22.26836230770266,65035
-19.7913620608565,65035
-17.315046712966478,65035
-14.83941606833514,65035
-12.36446993118659,65035
-9.89020810566592,65035
-7.416630395839093,65035
-4.94373660569363,65035
-2.471526539137585,65035
-6.821210263296962E-13,65035
2.47084320796705,65035
4.941003281093458,65035
7.410480415786196,65035
9.879274808531363,65035
12.347386655893956,65035
14.814816154518212,65035
17.28156350112681,65035
19.74762889252179,65035
22.21301252558385,65035
24.67771459727237,25186
27.141735304626195,8550
29.605074844762612,7066
32.06773341487792,6875
34.52971121224755,5765
36.99100843422559,4287
39.45162527824516,4469
41.91156194181792,6188
44.370818622535126,6119
46.82939551806646,6035
49.287292826160524,5319
51.74451074464503,5383
54.201049471426245,4612
56.65690920448981,3432
59.112090141899785,3892
61.56659248179983,3941
64.02041642241159,4056
66.4735621620365,3600
68.92602989905402,3701
71.37781983192338,3635
73.82893215918205,3196
76.27936707944684,2650
78.72912479141326,2597
81.17820549385567,2200
83.62660938562783,2289
86.07433666566146,2175
88.5213875329681,2140
90.96776218663751,2389
93.41346082583925,2541
95.85848364982041,2728
98.30283085790859,2526
100.7465026495089,1801
103.18949922410604,1824
105.63182078126385,1915
108.07346752062438,1917
110.51443964190923,1884
112.95473734491827,1947
115.39436082953114,2022
117.83331029570547,1718
120.27158594347827,1899
122.7091879729652,2047
125.1461165843615,1982
127.58237197794062,2285
130.01795435405518,2328
132.4528639131364,2019
134.88710085569494,1720
137.32066538231982,1594
139.75355769367923,1697
142.1857779905207,1768
144.61732647366978,1396
147.04820334403132,1335
149.47840880258934,1432
151.90794305040674,1864
154.33680628862487,1993
156.76499871846443,1946
159.19252054122433,1958
161.61937195828352,1882
164.04555317109896,2014
166.47106438120693,2166
168.89590579022217,2104
171.320077599839,2224
173.7435800118302,2436
176.16641322804742,2544
178.58857745042144,2669
181.01007288096173,2663
183.43089972175687,2442
185.85105817497413,2355
188.27054844285988,2313
190.6893707277394,2394
193.10752523201643,2562
195.5250121581745,2757
197.9418317087751,2805
200.3579840864594,2684
202.7734694939469,2688
205.18828813403627,2740
207.6024402096051,2781
210.01592592360964,2664
212.42874547908548,2641
214.84089907914665,2570
217.2523869269868,2677
219.66320922587727,2606
222.0733661791695,2470
224.48285799029293,2658
226.8916848627572,2607
229.29984700014882,2654
231.7073446061355,2513
234.11417788446204,2663
236.520347038953,2691
238.92585227351185,2615
241.33069379212054,2799
243.73487179884035,2807
246.1383864978112,2705
248.541238093252,2645
250.9434267894609,2637
253.34495279081432,2572
255.74581630176783,2636
258.1460175268563,2727
260.54555667069314,2637
262.9444339379703,2623
265.3426495334594,2711
267.7402036620107,3025
270.1370965285529,2857
272.53332833809407,2776
274.9288992957214,2597
277.32380960660055,2509
279.718059475976,2682
282.1116491091717,2559
284.5045787115897,2638
286.89684848871195,2513
289.2884586460981,2584
291.67940938938807,2641
294.0697009242996,2652
296.4593334566299,2700
298.84830719225477,2706
301.23662233712923,2642
303.6242790972866,2562
306.01127767884,2536
308.39761828798066,2440
310.78330113097934,2423
313.16832641418534,2403
315.5526943440269,2365
317.9364051270112,2344
320.3194589697242,2269
322.70185607883093,2350
325.0835966610754,2368
327.4646809232805,2297
329.8451090723478,2231
332.2248813152577,2466
334.6039978590701,2360
336.9824589109231,2271
339.36026467803447,2313
341.7374153677,2194
344.113911187295,2290
346.48975234427337,2256
348.8649390461686,2248
351.2394715005918,2249
353.61334991523415,2197
355.9865744978655,2130
358.35914545633375,2295
360.73106299856715,2229
363.10232733257146,2153
365.47293866643247,2168
367.84289720831396,2104
370.2122031664593,2073
372.5808567491905,2099
374.9488581649083,2135
377.31620762209275,2046
379.6829053293021,2141
382.0489514951745,2037
384.4143463284262,2081
386.7790900378528,2050
389.14318283232853,2036
391.50662492080653,2080
393.86941651231916,2053
396.23155781597745,1961
398.5930490409713,2045
400.9538903965696,2111
403.3140820921202,2082
405.6736243370498,2116
408.03251734086336,2020
410.3907613131465,1983
412.74835646356166,2014
415.10530300185144,2072
417.4616011378372,2048
419.81725108141893,1998
422.1722530425758,2024
424.5266072313656,2127
426.880313857925,2079
429.2333731324701,1976
431.58578526529516,1993
433.9375504667738,2034
436.2886689473588,1940
438.63914091758113,2004
440.9889665880513,1875
443.33814616945835,1882
445.68667987257015,1885
448.03456790823395,1880
450.3818104873759,1979
452.72840782100013,1876
455.07436012019105,1893
457.41966759611057,1841
459.7643304600007,1862
462.10834892318155,1889
464.4517231970525,1953
466.79445349309174,1977
469.1365400228566,2031
471.4779829979826,1956
473.81878263018564,1997
476.15893913125876,2061
478.4984527130747,2049
480.8373235875855,2082
483.17555196682144,2048
485.5131380628919,2132
487.8500820879857,2195
490.1863842543697,2282
492.52204477439034,2362
494.8570638604725,2563
497.1914417251204,2877
499.52517858091653,3323
501.85827464052306,3813
504.19073011668036,4337
506.5225452222086,4604
508.85372017000566,4676
511.18425517304956,4846
513.514150444396,5028
515.8434061971808,6037
518.1720226446176,6451
520.4999999999999,6373
522.8273384766991,5984
525.1540382881666,5527
527.480099647932,4978
529.8055227696037,3911
532.1303078668694,2887
534.454455153496,2415
536.777964843328,2237
539.1008371502907,2120
541.4230722883866,2112
543.744670471698,2019
546.0656319143858,2038
548.3859568306899,2081
550.7056454349294,1972
553.0246979415016,1919
555.3431145648834,1960
557.6608955196306,1970
559.978041020377,1979
562.2945512818363,1926
564.6104265188006,1918
566.9256669461412,1971
569.2402727788082,1985
571.5542442318302,1954
573.8675815203156,1996
576.1802848594508,2074
578.4923544645015,2022
580.8037905508126,2025
583.114593333807,2039
585.4247630289875,2090
587.7342998519354,1938
590.0432040183106,1980
592.3514757438526,2018
594.6591152443794,1910
596.9661227357875,1929
599.2724984340531,1918
601.578242555231,1909
603.8833553154542,1970
606.1878369309362,1914
608.4916876179676,1930
610.7949075929192,1871
613.0974970722403,1963
615.3994562724587,1919
617.7007854101818,1973
620.0014847020951,1946
622.3015543649641,1924
624.6009946156324,2009
626.8998056710224,2018
629.1979877481361,1937
631.4955410640538,1881
633.7924658359349,1886
636.0887622810175,1951
638.3844306166192,2009
640.6794710601358,1973
642.9738838290426,2000
645.2676691408932,1926
647.5608272133207,1913
649.853358264037,1956
652.1452625108324,2037
654.4365401715764,2019
656.7271914642178,1979
659.0172166067838,2041
661.3066158173809,1946
663.5953893141935,1990
665.8835373154867,1881
668.1710600396028,1928
670.4579577049639,1925
672.7442305300709,1943
675.0298787335033,1953
677.3149025339197,1933
679.599302150058,2007
681.8830778007342,1919
684.1662297048437,1960
686.4487580813608,2027
688.7306631493387,1945
691.0119451279091,1984
693.2926042362834,1998
695.5726406937516,1972
697.8520547196814,1983
700.1308465335215,1996
702.4090163547982,1956
704.6865644031171,1978
706.9634908981619,1911
709.2397960596965,1959
711.5154801075631,2042
713.7905432616823,2012
716.0649857420548,1927
718.3388077687592,2019
720.612009561953,1976
722.8845913418733,1998
725.1565533288352,2010
727.427895743234,1964
729.6986188055427,1970
731.9687227363137,1940
734.238207756178,1999
736.5070740858458,1943
738.7753219461066,1946
741.0429515578281,1956
743.3099631419569,1976
745.5763569195191,2001
747.8421331116193,1991
750.1072919394409,2013
752.3718336242467,1880
754.6357583873777,1863
756.8990664502545,1940
759.1617580343765,1920
761.423833361321,1997
763.6852926527457,1950
765.9461361303862,2006
768.206364016058,2038
770.4659765316536,2058
772.7249738991469,1982
774.9833563405886,2077
777.2411240781092,2071
779.4982773339183,2002
781.7548163303044,2009
784.010741289634,2052
786.2660524343538,2120
788.5207499869881,2044
790.7748341701416,2096
793.0283052064964,1999
795.2811633188143,2001
797.5334087299362,2073
799.7850416627813,2034
802.0360623403484,2080
804.2864709857143,2020
806.5362678220353,2006
808.7854530725468,1989
811.0340269605625,2068
813.2819897094754,2014
815.5293415427581,2010
817.77608268396,2032
820.0222133567116,2062
822.2677337847211,1952
824.5126441917765,1960
826.7569448017433,2015
829.0006358385675,1968
831.2437175262731,1938
833.4861900889629,1946
835.7280537508192,2017
837.9693087361026,2030
840.2099552691533,2096
842.4499935743896,2056
844.689423876309,2000
846.9282463994886,1987
849.1664613685833,2019
851.4040690083276,2019
853.6410695435349,2014
855.877463199097,2052
858.1132501999847,2048
860.3484307712487,1998
862.5830051380175,2101
864.8169735254988,2039
867.0503361589791,2035
869.2830932638243,2029
871.5152450654786,2124
873.7467917894654,2123
875.9777336613873,1968
878.2080709069252,2015
880.4378037518389,2019
882.666932421968,2002
884.8954571432301,2049
887.1233781416219,2052
889.3506956432192,1981
891.5774098741766,2009
893.803521060728,2090
896.0290294291852,2033
898.2539352059397,2095
900.4782386174619,2138
902.7019398903011,1961
904.925039251085,2057
907.147536926521,2035
909.3694331433943,2073
911.59072812857,2041
913.8114221089921,2131
916.0315153116827,2028
918.2510079637437,2050
920.4699002923547,2101
922.6881925247761,2120
924.905884888345,2112
927.1229776104793,2027
929.3394709186747,1931
931.555365040506,1989
933.7706602036275,2031
935.9853566357709,2038
938.1994545647489,2016
940.4129542184515,2084
942.6258558248488,2016
944.8381596119883,2056
947.0498658079974,2039
949.2609746410825,2012
951.4714863395287,1999
953.6814011316998,2008
955.8907192460387,2037
958.0994409110671,2025
960.3075663553858,2037
962.5150958076741,2078
964.7220294966913,2051
966.928367651274,1973
969.1341105003388,1940
971.3392582728806,1950
973.5438111979742,1970
975.747769504772,1888
977.9511334225061,1868
980.153903180487,1935
982.3560790081052,1850
984.5576611348289,1878
986.7586497902058,1869
988.9590452038618,1901
991.158847605503,1844
993.3580572249133,1841
995.5566742919558,1777
997.7546990365728,1662
999.952131688785,1703
1002.1489724786926,1697
1004.3452216364743,1683
1006.5408793923874,1688
1008.7359459767691,1648
1010.9304216200343,1655
1013.1243065526781,1598
1015.3176010052733,1647
1017.510305208472,1645
1019.7024193930064,1608
1021.8939437896848,1561
1024.0848786293977,1561
1026.2752241431122,1504
1028.4649805618747,1683
1030.6541481168115,1636
1032.842727039127,1541
1035.0307175601051,1557
1037.2181199111074,1551
1039.4049343235752,1500
1041.591161029029,1525
1043.7768002590683,1487
1045.9618522453698,1506
1048.1463172196918,1536
1050.3301954138697,1508
1052.513487059818,1520
1054.69619238953,1482
1056.8783116350783,1535
1059.0598450286152,1566
1061.2407928023704,1486
1063.4211551886528,1551
1065.6009324198508,1516
1067.780124728432,1511
1069.9587323469414,1490
1072.1367555080046,1559
1074.314194444325,1493
1076.4910493886855,1524
1078.667320573947,1459
1080.843008233051,1477
1083.0181125990161,1421
1085.1926339049414,1482
1087.3665723840027,1441
1089.5399282694575,1426
1091.7127017946405,1437
1093.8848931929647,1449
1096.0565026979243,1443
1098.2275305430899,1491
1100.3979769621128,1462
1102.567842188722,1496
1104.737126456726,1459
1106.9058300000124,1411
1109.0739530525475,1454
1111.2414958483764,1414
1113.4084586216231,1469
1115.5748416064907,1380
1117.7406450372605,1472
1119.9058691482942,1436
1122.0705141740304,1445
1124.2345803489884,1380
1126.3980679077658,1434
1128.5609770850388,1440
1130.7233081155623,1504
1132.8850612341707,1401
1135.0462366757774,1356
1137.2068346753745,1430
1139.3668554680326,1389
1141.526299288901,1398
1143.68516637321,1386
1145.8434569562655,1384
1148.001171273455,1398
1150.158309560244,1459
1152.3148720521767,1402
1154.470858984876,1383
1156.626270594044,1420
1158.7811071154629,1456
1160.9353687849912,1403
1163.089055838569,1370
1165.242168512213,1365
1167.3947070420209,1352
1169.5466716641677,1373
1171.6980626149075,1353
1173.8488801305748,1363
1175.9991244475814,1410
1178.1487958024186,1418
1180.2978944316555,1400
1182.4464205719428,1372
1184.5943744600072,1372
1186.7417563326567,1348
1188.8885664267755,1306
1191.0348049793297,1335
1193.1804722273619,1379
1195.325568407995,1331
1197.4700937584303,1388
1199.614048515948,1443
1201.7574329179074,1377
1203.900247201746,1358
1206.042491604982,1338
1208.1841663652099,1362
1210.3252717201053,1333
1212.465807907422,1424
1214.6057751649923,1445
1216.7451737307279,1378
1218.8840038426192,1437
1221.0222657387353,1390
1223.1599596572241,1450
1225.2970858363137,1411
1227.4336445143094,1414
1229.5696359295966,1431
1231.705060320639,1389
1233.8399179259786,1420
1235.9742089842384,1478
1238.107933734118,1447
1240.2410924143974,1444
1242.373685263935,1428
1244.5057125216676,1398
1246.6371744266116,1340
1248.7680712178621,1369
1250.898403134593,1370
1253.028170416058,1339
1255.1573733015875,1382
1257.2860120305932,1425
1259.4140868425648,1346
1261.54159797707,1450
1263.6685456737569,1378
1265.7949301723515,1417
1267.9207517126597,1365
1270.046010534565,1376
1272.1707068780306,1452
1274.2948409830983,1445
1276.4184130898889,1444
1278.541423438603,1474
1280.6638722695184,1426
1282.785759822993,1474
1284.9070863394636,1471
1287.0278520594447,1419
1289.1480572235314,1404
1291.2677020723963,1403
1293.3867868467923,1356
1295.5053117875495,1426
1297.623277135579,1442
1299.740683131868,1462
1301.8575300174857,1423
1303.973818033578,1502
1306.0895474213703,1406
1308.2047184221678,1466
1310.3193312773528,1485
1312.4333862283888,1495
1314.5468835168163,1407
1316.659823384255,1431
1318.7722060724045,1440
1320.8840318230418,1420
1322.9953008780249,1454
1325.1060134792888,1500
1327.2161698688478,1494
1329.3257702887959,1505
1331.4348149813054,1425
1333.5433041886276,1474
1335.6512381530933,1449
1337.7586171171101,1465
1339.8654413231675,1513
1341.9717110138317,1424
1344.0774264317488,1436
1346.1825878196432,1539
1348.2871954203192,1492
1350.3912494766587,1481
1352.4947502316231,1470
1354.5976979282532,1483
1356.7000928096686,1461
1358.8019351190665,1454
1360.9032250997243,1429
1363.0039629949988,1486
1365.1041490483235,1494
1367.2037835032133,1424
1369.3028666032606,1451
1371.401398592137,1451
1373.4993797135926,1424
1375.5968102114575,1426
1377.6936903296396,1432
1379.7900203121262,1462
1381.8858004029835,1402
1383.9810308463561,1396
1386.075711886469,1392
1388.1698437676241,1466
1390.2634267342032,1424
1392.356461030667,1441
1394.4489469015557,1446
1396.5408845914872,1443
1398.6322743451592,1424
1400.7231164073469,1472
1402.813411022907,1430
1404.903158436773,1374
1406.9923588939578,1398
1409.0810126395531,1446
1411.1691199187303,1483
1413.2566809767386,1475
1415.343696058907,1453
1417.4301654106425,1479
1419.5160892774315,1469
1421.6014679048399,1379
1423.6863015385125,1460
1425.7705904241707,1480
1427.8543348076178,1414
1429.9375349347342,1448
1432.0201910514802,1512
1434.102303403894,1479
1436.1838722380944,1483
1438.2648978002767,1476
1440.3453803367174,1453
1442.4253200937692,1475
1444.5047173178677,1480
1446.5835722555234,1475
1448.6618851533285,1494
1450.739656257952,1493
1452.8168858161434,1414
1454.8935740747306,1444
1456.96972128062,1423
1459.045327680797,1519
1461.120393522327,1570
1463.1949190523528,1427
1465.2689045180973,1488
1467.3423501668608,1464
1469.415256246024,1501
1471.4876230030463,1446
1473.559450685465,1479
1475.6307395408976,1463
1477.7014898170391,1493
1479.771701761665,1489
1481.8413756226287,1508
1483.9105116478618,1536
1485.9791100853772,1485
1488.0471711832643,1458
1490.1146951896926,1462
1492.1816823529098,1484
1494.2481329212433,1475
1496.3140471430984,1503
1498.3794252669609,1474
1500.4442675413939,1466
1502.5085742150404,1529
1504.572345536622,1518
1506.6355817549388,1538
1508.6982831188702,1514
1510.7604498773744,1515
1512.8220822794883,1530
1514.8831805743293,1506
1516.9437450110909,1470
1519.003775839048,1447
1521.0632733075522,1517
1523.1222376660367,1542
1525.1806691640113,1530
1527.2385680510652,1545
1529.2959345768668,1526
1531.3527689911643,1501
1533.4090715437833,1530
1535.4648424846291,1516
1537.5200820636855,1552
1539.5747905310159,1587
1541.6289681367616,1504
1543.6826151311434,1576
1545.7357317644614,1605
1547.7883182870937,1557
1549.8403749494987,1551
1551.8919020022113,1629
1553.9428996958477,1589
1555.9933682811015,1619
1558.0433080087469,1647
1560.0927191296346,1686
1562.1416018946961,1608
1564.1899565549415,1583
1566.2377833614592,1586
1568.2850825654164,1604
1570.3318544180606,1643
1572.3780991707158,1603
1574.423817074788,1635
1576.4690083817595,1614
1578.5136733431923,1616
1580.5578122107272,1572
1582.601425236085,1570
1584.6445126710646,1614
1586.6870747675434,1655
1588.7291117774776,1556
1590.7706239529034,1522
1592.8116115459347,1517
1594.8520748087658,1499
1596.8920139936686,1468
1598.9314293529933,1517
1600.9703211391711,1576
1603.008689604711,1531
1605.0465350022005,1460
1607.0838575843068,1454
1609.1206576037753,1509
1611.1569353134305,1436
1613.1926909661765,1445
1615.2279248149953,1486
1617.2626371129481,1437
1619.2968281131757,1465
1621.3304980688963,1463
1623.3636472334088,1445
1625.39627586009,1403
1627.428384202396,1495
1629.459972513861,1419
1631.4910410480993,1370
1633.5215900588028,1429
1635.551619799744,1384
1637.5811305247717,1395
1639.6101224878166,1375
1641.6385959428862,1422
1643.6665511440683,1403
1645.693988345528,1411
1647.7209078015112,1357
1649.7473097663405,1380
1651.7731944944203,1355
1653.7985622402307,1365
1655.823413258333,1372
1657.847747803366,1367
1659.8715661300494,1389
1661.8948684931793,1365
1663.9176551476316,1387
1665.9399263483624,1415
1667.9616823504057,1429
1669.982923408873,1436
1672.0036497789574,1322
1674.0238617159293,1378
1676.043559475138,1362
1678.0627433120121,1351
1680.081413482059,1384
1682.0995702408654,1365
1684.117213844096,1366
1686.134344547495,1395
1688.1509626068864,1427
1690.1670682781705,1377
1692.182661817329,1340
1694.1977434804217,1302
1696.2123135235875,1367
1698.226372203043,1324
1700.2399197750851,1326
1702.2529564960905,1389
1704.2654826225112,1441
1706.277498410882,1423
1708.2890041178139,1372
1710.2999999999988,1371
1712.3104863142066,1333
1714.3204633172854,1343
1716.329931266163,1357
1718.3388904178469,1365
1720.3473410294214,1413
1722.3552833580516,1353
1724.3627176609807,1352
1726.3696441955308,1309
1728.3760632191033,1377
1730.3819749891782,1346
1732.3873797633146,1350
1734.3922777991502,1314
1736.3966693544012,1362
1738.4005546868639,1351
1740.4039340544127,1361
1742.406807715001,1336
1744.4091759266616,1369
1746.4110389475054,1350
1748.4123970357223,1410
1750.413250449582,1372
1752.4135994474318,1417
1754.4134442876993,1378
1756.4127852288902,1322
1758.4116225295893,1426
1760.4099564484595,1378
1762.407787244244,1312
1764.405115175764,1429
1766.4019405019203,1353
1768.3982634816916,1373
1770.3940843741357,1367
1772.3894034383907,1438
1774.3842209336717,1363
1776.378537119274,1353
1778.372352254571,1391
1780.3656665990156,1421
1782.3584804121397,1356
1784.3507939535534,1391
1786.3426074829463,1408
1788.3339212600863,1377
1790.3247355448211,1387
1792.3150505970766,1439
1794.3048666768573,1374
1796.2941840442477,1438
1798.2830029594106,1391
1800.2713236825884,1417
1802.2591464741004,1382
1804.2464715943465,1416
1806.2332993038058,1405
1808.2196298630352,1368
1810.2054635326708,1423
1812.190800573428,1378
1814.175641246101,1383
1816.1599858115628,1459
1818.1438345307652,1402
1820.127187664738,1351
1822.1100454745924,1407
1824.092408221516,1398
1826.0742761667766,1427
1828.055649571721,1382
1830.0365286977735,1436
1832.0169138064398,1441
1833.9968051593014,1410
1835.9762030180214,1354
1837.9551076443408,1371
1839.9335193000788,1445
1841.9114382471344,1380
1843.888864747485,1387
1845.8657990631878,1397
1847.842241456378,1324
1849.8181921892697,1363
1851.7936515241558,1327
1853.7686197234098,1421
1855.7430970494815,1389
1857.7170837649014,1363
1859.6905801322787,1403
1861.6635864143004,1340
1863.6361028737338,1363
1865.608129773424,1403
1867.5796673762961,1393
1869.5507159453537,1422
1871.521275743678,1409
1873.4913470344313,1416
1875.4609300808534,1426
1877.4300251462632,1401
1879.3986324940588,1428
1881.366752387717,1441
1883.3343850907936,1429
1885.3015308669228,1373
1887.268189979819,1422
1889.2343626932739,1401
1891.2000492711595,1398
1893.1652499774254,1452
1895.1299650761011,1413
1897.0941948312952,1446
1899.0579395071945,1486
1901.0211993680641,1395
1902.98397467825,1410
1904.9462657021745,1454
1906.9080727043415,1413
1908.869395949332,1402
1910.8302357018065,1404
1912.790592226504,1432
1914.7504657882428,1362
1916.7098566519212,1388
1918.6687650825133,1404
1920.6271913450764,1415
1922.5851357047422,1438
1924.5425984267245,1422
1926.499579776314,1404
1928.4560800188833,1362
1930.4120994198802,1388
1932.367638244833,1341
1934.32269675935,1354
1936.2772752291175,1463
1938.231373919899,1439
1940.1849930975404,1426
1942.1381330279637,1387
1944.0907939771696,1389
1946.0429762112412,1380
1947.9946799963363,1397
1949.9459055986945,1411
1951.896653284633,1348
1953.8469233205478,1361
1955.7967159729142,1387
1957.7460315082863,1393
1959.6948701932974,1387
1961.6432322946594,1419
1963.5911180791632,1359
1965.5385278136787,1422
1967.4854617651545,1377
1969.4319202006182,1416
1971.377903387176,1406
1973.3234115920136,1347
1975.268445082395,1433
1977.2130041256642,1424
1979.1570889892423,1396
1981.1006999406304,1352
1983.04383724741,1415
1984.986501177238,1404
1986.928691997853,1389
1988.8704099770712,1432
1990.811655382789,1409
1992.7524284829801,1402
1994.692729545698,1348
1996.6325588390755,1407
1998.5719166313224,1348
2000.5108031907307,1352
2002.4492187856677,1355
2004.387163684583,1367
2006.3246381560011,1401
2008.2616424685298,1406
2010.1981768908527,1360
2012.1342416917332,1400
2014.069837140014,1403
2016.0049635046162,1379
2017.9396210545406,1439
2019.8738100588666,1425
2021.8075307867502,1370
2023.740783507431,1371
2025.6735684902228,1396
2027.6058860045214,1429
2029.5377363198004,1425
2031.4691197056118,1391
2033.4000364315875,1385
2035.3304867674374,1365
2037.260470982952,1388
2039.189989347998,1370
2041.1190421325232,1373
2043.047629606554,1362
2044.9757520401945,1365
2046.9034097036288,1376
2048.8306028671195,1360
2050.7573318010086,1404
2052.683596775716,1411
2054.609398061742,1353
2056.5347359296647,1319
2058.4596106501403,1363
2060.384022493906,1386
2062.3079717317764,1301
2064.231458634646,1405
2066.1544834734873,1388
2068.077046519352,1376
2069.99914804337,1357
2071.9207883167524,1379
2073.8419676107865,1400
2075.7626861968406,1356
2077.6829443463607,1391
2079.6027423308715,1363
2081.522080421977,1328
2083.440958891362,1376
2085.359378010786,1338
2087.2773380520907,1415
2089.194839287196,1393
2091.111881988101,1390
2093.0284664268825,1410
2094.9445928756973,1403
2096.86026160678,1374
2098.775472892446,1398
2100.690227005088,1389
2102.604524217178,1369
2104.5183648012676,1412
2106.431749029985,1424
2108.34467717604,1344
2110.2571495122206,1396
2112.169166311393,1370
2114.080727846503,1431
2115.9918343905747,1425
2117.902486216711,1413
2119.8126835980956,1412
2121.722426807987,1427
2123.6317161197285,1413
2125.5405518067364,1454
2127.448934142509,1422
2129.356863400624,1422
2131.264339854737,1412
2133.1713637785815,1422
2135.077935445972,1450
2136.9840551308002,1471
2138.889723107037,1433
2140.7949396487334,1424
2142.699705030018,1397
2144.6040195250994,1448
2146.507883408264,1479
2148.4112969538774,1453
2150.3142604363848,1403
2152.2167741303097,1418
2154.1188383102535,1438
2156.0204532508997,1428
2157.9216192270064,1465
2159.822336513414,1484
2161.7226053850413,1460
2163.622426116884,1437
2165.5217989840185,1450
2167.4207242616,1460
2169.319202224862,1464
2171.2172331491165,1475
2173.1148173097563,1495
2175.0119549822507,1475
2176.90864644215,1563
2178.8048919650823,1490
2180.7006918267534,1490
2182.596046302952,1525
2184.4909556695407,1477
2186.3854202024645,1503
2188.279440177746,1484
2190.173015871487,1465
2192.066147559868,1488
2193.958835519149,1526
2195.851080025667,1495
2197.7428813558417,1555
2199.6342397861667,1490
2201.5251555932186,1525
2203.415629053651,1529
2205.3056604441986,1560
2207.19525004167,1583
2209.084398122958,1484
2210.9731049650327,1506
2212.861370844941,1535
2214.749196039812,1515
2216.636580826851,1579
2218.523525483344,1559
2220.410030286655,1526
2222.296095514226,1498
2224.1817214435805,1596
2226.066908352319,1507
2227.951656518121,1539
2229.835966218746,1557
2231.71983773203,1519
2233.6032713358913,1519
2235.486267308324,1622
2237.3688259274036,1565
2239.2509474712824,1580
2241.132632218193,1522
2243.013880446447,1538
2244.8946924344323,1566
2246.7750684606203,1610
2248.6550088035574,1492
2250.534513741871,1544
2252.413583554265,1607
2254.292218519526,1503
2256.170418916517,1553
2258.0481850241786,1504
2259.925517121534,1503
2261.8024154876825,1521
2263.678880401803,1535
2265.5549121431536,1546
2267.430510991071,1544
2269.305677224971,1487
2271.180411124348,1512
2273.0547129687766,1511
2274.9285830379076,1483
2276.8020216114737,1495
2278.6750289692845,1509
2280.5476053912294,1480
2282.4197511572766,1530
2284.2914665474727,1544
2286.162751841943,1598
2288.0336073208937,1565
2289.904033264608,1545
2291.774029953448,1577
2293.6435976678554,1560
2295.5127366883517,1494
2297.381447295534,1416
2299.2497297700825,1385
2301.1175843927526,1387
2302.9850114443825,1345
2304.852011205885,1301
2306.7185839582553,1283
2308.5847299825664,1339
2310.4504495599676,1255
2312.3157429716925,1323
2314.1806104990483,1287
2316.0450524234247,1296
2317.9090690262888,1235
2319.772660589186,1272
2321.635827393742,1299
2323.498569721661,1303
2325.3608878547248,1242
2327.2227820747967,1248
2329.0842526638157,1238
2330.945299903803,1306
2332.805924076857,1284
2334.6661254651535,1249
2336.525904350951,1237
2338.3852610165827,1232
2340.244195744464,1175
2342.102708817088,1255
2343.9608005170253,1261
2345.8184711269287,1265
2347.675720929526,1193
2349.532550207628,1184
2351.38895924412,1276
2353.24494832197,1289
2355.100517724223,1238
2356.955667734004,1260
2358.810398634514,1284
2360.664710709037,1226
2362.5186042409337,1242
2364.3720795136437,1221
2366.225136810686,1244
2368.0777764156583,1217
2369.929998612237,1331
2371.7818036841777,1231
2373.633191915315,1259
2375.484163589562,1279
2377.3347189909114,1229
2379.184858403434,1228
2381.03458211128,1312
2382.8838903986775,1240
2384.732783549936,1224
2386.5812618494406,1272
2388.4293255816588,1277
2390.2769750311327,1254
2392.1242104824883,1287
2393.971032220427,1212
2395.8174405297295,1306
2397.6634356952563,1261
2399.509018001947,1280
2401.3541877348193,1241
2403.1989451789705,1246
2405.043290619576,1268
2406.8872243418905,1186
2408.730746631247,1241
2410.5738577730594,1255
2412.4165580528183,1262
2414.258847756095,1291
2416.100727168537,1233
2417.9421965758734,1260
2419.783256263912,1263
2421.623906518538,1232
2423.4641476257157,1234
2425.303979871491,1252
2427.143403541984,1273
2428.9824189233977,1284
2430.821026302012,1264
2432.6592259641866,1269
2434.497018196361,1255
2436.33440328505,1228
2438.171381516851,1259
2440.00795317844,1276
2441.844118556569,1267
2443.6798779380724,1261
2445.5152316098606,1268
2447.3501798589255,1253
2449.1847229723357,1221
2451.0188612372403,1287
2452.8525949408663,1187
2454.6859243705203,1241
2456.518849813587,1282
2458.3513715575314,1287
2460.183489889895,1300
2462.015205098301,1304
2463.8465174704493,1245
2465.67742729412,1227
2467.5079348571717,1215
2469.338040447542,1237
2471.1677443532476,1272
2472.9970468623833,1251
2474.825948263123,1250
2476.6544488437207,1268
2478.482548892508,1279
2480.310248697896,1233
2482.137548548374,1244
2483.9644487325118,1314
2485.790949538956,1280
2487.617051256433,1248
2489.44275417375,1256
2491.26805857979,1263
2493.0929647635157,1232
2494.917473013971,1246
2496.741583620276,1189
2498.5652968716304,1240
2500.3886130573137,1257
2502.2115324666834,1269
2504.0340553891765,1268
2505.856182114308,1252
2507.6779129316733,1234
2509.499248130945,1287
2511.3201880018764,1207
2513.140732834298,1293
2514.9608829181198,1241
2516.780638543331,1226
2518.6,1227
2520.418967578273,1265
2522.237541568376,1230
2524.0557222606144,1263
2525.8735099453706,1246
2527.6909049131086,1241
2529.507907454368,1249
2531.32451785977,1213
2533.140736420014,1256
2534.9565634258774,1267
2536.771999168218,1233
2538.5870439379714,1236
2540.4016980261526,1226
2542.2159617238544,1263
2544.02983532225,1228
2545.8433191125914,1234
2547.656413386209,1254
2549.4691184345115,1224
2551.2814345489874,1274
2553.093362021204,1313
2554.904901142808,1314
2556.716052205523,1283
2558.526815501153,1269
2560.3371913215824,1324
2562.147179958771,1270
2563.956781704761,1221
2565.7659968516705,1272
2567.5748256916986,1251
2569.3832685171224,1271
2571.1913256202984,1262
2572.9989972936614,1192
2574.806283829725,1268
2576.613185521084,1286
2578.4197026604074,1268
2580.2258355404483,1263
2582.031584454035,1268
2583.836949694077,1263
2585.6419315535613,1281
2587.4465303255533,1217
2589.2507463032002,1290
2591.0545797797245,1232
2592.8580310484303,1299
2594.6611004026995,1274
2596.463788135992,1288
2598.266094541849,1310
2600.0680199138874,1275
2601.869564545807,1268
2603.670728731383,1301
2605.4715127644704,1317
2607.2719169390048,1326
2609.071941548998,1306
2610.8715868885433,1247
2612.670853251811,1335
2614.469740933052,1309
2616.268250226594,1279
2618.0663814268455,1235
2619.864134828292,1289
2621.6615107255006,1291
2623.458509413115,1246
2625.2551311858597,1301
2627.0513763385347,1283
2628.8472451660223,1208
2630.6427379632833,1285
2632.4378550253564,1291
2634.232596647359,1241
2636.026963124488,1249
2637.8209547520187,1278
2639.6145718253065,1282
2641.407814639785,1246
2643.200683490966,1286
2644.9931786744414,1246
2646.7853004858807,1292
2648.577049221034,1309
2650.3684251757277,1251
2652.1594286458712,1234
2653.9500599274484,1271
2655.740319316525,1308
2657.5302071092437,1290
2659.3197236018286,1272
2661.10886909058,1298
2662.8976438718782,1323
2664.686048242183,1300
2666.4740824980327,1267
2668.2617469360443,1246
2670.0490418529134,1280
2671.8359675454153,1221
2673.622524310403,1273
2675.408712444811,1291
2677.1945322456495,1239
2678.979984010009,1243
2680.76506803506,1265
2682.5497846180497,1282
2684.334134056306,1211
2686.1181166472343,1261
2687.9017326883213,1243
2689.6849824771293,1250
2691.4678663113013,1274
2693.2503844885596,1198
2695.032537306705,1254
2696.8143250636167,1227
2698.5957480572542,1221
2700.3768065856534,1223
2702.1575009469316,1239
2703.937831439283,1282
2705.717798360982,1291
2707.4974020103837,1251
2709.276642685917,1177
2711.055520686095,1229
2712.834036309506,1228
2714.612189854819,1215
2716.389981620782,1240
2718.1674119062204,1212
2719.944481010041,1188
2721.721189231226,1223
2723.4975368688415,1235
2725.273524222027,1256
2727.0491515900053,1283
2728.824419272075,1294
2730.5993275676146,1240
2732.3738767760838,1239
2734.148067197016,1240
2735.921899130031,1229
2737.6953728748194,1252
2739.468488731156,1212
2741.2412469988926,1236
2743.0136479779617,1212
2744.785691968372,1279
2746.5573792702116,1223
2748.3287101836504,1251
2750.099685008934,1205
2751.870304046388,1258
2753.640567596418,1263
2755.4104759595057,1255
2757.1800294362156,1245
2758.949228327187,1156
2760.7180729331412,1244
2762.486563554877,1295
2764.254700493272,1253
2766.022484049284,1188
2767.789914523947,1244
2769.5569922183786,1281
2771.3237174337705,1266
2773.090090471394,1284
2774.8561116326036,1230
2776.6217812188274,1236
2778.3870995315756,1263
2780.1520668724356,1227
2781.9166835430747,1224
2783.6809498452394,1269
2785.444866080754,1284
2787.2084325515225,1242
2788.971649559527,1255
2790.73451740683,1262
2792.4970363955713,1198
2794.2592068279705,1280
2796.0210290063264,1244
2797.7825032330147,1276
2799.543629810493,1174
2801.304409041296,1323
2803.0648412280366,1311
2804.8249266734088,1273
2806.5846656801846,1270
2808.344058551212,1264
2810.1031055894246,1240
2811.8618070978273,1296
2813.6201633795085,1286
2815.378174737636,1269
2817.1358414754536,1218
2818.893163896285,1258
2820.6501423035334,1244
2822.4067770006814,1287
2824.1630682912883,1267
2825.9190164789957,1282
2827.6746218675207,1226
2829.429884760661,1273
2831.184805462294,1281
2832.9393842763743,1283
2834.693621506936,1223
2836.4475174580916,1262
2838.201072434034,1300
2839.954286739034,1237
2841.707160677441,1270
2843.459694553685,1279
2845.2118886722724,1279
2846.96374333779,1292
2848.7152588549034,1314
2850.4664355283567,1225
2852.217273662973,1272
2853.9677735636546,1302
2855.7179355353833,1275
2857.4677598832186,1231
2859.217246912299,1235
2860.9663969278427,1237
2862.715210235146,1212
2864.4636871395846,1223
2866.211827946614,1312
2867.9596329617652,1239
2869.7071024906536,1246
2871.4542368389684,1242
2873.20103631248,1223
2874.947501217038,1272
2876.6936318585695,1235
2878.4394285430812,1188
2880.1848915766604,1272
2881.9300212654707,1264
2883.6748179157553,1243
2885.4192818338374,1266
2887.1634133261173,1329
2888.907212699077,1241
2890.6506802592744,1265
2892.393816313348,1279
2894.1366211680142,1250
2895.8790951300693,1275
2897.621238506388,1209
2899.363051603925,1283
2901.1045347297118,1223
2902.8456881908596,1214
2904.58651229456,1232
2906.327007348081,1256
2908.067173658772,1287
2909.8070115340597,1247
2911.5465212814497,1243
2913.285703208527,1238
2915.0245576229563,1245
2916.7630848324807,1259
2918.5012851449196,1192
2920.2391588681758,1198
2921.976706310227,1218
2923.7139277791334,1235
2925.4508235830313,1282
2927.187394030137,1279
2928.923639428745,1300
2930.6595600872306,1233
2932.395156314046,1270
2934.1304284177218,1336
2935.8653767068713,1276
2937.6000014901815,1317
2939.3343030764227,1256
2941.068281774442,1233
2942.8019378931644,1231
2944.5352717415976,1279
2946.2682836288236,1288
2948.0009738640065,1264
2949.7333427563885,1243
2951.465390615289,1296
2953.1971177501086,1236
2954.9285244703265,1295
2956.6596110855,1235
2958.3903779052657,1266
2960.1208252393385,1282
2961.8509533975125,1311
2963.5807626896617,1246
2965.3102534257378,1271
2967.0394259157715,1314
2968.768280469873,1256
2970.496817398232,1273
2972.2250370111146,1306
2973.952939618869,1243
2975.6805255319196,1302
2977.4077950607707,1292
2979.134748516006,1206
2980.861386208289,1248
2982.587708448359,1263
2984.313715547037,1207
2986.039407815222,1274
2987.764785563891,1278
2989.489849104102,1259
2991.2145987469908,1224
2992.9390348037705,1235
2994.6631575857346,1257
2996.3869674042576,1257
2998.1104645707887,1212
2999.83364939686,1224
3001.5565221940783,1240
3003.2790832741334,1242
3005.0013329487924,1243
3006.7232715298996,1175
3008.4448993293804,1241
3010.166216659239,1207
3011.887223831558,1195
3013.607921158498,1193
3015.3283089522993,1218
3017.0483875252826,1259
3018.7681571898443,1238
3020.4876182584626,1213
3022.2067710436927,1245
3023.9256158581707,1238
3025.644153014609,1229
3027.362382825801,1255
3029.0803056046193,1231
3030.797921664012,1202
3032.5152313170106,1214
3034.2322348767225,1242
3035.9489326563353,1227
3037.665324969115,1238
3039.3814121284063,1275
3041.097194447633,1234
3042.812672240299,1196
3044.5278458199855,1240
3046.2427155003525,1283
3047.9572815951406,1233
3049.671544418167,1286
3051.38550428333,1267
3053.0991615046073,1244
3054.812516396051,1271
3056.5255692717974,1239
3058.2383204460575,1241
3059.9507702331257,1243
3061.662918947372,1214
3063.3747669032446,1187
3065.0863144152736,1233
3066.7975617980674,1240
3068.508509366309,1285
3070.219157434767,1219
3071.9295063182844,1199
3073.639556331785,1253
3075.3493077902704,1226
3077.058761008821,1242
3078.7679163025964,1229
3080.476773986837,1234
3082.1853343768594,1259
3083.89359778806,1262
3085.6015645359153,1174
3087.3092349359786,1211
3089.016609303884,1235
3090.7236879553434,1252
3092.4304712061476,1238
3094.136959372166,1257
3095.843152769349,1238
3097.5490517137237,1199
3099.2546565213966,1271
3100.959967508554,1225
3102.66498499146,1249
3104.3697092864577,1248
3106.0741407099695,1237
3107.778279578498,1250
3109.482126208622,1203
3111.1856809170004,1211
3112.8889440203716,1207
3114.5919158355528,1242
3116.294596679439,1243
3117.996986869006,1229
3119.6990867213062,1217
3121.4008965534726,1237
3123.102416682717,1235
3124.803647426329,1266
3126.5045891016784,1259
3128.205242026213,1267
3129.90560651746,1246
3131.605682893025,1227
3133.3054714705922,1203
3135.0049725679282,1237
3136.7041865028714,1201
3138.4031135933465,1260
3140.101754157353,1221
3141.800108512971,1251
3143.498176978357,1212
3145.1959598717494,1190
3146.8934575114636,1246
3148.5906702158954,1273
3150.2875983035183,1245
3151.9842420928853,1187
3153.680601902627,1226
3155.376678051456,1199
3157.07247085816,1240
3158.767980641609,1236
3160.463207720748,1216
3162.158152414606,1272
3163.8528150422862,1259
3165.5471959229726,1193
3167.2412953759303,1196
3168.9351137204976,1251
3170.628651276098,1204
3172.3219083622307,1213
3174.014885298474,1229
3175.707582404485,1237
3177.4000000000005,1201
3179.092138404835,1299
3180.7839979388846,1209
3182.47557892212,1201
3184.166881674594,1246
3185.8579065164386,1202
3187.5486537678626,1235
3189.2391237491547,1242
3190.9293167806827,1275
3192.6192331828934,1204
3194.3088732763117,1244
3195.998237381542,1228
3197.687325819268,1192
3199.376138910251,1250
3201.064676975334,1208
3202.7529403354347,1202
3204.4409293115523,1233
3206.1286442247647,1155
3207.816085396229,1187
3209.5032531471825,1171
3211.190147798936,1208
3212.8767696728846,1205
3214.5631190905015,1197
3216.2491963733373,1213
3217.9350018430214,1237
3219.6205358212637,1188
3221.305798629851,1249
3222.990790590651,1210
3224.6755120256103,1175
3226.359963256751,1159
3228.0441446061795,1167
3229.7280563960758,1242
3231.411698948703,1236
3233.0950725863995,1270
3234.778177631587,1213
3236.461014406761,1213
3238.1435832345005,1200
3239.8258844374595,1213
3241.507918338374,1235
3243.1896852600576,1268
3244.8711855254023,1255
3246.552419457381,1243
3248.233387379042,1250
3249.914089613516,1249
3251.59452648401,1228
3253.274698313813,1216
3254.95460542629,1219
3256.6342481448855,1166
3258.313626793125,1186
3259.9927416946084,1224
3261.6715931730196,1169
3263.3501815521176,1161
3265.0285071557437,1148
3266.706570307815,1193
3268.3843713323286,1259
3270.0619105533615,1213
3271.739188295068,1217
3273.4162048816834,1220
3275.0929606375184,1280
3276.769455886966,1208
3278.445690954498,1267
3280.1216661646613,1223
3281.797381842087,1263
3283.4728383114807,1248
3285.1480358976296,1223
3286.8229749253996,1270
3288.4976557197333,1287
3290.172078605655,1243
3291.846243908266,1231
3293.5201519527463,1244
3295.193803064357,1244
3296.8671975684374,1178
3298.5403357904024,1210
3300.21321805575,1237
3301.8858446900567,1229
3303.558216018975,1225
3305.23033236824,1219
3306.9021940636603,1205
3308.57380143113,1292
3310.2451547966184,1219
3311.916254486174,1190
3313.5871008259246,1250
3315.2576941420766,1229
3316.9280347609147,1238
3318.5981230088046,1210
3320.2679592121895,1234
3321.9375436975924,1220
3323.606876791612,1202
3325.27595882093,1239
3326.944790112305,1210
3328.6133709925753,1213
3330.2817017886573,1230
3331.949782827547,1220
3333.617614436319,1208
3335.2851969421245,1263
3336.952530672199,1222
3338.619615953853,1263
3340.286453114475,1213
3341.9530424815357,1267
3343.619384382583,1210
3345.2854791452437,1247
3346.951327097224,1230
3348.6169285663073,1229
3350.2822838803577,1197
3351.947393367319,1208
3353.61225735521,1253
3355.2768761721345,1214
3356.9412501462693,1240
3358.605379605873,1127
3360.2692648792827,1224
3361.9329062949146,1199
3363.596304181263,1204
