CollectionTime,9/20/2024 11:27:20 AM
ExposureUsed,3
CalibratedSpectrum
-962.7078968117929,569
-959.9714848408522,582
-957.2358232597828,538
-954.5009119013725,499
-951.7667505983302,525
-949.0333391832855,545
-946.3006774887896,558
-943.5687653473143,555
-940.837602591253,538
-938.1071890529199,520
-935.3775245645503,539
-932.6486089583007,551
-929.9204420662485,499
-927.1930237203925,541
-924.4663537526524,555
-921.7404319948689,556
-919.0152582788041,580
-916.2908324361409,625
-913.5671542984834,522
-910.8442236973568,534
-908.1220404642074,544
-905.4006044304027,536
-902.679915427231,563
-899.959973285902,555
-897.2407778375464,528
-894.5223289132158,519
-891.8046263438832,506
-889.0876699604426,539
-886.3714595937089,565
-883.6559950744183,542
-880.9412762332282,535
-878.2273029007168,546
-875.5140749073835,542
-872.8015920836489,539
-870.0898542598545,493
-867.3788612662631,510
-864.6686129330585,514
-861.9591090903457,506
-859.2503495681506,513
-856.5423341964203,513
-853.8350628050229,565
-851.1285352237478,606
-848.4227512823054,606
-845.7177108103272,624
-843.0134136373656,572
-840.3098595928943,528
-837.6070485063082,596
-834.9049802069229,609
-832.2036545239757,545
-829.5030712866244,588
-826.8032303239481,615
-824.1041314649472,620
-821.4057745385428,576
-818.7081593735775,547
-816.0112857988148,562
-813.3151536429393,576
-810.6197627345566,567
-807.9251129021936,535
-805.2312039742981,560
-802.5380357792392,584
-799.8456081453069,575
-797.1539209007124,560
-794.462973873588,592
-791.772766891987,562
-789.083299783884,542
-786.3945723771743,547
-783.7065844996748,540
-781.0193359791231,554
-778.3328266431781,520
-775.6470563194197,512
-772.9620248353489,515
-770.2777320183878,559
-767.5941776958798,605
-764.9113616950891,621
-762.2292838432011,574
-759.5479439673222,528
-756.8673418944801,556
-754.1874774516235,588
-751.5083504656222,579
-748.8299607632671,568
-746.15230817127,561
-743.475392516264,590
-740.7992136248035,565
-738.1237713233636,562
-735.4490654383407,576
-732.7750957960521,577
-730.1018622227365,568
-727.4293645445534,568
-724.7576025875837,560
-722.0865761778291,533
-719.4162851412126,569
-716.7467293035781,615
-714.0779084906909,613
-711.409822528237,647
-708.7424712418238,621
-706.0758544569796,570
-703.4099719991541,578
-700.7448236937178,651
-698.0804093659622,624
-695.4167288411002,584
-692.7537819442656,563
-690.0915685005134,550
-687.4300883348199,560
-684.7693412720819,585
-682.1093271371178,629
-679.4500457546669,615
-676.7914969493897,584
-674.1336805458676,604
-671.4765963686034,603
-668.8202442420206,590
-666.1646239904642,598
-663.5097354382001,584
-660.8555784094151,587
-658.2021527282176,574
-655.5494582186366,584
-652.8974947046223,614
-650.2462620100463,612
-647.5957599587009,652
-644.9459883742998,687
-642.2969470804776,661
-639.6486359007902,636
-637.0010546587141,660
-634.3542031776476,672
-631.7080812809096,616
-629.0626887917401,627
-626.4180255333008,595
-623.7740913286734,685
-621.1308860008619,709
-618.4884093727904,699
-615.8466612673046,673
-613.2056415071715,682
-610.5653499150785,654
-607.9257863136347,688
-605.28695052537,677
-602.6488423727357,627
-600.0114616781036,639
-597.3748082637674,691
-594.7388819519412,704
-592.1036825647604,709
-589.4692099242818,680
-586.8354638524829,705
-584.2024441712624,740
-581.5701507024403,737
-578.9385832677575,779
-576.3077416888759,759
-573.6776257873787,671
-571.0482353847704,736
-568.4195703024757,697
-565.7916303618415,706
-563.164415384135,702
-560.5379251905453,764
-557.9121596021815,677
-555.2871184400748,709
-552.6628015251767,706
-550.0392086783606,688
-547.4163397204204,686
-544.794194472071,719
-542.1727727539491,745
-539.5520743866118,779
-536.9320991905377,879
-534.3128469861261,880
-531.6943175936979,879
-529.0765108334947,831
-526.4594265256793,894
-523.8430644903358,1027
-521.2274245474689,1142
-518.612506517005,1211
-515.9983102187913,1250
-513.3848354725959,1387
-510.77208209810846,1577
-508.16004991493924,1679
-505.5487387426199,1767
-502.9381484006032,1674
-500.3282787082628,1664
-497.71912948489364,1520
-495.1107005497117,1238
-492.5029917218539,1059
-489.8960028203786,949
-487.28973366426493,940
-484.68418407241325,854
-482.07935386364494,829
-479.47524285670266,851
-476.87185087025,892
-474.2691777228715,924
-471.66722323307334,888
-469.0659872192821,848
-466.4654694998459,848
-463.86566989303384,813
-461.26658821703614,825
-458.66822428996414,827
-456.07057792985,888
-453.4736489546475,876
-450.877437182231,841
-448.28194243039627,787
-445.68716451686,825
-443.09310325926003,821
-440.49975847515555,799
-437.9071299820263,784
-435.31521759727354,875
-432.72402113821954,848
-430.13354042210767,879
-427.5437752661022,847
-424.95472548728867,873
-422.36639090267386,916
-419.7787713291855,972
-417.1918665836721,965
-414.60567648290385,932
-412.0202008435715,932
-409.4354394822874,905
-406.8513922155845,918
-404.26805885991723,962
-401.685439231661,913
-399.103533147112,932
-396.522340422488,945
-393.9418608739278,838
-391.3620943174908,878
-388.7830405691583,833
-386.2046994448317,895
-383.6270707603344,818
-381.05015433141045,854
-378.473949973725,815
-375.8984575028645,812
-373.32367673433623,784
-370.74960748356875,713
-368.1762495659117,688
-365.60360279663576,660
-363.03166699093265,601
-360.4604419639154,566
-357.8899275306178,524
-355.32012350599507,560
-352.7510297049233,587
-350.1826459421999,584
-347.61497203254316,544
-345.04800779059235,622
-342.4817530309082,627
-339.91620756797226,613
-337.35137121618743,660
-334.7872437898774,741
-332.22382510328725,721
-329.66111497058273,611
-327.09911320585127,630
-324.53781962310075,610
-321.9772340362607,651
-319.4173562591816,619
-316.8581861056348,645
-314.2997233893127,645
-311.7419679238294,712
-309.1849195227194,759
-306.62857799943856,724
-304.0729431673641,669
-301.51801483979375,644
-298.963792829947,600
-296.41027695096386,595
-293.85746701590574,592
-291.3053628377552,679
-288.7539642294155,689
-286.2032710037115,624
-283.65328297338897,703
-281.1039999511146,750
-278.5554217494762,733
-276.007548180983,858
-273.4603790580651,720
-270.9139141930734,680
-268.3681533982807,723
-265.8230964858798,747
-263.27874326798565,739
-260.7350935566336,756
-258.1921471637804,809
-255.6499039013039,811
-253.10836358100266,853
-250.56752601459698,841
-248.02739101372765,840
-245.48795838995704,845
-242.94922795476816,866
-240.41119951956557,894
-237.8738728956746,849
-235.33724789434166,809
-232.80132432673452,860
-230.2661020039418,858
-227.73158073697357,893
-225.19776033676033,975
-222.66464061415422,1155
-220.1322213799284,1061
-217.60050244477725,1000
-215.06948361931552,945
-212.53916471408013,961
-210.00954553952818,908
-207.48062590603843,926
-204.9524056239104,1101
-202.4248845033651,1283
-199.8980623545441,1152
-197.37193898751036,1158
-194.84651421224817,1126
-192.32178783866232,1040
-189.79775967657952,1067
-187.27442953574644,955
-184.7517972258321,972
-182.2298625564256,1066
-179.7086253370378,1031
-177.18808537710026,1109
-174.66824248596583,1054
-172.14909647290835,1180
-169.6306471471229,1147
-167.11289431772548,1034
-164.59583779375328,1035
-162.07947738416453,1302
-159.5638128978386,1564
-157.04884414357605,1579
-154.53457093009854,1370
-152.02099306604828,1387
-149.50811035998936,1405
-146.99592262040665,1422
-144.48442965570587,1466
-141.97363127421409,1384
-139.46352728417958,1432
-136.95411749377126,1521
-134.44540171107985,1511
-131.93737974411636,1383
-129.43005140081357,1247
-126.92341648902493,1543
-124.41747481652521,1670
-121.91222619101006,2078
-119.40767042009657,2465
-116.90380731132257,2773
-114.40063667214702,3526
-111.8981583099503,4256
-109.3963720320337,5628
-106.89527764561933,6544
-104.39487495785067,7322
-101.89516377579241,8513
-99.39614390642998,11236
-96.89781515667039,15819
-94.40017733334128,21168
-91.90323024319173,27073
-89.40697369289148,29099
-86.91140748903172,21319
-84.41653143812482,13164
-81.92234534660395,8035
-79.42884902082358,7670
-76.93604226705907,12497
-74.4439248915071,17961
-71.95249670028534,20271
-69.46175749943245,18949
-66.97170709490854,17294
-64.48234529259423,14347
-61.99367189829195,12701
-59.50568671772464,11390
-57.01838955653636,10740
-54.53178022029283,11338
-52.045858514480074,13558
-49.560624244506016,14590
-47.07607721569923,15523
-44.59221723330904,18824
-42.10904410250669,22544
-39.62655762838392,26384
-37.14475761595372,32317
-34.66364387015028,43397
-32.18321619582866,48754
-29.70347439776515,50365
-27.224418280657005,57490
-24.74604764912317,59250
-22.26836230770266,57610
-19.7913620608565,65036
-17.315046712966478,65036
-14.83941606833514,65036
-12.36446993118659,65036
-9.89020810566592,65036
-7.416630395839093,65036
-4.94373660569363,65036
-2.471526539137585,65036
-6.821210263296962E-13,65036
2.47084320796705,65036
4.941003281093458,65036
7.410480415786196,65036
9.879274808531363,65036
12.347386655893956,65036
14.814816154518212,65036
17.28156350112681,65036
19.74762889252179,65036
22.21301252558385,65036
24.67771459727237,24131
27.141735304626195,7186
29.605074844762612,6576
32.06773341487792,6806
34.52971121224755,6135
36.99100843422559,5015
39.45162527824516,5048
41.91156194181792,5576
44.370818622535126,5456
46.82939551806646,5572
49.287292826160524,4514
51.74451074464503,5344
54.201049471426245,5151
56.65690920448981,3445
59.112090141899785,3723
61.56659248179983,3427
64.02041642241159,3460
66.4735621620365,3069
68.92602989905402,3225
71.37781983192338,3168
73.82893215918205,3080
76.27936707944684,2770
78.72912479141326,2570
81.17820549385567,2229
83.62660938562783,2517
86.07433666566146,2217
88.5213875329681,2094
90.96776218663751,2111
93.41346082583925,2203
95.85848364982041,2371
98.30283085790859,2362
100.7465026495089,1949
103.18949922410604,1755
105.63182078126385,1839
108.07346752062438,1740
110.51443964190923,1712
112.95473734491827,1855
115.39436082953114,1899
117.83331029570547,1604
120.27158594347827,1761
122.7091879729652,1857
125.1461165843615,1958
127.58237197794062,2149
130.01795435405518,2141
132.4528639131364,1931
134.88710085569494,1605
137.32066538231982,1486
139.75355769367923,1609
142.1857779905207,1777
144.61732647366978,1367
147.04820334403132,1160
149.47840880258934,1229
151.90794305040674,1630
154.33680628862487,2006
156.76499871846443,2073
159.19252054122433,2003
161.61937195828352,1923
164.04555317109896,1856
166.47106438120693,1875
168.89590579022217,2030
171.320077599839,2089
173.7435800118302,2254
176.16641322804742,2398
178.58857745042144,2567
181.01007288096173,2555
183.43089972175687,2332
185.85105817497413,2291
188.27054844285988,2200
190.6893707277394,2273
193.10752523201643,2345
195.5250121581745,2584
197.9418317087751,2577
200.3579840864594,2482
202.7734694939469,2503
205.18828813403627,2523
207.6024402096051,2483
210.01592592360964,2540
212.42874547908548,2437
214.84089907914665,2382
217.2523869269868,2485
219.66320922587727,2416
222.0733661791695,2432
224.48285799029293,2470
226.8916848627572,2504
229.29984700014882,2465
231.7073446061355,2467
234.11417788446204,2371
236.520347038953,2336
238.92585227351185,2409
241.33069379212054,2471
243.73487179884035,2529
246.1383864978112,2531
248.541238093252,2461
250.9434267894609,2499
253.34495279081432,2476
255.74581630176783,2419
258.1460175268563,2456
260.54555667069314,2450
262.9444339379703,2368
265.3426495334594,2550
267.7402036620107,2759
270.1370965285529,2656
272.53332833809407,2515
274.9288992957214,2443
277.32380960660055,2377
279.718059475976,2403
282.1116491091717,2461
284.5045787115897,2353
286.89684848871195,2294
289.2884586460981,2346
291.67940938938807,2340
294.0697009242996,2452
296.4593334566299,2510
298.84830719225477,2477
301.23662233712923,2397
303.6242790972866,2326
306.01127767884,2298
308.39761828798066,2275
310.78330113097934,2296
313.16832641418534,2221
315.5526943440269,2158
317.9364051270112,2059
320.3194589697242,2211
322.70185607883093,2123
325.0835966610754,2116
327.4646809232805,2170
329.8451090723478,2079
332.2248813152577,2083
334.6039978590701,2067
336.9824589109231,2117
339.36026467803447,2066
341.7374153677,1989
344.113911187295,2113
346.48975234427337,2136
348.8649390461686,2079
351.2394715005918,2080
353.61334991523415,1978
355.9865744978655,2023
358.35914545633375,2045
360.73106299856715,1952
363.10232733257146,1936
365.47293866643247,2005
367.84289720831396,1902
370.2122031664593,1958
372.5808567491905,1947
374.9488581649083,1985
377.31620762209275,1932
379.6829053293021,1936
382.0489514951745,1950
384.4143463284262,1891
386.7790900378528,1886
389.14318283232853,1923
391.50662492080653,1845
393.86941651231916,1897
396.23155781597745,1823
398.5930490409713,1827
400.9538903965696,1844
403.3140820921202,1944
405.6736243370498,1837
408.03251734086336,1886
410.3907613131465,1824
412.74835646356166,1847
415.10530300185144,1818
417.4616011378372,1791
419.81725108141893,1837
422.1722530425758,1895
424.5266072313656,1882
426.880313857925,1836
429.2333731324701,1810
431.58578526529516,1829
433.9375504667738,1769
436.2886689473588,1753
438.63914091758113,1792
440.9889665880513,1742
443.33814616945835,1787
445.68667987257015,1746
448.03456790823395,1707
450.3818104873759,1752
452.72840782100013,1793
455.07436012019105,1728
457.41966759611057,1716
459.7643304600007,1690
462.10834892318155,1787
464.4517231970525,1776
466.79445349309174,1729
469.1365400228566,1835
471.4779829979826,1853
473.81878263018564,1758
476.15893913125876,1771
478.4984527130747,1888
480.8373235875855,1859
483.17555196682144,1918
485.5131380628919,1965
487.8500820879857,1978
490.1863842543697,2045
492.52204477439034,2106
494.8570638604725,2220
497.1914417251204,2418
499.52517858091653,2727
501.85827464052306,3115
504.19073011668036,3484
506.5225452222086,3728
508.85372017000566,3912
511.18425517304956,4096
513.514150444396,4376
515.8434061971808,5256
518.1720226446176,5858
520.4999999999999,5887
522.8273384766991,5379
525.1540382881666,5069
527.480099647932,4447
529.8055227696037,3413
532.1303078668694,2633
534.454455153496,2310
536.777964843328,2037
539.1008371502907,1919
541.4230722883866,1932
543.744670471698,1833
546.0656319143858,1910
548.3859568306899,1884
550.7056454349294,1880
553.0246979415016,1847
555.3431145648834,1752
557.6608955196306,1796
559.978041020377,1732
562.2945512818363,1852
564.6104265188006,1736
566.9256669461412,1709
569.2402727788082,1821
571.5542442318302,1818
573.8675815203156,1828
576.1802848594508,1856
578.4923544645015,1795
580.8037905508126,1807
583.114593333807,1897
585.4247630289875,1874
587.7342998519354,1852
590.0432040183106,1812
592.3514757438526,1764
594.6591152443794,1821
596.9661227357875,1887
599.2724984340531,1801
601.578242555231,1744
603.8833553154542,1758
606.1878369309362,1761
608.4916876179676,1725
610.7949075929192,1782
613.0974970722403,1688
615.3994562724587,1743
617.7007854101818,1727
620.0014847020951,1732
622.3015543649641,1757
624.6009946156324,1784
626.8998056710224,1832
629.1979877481361,1782
631.4955410640538,1820
633.7924658359349,1811
636.0887622810175,1831
638.3844306166192,1824
640.6794710601358,1851
642.9738838290426,1819
645.2676691408932,1817
647.5608272133207,1792
649.853358264037,1882
652.1452625108324,1894
654.4365401715764,1872
656.7271914642178,1911
659.0172166067838,1837
661.3066158173809,1763
663.5953893141935,1868
665.8835373154867,1814
668.1710600396028,1780
670.4579577049639,1793
672.7442305300709,1805
675.0298787335033,1811
677.3149025339197,1881
679.599302150058,1822
681.8830778007342,1833
684.1662297048437,1815
686.4487580813608,1795
688.7306631493387,1760
691.0119451279091,1748
693.2926042362834,1856
695.5726406937516,1790
697.8520547196814,1873
700.1308465335215,1850
702.4090163547982,1738
704.6865644031171,1802
706.9634908981619,1753
709.2397960596965,1860
711.5154801075631,1824
713.7905432616823,1797
716.0649857420548,1788
718.3388077687592,1774
720.612009561953,1875
722.8845913418733,1823
725.1565533288352,1804
727.427895743234,1823
729.6986188055427,1757
731.9687227363137,1816
734.238207756178,1779
736.5070740858458,1821
738.7753219461066,1807
741.0429515578281,1825
743.3099631419569,1786
745.5763569195191,1847
747.8421331116193,1878
750.1072919394409,1811
752.3718336242467,1816
754.6357583873777,1763
756.8990664502545,1808
759.1617580343765,1762
761.423833361321,1840
763.6852926527457,1812
765.9461361303862,1837
768.206364016058,1852
770.4659765316536,1879
772.7249738991469,1904
774.9833563405886,1881
777.2411240781092,1906
779.4982773339183,1901
781.7548163303044,1858
784.010741289634,1902
786.2660524343538,1917
788.5207499869881,1855
790.7748341701416,1916
793.0283052064964,1808
795.2811633188143,1850
797.5334087299362,1829
799.7850416627813,1908
802.0360623403484,1906
804.2864709857143,1924
806.5362678220353,1915
808.7854530725468,1823
811.0340269605625,1902
813.2819897094754,1936
815.5293415427581,1866
817.77608268396,1894
820.0222133567116,1866
822.2677337847211,1901
824.5126441917765,1817
826.7569448017433,1817
829.0006358385675,1775
831.2437175262731,1795
833.4861900889629,1848
835.7280537508192,1873
837.9693087361026,1821
840.2099552691533,1906
842.4499935743896,1905
844.689423876309,1845
846.9282463994886,1874
849.1664613685833,1804
851.4040690083276,1802
853.6410695435349,1886
855.877463199097,1908
858.1132501999847,1892
860.3484307712487,1883
862.5830051380175,1865
864.8169735254988,1914
867.0503361589791,1863
869.2830932638243,1826
871.5152450654786,1867
873.7467917894654,1946
875.9777336613873,1850
878.2080709069252,1861
880.4378037518389,1913
882.666932421968,1847
884.8954571432301,1856
887.1233781416219,1860
889.3506956432192,1928
891.5774098741766,1846
893.803521060728,1876
896.0290294291852,1814
898.2539352059397,1894
900.4782386174619,1864
902.7019398903011,1886
904.925039251085,1923
907.147536926521,1845
909.3694331433943,1847
911.59072812857,1916
913.8114221089921,1896
916.0315153116827,1859
918.2510079637437,1801
920.4699002923547,1880
922.6881925247761,1840
924.905884888345,1865
927.1229776104793,1859
929.3394709186747,1777
931.555365040506,1819
933.7706602036275,1819
935.9853566357709,1860
938.1994545647489,1901
940.4129542184515,1935
942.6258558248488,1853
944.8381596119883,1840
947.0498658079974,1776
949.2609746410825,1905
951.4714863395287,1851
953.6814011316998,1814
955.8907192460387,1821
958.0994409110671,1812
960.3075663553858,1804
962.5150958076741,1826
964.7220294966913,1835
966.928367651274,1797
969.1341105003388,1784
971.3392582728806,1796
973.5438111979742,1771
975.747769504772,1696
977.9511334225061,1722
980.153903180487,1763
982.3560790081052,1807
984.5576611348289,1677
986.7586497902058,1759
988.9590452038618,1721
991.158847605503,1628
993.3580572249133,1702
995.5566742919558,1650
997.7546990365728,1580
999.952131688785,1643
1002.1489724786926,1568
1004.3452216364743,1591
1006.5408793923874,1577
1008.7359459767691,1552
1010.9304216200343,1554
1013.1243065526781,1461
1015.3176010052733,1587
1017.510305208472,1496
1019.7024193930064,1507
1021.8939437896848,1529
1024.0848786293977,1496
1026.2752241431122,1498
1028.4649805618747,1536
1030.6541481168115,1493
1032.842727039127,1461
1035.0307175601051,1555
1037.2181199111074,1448
1039.4049343235752,1404
1041.591161029029,1467
1043.7768002590683,1414
1045.9618522453698,1428
1048.1463172196918,1413
1050.3301954138697,1406
1052.513487059818,1471
1054.69619238953,1420
1056.8783116350783,1386
1059.0598450286152,1404
1061.2407928023704,1420
1063.4211551886528,1477
1065.6009324198508,1497
1067.780124728432,1456
1069.9587323469414,1336
1072.1367555080046,1398
1074.314194444325,1412
1076.4910493886855,1449
1078.667320573947,1412
1080.843008233051,1413
1083.0181125990161,1358
1085.1926339049414,1388
1087.3665723840027,1403
1089.5399282694575,1385
1091.7127017946405,1413
1093.8848931929647,1356
1096.0565026979243,1402
1098.2275305430899,1401
1100.3979769621128,1379
1102.567842188722,1380
1104.737126456726,1389
1106.9058300000124,1352
1109.0739530525475,1383
1111.2414958483764,1331
1113.4084586216231,1324
1115.5748416064907,1358
1117.7406450372605,1389
1119.9058691482942,1359
1122.0705141740304,1353
1124.2345803489884,1421
1126.3980679077658,1360
1128.5609770850388,1347
1130.7233081155623,1366
1132.8850612341707,1343
1135.0462366757774,1329
1137.2068346753745,1352
1139.3668554680326,1308
1141.526299288901,1330
1143.68516637321,1354
1145.8434569562655,1399
1148.001171273455,1354
1150.158309560244,1371
1152.3148720521767,1360
1154.470858984876,1352
1156.626270594044,1380
1158.7811071154629,1383
1160.9353687849912,1335
1163.089055838569,1351
1165.242168512213,1328
1167.3947070420209,1314
1169.5466716641677,1345
1171.6980626149075,1266
1173.8488801305748,1280
1175.9991244475814,1296
1178.1487958024186,1311
1180.2978944316555,1319
1182.4464205719428,1271
1184.5943744600072,1309
1186.7417563326567,1357
1188.8885664267755,1344
1191.0348049793297,1318
1193.1804722273619,1367
1195.325568407995,1337
1197.4700937584303,1275
1199.614048515948,1328
1201.7574329179074,1322
1203.900247201746,1321
1206.042491604982,1281
1208.1841663652099,1310
1210.3252717201053,1292
1212.465807907422,1394
1214.6057751649923,1357
1216.7451737307279,1321
1218.8840038426192,1310
1221.0222657387353,1405
1223.1599596572241,1304
1225.2970858363137,1307
1227.4336445143094,1307
1229.5696359295966,1314
1231.705060320639,1277
1233.8399179259786,1365
1235.9742089842384,1418
1238.107933734118,1383
1240.2410924143974,1337
1242.373685263935,1378
1244.5057125216676,1342
1246.6371744266116,1373
1248.7680712178621,1346
1250.898403134593,1314
1253.028170416058,1310
1255.1573733015875,1356
1257.2860120305932,1324
1259.4140868425648,1337
1261.54159797707,1371
1263.6685456737569,1361
1265.7949301723515,1378
1267.9207517126597,1379
1270.046010534565,1407
1272.1707068780306,1414
1274.2948409830983,1385
1276.4184130898889,1354
1278.541423438603,1380
1280.6638722695184,1379
1282.785759822993,1414
1284.9070863394636,1358
1287.0278520594447,1411
1289.1480572235314,1453
1291.2677020723963,1404
1293.3867868467923,1468
1295.5053117875495,1408
1297.623277135579,1488
1299.740683131868,1423
1301.8575300174857,1428
1303.973818033578,1387
1306.0895474213703,1490
1308.2047184221678,1443
1310.3193312773528,1496
1312.4333862283888,1383
1314.5468835168163,1469
1316.659823384255,1471
1318.7722060724045,1505
1320.8840318230418,1473
1322.9953008780249,1464
1325.1060134792888,1482
1327.2161698688478,1437
1329.3257702887959,1516
1331.4348149813054,1473
1333.5433041886276,1477
1335.6512381530933,1483
1337.7586171171101,1472
1339.8654413231675,1516
1341.9717110138317,1529
1344.0774264317488,1396
1346.1825878196432,1434
1348.2871954203192,1414
1350.3912494766587,1495
1352.4947502316231,1431
1354.5976979282532,1464
1356.7000928096686,1426
1358.8019351190665,1448
1360.9032250997243,1430
1363.0039629949988,1443
1365.1041490483235,1439
1367.2037835032133,1493
1369.3028666032606,1470
1371.401398592137,1409
1373.4993797135926,1371
1375.5968102114575,1461
1377.6936903296396,1481
1379.7900203121262,1356
1381.8858004029835,1434
1383.9810308463561,1369
1386.075711886469,1415
1388.1698437676241,1350
1390.2634267342032,1426
1392.356461030667,1411
1394.4489469015557,1455
1396.5408845914872,1436
1398.6322743451592,1443
1400.7231164073469,1424
1402.813411022907,1457
1404.903158436773,1443
1406.9923588939578,1427
1409.0810126395531,1406
1411.1691199187303,1427
1413.2566809767386,1401
1415.343696058907,1412
1417.4301654106425,1457
1419.5160892774315,1435
1421.6014679048399,1408
1423.6863015385125,1429
1425.7705904241707,1404
1427.8543348076178,1415
1429.9375349347342,1365
1432.0201910514802,1424
1434.102303403894,1427
1436.1838722380944,1459
1438.2648978002767,1409
1440.3453803367174,1404
1442.4253200937692,1405
1444.5047173178677,1400
1446.5835722555234,1461
1448.6618851533285,1404
1450.739656257952,1397
1452.8168858161434,1449
1454.8935740747306,1456
1456.96972128062,1512
1459.045327680797,1447
1461.120393522327,1516
1463.1949190523528,1508
1465.2689045180973,1431
1467.3423501668608,1428
1469.415256246024,1452
1471.4876230030463,1453
1473.559450685465,1483
1475.6307395408976,1459
1477.7014898170391,1472
1479.771701761665,1496
1481.8413756226287,1507
1483.9105116478618,1458
1485.9791100853772,1527
1488.0471711832643,1554
1490.1146951896926,1527
1492.1816823529098,1516
1494.2481329212433,1484
1496.3140471430984,1464
1498.3794252669609,1491
1500.4442675413939,1535
1502.5085742150404,1552
1504.572345536622,1583
1506.6355817549388,1557
1508.6982831188702,1555
1510.7604498773744,1584
1512.8220822794883,1573
1514.8831805743293,1555
1516.9437450110909,1548
1519.003775839048,1544
1521.0632733075522,1601
1523.1222376660367,1654
1525.1806691640113,1597
1527.2385680510652,1526
1529.2959345768668,1603
1531.3527689911643,1613
1533.4090715437833,1578
1535.4648424846291,1662
1537.5200820636855,1602
1539.5747905310159,1578
1541.6289681367616,1602
1543.6826151311434,1591
1545.7357317644614,1690
1547.7883182870937,1717
1549.8403749494987,1695
1551.8919020022113,1746
1553.9428996958477,1719
1555.9933682811015,1746
1558.0433080087469,1801
1560.0927191296346,1789
1562.1416018946961,1795
1564.1899565549415,1715
1566.2377833614592,1811
1568.2850825654164,1825
1570.3318544180606,1786
1572.3780991707158,1793
1574.423817074788,1809
1576.4690083817595,1733
1578.5136733431923,1730
1580.5578122107272,1772
1582.601425236085,1674
1584.6445126710646,1670
1586.6870747675434,1701
1588.7291117774776,1586
1590.7706239529034,1596
1592.8116115459347,1583
1594.8520748087658,1556
1596.8920139936686,1580
1598.9314293529933,1518
1600.9703211391711,1556
1603.008689604711,1531
1605.0465350022005,1543
1607.0838575843068,1509
1609.1206576037753,1507
1611.1569353134305,1448
1613.1926909661765,1450
1615.2279248149953,1489
1617.2626371129481,1435
1619.2968281131757,1381
1621.3304980688963,1352
1623.3636472334088,1427
1625.39627586009,1462
1627.428384202396,1380
1629.459972513861,1384
1631.4910410480993,1375
1633.5215900588028,1343
1635.551619799744,1310
1637.5811305247717,1382
1639.6101224878166,1340
1641.6385959428862,1306
1643.6665511440683,1328
1645.693988345528,1338
1647.7209078015112,1350
1649.7473097663405,1344
1651.7731944944203,1335
1653.7985622402307,1362
1655.823413258333,1360
1657.847747803366,1328
1659.8715661300494,1279
1661.8948684931793,1307
1663.9176551476316,1351
1665.9399263483624,1338
1667.9616823504057,1383
1669.982923408873,1306
1672.0036497789574,1262
1674.0238617159293,1277
1676.043559475138,1287
1678.0627433120121,1356
1680.081413482059,1295
1682.0995702408654,1304
1684.117213844096,1297
1686.134344547495,1325
1688.1509626068864,1331
1690.1670682781705,1273
1692.182661817329,1270
1694.1977434804217,1273
1696.2123135235875,1298
1698.226372203043,1345
1700.2399197750851,1331
1702.2529564960905,1333
1704.2654826225112,1371
1706.277498410882,1344
1708.2890041178139,1311
1710.2999999999988,1359
1712.3104863142066,1327
1714.3204633172854,1320
1716.329931266163,1344
1718.3388904178469,1295
1720.3473410294214,1320
1722.3552833580516,1269
1724.3627176609807,1292
1726.3696441955308,1363
1728.3760632191033,1295
1730.3819749891782,1312
1732.3873797633146,1314
1734.3922777991502,1317
1736.3966693544012,1294
1738.4005546868639,1324
1740.4039340544127,1298
1742.406807715001,1284
1744.4091759266616,1312
1746.4110389475054,1338
1748.4123970357223,1290
1750.413250449582,1316
1752.4135994474318,1319
1754.4134442876993,1308
1756.4127852288902,1313
1758.4116225295893,1285
1760.4099564484595,1365
1762.407787244244,1367
1764.405115175764,1358
1766.4019405019203,1328
1768.3982634816916,1257
1770.3940843741357,1331
1772.3894034383907,1349
1774.3842209336717,1312
1776.378537119274,1273
1778.372352254571,1276
1780.3656665990156,1268
1782.3584804121397,1259
1784.3507939535534,1312
1786.3426074829463,1269
1788.3339212600863,1322
1790.3247355448211,1359
1792.3150505970766,1327
1794.3048666768573,1275
1796.2941840442477,1337
1798.2830029594106,1298
1800.2713236825884,1407
1802.2591464741004,1330
1804.2464715943465,1285
1806.2332993038058,1358
1808.2196298630352,1315
1810.2054635326708,1339
1812.190800573428,1352
1814.175641246101,1280
1816.1599858115628,1277
1818.1438345307652,1338
1820.127187664738,1328
1822.1100454745924,1321
1824.092408221516,1309
1826.0742761667766,1318
1828.055649571721,1312
1830.0365286977735,1319
1832.0169138064398,1297
1833.9968051593014,1293
1835.9762030180214,1332
1837.9551076443408,1332
1839.9335193000788,1348
1841.9114382471344,1350
1843.888864747485,1323
1845.8657990631878,1262
1847.842241456378,1368
1849.8181921892697,1264
1851.7936515241558,1228
1853.7686197234098,1296
1855.7430970494815,1293
1857.7170837649014,1330
1859.6905801322787,1304
1861.6635864143004,1261
1863.6361028737338,1277
1865.608129773424,1300
1867.5796673762961,1314
1869.5507159453537,1310
1871.521275743678,1278
1873.4913470344313,1314
1875.4609300808534,1326
1877.4300251462632,1347
1879.3986324940588,1363
1881.366752387717,1320
1883.3343850907936,1347
1885.3015308669228,1336
1887.268189979819,1330
1889.2343626932739,1331
1891.2000492711595,1322
1893.1652499774254,1327
1895.1299650761011,1310
1897.0941948312952,1325
1899.0579395071945,1345
1901.0211993680641,1309
1902.98397467825,1308
1904.9462657021745,1318
1906.9080727043415,1293
1908.869395949332,1315
1910.8302357018065,1269
1912.790592226504,1283
1914.7504657882428,1286
1916.7098566519212,1334
1918.6687650825133,1314
1920.6271913450764,1314
1922.5851357047422,1268
1924.5425984267245,1337
1926.499579776314,1303
1928.4560800188833,1347
1930.4120994198802,1368
1932.367638244833,1319
1934.32269675935,1302
1936.2772752291175,1303
1938.231373919899,1291
1940.1849930975404,1246
1942.1381330279637,1280
1944.0907939771696,1333
1946.0429762112412,1299
1947.9946799963363,1252
1949.9459055986945,1297
1951.896653284633,1307
1953.8469233205478,1290
1955.7967159729142,1307
1957.7460315082863,1282
1959.6948701932974,1332
1961.6432322946594,1263
1963.5911180791632,1283
1965.5385278136787,1252
1967.4854617651545,1272
1969.4319202006182,1276
1971.377903387176,1287
1973.3234115920136,1347
1975.268445082395,1298
1977.2130041256642,1303
1979.1570889892423,1311
1981.1006999406304,1307
1983.04383724741,1307
1984.986501177238,1280
1986.928691997853,1286
1988.8704099770712,1327
1990.811655382789,1238
1992.7524284829801,1332
1994.692729545698,1325
1996.6325588390755,1348
1998.5719166313224,1303
2000.5108031907307,1303
2002.4492187856677,1274
2004.387163684583,1343
2006.3246381560011,1364
2008.2616424685298,1280
2010.1981768908527,1309
2012.1342416917332,1292
2014.069837140014,1264
2016.0049635046162,1298
2017.9396210545406,1265
2019.8738100588666,1280
2021.8075307867502,1300
2023.740783507431,1380
2025.6735684902228,1294
2027.6058860045214,1273
2029.5377363198004,1298
2031.4691197056118,1251
2033.4000364315875,1287
2035.3304867674374,1300
2037.260470982952,1280
2039.189989347998,1293
2041.1190421325232,1208
2043.047629606554,1299
2044.9757520401945,1292
2046.9034097036288,1283
2048.8306028671195,1274
2050.7573318010086,1299
2052.683596775716,1306
2054.609398061742,1229
2056.5347359296647,1284
2058.4596106501403,1322
2060.384022493906,1287
2062.3079717317764,1364
2064.231458634646,1294
2066.1544834734873,1280
2068.077046519352,1292
2069.99914804337,1253
2071.9207883167524,1251
2073.8419676107865,1261
2075.7626861968406,1304
2077.6829443463607,1312
2079.6027423308715,1283
2081.522080421977,1314
2083.440958891362,1279
2085.359378010786,1260
2087.2773380520907,1284
2089.194839287196,1284
2091.111881988101,1325
2093.0284664268825,1328
2094.9445928756973,1317
2096.86026160678,1288
2098.775472892446,1301
2100.690227005088,1298
2102.604524217178,1322
2104.5183648012676,1310
2106.431749029985,1359
2108.34467717604,1303
2110.2571495122206,1349
2112.169166311393,1300
2114.080727846503,1301
2115.9918343905747,1282
2117.902486216711,1258
2119.8126835980956,1281
2121.722426807987,1311
2123.6317161197285,1319
2125.5405518067364,1286
2127.448934142509,1335
2129.356863400624,1382
2131.264339854737,1350
2133.1713637785815,1314
2135.077935445972,1325
2136.9840551308002,1361
2138.889723107037,1348
2140.7949396487334,1319
2142.699705030018,1308
2144.6040195250994,1355
2146.507883408264,1314
2148.4112969538774,1305
2150.3142604363848,1375
2152.2167741303097,1344
2154.1188383102535,1336
2156.0204532508997,1319
2157.9216192270064,1375
2159.822336513414,1353
2161.7226053850413,1321
2163.622426116884,1373
2165.5217989840185,1391
2167.4207242616,1377
2169.319202224862,1371
2171.2172331491165,1340
2173.1148173097563,1328
2175.0119549822507,1363
2176.90864644215,1324
2178.8048919650823,1329
2180.7006918267534,1351
2182.596046302952,1334
2184.4909556695407,1421
2186.3854202024645,1369
2188.279440177746,1313
2190.173015871487,1362
2192.066147559868,1363
2193.958835519149,1356
2195.851080025667,1351
2197.7428813558417,1390
2199.6342397861667,1382
2201.5251555932186,1319
2203.415629053651,1331
2205.3056604441986,1319
2207.19525004167,1341
2209.084398122958,1410
2210.9731049650327,1416
2212.861370844941,1364
2214.749196039812,1433
2216.636580826851,1387
2218.523525483344,1432
2220.410030286655,1413
2222.296095514226,1419
2224.1817214435805,1444
2226.066908352319,1426
2227.951656518121,1378
2229.835966218746,1359
2231.71983773203,1430
2233.6032713358913,1356
2235.486267308324,1346
2237.3688259274036,1367
2239.2509474712824,1377
2241.132632218193,1432
2243.013880446447,1415
2244.8946924344323,1379
2246.7750684606203,1399
2248.6550088035574,1391
2250.534513741871,1356
2252.413583554265,1419
2254.292218519526,1426
2256.170418916517,1382
2258.0481850241786,1427
2259.925517121534,1417
2261.8024154876825,1346
2263.678880401803,1378
2265.5549121431536,1329
2267.430510991071,1397
2269.305677224971,1367
2271.180411124348,1375
2273.0547129687766,1342
2274.9285830379076,1325
2276.8020216114737,1416
2278.6750289692845,1352
2280.5476053912294,1384
2282.4197511572766,1428
2284.2914665474727,1392
2286.162751841943,1417
2288.0336073208937,1390
2289.904033264608,1423
2291.774029953448,1423
2293.6435976678554,1372
2295.5127366883517,1327
2297.381447295534,1318
2299.2497297700825,1312
2301.1175843927526,1303
2302.9850114443825,1259
2304.852011205885,1280
2306.7185839582553,1273
2308.5847299825664,1227
2310.4504495599676,1214
2312.3157429716925,1204
2314.1806104990483,1154
2316.0450524234247,1201
2317.9090690262888,1168
2319.772660589186,1163
2321.635827393742,1239
2323.498569721661,1226
2325.3608878547248,1221
2327.2227820747967,1195
2329.0842526638157,1192
2330.945299903803,1181
2332.805924076857,1168
2334.6661254651535,1194
2336.525904350951,1143
2338.3852610165827,1090
2340.244195744464,1196
2342.102708817088,1217
2343.9608005170253,1198
2345.8184711269287,1144
2347.675720929526,1174
2349.532550207628,1149
2351.38895924412,1212
2353.24494832197,1192
2355.100517724223,1181
2356.955667734004,1146
2358.810398634514,1172
2360.664710709037,1212
2362.5186042409337,1219
2364.3720795136437,1212
2366.225136810686,1190
2368.0777764156583,1213
2369.929998612237,1178
2371.7818036841777,1158
2373.633191915315,1234
2375.484163589562,1221
2377.3347189909114,1152
2379.184858403434,1143
2381.03458211128,1184
2382.8838903986775,1208
2384.732783549936,1195
2386.5812618494406,1187
2388.4293255816588,1225
2390.2769750311327,1193
2392.1242104824883,1195
2393.971032220427,1185
2395.8174405297295,1211
2397.6634356952563,1190
2399.509018001947,1192
2401.3541877348193,1161
2403.1989451789705,1215
2405.043290619576,1171
2406.8872243418905,1184
2408.730746631247,1195
2410.5738577730594,1214
2412.4165580528183,1216
2414.258847756095,1204
2416.100727168537,1251
2417.9421965758734,1173
2419.783256263912,1202
2421.623906518538,1213
2423.4641476257157,1283
2425.303979871491,1165
2427.143403541984,1218
2428.9824189233977,1216
2430.821026302012,1236
2432.6592259641866,1200
2434.497018196361,1205
2436.33440328505,1219
2438.171381516851,1227
2440.00795317844,1203
2441.844118556569,1203
2443.6798779380724,1183
2445.5152316098606,1198
2447.3501798589255,1187
2449.1847229723357,1188
2451.0188612372403,1195
2452.8525949408663,1208
2454.6859243705203,1229
2456.518849813587,1255
2458.3513715575314,1202
2460.183489889895,1238
2462.015205098301,1188
2463.8465174704493,1191
2465.67742729412,1177
2467.5079348571717,1190
2469.338040447542,1154
2471.1677443532476,1186
2472.9970468623833,1204
2474.825948263123,1179
2476.6544488437207,1186
2478.482548892508,1160
2480.310248697896,1161
2482.137548548374,1204
2483.9644487325118,1207
2485.790949538956,1180
2487.617051256433,1151
2489.44275417375,1175
2491.26805857979,1113
2493.0929647635157,1216
2494.917473013971,1235
2496.741583620276,1203
2498.5652968716304,1248
2500.3886130573137,1212
2502.2115324666834,1179
2504.0340553891765,1195
2505.856182114308,1180
2507.6779129316733,1205
2509.499248130945,1185
2511.3201880018764,1200
2513.140732834298,1211
2514.9608829181198,1266
2516.780638543331,1212
2518.6,1212
2520.418967578273,1200
2522.237541568376,1224
2524.0557222606144,1172
2525.8735099453706,1241
2527.6909049131086,1201
2529.507907454368,1213
2531.32451785977,1200
2533.140736420014,1284
2534.9565634258774,1228
2536.771999168218,1193
2538.5870439379714,1216
2540.4016980261526,1237
2542.2159617238544,1230
2544.02983532225,1250
2545.8433191125914,1262
2547.656413386209,1221
2549.4691184345115,1231
2551.2814345489874,1189
2553.093362021204,1223
2554.904901142808,1239
2556.716052205523,1219
2558.526815501153,1208
2560.3371913215824,1257
2562.147179958771,1225
2563.956781704761,1229
2565.7659968516705,1282
2567.5748256916986,1230
2569.3832685171224,1222
2571.1913256202984,1209
2572.9989972936614,1177
2574.806283829725,1222
2576.613185521084,1207
2578.4197026604074,1291
2580.2258355404483,1289
2582.031584454035,1247
2583.836949694077,1238
2585.6419315535613,1283
2587.4465303255533,1215
2589.2507463032002,1285
2591.0545797797245,1275
2592.8580310484303,1260
2594.6611004026995,1236
2596.463788135992,1253
2598.266094541849,1219
2600.0680199138874,1219
2601.869564545807,1255
2603.670728731383,1221
2605.4715127644704,1267
2607.2719169390048,1266
2609.071941548998,1253
2610.8715868885433,1295
2612.670853251811,1226
2614.469740933052,1259
2616.268250226594,1282
2618.0663814268455,1272
2619.864134828292,1281
2621.6615107255006,1249
2623.458509413115,1273
2625.2551311858597,1214
2627.0513763385347,1243
2628.8472451660223,1250
2630.6427379632833,1218
2632.4378550253564,1231
2634.232596647359,1135
2636.026963124488,1226
2637.8209547520187,1232
2639.6145718253065,1236
2641.407814639785,1227
2643.200683490966,1281
2644.9931786744414,1272
2646.7853004858807,1303
2648.577049221034,1249
2650.3684251757277,1211
2652.1594286458712,1231
2653.9500599274484,1218
2655.740319316525,1190
2657.5302071092437,1260
2659.3197236018286,1293
2661.10886909058,1205
2662.8976438718782,1210
2664.686048242183,1217
2666.4740824980327,1193
2668.2617469360443,1216
2670.0490418529134,1257
2671.8359675454153,1245
2673.622524310403,1228
2675.408712444811,1195
2677.1945322456495,1243
2678.979984010009,1228
2680.76506803506,1194
2682.5497846180497,1174
2684.334134056306,1213
2686.1181166472343,1235
2687.9017326883213,1213
2689.6849824771293,1164
2691.4678663113013,1180
2693.2503844885596,1186
2695.032537306705,1208
2696.8143250636167,1204
2698.5957480572542,1176
2700.3768065856534,1157
2702.1575009469316,1191
2703.937831439283,1269
2705.717798360982,1197
2707.4974020103837,1175
2709.276642685917,1203
2711.055520686095,1174
2712.834036309506,1215
2714.612189854819,1182
2716.389981620782,1159
2718.1674119062204,1196
2719.944481010041,1183
2721.721189231226,1183
2723.4975368688415,1200
2725.273524222027,1135
2727.0491515900053,1152
2728.824419272075,1166
2730.5993275676146,1157
2732.3738767760838,1209
2734.148067197016,1184
2735.921899130031,1205
2737.6953728748194,1133
2739.468488731156,1156
2741.2412469988926,1122
2743.0136479779617,1162
2744.785691968372,1176
2746.5573792702116,1161
2748.3287101836504,1182
2750.099685008934,1180
2751.870304046388,1157
2753.640567596418,1198
2755.4104759595057,1174
2757.1800294362156,1152
2758.949228327187,1198
2760.7180729331412,1172
2762.486563554877,1089
2764.254700493272,1139
2766.022484049284,1158
2767.789914523947,1199
2769.5569922183786,1178
2771.3237174337705,1197
2773.090090471394,1205
2774.8561116326036,1177
2776.6217812188274,1161
2778.3870995315756,1174
2780.1520668724356,1166
2781.9166835430747,1245
2783.6809498452394,1181
2785.444866080754,1209
2787.2084325515225,1178
2788.971649559527,1169
2790.73451740683,1179
2792.4970363955713,1150
2794.2592068279705,1143
2796.0210290063264,1139
2797.7825032330147,1191
2799.543629810493,1168
2801.304409041296,1162
2803.0648412280366,1157
2804.8249266734088,1158
2806.5846656801846,1188
2808.344058551212,1176
2810.1031055894246,1193
2811.8618070978273,1160
2813.6201633795085,1195
2815.378174737636,1187
2817.1358414754536,1174
2818.893163896285,1182
2820.6501423035334,1156
2822.4067770006814,1187
2824.1630682912883,1200
2825.9190164789957,1157
2827.6746218675207,1139
2829.429884760661,1220
2831.184805462294,1185
2832.9393842763743,1244
2834.693621506936,1168
2836.4475174580916,1193
2838.201072434034,1129
2839.954286739034,1138
2841.707160677441,1194
2843.459694553685,1251
2845.2118886722724,1169
2846.96374333779,1154
2848.7152588549034,1129
2850.4664355283567,1215
2852.217273662973,1187
2853.9677735636546,1209
2855.7179355353833,1240
2857.4677598832186,1153
2859.217246912299,1187
2860.9663969278427,1171
2862.715210235146,1169
2864.4636871395846,1164
2866.211827946614,1220
2867.9596329617652,1165
2869.7071024906536,1210
2871.4542368389684,1237
2873.20103631248,1161
2874.947501217038,1195
2876.6936318585695,1139
2878.4394285430812,1221
2880.1848915766604,1202
2881.9300212654707,1142
2883.6748179157553,1190
2885.4192818338374,1223
2887.1634133261173,1180
2888.907212699077,1179
2890.6506802592744,1161
2892.393816313348,1250
2894.1366211680142,1174
2895.8790951300693,1211
2897.621238506388,1173
2899.363051603925,1210
2901.1045347297118,1190
2902.8456881908596,1166
2904.58651229456,1194
2906.327007348081,1176
2908.067173658772,1185
2909.8070115340597,1165
2911.5465212814497,1200
2913.285703208527,1169
2915.0245576229563,1155
2916.7630848324807,1178
2918.5012851449196,1154
2920.2391588681758,1199
2921.976706310227,1124
2923.7139277791334,1174
2925.4508235830313,1168
2927.187394030137,1164
2928.923639428745,1187
2930.6595600872306,1139
2932.395156314046,1220
2934.1304284177218,1165
2935.8653767068713,1200
2937.6000014901815,1230
2939.3343030764227,1182
2941.068281774442,1196
2942.8019378931644,1242
2944.5352717415976,1189
2946.2682836288236,1180
2948.0009738640065,1251
2949.7333427563885,1185
2951.465390615289,1164
2953.1971177501086,1165
2954.9285244703265,1192
2956.6596110855,1167
2958.3903779052657,1182
2960.1208252393385,1142
2961.8509533975125,1206
2963.5807626896617,1187
2965.3102534257378,1233
2967.0394259157715,1173
2968.768280469873,1111
2970.496817398232,1226
2972.2250370111146,1157
2973.952939618869,1145
2975.6805255319196,1125
2977.4077950607707,1214
2979.134748516006,1198
2980.861386208289,1197
2982.587708448359,1200
2984.313715547037,1187
2986.039407815222,1138
2987.764785563891,1147
2989.489849104102,1203
2991.2145987469908,1166
2992.9390348037705,1174
2994.6631575857346,1178
2996.3869674042576,1168
2998.1104645707887,1168
2999.83364939686,1162
3001.5565221940783,1177
3003.2790832741334,1177
3005.0013329487924,1117
3006.7232715298996,1152
3008.4448993293804,1127
3010.166216659239,1156
3011.887223831558,1160
3013.607921158498,1156
3015.3283089522993,1156
3017.0483875252826,1131
3018.7681571898443,1147
3020.4876182584626,1130
3022.2067710436927,1180
3023.9256158581707,1158
3025.644153014609,1146
3027.362382825801,1177
3029.0803056046193,1159
3030.797921664012,1164
3032.5152313170106,1203
3034.2322348767225,1194
3035.9489326563353,1120
3037.665324969115,1173
3039.3814121284063,1165
3041.097194447633,1160
3042.812672240299,1163
3044.5278458199855,1170
3046.2427155003525,1146
3047.9572815951406,1157
3049.671544418167,1186
3051.38550428333,1159
3053.0991615046073,1160
3054.812516396051,1148
3056.5255692717974,1166
3058.2383204460575,1125
3059.9507702331257,1147
3061.662918947372,1155
3063.3747669032446,1166
3065.0863144152736,1184
3066.7975617980674,1130
3068.508509366309,1135
3070.219157434767,1141
3071.9295063182844,1123
3073.639556331785,1156
3075.3493077902704,1169
3077.058761008821,1097
3078.7679163025964,1144
3080.476773986837,1149
3082.1853343768594,1173
3083.89359778806,1206
3085.6015645359153,1135
3087.3092349359786,1190
3089.016609303884,1182
3090.7236879553434,1140
3092.4304712061476,1163
3094.136959372166,1136
3095.843152769349,1196
3097.5490517137237,1122
3099.2546565213966,1175
3100.959967508554,1158
3102.66498499146,1155
3104.3697092864577,1149
3106.0741407099695,1156
3107.778279578498,1159
3109.482126208622,1124
3111.1856809170004,1118
3112.8889440203716,1150
3114.5919158355528,1154
3116.294596679439,1149
3117.996986869006,1143
3119.6990867213062,1122
3121.4008965534726,1150
3123.102416682717,1169
3124.803647426329,1177
3126.5045891016784,1148
3128.205242026213,1158
3129.90560651746,1206
3131.605682893025,1159
3133.3054714705922,1160
3135.0049725679282,1165
3136.7041865028714,1113
3138.4031135933465,1132
3140.101754157353,1131
3141.800108512971,1165
3143.498176978357,1151
3145.1959598717494,1135
3146.8934575114636,1168
3148.5906702158954,1114
3150.2875983035183,1170
3151.9842420928853,1128
3153.680601902627,1114
3155.376678051456,1118
3157.07247085816,1136
3158.767980641609,1130
3160.463207720748,1110
3162.158152414606,1162
3163.8528150422862,1212
3165.5471959229726,1121
3167.2412953759303,1153
3168.9351137204976,1163
3170.628651276098,1177
3172.3219083622307,1187
3174.014885298474,1184
3175.707582404485,1156
3177.4000000000005,1225
3179.092138404835,1128
3180.7839979388846,1107
3182.47557892212,1157
3184.166881674594,1132
3185.8579065164386,1154
3187.5486537678626,1137
3189.2391237491547,1117
3190.9293167806827,1157
3192.6192331828934,1167
3194.3088732763117,1140
3195.998237381542,1135
3197.687325819268,1154
3199.376138910251,1121
3201.064676975334,1139
3202.7529403354347,1193
3204.4409293115523,1096
3206.1286442247647,1120
3207.816085396229,1131
3209.5032531471825,1179
3211.190147798936,1207
3212.8767696728846,1123
3214.5631190905015,1120
3216.2491963733373,1080
3217.9350018430214,1114
3219.6205358212637,1129
3221.305798629851,1128
3222.990790590651,1146
3224.6755120256103,1097
3226.359963256751,1100
3228.0441446061795,1080
3229.7280563960758,1145
3231.411698948703,1088
3233.0950725863995,1137
3234.778177631587,1168
3236.461014406761,1149
3238.1435832345005,1164
3239.8258844374595,1135
3241.507918338374,1116
3243.1896852600576,1145
3244.8711855254023,1180
3246.552419457381,1164
3248.233387379042,1146
3249.914089613516,1100
3251.59452648401,1145
3253.274698313813,1173
3254.95460542629,1138
3256.6342481448855,1105
3258.313626793125,1149
3259.9927416946084,1158
3261.6715931730196,1102
3263.3501815521176,1122
3265.0285071557437,1126
3266.706570307815,1112
3268.3843713323286,1128
3270.0619105533615,1129
3271.739188295068,1126
3273.4162048816834,1191
3275.0929606375184,1161
3276.769455886966,1113
3278.445690954498,1153
3280.1216661646613,1137
3281.797381842087,1146
3283.4728383114807,1170
3285.1480358976296,1158
3286.8229749253996,1110
3288.4976557197333,1158
3290.172078605655,1144
3291.846243908266,1129
3293.5201519527463,1122
3295.193803064357,1170
3296.8671975684374,1156
3298.5403357904024,1080
3300.21321805575,1164
3301.8858446900567,1136
3303.558216018975,1134
3305.23033236824,1102
3306.9021940636603,1136
3308.57380143113,1156
3310.2451547966184,1140
3311.916254486174,1132
3313.5871008259246,1123
3315.2576941420766,1116
3316.9280347609147,1119
3318.5981230088046,1182
3320.2679592121895,1130
3321.9375436975924,1172
3323.606876791612,1109
3325.27595882093,1119
3326.944790112305,1093
3328.6133709925753,1133
3330.2817017886573,1132
3331.949782827547,1117
3333.617614436319,1151
3335.2851969421245,1163
3336.952530672199,1153
3338.619615953853,1108
3340.286453114475,1113
3341.9530424815357,1159
3343.619384382583,1155
3345.2854791452437,1115
3346.951327097224,1089
3348.6169285663073,1156
3350.2822838803577,1166
3351.947393367319,1169
3353.61225735521,1168
3355.2768761721345,1136
3356.9412501462693,1192
3358.605379605873,1164
3360.2692648792827,1098
3361.9329062949146,1198
3363.596304181263,1189
