CollectionTime,9/20/2024 12:21:08 PM
ExposureUsed,3
CalibratedSpectrum
-962.7078968117929,730
-959.9714848408522,755
-957.2358232597828,730
-954.5009119013725,766
-951.7667505983302,796
-949.0333391832855,801
-946.3006774887896,788
-943.5687653473143,774
-940.837602591253,799
-938.1071890529199,785
-935.3775245645503,742
-932.6486089583007,773
-929.9204420662485,773
-927.1930237203925,771
-924.4663537526524,803
-921.7404319948689,828
-919.0152582788041,828
-916.2908324361409,812
-913.5671542984834,776
-910.8442236973568,807
-908.1220404642074,784
-905.4006044304027,755
-902.679915427231,774
-899.959973285902,747
-897.2407778375464,759
-894.5223289132158,711
-891.8046263438832,721
-889.0876699604426,762
-886.3714595937089,754
-883.6559950744183,730
-880.9412762332282,701
-878.2273029007168,718
-875.5140749073835,744
-872.8015920836489,741
-870.0898542598545,729
-867.3788612662631,711
-864.6686129330585,714
-861.9591090903457,765
-859.2503495681506,732
-856.5423341964203,765
-853.8350628050229,731
-851.1285352237478,739
-848.4227512823054,727
-845.7177108103272,754
-843.0134136373656,727
-840.3098595928943,748
-837.6070485063082,732
-834.9049802069229,749
-832.2036545239757,756
-829.5030712866244,744
-826.8032303239481,752
-824.1041314649472,750
-821.4057745385428,723
-818.7081593735775,753
-816.0112857988148,734
-813.3151536429393,741
-810.6197627345566,759
-807.9251129021936,724
-805.2312039742981,704
-802.5380357792392,739
-799.8456081453069,711
-797.1539209007124,782
-794.462973873588,769
-791.772766891987,756
-789.083299783884,796
-786.3945723771743,752
-783.7065844996748,744
-781.0193359791231,736
-778.3328266431781,744
-775.6470563194197,729
-772.9620248353489,709
-770.2777320183878,759
-767.5941776958798,784
-764.9113616950891,779
-762.2292838432011,818
-759.5479439673222,740
-756.8673418944801,760
-754.1874774516235,767
-751.5083504656222,796
-748.8299607632671,753
-746.15230817127,794
-743.475392516264,795
-740.7992136248035,779
-738.1237713233636,744
-735.4490654383407,738
-732.7750957960521,735
-730.1018622227365,766
-727.4293645445534,792
-724.7576025875837,805
-722.0865761778291,806
-719.4162851412126,772
-716.7467293035781,788
-714.0779084906909,778
-711.409822528237,796
-708.7424712418238,797
-706.0758544569796,823
-703.4099719991541,817
-700.7448236937178,812
-698.0804093659622,823
-695.4167288411002,845
-692.7537819442656,848
-690.0915685005134,806
-687.4300883348199,846
-684.7693412720819,854
-682.1093271371178,850
-679.4500457546669,832
-676.7914969493897,840
-674.1336805458676,863
-671.4765963686034,815
-668.8202442420206,833
-666.1646239904642,824
-663.5097354382001,831
-660.8555784094151,831
-658.2021527282176,829
-655.5494582186366,824
-652.8974947046223,853
-650.2462620100463,875
-647.5957599587009,878
-644.9459883742998,892
-642.2969470804776,912
-639.6486359007902,910
-637.0010546587141,846
-634.3542031776476,942
-631.7080812809096,871
-629.0626887917401,889
-626.4180255333008,890
-623.7740913286734,885
-621.1308860008619,932
-618.4884093727904,879
-615.8466612673046,909
-613.2056415071715,878
-610.5653499150785,884
-607.9257863136347,892
-605.28695052537,936
-602.6488423727357,905
-600.0114616781036,898
-597.3748082637674,943
-594.7388819519412,971
-592.1036825647604,953
-589.4692099242818,917
-586.8354638524829,886
-584.2024441712624,901
-581.5701507024403,994
-578.9385832677575,948
-576.3077416888759,936
-573.6776257873787,886
-571.0482353847704,888
-568.4195703024757,956
-565.7916303618415,911
-563.164415384135,890
-560.5379251905453,940
-557.9121596021815,956
-555.2871184400748,937
-552.6628015251767,938
-550.0392086783606,977
-547.4163397204204,1009
-544.794194472071,964
-542.1727727539491,1005
-539.5520743866118,975
-536.9320991905377,977
-534.3128469861261,968
-531.6943175936979,1004
-529.0765108334947,1013
-526.4594265256793,1107
-523.8430644903358,1271
-521.2274245474689,1481
-518.612506517005,1565
-515.9983102187913,1511
-513.3848354725959,1571
-510.77208209810846,1591
-508.16004991493924,1689
-505.5487387426199,1778
-502.9381484006032,1867
-500.3282787082628,1994
-497.71912948489364,1943
-495.1107005497117,1932
-492.5029917218539,1782
-489.8960028203786,1566
-487.28973366426493,1459
-484.68418407241325,1303
-482.07935386364494,1205
-479.47524285670266,1189
-476.87185087025,1193
-474.2691777228715,1170
-471.66722323307334,1144
-469.0659872192821,1173
-466.4654694998459,1180
-463.86566989303384,1140
-461.26658821703614,1164
-458.66822428996414,1161
-456.07057792985,1140
-453.4736489546475,1085
-450.877437182231,1156
-448.28194243039627,1106
-445.68716451686,1072
-443.09310325926003,1107
-440.49975847515555,1116
-437.9071299820263,1096
-435.31521759727354,1156
-432.72402113821954,1119
-430.13354042210767,1125
-427.5437752661022,1126
-424.95472548728867,1139
-422.36639090267386,1131
-419.7787713291855,1181
-417.1918665836721,1189
-414.60567648290385,1280
-412.0202008435715,1175
-409.4354394822874,1249
-406.8513922155845,1266
-404.26805885991723,1251
-401.685439231661,1263
-399.103533147112,1337
-396.522340422488,1233
-393.9418608739278,1231
-391.3620943174908,1156
-388.7830405691583,1159
-386.2046994448317,1158
-383.6270707603344,1089
-381.05015433141045,1047
-378.473949973725,1008
-375.8984575028645,953
-373.32367673433623,846
-370.74960748356875,842
-368.1762495659117,761
-365.60360279663576,739
-363.03166699093265,700
-360.4604419639154,631
-357.8899275306178,592
-355.32012350599507,632
-352.7510297049233,579
-350.1826459421999,610
-347.61497203254316,594
-345.04800779059235,558
-342.4817530309082,506
-339.91620756797226,557
-337.35137121618743,608
-334.7872437898774,583
-332.22382510328725,536
-329.66111497058273,587
-327.09911320585127,613
-324.53781962310075,609
-321.9772340362607,537
-319.4173562591816,557
-316.8581861056348,618
-314.2997233893127,574
-311.7419679238294,581
-309.1849195227194,575
-306.62857799943856,643
-304.0729431673641,705
-301.51801483979375,656
-298.963792829947,589
-296.41027695096386,634
-293.85746701590574,684
-291.3053628377552,642
-288.7539642294155,637
-286.2032710037115,666
-283.65328297338897,694
-281.1039999511146,747
-278.5554217494762,713
-276.007548180983,752
-273.4603790580651,751
-270.9139141930734,658
-268.3681533982807,743
-265.8230964858798,772
-263.27874326798565,780
-260.7350935566336,831
-258.1921471637804,813
-255.6499039013039,863
-253.10836358100266,862
-250.56752601459698,874
-248.02739101372765,913
-245.48795838995704,981
-242.94922795476816,964
-240.41119951956557,1059
-237.8738728956746,937
-235.33724789434166,870
-232.80132432673452,851
-230.2661020039418,820
-227.73158073697357,949
-225.19776033676033,1022
-222.66464061415422,1002
-220.1322213799284,1018
-217.60050244477725,902
-215.06948361931552,952
-212.53916471408013,1066
-210.00954553952818,1008
-207.48062590603843,904
-204.9524056239104,888
-202.4248845033651,978
-199.8980623545441,1035
-197.37193898751036,1041
-194.84651421224817,1038
-192.32178783866232,1045
-189.79775967657952,1034
-187.27442953574644,1166
-184.7517972258321,1149
-182.2298625564256,1032
-179.7086253370378,1007
-177.18808537710026,995
-174.66824248596583,1159
-172.14909647290835,1158
-169.6306471471229,1180
-167.11289431772548,1184
-164.59583779375328,1131
-162.07947738416453,1230
-159.5638128978386,1739
-157.04884414357605,1873
-154.53457093009854,1656
-152.02099306604828,1241
-149.50811035998936,1275
-146.99592262040665,1450
-144.48442965570587,1728
-141.97363127421409,1857
-139.46352728417958,1881
-136.95411749377126,1765
-134.44540171107985,1578
-131.93737974411636,1463
-129.43005140081357,1488
-126.92341648902493,1862
-124.41747481652521,2225
-121.91222619101006,2596
-119.40767042009657,2416
-116.90380731132257,1967
-114.40063667214702,2380
-111.8981583099503,3689
-109.3963720320337,6408
-106.89527764561933,10742
-104.39487495785067,13925
-101.89516377579241,16729
-99.39614390642998,19613
-96.89781515667039,25241
-94.40017733334128,31005
-91.90323024319173,32222
-89.40697369289148,23306
-86.91140748903172,14230
-84.41653143812482,11302
-81.92234534660395,16087
-79.42884902082358,24764
-76.93604226705907,29372
-74.4439248915071,25395
-71.95249670028534,19365
-69.46175749943245,14116
-66.97170709490854,10993
-64.48234529259423,10933
-61.99367189829195,10783
-59.50568671772464,9237
-57.01838955653636,9160
-54.53178022029283,10141
-52.045858514480074,10912
-49.560624244506016,12679
-47.07607721569923,14417
-44.59221723330904,13490
-42.10904410250669,14798
-39.62655762838392,19351
-37.14475761595372,26268
-34.66364387015028,31412
-32.18321619582866,36261
-29.70347439776515,38166
-27.224418280657005,37424
-24.74604764912317,39184
-22.26836230770266,51227
-19.7913620608565,65034
-17.315046712966478,65034
-14.83941606833514,65034
-12.36446993118659,65034
-9.89020810566592,65034
-7.416630395839093,65034
-4.94373660569363,65034
-2.471526539137585,65034
-6.821210263296962E-13,65034
2.47084320796705,65034
4.941003281093458,65034
7.410480415786196,65034
9.879274808531363,65034
12.347386655893956,65034
14.814816154518212,65034
17.28156350112681,65034
19.74762889252179,65034
22.21301252558385,65034
24.67771459727237,22835
27.141735304626195,8453
29.605074844762612,8128
32.06773341487792,6233
34.52971121224755,5639
36.99100843422559,4789
39.45162527824516,3733
41.91156194181792,4040
44.370818622535126,4633
46.82939551806646,3529
49.287292826160524,5987
51.74451074464503,6609
54.201049471426245,4187
56.65690920448981,3033
59.112090141899785,2737
61.56659248179983,2603
64.02041642241159,2972
66.4735621620365,3143
68.92602989905402,3746
71.37781983192338,4080
73.82893215918205,3468
76.27936707944684,2541
78.72912479141326,2494
81.17820549385567,2817
83.62660938562783,2441
86.07433666566146,1935
88.5213875329681,1729
90.96776218663751,2172
93.41346082583925,2631
95.85848364982041,2648
98.30283085790859,2533
100.7465026495089,2155
103.18949922410604,2149
105.63182078126385,1758
108.07346752062438,1812
110.51443964190923,1579
112.95473734491827,1693
115.39436082953114,1793
117.83331029570547,1817
120.27158594347827,2170
122.7091879729652,2070
125.1461165843615,1709
127.58237197794062,1583
130.01795435405518,1494
132.4528639131364,1421
134.88710085569494,1416
137.32066538231982,1782
139.75355769367923,1941
142.1857779905207,1602
144.61732647366978,1391
147.04820334403132,1295
149.47840880258934,1380
151.90794305040674,1608
154.33680628862487,1675
156.76499871846443,1801
159.19252054122433,1970
161.61937195828352,1958
164.04555317109896,2072
166.47106438120693,2305
168.89590579022217,2561
171.320077599839,2886
173.7435800118302,2881
176.16641322804742,2978
178.58857745042144,3010
181.01007288096173,3145
183.43089972175687,3071
185.85105817497413,3060
188.27054844285988,3118
190.6893707277394,3180
193.10752523201643,3242
195.5250121581745,3327
197.9418317087751,3364
200.3579840864594,3335
202.7734694939469,3389
205.18828813403627,3716
207.6024402096051,3478
210.01592592360964,3618
212.42874547908548,3615
214.84089907914665,3491
217.2523869269868,3421
219.66320922587727,3421
222.0733661791695,3409
224.48285799029293,3340
226.8916848627572,3521
229.29984700014882,3695
231.7073446061355,3592
234.11417788446204,3462
236.520347038953,3653
238.92585227351185,3820
241.33069379212054,3835
243.73487179884035,3848
246.1383864978112,3797
248.541238093252,3921
250.9434267894609,3795
253.34495279081432,3806
255.74581630176783,3827
258.1460175268563,3747
260.54555667069314,3723
262.9444339379703,3599
265.3426495334594,3655
267.7402036620107,3766
270.1370965285529,3589
272.53332833809407,3392
274.9288992957214,3288
277.32380960660055,3292
279.718059475976,3334
282.1116491091717,3281
284.5045787115897,3168
286.89684848871195,3145
289.2884586460981,3094
291.67940938938807,3155
294.0697009242996,3261
296.4593334566299,3246
298.84830719225477,3179
301.23662233712923,3045
303.6242790972866,3173
306.01127767884,3008
308.39761828798066,2914
310.78330113097934,2991
313.16832641418534,2889
315.5526943440269,2900
317.9364051270112,2841
320.3194589697242,2806
322.70185607883093,2769
325.0835966610754,2752
327.4646809232805,2681
329.8451090723478,2662
332.2248813152577,2684
334.6039978590701,2705
336.9824589109231,2737
339.36026467803447,2627
341.7374153677,2621
344.113911187295,2589
346.48975234427337,2614
348.8649390461686,2607
351.2394715005918,2628
353.61334991523415,2569
355.9865744978655,2520
358.35914545633375,2620
360.73106299856715,2614
363.10232733257146,2546
365.47293866643247,2500
367.84289720831396,2506
370.2122031664593,2475
372.5808567491905,2507
374.9488581649083,2472
377.31620762209275,2297
379.6829053293021,2506
382.0489514951745,2470
384.4143463284262,2446
386.7790900378528,2362
389.14318283232853,2403
391.50662492080653,2401
393.86941651231916,2423
396.23155781597745,2486
398.5930490409713,2642
400.9538903965696,2384
403.3140820921202,2359
405.6736243370498,2337
408.03251734086336,2332
410.3907613131465,2291
412.74835646356166,2299
415.10530300185144,2338
417.4616011378372,2383
419.81725108141893,2416
422.1722530425758,2338
424.5266072313656,2329
426.880313857925,2312
429.2333731324701,2314
431.58578526529516,2354
433.9375504667738,2402
436.2886689473588,2369
438.63914091758113,2362
440.9889665880513,2262
443.33814616945835,2270
445.68667987257015,2369
448.03456790823395,2271
450.3818104873759,2242
452.72840782100013,2309
455.07436012019105,2289
457.41966759611057,2289
459.7643304600007,2245
462.10834892318155,2262
464.4517231970525,2220
466.79445349309174,2285
469.1365400228566,2313
471.4779829979826,2264
473.81878263018564,2354
476.15893913125876,2344
478.4984527130747,2321
480.8373235875855,2407
483.17555196682144,2480
485.5131380628919,2519
487.8500820879857,2707
490.1863842543697,2797
492.52204477439034,2959
494.8570638604725,3198
497.1914417251204,3544
499.52517858091653,3768
501.85827464052306,3984
504.19073011668036,3937
506.5225452222086,3892
508.85372017000566,3882
511.18425517304956,3902
513.514150444396,4322
515.8434061971808,5415
518.1720226446176,6573
520.4999999999999,6717
522.8273384766991,6628
525.1540382881666,6078
527.480099647932,5518
529.8055227696037,4592
532.1303078668694,3443
534.454455153496,2805
536.777964843328,2557
539.1008371502907,2400
541.4230722883866,2450
543.744670471698,2473
546.0656319143858,2426
548.3859568306899,2358
550.7056454349294,2401
553.0246979415016,2383
555.3431145648834,2336
557.6608955196306,2278
559.978041020377,2221
562.2945512818363,2232
564.6104265188006,2316
566.9256669461412,2333
569.2402727788082,2297
571.5542442318302,2265
573.8675815203156,2293
576.1802848594508,2304
578.4923544645015,2252
580.8037905508126,2369
583.114593333807,2262
585.4247630289875,2337
587.7342998519354,2202
590.0432040183106,2284
592.3514757438526,2299
594.6591152443794,2328
596.9661227357875,2301
599.2724984340531,2243
601.578242555231,2356
603.8833553154542,2306
606.1878369309362,2250
608.4916876179676,2232
610.7949075929192,2242
613.0974970722403,2274
615.3994562724587,2254
617.7007854101818,2301
620.0014847020951,2260
622.3015543649641,2250
624.6009946156324,2226
626.8998056710224,2270
629.1979877481361,2288
631.4955410640538,2301
633.7924658359349,2292
636.0887622810175,2266
638.3844306166192,2327
640.6794710601358,2493
642.9738838290426,2368
645.2676691408932,2441
647.5608272133207,2331
649.853358264037,2369
652.1452625108324,2390
654.4365401715764,2396
656.7271914642178,2466
659.0172166067838,2338
661.3066158173809,2370
663.5953893141935,2404
665.8835373154867,2361
668.1710600396028,2331
670.4579577049639,2364
672.7442305300709,2406
675.0298787335033,2348
677.3149025339197,2411
679.599302150058,2331
681.8830778007342,2287
684.1662297048437,2362
686.4487580813608,2374
688.7306631493387,2407
691.0119451279091,2362
693.2926042362834,2365
695.5726406937516,2389
697.8520547196814,2389
700.1308465335215,2266
702.4090163547982,2345
704.6865644031171,2265
706.9634908981619,2315
709.2397960596965,2324
711.5154801075631,2317
713.7905432616823,2323
716.0649857420548,2289
718.3388077687592,2370
720.612009561953,2272
722.8845913418733,2407
725.1565533288352,2384
727.427895743234,2331
729.6986188055427,2367
731.9687227363137,2364
734.238207756178,2264
736.5070740858458,2428
738.7753219461066,2314
741.0429515578281,2334
743.3099631419569,2261
745.5763569195191,2301
747.8421331116193,2298
750.1072919394409,2318
752.3718336242467,2357
754.6357583873777,2311
756.8990664502545,2307
759.1617580343765,2351
761.423833361321,2352
763.6852926527457,2337
765.9461361303862,2369
768.206364016058,2210
770.4659765316536,2288
772.7249738991469,2342
774.9833563405886,2414
777.2411240781092,2373
779.4982773339183,2320
781.7548163303044,2291
784.010741289634,2291
786.2660524343538,2344
788.5207499869881,2377
790.7748341701416,2375
793.0283052064964,2428
795.2811633188143,2411
797.5334087299362,2392
799.7850416627813,2319
802.0360623403484,2427
804.2864709857143,2321
806.5362678220353,2390
808.7854530725468,2355
811.0340269605625,2382
813.2819897094754,2273
815.5293415427581,2387
817.77608268396,2411
820.0222133567116,2383
822.2677337847211,2355
824.5126441917765,2407
826.7569448017433,2401
829.0006358385675,2336
831.2437175262731,2329
833.4861900889629,2430
835.7280537508192,2437
837.9693087361026,2411
840.2099552691533,2405
842.4499935743896,2407
844.689423876309,2374
846.9282463994886,2369
849.1664613685833,2435
851.4040690083276,2287
853.6410695435349,2401
855.877463199097,2454
858.1132501999847,2452
860.3484307712487,2410
862.5830051380175,2475
864.8169735254988,2426
867.0503361589791,2444
869.2830932638243,2341
871.5152450654786,2388
873.7467917894654,2385
875.9777336613873,2421
878.2080709069252,2431
880.4378037518389,2457
882.666932421968,2448
884.8954571432301,2435
887.1233781416219,2509
889.3506956432192,2520
891.5774098741766,2455
893.803521060728,2465
896.0290294291852,2454
898.2539352059397,2437
900.4782386174619,2329
902.7019398903011,2438
904.925039251085,2528
907.147536926521,2441
909.3694331433943,2440
911.59072812857,2498
913.8114221089921,2354
916.0315153116827,2349
918.2510079637437,2414
920.4699002923547,2413
922.6881925247761,2463
924.905884888345,2368
927.1229776104793,2356
929.3394709186747,2431
931.555365040506,2513
933.7706602036275,2391
935.9853566357709,2398
938.1994545647489,2417
940.4129542184515,2439
942.6258558248488,2425
944.8381596119883,2438
947.0498658079974,2371
949.2609746410825,2374
951.4714863395287,2453
953.6814011316998,2449
955.8907192460387,2378
958.0994409110671,2397
960.3075663553858,2448
962.5150958076741,2455
964.7220294966913,2372
966.928367651274,2321
969.1341105003388,2324
971.3392582728806,2303
973.5438111979742,2331
975.747769504772,2268
977.9511334225061,2329
980.153903180487,2299
982.3560790081052,2310
984.5576611348289,2253
986.7586497902058,2238
988.9590452038618,2252
991.158847605503,2249
993.3580572249133,2238
995.5566742919558,2169
997.7546990365728,2092
999.952131688785,2092
1002.1489724786926,2043
1004.3452216364743,2013
1006.5408793923874,2108
1008.7359459767691,2087
1010.9304216200343,2110
1013.1243065526781,1942
1015.3176010052733,2042
1017.510305208472,2020
1019.7024193930064,1970
1021.8939437896848,1968
1024.0848786293977,1981
1026.2752241431122,1998
1028.4649805618747,2025
1030.6541481168115,2010
1032.842727039127,1972
1035.0307175601051,1906
1037.2181199111074,1951
1039.4049343235752,1985
1041.591161029029,2023
1043.7768002590683,1966
1045.9618522453698,1955
1048.1463172196918,1970
1050.3301954138697,1921
1052.513487059818,1941
1054.69619238953,1948
1056.8783116350783,1948
1059.0598450286152,1923
1061.2407928023704,1911
1063.4211551886528,1959
1065.6009324198508,2000
1067.780124728432,1940
1069.9587323469414,1919
1072.1367555080046,2024
1074.314194444325,1938
1076.4910493886855,1973
1078.667320573947,1929
1080.843008233051,1818
1083.0181125990161,1874
1085.1926339049414,1904
1087.3665723840027,1943
1089.5399282694575,1852
1091.7127017946405,1920
1093.8848931929647,1865
1096.0565026979243,1902
1098.2275305430899,1864
1100.3979769621128,1785
1102.567842188722,1821
1104.737126456726,1848
1106.9058300000124,1853
1109.0739530525475,1814
1111.2414958483764,1828
1113.4084586216231,1839
1115.5748416064907,1783
1117.7406450372605,1859
1119.9058691482942,1818
1122.0705141740304,1861
1124.2345803489884,1879
1126.3980679077658,1827
1128.5609770850388,1804
1130.7233081155623,1829
1132.8850612341707,1776
1135.0462366757774,1751
1137.2068346753745,1817
1139.3668554680326,1848
1141.526299288901,1779
1143.68516637321,1802
1145.8434569562655,1814
1148.001171273455,1739
1150.158309560244,1782
1152.3148720521767,1864
1154.470858984876,1750
1156.626270594044,1768
1158.7811071154629,1773
1160.9353687849912,1772
1163.089055838569,1808
1165.242168512213,1785
1167.3947070420209,1873
1169.5466716641677,1812
1171.6980626149075,1815
1173.8488801305748,1792
1175.9991244475814,1807
1178.1487958024186,1763
1180.2978944316555,1809
1182.4464205719428,1749
1184.5943744600072,1766
1186.7417563326567,1786
1188.8885664267755,1761
1191.0348049793297,1702
1193.1804722273619,1744
1195.325568407995,1769
1197.4700937584303,1828
1199.614048515948,1754
1201.7574329179074,1803
1203.900247201746,1780
1206.042491604982,1837
1208.1841663652099,1731
1210.3252717201053,1740
1212.465807907422,1799
1214.6057751649923,1869
1216.7451737307279,1853
1218.8840038426192,1780
1221.0222657387353,1781
1223.1599596572241,1903
1225.2970858363137,1743
1227.4336445143094,1854
1229.5696359295966,1833
1231.705060320639,1864
1233.8399179259786,1899
1235.9742089842384,1870
1238.107933734118,1802
1240.2410924143974,1746
1242.373685263935,1790
1244.5057125216676,1844
1246.6371744266116,1789
1248.7680712178621,1772
1250.898403134593,1927
1253.028170416058,1889
1255.1573733015875,1855
1257.2860120305932,1915
1259.4140868425648,1879
1261.54159797707,1912
1263.6685456737569,1859
1265.7949301723515,1896
1267.9207517126597,1894
1270.046010534565,1837
1272.1707068780306,1871
1274.2948409830983,1866
1276.4184130898889,1846
1278.541423438603,1911
1280.6638722695184,1927
1282.785759822993,1854
1284.9070863394636,1886
1287.0278520594447,1884
1289.1480572235314,1936
1291.2677020723963,1968
1293.3867868467923,1913
1295.5053117875495,1989
1297.623277135579,1944
1299.740683131868,1993
1301.8575300174857,2005
1303.973818033578,2040
1306.0895474213703,2086
1308.2047184221678,1990
1310.3193312773528,1997
1312.4333862283888,1989
1314.5468835168163,1965
1316.659823384255,2005
1318.7722060724045,2007
1320.8840318230418,1990
1322.9953008780249,2014
1325.1060134792888,1995
1327.2161698688478,1993
1329.3257702887959,1977
1331.4348149813054,1999
1333.5433041886276,2058
1335.6512381530933,2034
1337.7586171171101,2065
1339.8654413231675,1984
1341.9717110138317,2022
1344.0774264317488,2086
1346.1825878196432,2018
1348.2871954203192,1982
1350.3912494766587,2003
1352.4947502316231,1933
1354.5976979282532,1961
1356.7000928096686,1993
1358.8019351190665,1999
1360.9032250997243,1940
1363.0039629949988,1959
1365.1041490483235,2029
1367.2037835032133,2014
1369.3028666032606,2098
1371.401398592137,2074
1373.4993797135926,2029
1375.5968102114575,2027
1377.6936903296396,2034
1379.7900203121262,2030
1381.8858004029835,1978
1383.9810308463561,2029
1386.075711886469,2104
1388.1698437676241,2017
1390.2634267342032,2005
1392.356461030667,2030
1394.4489469015557,1991
1396.5408845914872,2124
1398.6322743451592,2087
1400.7231164073469,2060
1402.813411022907,2031
1404.903158436773,2161
1406.9923588939578,2127
1409.0810126395531,2082
1411.1691199187303,2168
1413.2566809767386,2190
1415.343696058907,2141
1417.4301654106425,2141
1419.5160892774315,2188
1421.6014679048399,2138
1423.6863015385125,2193
1425.7705904241707,2165
1427.8543348076178,2201
1429.9375349347342,2262
1432.0201910514802,2252
1434.102303403894,2284
1436.1838722380944,2272
1438.2648978002767,2348
1440.3453803367174,2375
1442.4253200937692,2382
1444.5047173178677,2431
1446.5835722555234,2515
1448.6618851533285,2496
1450.739656257952,2517
1452.8168858161434,2513
1454.8935740747306,2589
1456.96972128062,2592
1459.045327680797,2648
1461.120393522327,2757
1463.1949190523528,2767
1465.2689045180973,2789
1467.3423501668608,2815
1469.415256246024,2816
1471.4876230030463,2994
1473.559450685465,2958
1475.6307395408976,3026
1477.7014898170391,3076
1479.771701761665,3126
1481.8413756226287,3248
1483.9105116478618,3165
1485.9791100853772,3230
1488.0471711832643,3280
1490.1146951896926,3429
1492.1816823529098,3342
1494.2481329212433,3324
1496.3140471430984,3372
1498.3794252669609,3504
1500.4442675413939,3555
1502.5085742150404,3558
1504.572345536622,3538
1506.6355817549388,3539
1508.6982831188702,3649
1510.7604498773744,3574
1512.8220822794883,3765
1514.8831805743293,3746
1516.9437450110909,3743
1519.003775839048,3808
1521.0632733075522,3839
1523.1222376660367,3833
1525.1806691640113,3779
1527.2385680510652,3866
1529.2959345768668,4020
1531.3527689911643,4087
1533.4090715437833,4133
1535.4648424846291,4220
1537.5200820636855,4173
1539.5747905310159,4273
1541.6289681367616,4191
1543.6826151311434,4396
1545.7357317644614,4408
1547.7883182870937,4489
1549.8403749494987,4555
1551.8919020022113,4586
1553.9428996958477,4673
1555.9933682811015,4692
1558.0433080087469,4810
1560.0927191296346,4875
1562.1416018946961,4740
1564.1899565549415,4862
1566.2377833614592,4878
1568.2850825654164,4710
1570.3318544180606,4462
1572.3780991707158,4430
1574.423817074788,4358
1576.4690083817595,4019
1578.5136733431923,3903
1580.5578122107272,3854
1582.601425236085,3521
1584.6445126710646,3414
1586.6870747675434,3254
1588.7291117774776,3016
1590.7706239529034,3066
1592.8116115459347,2939
1594.8520748087658,2816
1596.8920139936686,2774
1598.9314293529933,2665
1600.9703211391711,2589
1603.008689604711,2443
1605.0465350022005,2512
1607.0838575843068,2398
1609.1206576037753,2349
1611.1569353134305,2335
1613.1926909661765,2265
1615.2279248149953,2171
1617.2626371129481,2202
1619.2968281131757,2167
1621.3304980688963,2108
1623.3636472334088,2125
1625.39627586009,2001
1627.428384202396,2173
1629.459972513861,2040
1631.4910410480993,2063
1633.5215900588028,2073
1635.551619799744,1990
1637.5811305247717,2006
1639.6101224878166,2020
1641.6385959428862,1948
1643.6665511440683,1938
1645.693988345528,1970
1647.7209078015112,1980
1649.7473097663405,2047
1651.7731944944203,1942
1653.7985622402307,2042
1655.823413258333,1908
1657.847747803366,1925
1659.8715661300494,1917
1661.8948684931793,1967
1663.9176551476316,2008
1665.9399263483624,1871
1667.9616823504057,1884
1669.982923408873,1895
1672.0036497789574,1953
1674.0238617159293,1861
1676.043559475138,1870
1678.0627433120121,1927
1680.081413482059,1897
1682.0995702408654,1937
1684.117213844096,1905
1686.134344547495,1859
1688.1509626068864,1947
1690.1670682781705,1912
1692.182661817329,1871
1694.1977434804217,1828
1696.2123135235875,1824
1698.226372203043,1964
1700.2399197750851,1942
1702.2529564960905,1890
1704.2654826225112,1913
1706.277498410882,1956
1708.2890041178139,1875
1710.2999999999988,1880
1712.3104863142066,1850
1714.3204633172854,1901
1716.329931266163,1879
1718.3388904178469,1814
1720.3473410294214,1840
1722.3552833580516,1909
1724.3627176609807,1833
1726.3696441955308,1887
1728.3760632191033,1879
1730.3819749891782,1734
1732.3873797633146,1867
1734.3922777991502,1840
1736.3966693544012,1810
1738.4005546868639,1807
1740.4039340544127,1810
1742.406807715001,1838
1744.4091759266616,1858
1746.4110389475054,1787
1748.4123970357223,1774
1750.413250449582,1828
1752.4135994474318,1856
1754.4134442876993,1828
1756.4127852288902,1787
1758.4116225295893,1799
1760.4099564484595,1739
1762.407787244244,1774
1764.405115175764,1786
1766.4019405019203,1777
1768.3982634816916,1773
1770.3940843741357,1791
1772.3894034383907,1722
1774.3842209336717,1739
1776.378537119274,1781
1778.372352254571,1693
1780.3656665990156,1757
1782.3584804121397,1744
1784.3507939535534,1734
1786.3426074829463,1698
1788.3339212600863,1799
1790.3247355448211,1748
1792.3150505970766,1677
1794.3048666768573,1663
1796.2941840442477,1713
1798.2830029594106,1758
1800.2713236825884,1778
1802.2591464741004,1725
1804.2464715943465,1740
1806.2332993038058,1718
1808.2196298630352,1732
1810.2054635326708,1796
1812.190800573428,1744
1814.175641246101,1764
1816.1599858115628,1742
1818.1438345307652,1746
1820.127187664738,1722
1822.1100454745924,1808
1824.092408221516,1687
1826.0742761667766,1681
1828.055649571721,1681
1830.0365286977735,1702
1832.0169138064398,1733
1833.9968051593014,1646
1835.9762030180214,1726
1837.9551076443408,1752
1839.9335193000788,1776
1841.9114382471344,1716
1843.888864747485,1694
1845.8657990631878,1656
1847.842241456378,1670
1849.8181921892697,1715
1851.7936515241558,1645
1853.7686197234098,1727
1855.7430970494815,1688
1857.7170837649014,1748
1859.6905801322787,1698
1861.6635864143004,1763
1863.6361028737338,1632
1865.608129773424,1640
1867.5796673762961,1677
1869.5507159453537,1731
1871.521275743678,1656
1873.4913470344313,1722
1875.4609300808534,1661
1877.4300251462632,1677
1879.3986324940588,1739
1881.366752387717,1730
1883.3343850907936,1700
1885.3015308669228,1682
1887.268189979819,1643
1889.2343626932739,1772
1891.2000492711595,1738
1893.1652499774254,1717
1895.1299650761011,1683
1897.0941948312952,1693
1899.0579395071945,1683
1901.0211993680641,1775
1902.98397467825,1711
1904.9462657021745,1723
1906.9080727043415,1769
1908.869395949332,1716
1910.8302357018065,1723
1912.790592226504,1706
1914.7504657882428,1702
1916.7098566519212,1713
1918.6687650825133,1682
1920.6271913450764,1757
1922.5851357047422,1701
1924.5425984267245,1702
1926.499579776314,1756
1928.4560800188833,1768
1930.4120994198802,1752
1932.367638244833,1655
1934.32269675935,1719
1936.2772752291175,1774
1938.231373919899,1765
1940.1849930975404,1728
1942.1381330279637,1656
1944.0907939771696,1660
1946.0429762112412,1696
1947.9946799963363,1729
1949.9459055986945,1736
1951.896653284633,1687
1953.8469233205478,1710
1955.7967159729142,1689
1957.7460315082863,1624
1959.6948701932974,1635
1961.6432322946594,1717
1963.5911180791632,1698
1965.5385278136787,1667
1967.4854617651545,1723
1969.4319202006182,1702
1971.377903387176,1681
1973.3234115920136,1655
1975.268445082395,1601
1977.2130041256642,1629
1979.1570889892423,1704
1981.1006999406304,1667
1983.04383724741,1654
1984.986501177238,1616
1986.928691997853,1627
1988.8704099770712,1672
1990.811655382789,1642
1992.7524284829801,1718
1994.692729545698,1670
1996.6325588390755,1660
1998.5719166313224,1656
2000.5108031907307,1616
2002.4492187856677,1620
2004.387163684583,1660
2006.3246381560011,1638
2008.2616424685298,1613
2010.1981768908527,1602
2012.1342416917332,1629
2014.069837140014,1625
2016.0049635046162,1615
2017.9396210545406,1649
2019.8738100588666,1592
2021.8075307867502,1638
2023.740783507431,1557
2025.6735684902228,1625
2027.6058860045214,1617
2029.5377363198004,1646
2031.4691197056118,1668
2033.4000364315875,1644
2035.3304867674374,1640
2037.260470982952,1579
2039.189989347998,1574
2041.1190421325232,1588
2043.047629606554,1622
2044.9757520401945,1670
2046.9034097036288,1592
2048.8306028671195,1680
2050.7573318010086,1608
2052.683596775716,1646
2054.609398061742,1638
2056.5347359296647,1678
2058.4596106501403,1606
2060.384022493906,1645
2062.3079717317764,1610
2064.231458634646,1671
2066.1544834734873,1680
2068.077046519352,1601
2069.99914804337,1571
2071.9207883167524,1617
2073.8419676107865,1651
2075.7626861968406,1601
2077.6829443463607,1656
2079.6027423308715,1579
2081.522080421977,1572
2083.440958891362,1586
2085.359378010786,1600
2087.2773380520907,1583
2089.194839287196,1601
2091.111881988101,1619
2093.0284664268825,1574
2094.9445928756973,1617
2096.86026160678,1612
2098.775472892446,1650
2100.690227005088,1595
2102.604524217178,1616
2104.5183648012676,1594
2106.431749029985,1621
2108.34467717604,1592
2110.2571495122206,1594
2112.169166311393,1566
2114.080727846503,1616
2115.9918343905747,1606
2117.902486216711,1639
2119.8126835980956,1635
2121.722426807987,1587
2123.6317161197285,1599
2125.5405518067364,1672
2127.448934142509,1664
2129.356863400624,1687
2131.264339854737,1731
2133.1713637785815,1692
2135.077935445972,1655
2136.9840551308002,1671
2138.889723107037,1624
2140.7949396487334,1648
2142.699705030018,1661
2144.6040195250994,1682
2146.507883408264,1697
2148.4112969538774,1700
2150.3142604363848,1631
2152.2167741303097,1681
2154.1188383102535,1768
2156.0204532508997,1718
2157.9216192270064,1691
2159.822336513414,1663
2161.7226053850413,1678
2163.622426116884,1657
2165.5217989840185,1657
2167.4207242616,1670
2169.319202224862,1771
2171.2172331491165,1729
2173.1148173097563,1687
2175.0119549822507,1643
2176.90864644215,1756
2178.8048919650823,1756
2180.7006918267534,1777
2182.596046302952,1725
2184.4909556695407,1741
2186.3854202024645,1717
2188.279440177746,1709
2190.173015871487,1782
2192.066147559868,1701
2193.958835519149,1771
2195.851080025667,1740
2197.7428813558417,1659
2199.6342397861667,1787
2201.5251555932186,1784
2203.415629053651,1795
2205.3056604441986,1748
2207.19525004167,1820
2209.084398122958,1797
2210.9731049650327,1831
2212.861370844941,1789
2214.749196039812,1825
2216.636580826851,1758
2218.523525483344,1773
2220.410030286655,1783
2222.296095514226,1810
2224.1817214435805,1792
2226.066908352319,1726
2227.951656518121,1730
2229.835966218746,1767
2231.71983773203,1832
2233.6032713358913,1821
2235.486267308324,1781
2237.3688259274036,1790
2239.2509474712824,1830
2241.132632218193,1820
2243.013880446447,1724
2244.8946924344323,1811
2246.7750684606203,1766
2248.6550088035574,1773
2250.534513741871,1804
2252.413583554265,1825
2254.292218519526,1801
2256.170418916517,1767
2258.0481850241786,1812
2259.925517121534,1798
2261.8024154876825,1766
2263.678880401803,1806
2265.5549121431536,1819
2267.430510991071,1801
2269.305677224971,1810
2271.180411124348,1723
2273.0547129687766,1677
2274.9285830379076,1788
2276.8020216114737,1748
2278.6750289692845,1780
2280.5476053912294,1849
2282.4197511572766,1809
2284.2914665474727,1854
2286.162751841943,1829
2288.0336073208937,1818
2289.904033264608,1855
2291.774029953448,1785
2293.6435976678554,1811
2295.5127366883517,1754
2297.381447295534,1606
2299.2497297700825,1648
2301.1175843927526,1667
2302.9850114443825,1606
2304.852011205885,1610
2306.7185839582553,1606
2308.5847299825664,1550
2310.4504495599676,1526
2312.3157429716925,1540
2314.1806104990483,1525
2316.0450524234247,1566
2317.9090690262888,1477
2319.772660589186,1559
2321.635827393742,1516
2323.498569721661,1519
2325.3608878547248,1534
2327.2227820747967,1513
2329.0842526638157,1471
2330.945299903803,1495
2332.805924076857,1496
2334.6661254651535,1524
2336.525904350951,1529
2338.3852610165827,1532
2340.244195744464,1530
2342.102708817088,1562
2343.9608005170253,1527
2345.8184711269287,1492
2347.675720929526,1557
2349.532550207628,1507
2351.38895924412,1592
2353.24494832197,1558
2355.100517724223,1472
2356.955667734004,1570
2358.810398634514,1491
2360.664710709037,1496
2362.5186042409337,1545
2364.3720795136437,1535
2366.225136810686,1526
2368.0777764156583,1538
2369.929998612237,1564
2371.7818036841777,1538
2373.633191915315,1521
2375.484163589562,1550
2377.3347189909114,1578
2379.184858403434,1607
2381.03458211128,1569
2382.8838903986775,1569
2384.732783549936,1583
2386.5812618494406,1574
2388.4293255816588,1568
2390.2769750311327,1556
2392.1242104824883,1564
2393.971032220427,1533
2395.8174405297295,1645
2397.6634356952563,1575
2399.509018001947,1534
2401.3541877348193,1587
2403.1989451789705,1579
2405.043290619576,1548
2406.8872243418905,1543
2408.730746631247,1539
2410.5738577730594,1533
2412.4165580528183,1589
2414.258847756095,1587
2416.100727168537,1563
2417.9421965758734,1597
2419.783256263912,1510
2421.623906518538,1555
2423.4641476257157,1552
2425.303979871491,1553
2427.143403541984,1544
2428.9824189233977,1581
2430.821026302012,1528
2432.6592259641866,1613
2434.497018196361,1537
2436.33440328505,1601
2438.171381516851,1641
2440.00795317844,1562
2441.844118556569,1560
2443.6798779380724,1560
2445.5152316098606,1585
2447.3501798589255,1550
2449.1847229723357,1567
2451.0188612372403,1603
2452.8525949408663,1600
2454.6859243705203,1578
2456.518849813587,1587
2458.3513715575314,1569
2460.183489889895,1565
2462.015205098301,1591
2463.8465174704493,1631
2465.67742729412,1636
2467.5079348571717,1618
2469.338040447542,1568
2471.1677443532476,1496
2472.9970468623833,1632
2474.825948263123,1565
2476.6544488437207,1626
2478.482548892508,1633
2480.310248697896,1646
2482.137548548374,1618
2483.9644487325118,1620
2485.790949538956,1667
2487.617051256433,1665
2489.44275417375,1564
2491.26805857979,1611
2493.0929647635157,1545
2494.917473013971,1644
2496.741583620276,1669
2498.5652968716304,1677
2500.3886130573137,1626
2502.2115324666834,1660
2504.0340553891765,1661
2505.856182114308,1613
2507.6779129316733,1604
2509.499248130945,1681
2511.3201880018764,1657
2513.140732834298,1636
2514.9608829181198,1701
2516.780638543331,1631
2518.6,1623
2520.418967578273,1675
2522.237541568376,1669
2524.0557222606144,1621
2525.8735099453706,1634
2527.6909049131086,1688
2529.507907454368,1724
2531.32451785977,1657
2533.140736420014,1674
2534.9565634258774,1715
2536.771999168218,1749
2538.5870439379714,1831
2540.4016980261526,1754
2542.2159617238544,1758
2544.02983532225,1756
2545.8433191125914,1793
2547.656413386209,1817
2549.4691184345115,1848
2551.2814345489874,1817
2553.093362021204,1845
2554.904901142808,1826
2556.716052205523,1849
2558.526815501153,1861
2560.3371913215824,1838
2562.147179958771,1978
2563.956781704761,1906
2565.7659968516705,1851
2567.5748256916986,1925
2569.3832685171224,1901
2571.1913256202984,1891
2572.9989972936614,1920
2574.806283829725,1991
2576.613185521084,1967
2578.4197026604074,1937
2580.2258355404483,1983
2582.031584454035,1924
2583.836949694077,1935
2585.6419315535613,2005
2587.4465303255533,2008
2589.2507463032002,1930
2591.0545797797245,1975
2592.8580310484303,1994
2594.6611004026995,2064
2596.463788135992,2013
2598.266094541849,2013
2600.0680199138874,1931
2601.869564545807,2016
2603.670728731383,2081
2605.4715127644704,1943
2607.2719169390048,1982
2609.071941548998,2030
2610.8715868885433,2018
2612.670853251811,2052
2614.469740933052,1981
2616.268250226594,2046
2618.0663814268455,2041
2619.864134828292,2015
2621.6615107255006,2047
2623.458509413115,2047
2625.2551311858597,1927
2627.0513763385347,1964
2628.8472451660223,1951
2630.6427379632833,1930
2632.4378550253564,1952
2634.232596647359,1834
2636.026963124488,1847
2637.8209547520187,1874
2639.6145718253065,1913
2641.407814639785,1934
2643.200683490966,1836
2644.9931786744414,1830
2646.7853004858807,1861
2648.577049221034,1821
2650.3684251757277,1878
2652.1594286458712,1836
2653.9500599274484,1811
2655.740319316525,1785
2657.5302071092437,1793
2659.3197236018286,1768
2661.10886909058,1730
2662.8976438718782,1740
2664.686048242183,1759
2666.4740824980327,1732
2668.2617469360443,1695
2670.0490418529134,1719
2671.8359675454153,1657
2673.622524310403,1683
2675.408712444811,1606
2677.1945322456495,1681
2678.979984010009,1648
2680.76506803506,1598
2682.5497846180497,1627
2684.334134056306,1695
2686.1181166472343,1659
2687.9017326883213,1615
2689.6849824771293,1629
2691.4678663113013,1577
2693.2503844885596,1661
2695.032537306705,1566
2696.8143250636167,1661
2698.5957480572542,1618
2700.3768065856534,1570
2702.1575009469316,1565
2703.937831439283,1553
2705.717798360982,1592
2707.4974020103837,1618
2709.276642685917,1500
2711.055520686095,1583
2712.834036309506,1537
2714.612189854819,1526
2716.389981620782,1541
2718.1674119062204,1559
2719.944481010041,1585
2721.721189231226,1579
2723.4975368688415,1522
2725.273524222027,1550
2727.0491515900053,1587
2728.824419272075,1594
2730.5993275676146,1546
2732.3738767760838,1518
2734.148067197016,1505
2735.921899130031,1476
2737.6953728748194,1507
2739.468488731156,1552
2741.2412469988926,1502
2743.0136479779617,1517
2744.785691968372,1525
2746.5573792702116,1498
2748.3287101836504,1467
2750.099685008934,1535
2751.870304046388,1523
2753.640567596418,1487
2755.4104759595057,1546
2757.1800294362156,1524
2758.949228327187,1482
2760.7180729331412,1498
2762.486563554877,1561
2764.254700493272,1491
2766.022484049284,1510
2767.789914523947,1544
2769.5569922183786,1505
2771.3237174337705,1482
2773.090090471394,1523
2774.8561116326036,1514
2776.6217812188274,1478
2778.3870995315756,1498
2780.1520668724356,1473
2781.9166835430747,1509
2783.6809498452394,1528
2785.444866080754,1475
2787.2084325515225,1488
2788.971649559527,1499
2790.73451740683,1511
2792.4970363955713,1500
2794.2592068279705,1519
2796.0210290063264,1430
2797.7825032330147,1439
2799.543629810493,1477
2801.304409041296,1509
2803.0648412280366,1466
2804.8249266734088,1531
2806.5846656801846,1492
2808.344058551212,1488
2810.1031055894246,1551
2811.8618070978273,1533
2813.6201633795085,1551
2815.378174737636,1519
2817.1358414754536,1562
2818.893163896285,1504
2820.6501423035334,1554
2822.4067770006814,1375
2824.1630682912883,1446
2825.9190164789957,1501
2827.6746218675207,1454
2829.429884760661,1447
2831.184805462294,1469
2832.9393842763743,1551
2834.693621506936,1563
2836.4475174580916,1492
2838.201072434034,1478
2839.954286739034,1495
2841.707160677441,1462
2843.459694553685,1491
2845.2118886722724,1533
2846.96374333779,1548
2848.7152588549034,1574
2850.4664355283567,1487
2852.217273662973,1484
2853.9677735636546,1509
2855.7179355353833,1557
2857.4677598832186,1554
2859.217246912299,1532
2860.9663969278427,1489
2862.715210235146,1474
2864.4636871395846,1488
2866.211827946614,1452
2867.9596329617652,1453
2869.7071024906536,1456
2871.4542368389684,1485
2873.20103631248,1469
2874.947501217038,1452
2876.6936318585695,1490
2878.4394285430812,1506
2880.1848915766604,1507
2881.9300212654707,1462
2883.6748179157553,1490
2885.4192818338374,1459
2887.1634133261173,1498
2888.907212699077,1503
2890.6506802592744,1485
2892.393816313348,1500
2894.1366211680142,1447
2895.8790951300693,1488
2897.621238506388,1477
2899.363051603925,1462
2901.1045347297118,1432
2902.8456881908596,1514
2904.58651229456,1451
2906.327007348081,1517
2908.067173658772,1560
2909.8070115340597,1532
2911.5465212814497,1521
2913.285703208527,1492
2915.0245576229563,1448
2916.7630848324807,1499
2918.5012851449196,1497
2920.2391588681758,1500
2921.976706310227,1493
2923.7139277791334,1491
2925.4508235830313,1444
2927.187394030137,1460
2928.923639428745,1523
2930.6595600872306,1511
2932.395156314046,1532
2934.1304284177218,1461
2935.8653767068713,1555
2937.6000014901815,1499
2939.3343030764227,1485
2941.068281774442,1526
2942.8019378931644,1454
2944.5352717415976,1476
2946.2682836288236,1480
2948.0009738640065,1532
2949.7333427563885,1510
2951.465390615289,1487
2953.1971177501086,1469
2954.9285244703265,1515
2956.6596110855,1522
2958.3903779052657,1500
2960.1208252393385,1516
2961.8509533975125,1484
2963.5807626896617,1465
2965.3102534257378,1459
2967.0394259157715,1489
2968.768280469873,1504
2970.496817398232,1560
2972.2250370111146,1522
2973.952939618869,1499
2975.6805255319196,1446
2977.4077950607707,1463
2979.134748516006,1541
2980.861386208289,1523
2982.587708448359,1496
2984.313715547037,1521
2986.039407815222,1494
2987.764785563891,1523
2989.489849104102,1420
2991.2145987469908,1488
2992.9390348037705,1478
2994.6631575857346,1497
2996.3869674042576,1442
2998.1104645707887,1528
2999.83364939686,1462
3001.5565221940783,1452
3003.2790832741334,1444
3005.0013329487924,1493
3006.7232715298996,1465
3008.4448993293804,1491
3010.166216659239,1448
3011.887223831558,1481
3013.607921158498,1443
3015.3283089522993,1434
3017.0483875252826,1497
3018.7681571898443,1510
3020.4876182584626,1446
3022.2067710436927,1452
3023.9256158581707,1543
3025.644153014609,1490
3027.362382825801,1540
3029.0803056046193,1470
3030.797921664012,1434
3032.5152313170106,1480
3034.2322348767225,1483
3035.9489326563353,1532
3037.665324969115,1496
3039.3814121284063,1489
3041.097194447633,1448
3042.812672240299,1440
3044.5278458199855,1468
3046.2427155003525,1454
3047.9572815951406,1467
3049.671544418167,1462
3051.38550428333,1478
3053.0991615046073,1485
3054.812516396051,1542
3056.5255692717974,1445
3058.2383204460575,1451
3059.9507702331257,1464
3061.662918947372,1514
3063.3747669032446,1517
3065.0863144152736,1487
3066.7975617980674,1519
3068.508509366309,1511
3070.219157434767,1459
3071.9295063182844,1496
3073.639556331785,1518
3075.3493077902704,1454
3077.058761008821,1477
3078.7679163025964,1484
3080.476773986837,1438
3082.1853343768594,1493
3083.89359778806,1460
3085.6015645359153,1444
3087.3092349359786,1467
3089.016609303884,1480
3090.7236879553434,1487
3092.4304712061476,1494
3094.136959372166,1521
3095.843152769349,1473
3097.5490517137237,1516
3099.2546565213966,1464
3100.959967508554,1503
3102.66498499146,1505
3104.3697092864577,1443
3106.0741407099695,1481
3107.778279578498,1434
3109.482126208622,1523
3111.1856809170004,1496
3112.8889440203716,1464
3114.5919158355528,1536
3116.294596679439,1534
3117.996986869006,1568
3119.6990867213062,1507
3121.4008965534726,1529
3123.102416682717,1481
3124.803647426329,1477
3126.5045891016784,1516
3128.205242026213,1456
3129.90560651746,1497
3131.605682893025,1469
3133.3054714705922,1505
3135.0049725679282,1512
3136.7041865028714,1501
3138.4031135933465,1463
3140.101754157353,1474
3141.800108512971,1503
3143.498176978357,1572
3145.1959598717494,1506
3146.8934575114636,1511
3148.5906702158954,1487
3150.2875983035183,1467
3151.9842420928853,1466
3153.680601902627,1530
3155.376678051456,1589
3157.07247085816,1476
3158.767980641609,1433
3160.463207720748,1494
3162.158152414606,1500
3163.8528150422862,1473
3165.5471959229726,1497
3167.2412953759303,1418
3168.9351137204976,1517
3170.628651276098,1499
3172.3219083622307,1466
3174.014885298474,1465
3175.707582404485,1525
3177.4000000000005,1428
3179.092138404835,1511
3180.7839979388846,1513
3182.47557892212,1459
3184.166881674594,1512
3185.8579065164386,1516
3187.5486537678626,1430
3189.2391237491547,1510
3190.9293167806827,1469
3192.6192331828934,1429
3194.3088732763117,1453
3195.998237381542,1398
3197.687325819268,1520
3199.376138910251,1450
3201.064676975334,1426
3202.7529403354347,1417
3204.4409293115523,1426
3206.1286442247647,1434
3207.816085396229,1450
3209.5032531471825,1416
3211.190147798936,1397
3212.8767696728846,1426
3214.5631190905015,1456
3216.2491963733373,1365
3217.9350018430214,1380
3219.6205358212637,1430
3221.305798629851,1405
3222.990790590651,1414
3224.6755120256103,1387
3226.359963256751,1391
3228.0441446061795,1391
3229.7280563960758,1414
3231.411698948703,1484
3233.0950725863995,1383
3234.778177631587,1430
3236.461014406761,1476
3238.1435832345005,1475
3239.8258844374595,1511
3241.507918338374,1460
3243.1896852600576,1459
3244.8711855254023,1466
3246.552419457381,1474
3248.233387379042,1509
3249.914089613516,1486
3251.59452648401,1456
3253.274698313813,1485
3254.95460542629,1480
3256.6342481448855,1445
3258.313626793125,1376
3259.9927416946084,1436
3261.6715931730196,1430
3263.3501815521176,1447
3265.0285071557437,1426
3266.706570307815,1379
3268.3843713323286,1429
3270.0619105533615,1377
3271.739188295068,1464
3273.4162048816834,1396
3275.0929606375184,1426
3276.769455886966,1461
3278.445690954498,1436
3280.1216661646613,1487
3281.797381842087,1493
3283.4728383114807,1482
3285.1480358976296,1475
3286.8229749253996,1455
3288.4976557197333,1434
3290.172078605655,1431
3291.846243908266,1390
3293.5201519527463,1457
3295.193803064357,1377
3296.8671975684374,1446
3298.5403357904024,1421
3300.21321805575,1478
3301.8858446900567,1405
3303.558216018975,1401
3305.23033236824,1377
3306.9021940636603,1433
3308.57380143113,1414
3310.2451547966184,1490
3311.916254486174,1453
3313.5871008259246,1450
3315.2576941420766,1398
3316.9280347609147,1460
3318.5981230088046,1427
3320.2679592121895,1431
3321.9375436975924,1377
3323.606876791612,1428
3325.27595882093,1414
3326.944790112305,1394
3328.6133709925753,1417
3330.2817017886573,1441
3331.949782827547,1417
3333.617614436319,1468
3335.2851969421245,1453
3336.952530672199,1402
3338.619615953853,1418
3340.286453114475,1470
3341.9530424815357,1469
3343.619384382583,1472
3345.2854791452437,1444
3346.951327097224,1432
3348.6169285663073,1462
3350.2822838803577,1445
3351.947393367319,1421
3353.61225735521,1422
3355.2768761721345,1376
3356.9412501462693,1431
3358.605379605873,1427
3360.2692648792827,1424
3361.9329062949146,1433
3363.596304181263,1453
