CollectionTime,9/20/2024 12:19:48 PM
ExposureUsed,3
CalibratedSpectrum
-962.7078968117929,661
-959.9714848408522,689
-957.2358232597828,694
-954.5009119013725,706
-951.7667505983302,737
-949.0333391832855,745
-946.3006774887896,732
-943.5687653473143,722
-940.837602591253,748
-938.1071890529199,736
-935.3775245645503,718
-932.6486089583007,760
-929.9204420662485,705
-927.1930237203925,719
-924.4663537526524,769
-921.7404319948689,761
-919.0152582788041,760
-916.2908324361409,775
-913.5671542984834,720
-910.8442236973568,691
-908.1220404642074,762
-905.4006044304027,720
-902.679915427231,754
-899.959973285902,694
-897.2407778375464,700
-894.5223289132158,702
-891.8046263438832,687
-889.0876699604426,707
-886.3714595937089,733
-883.6559950744183,721
-880.9412762332282,672
-878.2273029007168,673
-875.5140749073835,698
-872.8015920836489,710
-870.0898542598545,705
-867.3788612662631,700
-864.6686129330585,675
-861.9591090903457,700
-859.2503495681506,690
-856.5423341964203,681
-853.8350628050229,694
-851.1285352237478,680
-848.4227512823054,695
-845.7177108103272,670
-843.0134136373656,674
-840.3098595928943,674
-837.6070485063082,717
-834.9049802069229,700
-832.2036545239757,682
-829.5030712866244,690
-826.8032303239481,712
-824.1041314649472,711
-821.4057745385428,695
-818.7081593735775,713
-816.0112857988148,711
-813.3151536429393,689
-810.6197627345566,747
-807.9251129021936,715
-805.2312039742981,691
-802.5380357792392,719
-799.8456081453069,717
-797.1539209007124,735
-794.462973873588,766
-791.772766891987,745
-789.083299783884,727
-786.3945723771743,739
-783.7065844996748,708
-781.0193359791231,702
-778.3328266431781,697
-775.6470563194197,695
-772.9620248353489,706
-770.2777320183878,723
-767.5941776958798,709
-764.9113616950891,709
-762.2292838432011,693
-759.5479439673222,663
-756.8673418944801,689
-754.1874774516235,734
-751.5083504656222,761
-748.8299607632671,736
-746.15230817127,738
-743.475392516264,747
-740.7992136248035,744
-738.1237713233636,717
-735.4490654383407,744
-732.7750957960521,685
-730.1018622227365,705
-727.4293645445534,769
-724.7576025875837,752
-722.0865761778291,777
-719.4162851412126,810
-716.7467293035781,799
-714.0779084906909,770
-711.409822528237,752
-708.7424712418238,824
-706.0758544569796,746
-703.4099719991541,803
-700.7448236937178,809
-698.0804093659622,758
-695.4167288411002,801
-692.7537819442656,808
-690.0915685005134,846
-687.4300883348199,806
-684.7693412720819,846
-682.1093271371178,825
-679.4500457546669,789
-676.7914969493897,753
-674.1336805458676,795
-671.4765963686034,795
-668.8202442420206,823
-666.1646239904642,816
-663.5097354382001,778
-660.8555784094151,800
-658.2021527282176,809
-655.5494582186366,828
-652.8974947046223,793
-650.2462620100463,844
-647.5957599587009,841
-644.9459883742998,929
-642.2969470804776,818
-639.6486359007902,902
-637.0010546587141,865
-634.3542031776476,928
-631.7080812809096,852
-629.0626887917401,832
-626.4180255333008,831
-623.7740913286734,837
-621.1308860008619,834
-618.4884093727904,821
-615.8466612673046,844
-613.2056415071715,824
-610.5653499150785,869
-607.9257863136347,897
-605.28695052537,821
-602.6488423727357,858
-600.0114616781036,852
-597.3748082637674,931
-594.7388819519412,910
-592.1036825647604,969
-589.4692099242818,891
-586.8354638524829,845
-584.2024441712624,930
-581.5701507024403,932
-578.9385832677575,955
-576.3077416888759,978
-573.6776257873787,855
-571.0482353847704,845
-568.4195703024757,840
-565.7916303618415,834
-563.164415384135,894
-560.5379251905453,869
-557.9121596021815,846
-555.2871184400748,853
-552.6628015251767,879
-550.0392086783606,940
-547.4163397204204,960
-544.794194472071,983
-542.1727727539491,964
-539.5520743866118,946
-536.9320991905377,950
-534.3128469861261,993
-531.6943175936979,995
-529.0765108334947,1016
-526.4594265256793,1117
-523.8430644903358,1283
-521.2274245474689,1414
-518.612506517005,1537
-515.9983102187913,1554
-513.3848354725959,1609
-510.77208209810846,1643
-508.16004991493924,1660
-505.5487387426199,1824
-502.9381484006032,1914
-500.3282787082628,2031
-497.71912948489364,2028
-495.1107005497117,1921
-492.5029917218539,1809
-489.8960028203786,1674
-487.28973366426493,1469
-484.68418407241325,1272
-482.07935386364494,1252
-479.47524285670266,1176
-476.87185087025,1161
-474.2691777228715,1129
-471.66722323307334,1136
-469.0659872192821,1120
-466.4654694998459,1190
-463.86566989303384,1125
-461.26658821703614,1062
-458.66822428996414,1174
-456.07057792985,1131
-453.4736489546475,1130
-450.877437182231,1091
-448.28194243039627,1071
-445.68716451686,1091
-443.09310325926003,1106
-440.49975847515555,1077
-437.9071299820263,1075
-435.31521759727354,1172
-432.72402113821954,1114
-430.13354042210767,1082
-427.5437752661022,1086
-424.95472548728867,1086
-422.36639090267386,1200
-419.7787713291855,1245
-417.1918665836721,1137
-414.60567648290385,1194
-412.0202008435715,1206
-409.4354394822874,1315
-406.8513922155845,1182
-404.26805885991723,1142
-401.685439231661,1255
-399.103533147112,1219
-396.522340422488,1187
-393.9418608739278,1200
-391.3620943174908,1132
-388.7830405691583,1104
-386.2046994448317,1089
-383.6270707603344,1108
-381.05015433141045,1121
-378.473949973725,1021
-375.8984575028645,944
-373.32367673433623,856
-370.74960748356875,851
-368.1762495659117,760
-365.60360279663576,694
-363.03166699093265,696
-360.4604419639154,625
-357.8899275306178,634
-355.32012350599507,610
-352.7510297049233,603
-350.1826459421999,587
-347.61497203254316,563
-345.04800779059235,550
-342.4817530309082,552
-339.91620756797226,607
-337.35137121618743,616
-334.7872437898774,593
-332.22382510328725,608
-329.66111497058273,599
-327.09911320585127,586
-324.53781962310075,607
-321.9772340362607,547
-319.4173562591816,576
-316.8581861056348,570
-314.2997233893127,602
-311.7419679238294,633
-309.1849195227194,656
-306.62857799943856,690
-304.0729431673641,638
-301.51801483979375,662
-298.963792829947,624
-296.41027695096386,562
-293.85746701590574,592
-291.3053628377552,609
-288.7539642294155,696
-286.2032710037115,698
-283.65328297338897,693
-281.1039999511146,758
-278.5554217494762,760
-276.007548180983,728
-273.4603790580651,773
-270.9139141930734,766
-268.3681533982807,735
-265.8230964858798,771
-263.27874326798565,794
-260.7350935566336,798
-258.1921471637804,822
-255.6499039013039,936
-253.10836358100266,895
-250.56752601459698,778
-248.02739101372765,893
-245.48795838995704,905
-242.94922795476816,904
-240.41119951956557,999
-237.8738728956746,925
-235.33724789434166,914
-232.80132432673452,884
-230.2661020039418,849
-227.73158073697357,863
-225.19776033676033,906
-222.66464061415422,995
-220.1322213799284,1094
-217.60050244477725,952
-215.06948361931552,1024
-212.53916471408013,1138
-210.00954553952818,1083
-207.48062590603843,977
-204.9524056239104,918
-202.4248845033651,943
-199.8980623545441,917
-197.37193898751036,1075
-194.84651421224817,1097
-192.32178783866232,1051
-189.79775967657952,1136
-187.27442953574644,1183
-184.7517972258321,1323
-182.2298625564256,1096
-179.7086253370378,893
-177.18808537710026,1006
-174.66824248596583,1233
-172.14909647290835,1278
-169.6306471471229,1169
-167.11289431772548,1156
-164.59583779375328,1098
-162.07947738416453,1315
-159.5638128978386,1822
-157.04884414357605,1808
-154.53457093009854,1610
-152.02099306604828,1248
-149.50811035998936,1225
-146.99592262040665,1470
-144.48442965570587,1788
-141.97363127421409,1785
-139.46352728417958,1789
-136.95411749377126,1730
-134.44540171107985,1562
-131.93737974411636,1405
-129.43005140081357,1501
-126.92341648902493,1959
-124.41747481652521,2192
-121.91222619101006,2494
-119.40767042009657,2317
-116.90380731132257,2117
-114.40063667214702,2785
-111.8981583099503,4361
-109.3963720320337,6923
-106.89527764561933,10495
-104.39487495785067,12680
-101.89516377579241,15155
-99.39614390642998,19436
-96.89781515667039,24782
-94.40017733334128,28463
-91.90323024319173,28282
-89.40697369289148,19603
-86.91140748903172,11220
-84.41653143812482,9346
-81.92234534660395,14353
-79.42884902082358,21890
-76.93604226705907,27266
-74.4439248915071,25910
-71.95249670028534,21606
-69.46175749943245,15646
-66.97170709490854,10936
-64.48234529259423,10073
-61.99367189829195,10824
-59.50568671772464,10583
-57.01838955653636,11391
-54.53178022029283,13551
-52.045858514480074,13428
-49.560624244506016,15748
-47.07607721569923,15931
-44.59221723330904,15740
-42.10904410250669,16706
-39.62655762838392,19957
-37.14475761595372,25722
-34.66364387015028,29127
-32.18321619582866,28701
-29.70347439776515,30651
-27.224418280657005,34475
-24.74604764912317,37604
-22.26836230770266,51099
-19.7913620608565,65033
-17.315046712966478,65033
-14.83941606833514,65033
-12.36446993118659,65033
-9.89020810566592,65033
-7.416630395839093,65033
-4.94373660569363,65033
-2.471526539137585,65033
-6.821210263296962E-13,65033
2.47084320796705,65033
4.941003281093458,65033
7.410480415786196,65033
9.879274808531363,65033
12.347386655893956,65033
14.814816154518212,65033
17.28156350112681,65033
19.74762889252179,65033
22.21301252558385,28689
24.67771459727237,8410
27.141735304626195,7667
29.605074844762612,7178
32.06773341487792,5202
34.52971121224755,4972
36.99100843422559,5377
39.45162527824516,4469
41.91156194181792,4151
44.370818622535126,4262
46.82939551806646,3388
49.287292826160524,5867
51.74451074464503,6179
54.201049471426245,4409
56.65690920448981,3196
59.112090141899785,2623
61.56659248179983,2421
64.02041642241159,2829
66.4735621620365,3073
68.92602989905402,3476
71.37781983192338,3805
73.82893215918205,3200
76.27936707944684,2400
78.72912479141326,2451
81.17820549385567,2145
83.62660938562783,1972
86.07433666566146,1712
88.5213875329681,1824
90.96776218663751,2165
93.41346082583925,2254
95.85848364982041,2513
98.30283085790859,2349
100.7465026495089,1948
103.18949922410604,1683
105.63182078126385,1525
108.07346752062438,1837
110.51443964190923,1627
112.95473734491827,1736
115.39436082953114,1636
117.83331029570547,1807
120.27158594347827,2295
122.7091879729652,1987
125.1461165843615,1807
127.58237197794062,1531
130.01795435405518,1468
132.4528639131364,1550
134.88710085569494,1616
137.32066538231982,1673
139.75355769367923,1607
142.1857779905207,1563
144.61732647366978,1281
147.04820334403132,1282
149.47840880258934,1328
151.90794305040674,1517
154.33680628862487,1507
156.76499871846443,1626
159.19252054122433,1828
161.61937195828352,2069
164.04555317109896,2124
166.47106438120693,2386
168.89590579022217,2553
171.320077599839,2809
173.7435800118302,2899
176.16641322804742,2952
178.58857745042144,3026
181.01007288096173,3033
183.43089972175687,3042
185.85105817497413,3114
188.27054844285988,3124
190.6893707277394,3070
193.10752523201643,3234
195.5250121581745,3244
197.9418317087751,3347
200.3579840864594,3325
202.7734694939469,3507
205.18828813403627,3653
207.6024402096051,3449
210.01592592360964,3479
212.42874547908548,3488
214.84089907914665,3409
217.2523869269868,3324
219.66320922587727,3369
222.0733661791695,3368
224.48285799029293,3475
226.8916848627572,3352
229.29984700014882,3579
231.7073446061355,3595
234.11417788446204,3547
236.520347038953,3642
238.92585227351185,3638
241.33069379212054,3759
243.73487179884035,3810
246.1383864978112,3763
248.541238093252,3873
250.9434267894609,3836
253.34495279081432,3752
255.74581630176783,3719
258.1460175268563,3787
260.54555667069314,3782
262.9444339379703,3761
265.3426495334594,3753
267.7402036620107,3755
270.1370965285529,3506
272.53332833809407,3389
274.9288992957214,3313
277.32380960660055,3299
279.718059475976,3247
282.1116491091717,3190
284.5045787115897,3107
286.89684848871195,3010
289.2884586460981,3133
291.67940938938807,3286
294.0697009242996,3233
296.4593334566299,3137
298.84830719225477,3221
301.23662233712923,3197
303.6242790972866,3021
306.01127767884,3179
308.39761828798066,3133
310.78330113097934,2928
313.16832641418534,2794
315.5526943440269,2792
317.9364051270112,2863
320.3194589697242,2772
322.70185607883093,2843
325.0835966610754,2861
327.4646809232805,2658
329.8451090723478,2756
332.2248813152577,2652
334.6039978590701,2704
336.9824589109231,2749
339.36026467803447,2667
341.7374153677,2551
344.113911187295,2587
346.48975234427337,2574
348.8649390461686,2647
351.2394715005918,2578
353.61334991523415,2477
355.9865744978655,2503
358.35914545633375,2560
360.73106299856715,2629
363.10232733257146,2547
365.47293866643247,2491
367.84289720831396,2502
370.2122031664593,2474
372.5808567491905,2431
374.9488581649083,2428
377.31620762209275,2349
379.6829053293021,2414
382.0489514951745,2432
384.4143463284262,2444
386.7790900378528,2433
389.14318283232853,2451
391.50662492080653,2449
393.86941651231916,2473
396.23155781597745,2488
398.5930490409713,2561
400.9538903965696,2403
403.3140820921202,2393
405.6736243370498,2403
408.03251734086336,2308
410.3907613131465,2312
412.74835646356166,2312
415.10530300185144,2326
417.4616011378372,2404
419.81725108141893,2397
422.1722530425758,2363
424.5266072313656,2292
426.880313857925,2339
429.2333731324701,2322
431.58578526529516,2220
433.9375504667738,2331
436.2886689473588,2265
438.63914091758113,2258
440.9889665880513,2277
443.33814616945835,2309
445.68667987257015,2266
448.03456790823395,2275
450.3818104873759,2264
452.72840782100013,2197
455.07436012019105,2213
457.41966759611057,2295
459.7643304600007,2319
462.10834892318155,2226
464.4517231970525,2327
466.79445349309174,2295
469.1365400228566,2343
471.4779829979826,2336
473.81878263018564,2270
476.15893913125876,2399
478.4984527130747,2395
480.8373235875855,2424
483.17555196682144,2603
485.5131380628919,2602
487.8500820879857,2653
490.1863842543697,2940
492.52204477439034,3100
494.8570638604725,3242
497.1914417251204,3676
499.52517858091653,3922
501.85827464052306,3962
504.19073011668036,4126
506.5225452222086,4041
508.85372017000566,4053
511.18425517304956,3975
513.514150444396,4352
515.8434061971808,5663
518.1720226446176,6746
520.4999999999999,6995
522.8273384766991,6685
525.1540382881666,6296
527.480099647932,5590
529.8055227696037,4696
532.1303078668694,3421
534.454455153496,2869
536.777964843328,2565
539.1008371502907,2506
541.4230722883866,2465
543.744670471698,2414
546.0656319143858,2389
548.3859568306899,2381
550.7056454349294,2306
553.0246979415016,2281
555.3431145648834,2345
557.6608955196306,2267
559.978041020377,2189
562.2945512818363,2266
564.6104265188006,2421
566.9256669461412,2273
569.2402727788082,2213
571.5542442318302,2221
573.8675815203156,2251
576.1802848594508,2314
578.4923544645015,2297
580.8037905508126,2356
583.114593333807,2347
585.4247630289875,2327
587.7342998519354,2332
590.0432040183106,2403
592.3514757438526,2308
594.6591152443794,2351
596.9661227357875,2303
599.2724984340531,2349
601.578242555231,2385
603.8833553154542,2211
606.1878369309362,2217
608.4916876179676,2363
610.7949075929192,2402
613.0974970722403,2289
615.3994562724587,2274
617.7007854101818,2262
620.0014847020951,2371
622.3015543649641,2308
624.6009946156324,2270
626.8998056710224,2323
629.1979877481361,2301
631.4955410640538,2338
633.7924658359349,2282
636.0887622810175,2295
638.3844306166192,2416
640.6794710601358,2325
642.9738838290426,2396
645.2676691408932,2371
647.5608272133207,2406
649.853358264037,2415
652.1452625108324,2450
654.4365401715764,2468
656.7271914642178,2436
659.0172166067838,2476
661.3066158173809,2427
663.5953893141935,2433
665.8835373154867,2387
668.1710600396028,2412
670.4579577049639,2317
672.7442305300709,2449
675.0298787335033,2440
677.3149025339197,2385
679.599302150058,2314
681.8830778007342,2325
684.1662297048437,2387
686.4487580813608,2389
688.7306631493387,2429
691.0119451279091,2342
693.2926042362834,2303
695.5726406937516,2250
697.8520547196814,2379
700.1308465335215,2342
702.4090163547982,2316
704.6865644031171,2305
706.9634908981619,2329
709.2397960596965,2358
711.5154801075631,2429
713.7905432616823,2317
716.0649857420548,2266
718.3388077687592,2352
720.612009561953,2354
722.8845913418733,2302
725.1565533288352,2249
727.427895743234,2363
729.6986188055427,2353
731.9687227363137,2318
734.238207756178,2309
736.5070740858458,2356
738.7753219461066,2390
741.0429515578281,2353
743.3099631419569,2337
745.5763569195191,2284
747.8421331116193,2285
750.1072919394409,2342
752.3718336242467,2373
754.6357583873777,2296
756.8990664502545,2366
759.1617580343765,2285
761.423833361321,2288
763.6852926527457,2414
765.9461361303862,2325
768.206364016058,2385
770.4659765316536,2323
772.7249738991469,2393
774.9833563405886,2293
777.2411240781092,2364
779.4982773339183,2335
781.7548163303044,2310
784.010741289634,2399
786.2660524343538,2446
788.5207499869881,2381
790.7748341701416,2456
793.0283052064964,2553
795.2811633188143,2452
797.5334087299362,2303
799.7850416627813,2322
802.0360623403484,2385
804.2864709857143,2449
806.5362678220353,2437
808.7854530725468,2436
811.0340269605625,2345
813.2819897094754,2309
815.5293415427581,2371
817.77608268396,2359
820.0222133567116,2314
822.2677337847211,2320
824.5126441917765,2355
826.7569448017433,2315
829.0006358385675,2385
831.2437175262731,2470
833.4861900889629,2367
835.7280537508192,2363
837.9693087361026,2323
840.2099552691533,2358
842.4499935743896,2448
844.689423876309,2424
846.9282463994886,2444
849.1664613685833,2359
851.4040690083276,2363
853.6410695435349,2391
855.877463199097,2332
858.1132501999847,2347
860.3484307712487,2417
862.5830051380175,2433
864.8169735254988,2458
867.0503361589791,2409
869.2830932638243,2393
871.5152450654786,2394
873.7467917894654,2396
875.9777336613873,2439
878.2080709069252,2442
880.4378037518389,2447
882.666932421968,2514
884.8954571432301,2494
887.1233781416219,2477
889.3506956432192,2482
891.5774098741766,2428
893.803521060728,2461
896.0290294291852,2495
898.2539352059397,2503
900.4782386174619,2424
902.7019398903011,2404
904.925039251085,2378
907.147536926521,2449
909.3694331433943,2450
911.59072812857,2511
913.8114221089921,2471
916.0315153116827,2426
918.2510079637437,2406
920.4699002923547,2380
922.6881925247761,2473
924.905884888345,2297
927.1229776104793,2439
929.3394709186747,2367
931.555365040506,2354
933.7706602036275,2379
935.9853566357709,2429
938.1994545647489,2431
940.4129542184515,2453
942.6258558248488,2459
944.8381596119883,2416
947.0498658079974,2398
949.2609746410825,2406
951.4714863395287,2402
953.6814011316998,2296
955.8907192460387,2419
958.0994409110671,2326
960.3075663553858,2401
962.5150958076741,2419
964.7220294966913,2411
966.928367651274,2420
969.1341105003388,2450
971.3392582728806,2385
973.5438111979742,2393
975.747769504772,2328
977.9511334225061,2312
980.153903180487,2296
982.3560790081052,2333
984.5576611348289,2314
986.7586497902058,2186
988.9590452038618,2287
991.158847605503,2207
993.3580572249133,2249
995.5566742919558,2114
997.7546990365728,2035
999.952131688785,2075
1002.1489724786926,2078
1004.3452216364743,2054
1006.5408793923874,2038
1008.7359459767691,1972
1010.9304216200343,2049
1013.1243065526781,1986
1015.3176010052733,1969
1017.510305208472,1976
1019.7024193930064,1874
1021.8939437896848,2008
1024.0848786293977,1966
1026.2752241431122,1939
1028.4649805618747,1956
1030.6541481168115,2063
1032.842727039127,2005
1035.0307175601051,2061
1037.2181199111074,1972
1039.4049343235752,1896
1041.591161029029,1921
1043.7768002590683,1948
1045.9618522453698,1901
1048.1463172196918,1956
1050.3301954138697,1967
1052.513487059818,1889
1054.69619238953,1921
1056.8783116350783,1847
1059.0598450286152,1882
1061.2407928023704,1837
1063.4211551886528,1935
1065.6009324198508,1863
1067.780124728432,1949
1069.9587323469414,1953
1072.1367555080046,1826
1074.314194444325,1862
1076.4910493886855,1870
1078.667320573947,1800
1080.843008233051,1779
1083.0181125990161,1884
1085.1926339049414,1856
1087.3665723840027,1959
1089.5399282694575,1912
1091.7127017946405,1835
1093.8848931929647,1815
1096.0565026979243,1843
1098.2275305430899,1854
1100.3979769621128,1820
1102.567842188722,1749
1104.737126456726,1751
1106.9058300000124,1809
1109.0739530525475,1789
1111.2414958483764,1793
1113.4084586216231,1801
1115.5748416064907,1731
1117.7406450372605,1700
1119.9058691482942,1759
1122.0705141740304,1789
1124.2345803489884,1758
1126.3980679077658,1796
1128.5609770850388,1868
1130.7233081155623,1805
1132.8850612341707,1778
1135.0462366757774,1817
1137.2068346753745,1762
1139.3668554680326,1757
1141.526299288901,1777
1143.68516637321,1780
1145.8434569562655,1778
1148.001171273455,1821
1150.158309560244,1688
1152.3148720521767,1702
1154.470858984876,1751
1156.626270594044,1677
1158.7811071154629,1780
1160.9353687849912,1724
1163.089055838569,1700
1165.242168512213,1750
1167.3947070420209,1764
1169.5466716641677,1682
1171.6980626149075,1677
1173.8488801305748,1722
1175.9991244475814,1741
1178.1487958024186,1766
1180.2978944316555,1748
1182.4464205719428,1680
1184.5943744600072,1710
1186.7417563326567,1751
1188.8885664267755,1783
1191.0348049793297,1774
1193.1804722273619,1708
1195.325568407995,1727
1197.4700937584303,1726
1199.614048515948,1699
1201.7574329179074,1722
1203.900247201746,1769
1206.042491604982,1691
1208.1841663652099,1692
1210.3252717201053,1728
1212.465807907422,1721
1214.6057751649923,1789
1216.7451737307279,1770
1218.8840038426192,1700
1221.0222657387353,1751
1223.1599596572241,1740
1225.2970858363137,1785
1227.4336445143094,1735
1229.5696359295966,1787
1231.705060320639,1820
1233.8399179259786,1808
1235.9742089842384,1850
1238.107933734118,1733
1240.2410924143974,1816
1242.373685263935,1779
1244.5057125216676,1794
1246.6371744266116,1757
1248.7680712178621,1737
1250.898403134593,1777
1253.028170416058,1766
1255.1573733015875,1806
1257.2860120305932,1786
1259.4140868425648,1809
1261.54159797707,1810
1263.6685456737569,1813
1265.7949301723515,1786
1267.9207517126597,1762
1270.046010534565,1840
1272.1707068780306,1782
1274.2948409830983,1813
1276.4184130898889,1843
1278.541423438603,1827
1280.6638722695184,1854
1282.785759822993,1865
1284.9070863394636,1809
1287.0278520594447,1858
1289.1480572235314,1848
1291.2677020723963,1866
1293.3867868467923,1893
1295.5053117875495,1899
1297.623277135579,1909
1299.740683131868,1941
1301.8575300174857,1997
1303.973818033578,1976
1306.0895474213703,1949
1308.2047184221678,1937
1310.3193312773528,1865
1312.4333862283888,1935
1314.5468835168163,1887
1316.659823384255,1983
1318.7722060724045,1958
1320.8840318230418,1927
1322.9953008780249,1885
1325.1060134792888,1968
1327.2161698688478,1957
1329.3257702887959,1951
1331.4348149813054,1985
1333.5433041886276,1906
1335.6512381530933,1977
1337.7586171171101,1950
1339.8654413231675,1952
1341.9717110138317,1862
1344.0774264317488,1873
1346.1825878196432,1962
1348.2871954203192,1896
1350.3912494766587,1921
1352.4947502316231,1929
1354.5976979282532,1918
1356.7000928096686,1955
1358.8019351190665,1888
1360.9032250997243,1951
1363.0039629949988,1934
1365.1041490483235,1938
1367.2037835032133,1893
1369.3028666032606,1946
1371.401398592137,1939
1373.4993797135926,2009
1375.5968102114575,1942
1377.6936903296396,1957
1379.7900203121262,1959
1381.8858004029835,1940
1383.9810308463561,1958
1386.075711886469,1955
1388.1698437676241,1976
1390.2634267342032,1979
1392.356461030667,1994
1394.4489469015557,1971
1396.5408845914872,1984
1398.6322743451592,2090
1400.7231164073469,2013
1402.813411022907,2035
1404.903158436773,2059
1406.9923588939578,1981
1409.0810126395531,2015
1411.1691199187303,1997
1413.2566809767386,2017
1415.343696058907,2100
1417.4301654106425,2069
1419.5160892774315,2126
1421.6014679048399,2124
1423.6863015385125,2140
1425.7705904241707,2155
1427.8543348076178,2143
1429.9375349347342,2173
1432.0201910514802,2218
1434.102303403894,2159
1436.1838722380944,2206
1438.2648978002767,2188
1440.3453803367174,2257
1442.4253200937692,2301
1444.5047173178677,2324
1446.5835722555234,2293
1448.6618851533285,2472
1450.739656257952,2442
1452.8168858161434,2548
1454.8935740747306,2497
1456.96972128062,2549
1459.045327680797,2580
1461.120393522327,2696
1463.1949190523528,2674
1465.2689045180973,2713
1467.3423501668608,2758
1469.415256246024,2807
1471.4876230030463,2849
1473.559450685465,2864
1475.6307395408976,2991
1477.7014898170391,2919
1479.771701761665,3001
1481.8413756226287,2978
1483.9105116478618,3003
1485.9791100853772,3086
1488.0471711832643,3267
1490.1146951896926,3220
1492.1816823529098,3288
1494.2481329212433,3340
1496.3140471430984,3285
1498.3794252669609,3370
1500.4442675413939,3367
1502.5085742150404,3391
1504.572345536622,3463
1506.6355817549388,3358
1508.6982831188702,3543
1510.7604498773744,3552
1512.8220822794883,3559
1514.8831805743293,3498
1516.9437450110909,3677
1519.003775839048,3710
1521.0632733075522,3677
1523.1222376660367,3664
1525.1806691640113,3709
1527.2385680510652,3789
1529.2959345768668,3854
1531.3527689911643,3830
1533.4090715437833,3893
1535.4648424846291,3977
1537.5200820636855,3898
1539.5747905310159,4117
1541.6289681367616,4085
1543.6826151311434,4110
1545.7357317644614,4131
1547.7883182870937,4184
1549.8403749494987,4366
1551.8919020022113,4418
1553.9428996958477,4500
1555.9933682811015,4440
1558.0433080087469,4557
1560.0927191296346,4508
1562.1416018946961,4558
1564.1899565549415,4621
1566.2377833614592,4524
1568.2850825654164,4385
1570.3318544180606,4295
1572.3780991707158,4262
1574.423817074788,4078
1576.4690083817595,3942
1578.5136733431923,3646
1580.5578122107272,3465
1582.601425236085,3296
1584.6445126710646,3280
1586.6870747675434,3153
1588.7291117774776,2962
1590.7706239529034,2922
1592.8116115459347,2750
1594.8520748087658,2694
1596.8920139936686,2629
1598.9314293529933,2598
1600.9703211391711,2522
1603.008689604711,2421
1605.0465350022005,2404
1607.0838575843068,2356
1609.1206576037753,2198
1611.1569353134305,2122
1613.1926909661765,2204
1615.2279248149953,2157
1617.2626371129481,2162
1619.2968281131757,2145
1621.3304980688963,2076
1623.3636472334088,2061
1625.39627586009,2047
1627.428384202396,1994
1629.459972513861,1992
1631.4910410480993,2021
1633.5215900588028,2040
1635.551619799744,1961
1637.5811305247717,1956
1639.6101224878166,1887
1641.6385959428862,1946
1643.6665511440683,1910
1645.693988345528,1925
1647.7209078015112,1912
1649.7473097663405,1883
1651.7731944944203,1846
1653.7985622402307,1844
1655.823413258333,1843
1657.847747803366,1878
1659.8715661300494,1858
1661.8948684931793,1846
1663.9176551476316,1859
1665.9399263483624,1856
1667.9616823504057,1869
1669.982923408873,1868
1672.0036497789574,1829
1674.0238617159293,1839
1676.043559475138,1879
1678.0627433120121,1804
1680.081413482059,1903
1682.0995702408654,1884
1684.117213844096,1841
1686.134344547495,1874
1688.1509626068864,1850
1690.1670682781705,1854
1692.182661817329,1777
1694.1977434804217,1807
1696.2123135235875,1888
1698.226372203043,1778
1700.2399197750851,1861
1702.2529564960905,1797
1704.2654826225112,1819
1706.277498410882,1839
1708.2890041178139,1808
1710.2999999999988,1813
1712.3104863142066,1764
1714.3204633172854,1811
1716.329931266163,1816
1718.3388904178469,1844
1720.3473410294214,1822
1722.3552833580516,1853
1724.3627176609807,1796
1726.3696441955308,1795
1728.3760632191033,1814
1730.3819749891782,1715
1732.3873797633146,1836
1734.3922777991502,1723
1736.3966693544012,1757
1738.4005546868639,1738
1740.4039340544127,1752
1742.406807715001,1726
1744.4091759266616,1733
1746.4110389475054,1752
1748.4123970357223,1755
1750.413250449582,1779
1752.4135994474318,1789
1754.4134442876993,1772
1756.4127852288902,1735
1758.4116225295893,1668
1760.4099564484595,1711
1762.407787244244,1717
1764.405115175764,1698
1766.4019405019203,1737
1768.3982634816916,1691
1770.3940843741357,1699
1772.3894034383907,1704
1774.3842209336717,1656
1776.378537119274,1671
1778.372352254571,1694
1780.3656665990156,1757
1782.3584804121397,1691
1784.3507939535534,1719
1786.3426074829463,1658
1788.3339212600863,1641
1790.3247355448211,1694
1792.3150505970766,1680
1794.3048666768573,1709
1796.2941840442477,1626
1798.2830029594106,1691
1800.2713236825884,1663
1802.2591464741004,1661
1804.2464715943465,1715
1806.2332993038058,1587
1808.2196298630352,1668
1810.2054635326708,1712
1812.190800573428,1756
1814.175641246101,1715
1816.1599858115628,1697
1818.1438345307652,1613
1820.127187664738,1664
1822.1100454745924,1655
1824.092408221516,1635
1826.0742761667766,1648
1828.055649571721,1620
1830.0365286977735,1625
1832.0169138064398,1636
1833.9968051593014,1681
1835.9762030180214,1737
1837.9551076443408,1679
1839.9335193000788,1598
1841.9114382471344,1691
1843.888864747485,1657
1845.8657990631878,1640
1847.842241456378,1668
1849.8181921892697,1613
1851.7936515241558,1651
1853.7686197234098,1671
1855.7430970494815,1625
1857.7170837649014,1583
1859.6905801322787,1663
1861.6635864143004,1594
1863.6361028737338,1651
1865.608129773424,1578
1867.5796673762961,1626
1869.5507159453537,1710
1871.521275743678,1674
1873.4913470344313,1683
1875.4609300808534,1701
1877.4300251462632,1677
1879.3986324940588,1678
1881.366752387717,1692
1883.3343850907936,1655
1885.3015308669228,1622
1887.268189979819,1585
1889.2343626932739,1643
1891.2000492711595,1703
1893.1652499774254,1702
1895.1299650761011,1593
1897.0941948312952,1598
1899.0579395071945,1648
1901.0211993680641,1635
1902.98397467825,1613
1904.9462657021745,1663
1906.9080727043415,1647
1908.869395949332,1670
1910.8302357018065,1641
1912.790592226504,1668
1914.7504657882428,1697
1916.7098566519212,1630
1918.6687650825133,1690
1920.6271913450764,1672
1922.5851357047422,1661
1924.5425984267245,1627
1926.499579776314,1625
1928.4560800188833,1721
1930.4120994198802,1644
1932.367638244833,1717
1934.32269675935,1633
1936.2772752291175,1687
1938.231373919899,1678
1940.1849930975404,1607
1942.1381330279637,1647
1944.0907939771696,1637
1946.0429762112412,1687
1947.9946799963363,1640
1949.9459055986945,1645
1951.896653284633,1600
1953.8469233205478,1607
1955.7967159729142,1616
1957.7460315082863,1649
1959.6948701932974,1644
1961.6432322946594,1595
1963.5911180791632,1584
1965.5385278136787,1603
1967.4854617651545,1621
1969.4319202006182,1601
1971.377903387176,1576
1973.3234115920136,1583
1975.268445082395,1622
1977.2130041256642,1541
1979.1570889892423,1600
1981.1006999406304,1614
1983.04383724741,1596
1984.986501177238,1575
1986.928691997853,1633
1988.8704099770712,1549
1990.811655382789,1613
1992.7524284829801,1573
1994.692729545698,1610
1996.6325588390755,1592
1998.5719166313224,1525
2000.5108031907307,1605
2002.4492187856677,1614
2004.387163684583,1578
2006.3246381560011,1599
2008.2616424685298,1534
2010.1981768908527,1562
2012.1342416917332,1526
2014.069837140014,1545
2016.0049635046162,1599
2017.9396210545406,1617
2019.8738100588666,1567
2021.8075307867502,1612
2023.740783507431,1514
2025.6735684902228,1591
2027.6058860045214,1536
2029.5377363198004,1556
2031.4691197056118,1534
2033.4000364315875,1644
2035.3304867674374,1516
2037.260470982952,1567
2039.189989347998,1661
2041.1190421325232,1634
2043.047629606554,1620
2044.9757520401945,1589
2046.9034097036288,1651
2048.8306028671195,1562
2050.7573318010086,1576
2052.683596775716,1562
2054.609398061742,1545
2056.5347359296647,1551
2058.4596106501403,1531
2060.384022493906,1559
2062.3079717317764,1557
2064.231458634646,1572
2066.1544834734873,1507
2068.077046519352,1515
2069.99914804337,1556
2071.9207883167524,1541
2073.8419676107865,1562
2075.7626861968406,1481
2077.6829443463607,1493
2079.6027423308715,1576
2081.522080421977,1508
2083.440958891362,1573
2085.359378010786,1527
2087.2773380520907,1609
2089.194839287196,1572
2091.111881988101,1517
2093.0284664268825,1524
2094.9445928756973,1550
2096.86026160678,1580
2098.775472892446,1604
2100.690227005088,1613
2102.604524217178,1514
2104.5183648012676,1561
2106.431749029985,1573
2108.34467717604,1576
2110.2571495122206,1519
2112.169166311393,1614
2114.080727846503,1588
2115.9918343905747,1516
2117.902486216711,1526
2119.8126835980956,1553
2121.722426807987,1543
2123.6317161197285,1614
2125.5405518067364,1551
2127.448934142509,1616
2129.356863400624,1562
2131.264339854737,1619
2133.1713637785815,1558
2135.077935445972,1610
2136.9840551308002,1661
2138.889723107037,1569
2140.7949396487334,1614
2142.699705030018,1565
2144.6040195250994,1610
2146.507883408264,1604
2148.4112969538774,1586
2150.3142604363848,1608
2152.2167741303097,1581
2154.1188383102535,1662
2156.0204532508997,1675
2157.9216192270064,1646
2159.822336513414,1597
2161.7226053850413,1586
2163.622426116884,1604
2165.5217989840185,1623
2167.4207242616,1678
2169.319202224862,1641
2171.2172331491165,1637
2173.1148173097563,1653
2175.0119549822507,1589
2176.90864644215,1673
2178.8048919650823,1672
2180.7006918267534,1667
2182.596046302952,1708
2184.4909556695407,1683
2186.3854202024645,1661
2188.279440177746,1703
2190.173015871487,1631
2192.066147559868,1622
2193.958835519149,1674
2195.851080025667,1662
2197.7428813558417,1703
2199.6342397861667,1700
2201.5251555932186,1678
2203.415629053651,1734
2205.3056604441986,1737
2207.19525004167,1706
2209.084398122958,1744
2210.9731049650327,1666
2212.861370844941,1773
2214.749196039812,1689
2216.636580826851,1842
2218.523525483344,1742
2220.410030286655,1721
2222.296095514226,1700
2224.1817214435805,1738
2226.066908352319,1759
2227.951656518121,1764
2229.835966218746,1716
2231.71983773203,1735
2233.6032713358913,1798
2235.486267308324,1706
2237.3688259274036,1736
2239.2509474712824,1779
2241.132632218193,1733
2243.013880446447,1756
2244.8946924344323,1819
2246.7750684606203,1744
2248.6550088035574,1767
2250.534513741871,1689
2252.413583554265,1749
2254.292218519526,1698
2256.170418916517,1710
2258.0481850241786,1712
2259.925517121534,1664
2261.8024154876825,1652
2263.678880401803,1692
2265.5549121431536,1667
2267.430510991071,1683
2269.305677224971,1663
2271.180411124348,1713
2273.0547129687766,1704
2274.9285830379076,1598
2276.8020216114737,1659
2278.6750289692845,1728
2280.5476053912294,1778
2282.4197511572766,1768
2284.2914665474727,1684
2286.162751841943,1766
2288.0336073208937,1765
2289.904033264608,1729
2291.774029953448,1723
2293.6435976678554,1730
2295.5127366883517,1692
2297.381447295534,1617
2299.2497297700825,1590
2301.1175843927526,1554
2302.9850114443825,1501
2304.852011205885,1466
2306.7185839582553,1490
2308.5847299825664,1470
2310.4504495599676,1453
2312.3157429716925,1524
2314.1806104990483,1487
2316.0450524234247,1522
2317.9090690262888,1432
2319.772660589186,1460
2321.635827393742,1506
2323.498569721661,1435
2325.3608878547248,1425
2327.2227820747967,1455
2329.0842526638157,1421
2330.945299903803,1440
2332.805924076857,1420
2334.6661254651535,1466
2336.525904350951,1409
2338.3852610165827,1396
2340.244195744464,1423
2342.102708817088,1444
2343.9608005170253,1437
2345.8184711269287,1410
2347.675720929526,1398
2349.532550207628,1431
2351.38895924412,1433
2353.24494832197,1418
2355.100517724223,1435
2356.955667734004,1445
2358.810398634514,1425
2360.664710709037,1485
2362.5186042409337,1491
2364.3720795136437,1468
2366.225136810686,1472
2368.0777764156583,1427
2369.929998612237,1472
2371.7818036841777,1464
2373.633191915315,1522
2375.484163589562,1491
2377.3347189909114,1529
2379.184858403434,1503
2381.03458211128,1452
2382.8838903986775,1489
2384.732783549936,1473
2386.5812618494406,1418
2388.4293255816588,1519
2390.2769750311327,1472
2392.1242104824883,1438
2393.971032220427,1481
2395.8174405297295,1471
2397.6634356952563,1482
2399.509018001947,1509
2401.3541877348193,1465
2403.1989451789705,1419
2405.043290619576,1514
2406.8872243418905,1455
2408.730746631247,1477
2410.5738577730594,1548
2412.4165580528183,1521
2414.258847756095,1530
2416.100727168537,1541
2417.9421965758734,1521
2419.783256263912,1477
2421.623906518538,1496
2423.4641476257157,1528
2425.303979871491,1546
2427.143403541984,1501
2428.9824189233977,1508
2430.821026302012,1434
2432.6592259641866,1532
2434.497018196361,1489
2436.33440328505,1432
2438.171381516851,1493
2440.00795317844,1480
2441.844118556569,1484
2443.6798779380724,1553
2445.5152316098606,1433
2447.3501798589255,1504
2449.1847229723357,1583
2451.0188612372403,1552
2452.8525949408663,1446
2454.6859243705203,1549
2456.518849813587,1511
2458.3513715575314,1460
2460.183489889895,1549
2462.015205098301,1506
2463.8465174704493,1540
2465.67742729412,1514
2467.5079348571717,1513
2469.338040447542,1528
2471.1677443532476,1523
2472.9970468623833,1515
2474.825948263123,1495
2476.6544488437207,1495
2478.482548892508,1553
2480.310248697896,1510
2482.137548548374,1493
2483.9644487325118,1506
2485.790949538956,1506
2487.617051256433,1570
2489.44275417375,1505
2491.26805857979,1559
2493.0929647635157,1584
2494.917473013971,1548
2496.741583620276,1584
2498.5652968716304,1567
2500.3886130573137,1565
2502.2115324666834,1546
2504.0340553891765,1574
2505.856182114308,1602
2507.6779129316733,1643
2509.499248130945,1585
2511.3201880018764,1551
2513.140732834298,1657
2514.9608829181198,1617
2516.780638543331,1548
2518.6,1589
2520.418967578273,1648
2522.237541568376,1622
2524.0557222606144,1590
2525.8735099453706,1610
2527.6909049131086,1599
2529.507907454368,1601
2531.32451785977,1623
2533.140736420014,1586
2534.9565634258774,1701
2536.771999168218,1578
2538.5870439379714,1688
2540.4016980261526,1730
2542.2159617238544,1714
2544.02983532225,1721
2545.8433191125914,1712
2547.656413386209,1770
2549.4691184345115,1669
2551.2814345489874,1756
2553.093362021204,1788
2554.904901142808,1743
2556.716052205523,1717
2558.526815501153,1796
2560.3371913215824,1771
2562.147179958771,1781
2563.956781704761,1812
2565.7659968516705,1796
2567.5748256916986,1806
2569.3832685171224,1831
2571.1913256202984,1786
2572.9989972936614,1829
2574.806283829725,1816
2576.613185521084,1866
2578.4197026604074,1851
2580.2258355404483,1867
2582.031584454035,1913
2583.836949694077,1934
2585.6419315535613,1924
2587.4465303255533,1849
2589.2507463032002,1946
2591.0545797797245,1863
2592.8580310484303,1928
2594.6611004026995,1890
2596.463788135992,1906
2598.266094541849,1936
2600.0680199138874,1908
2601.869564545807,1864
2603.670728731383,1936
2605.4715127644704,1908
2607.2719169390048,1988
2609.071941548998,1985
2610.8715868885433,1964
2612.670853251811,1897
2614.469740933052,1931
2616.268250226594,1916
2618.0663814268455,1897
2619.864134828292,1905
2621.6615107255006,1916
2623.458509413115,1946
2625.2551311858597,1917
2627.0513763385347,1828
2628.8472451660223,1793
2630.6427379632833,1825
2632.4378550253564,1854
2634.232596647359,1836
2636.026963124488,1802
2637.8209547520187,1774
2639.6145718253065,1823
2641.407814639785,1794
2643.200683490966,1762
2644.9931786744414,1769
2646.7853004858807,1801
2648.577049221034,1739
2650.3684251757277,1758
2652.1594286458712,1701
2653.9500599274484,1644
2655.740319316525,1751
2657.5302071092437,1632
2659.3197236018286,1649
2661.10886909058,1636
2662.8976438718782,1596
2664.686048242183,1633
2666.4740824980327,1607
2668.2617469360443,1642
2670.0490418529134,1686
2671.8359675454153,1605
2673.622524310403,1620
2675.408712444811,1611
2677.1945322456495,1544
2678.979984010009,1566
2680.76506803506,1601
2682.5497846180497,1622
2684.334134056306,1613
2686.1181166472343,1544
2687.9017326883213,1562
2689.6849824771293,1545
2691.4678663113013,1527
2693.2503844885596,1502
2695.032537306705,1491
2696.8143250636167,1498
2698.5957480572542,1527
2700.3768065856534,1487
2702.1575009469316,1534
2703.937831439283,1506
2705.717798360982,1475
2707.4974020103837,1534
2709.276642685917,1517
2711.055520686095,1512
2712.834036309506,1489
2714.612189854819,1445
2716.389981620782,1462
2718.1674119062204,1459
2719.944481010041,1505
2721.721189231226,1555
2723.4975368688415,1446
2725.273524222027,1475
2727.0491515900053,1492
2728.824419272075,1478
2730.5993275676146,1400
2732.3738767760838,1505
2734.148067197016,1516
2735.921899130031,1467
2737.6953728748194,1487
2739.468488731156,1422
2741.2412469988926,1445
2743.0136479779617,1452
2744.785691968372,1421
2746.5573792702116,1528
2748.3287101836504,1538
2750.099685008934,1459
2751.870304046388,1447
2753.640567596418,1421
2755.4104759595057,1447
2757.1800294362156,1436
2758.949228327187,1431
2760.7180729331412,1389
2762.486563554877,1468
2764.254700493272,1476
2766.022484049284,1424
2767.789914523947,1377
2769.5569922183786,1453
2771.3237174337705,1445
2773.090090471394,1458
2774.8561116326036,1462
2776.6217812188274,1392
2778.3870995315756,1435
2780.1520668724356,1431
2781.9166835430747,1376
2783.6809498452394,1406
2785.444866080754,1463
2787.2084325515225,1396
2788.971649559527,1389
2790.73451740683,1419
2792.4970363955713,1440
2794.2592068279705,1371
2796.0210290063264,1400
2797.7825032330147,1439
2799.543629810493,1452
2801.304409041296,1423
2803.0648412280366,1403
2804.8249266734088,1458
2806.5846656801846,1472
2808.344058551212,1450
2810.1031055894246,1434
2811.8618070978273,1465
2813.6201633795085,1443
2815.378174737636,1409
2817.1358414754536,1439
2818.893163896285,1419
2820.6501423035334,1409
2822.4067770006814,1471
2824.1630682912883,1395
2825.9190164789957,1471
2827.6746218675207,1452
2829.429884760661,1385
2831.184805462294,1409
2832.9393842763743,1441
2834.693621506936,1498
2836.4475174580916,1416
2838.201072434034,1417
2839.954286739034,1504
2841.707160677441,1414
2843.459694553685,1441
2845.2118886722724,1470
2846.96374333779,1472
2848.7152588549034,1443
2850.4664355283567,1455
2852.217273662973,1468
2853.9677735636546,1420
2855.7179355353833,1484
2857.4677598832186,1473
2859.217246912299,1418
2860.9663969278427,1393
2862.715210235146,1352
2864.4636871395846,1432
2866.211827946614,1414
2867.9596329617652,1435
2869.7071024906536,1459
2871.4542368389684,1419
2873.20103631248,1430
2874.947501217038,1424
2876.6936318585695,1402
2878.4394285430812,1407
2880.1848915766604,1449
2881.9300212654707,1485
2883.6748179157553,1424
2885.4192818338374,1430
2887.1634133261173,1455
2888.907212699077,1428
2890.6506802592744,1470
2892.393816313348,1431
2894.1366211680142,1463
2895.8790951300693,1380
2897.621238506388,1417
2899.363051603925,1348
2901.1045347297118,1433
2902.8456881908596,1454
2904.58651229456,1439
2906.327007348081,1421
2908.067173658772,1393
2909.8070115340597,1431
2911.5465212814497,1429
2913.285703208527,1412
2915.0245576229563,1396
2916.7630848324807,1410
2918.5012851449196,1384
2920.2391588681758,1388
2921.976706310227,1389
2923.7139277791334,1383
2925.4508235830313,1406
2927.187394030137,1371
2928.923639428745,1432
2930.6595600872306,1437
2932.395156314046,1477
2934.1304284177218,1491
2935.8653767068713,1459
2937.6000014901815,1436
2939.3343030764227,1393
2941.068281774442,1408
2942.8019378931644,1427
2944.5352717415976,1400
2946.2682836288236,1399
2948.0009738640065,1405
2949.7333427563885,1402
2951.465390615289,1379
2953.1971177501086,1432
2954.9285244703265,1448
2956.6596110855,1424
2958.3903779052657,1427
2960.1208252393385,1403
2961.8509533975125,1388
2963.5807626896617,1490
2965.3102534257378,1474
2967.0394259157715,1457
2968.768280469873,1480
2970.496817398232,1425
2972.2250370111146,1393
2973.952939618869,1401
2975.6805255319196,1484
2977.4077950607707,1431
2979.134748516006,1438
2980.861386208289,1391
2982.587708448359,1454
2984.313715547037,1453
2986.039407815222,1441
2987.764785563891,1421
2989.489849104102,1393
2991.2145987469908,1360
2992.9390348037705,1363
2994.6631575857346,1431
2996.3869674042576,1413
2998.1104645707887,1457
2999.83364939686,1423
3001.5565221940783,1410
3003.2790832741334,1424
3005.0013329487924,1405
3006.7232715298996,1419
3008.4448993293804,1363
3010.166216659239,1421
3011.887223831558,1439
3013.607921158498,1380
3015.3283089522993,1395
3017.0483875252826,1393
3018.7681571898443,1421
3020.4876182584626,1424
3022.2067710436927,1384
3023.9256158581707,1399
3025.644153014609,1415
3027.362382825801,1463
3029.0803056046193,1393
3030.797921664012,1399
3032.5152313170106,1397
3034.2322348767225,1350
3035.9489326563353,1429
3037.665324969115,1369
3039.3814121284063,1391
3041.097194447633,1362
3042.812672240299,1318
3044.5278458199855,1358
3046.2427155003525,1440
3047.9572815951406,1381
3049.671544418167,1359
3051.38550428333,1431
3053.0991615046073,1421
3054.812516396051,1452
3056.5255692717974,1418
3058.2383204460575,1361
3059.9507702331257,1416
3061.662918947372,1360
3063.3747669032446,1404
3065.0863144152736,1421
3066.7975617980674,1414
3068.508509366309,1380
3070.219157434767,1421
3071.9295063182844,1414
3073.639556331785,1407
3075.3493077902704,1436
3077.058761008821,1433
3078.7679163025964,1439
3080.476773986837,1363
3082.1853343768594,1378
3083.89359778806,1450
3085.6015645359153,1404
3087.3092349359786,1389
3089.016609303884,1406
3090.7236879553434,1443
3092.4304712061476,1397
3094.136959372166,1419
3095.843152769349,1399
3097.5490517137237,1408
3099.2546565213966,1385
3100.959967508554,1422
3102.66498499146,1418
3104.3697092864577,1430
3106.0741407099695,1411
3107.778279578498,1427
3109.482126208622,1391
3111.1856809170004,1457
3112.8889440203716,1383
3114.5919158355528,1415
3116.294596679439,1449
3117.996986869006,1471
3119.6990867213062,1407
3121.4008965534726,1405
3123.102416682717,1420
3124.803647426329,1452
3126.5045891016784,1477
3128.205242026213,1413
3129.90560651746,1414
3131.605682893025,1443
3133.3054714705922,1428
3135.0049725679282,1400
3136.7041865028714,1396
3138.4031135933465,1383
3140.101754157353,1386
3141.800108512971,1429
3143.498176978357,1380
3145.1959598717494,1410
3146.8934575114636,1457
3148.5906702158954,1396
3150.2875983035183,1475
3151.9842420928853,1405
3153.680601902627,1372
3155.376678051456,1375
3157.07247085816,1381
3158.767980641609,1398
3160.463207720748,1409
3162.158152414606,1438
3163.8528150422862,1383
3165.5471959229726,1408
3167.2412953759303,1412
3168.9351137204976,1340
3170.628651276098,1348
3172.3219083622307,1400
3174.014885298474,1433
3175.707582404485,1413
3177.4000000000005,1372
3179.092138404835,1399
3180.7839979388846,1389
3182.47557892212,1425
3184.166881674594,1422
3185.8579065164386,1456
3187.5486537678626,1422
3189.2391237491547,1449
3190.9293167806827,1350
3192.6192331828934,1360
3194.3088732763117,1370
3195.998237381542,1346
3197.687325819268,1404
3199.376138910251,1344
3201.064676975334,1358
3202.7529403354347,1372
3204.4409293115523,1362
3206.1286442247647,1327
3207.816085396229,1363
3209.5032531471825,1402
3211.190147798936,1429
3212.8767696728846,1393
3214.5631190905015,1321
3216.2491963733373,1314
3217.9350018430214,1365
3219.6205358212637,1378
3221.305798629851,1373
3222.990790590651,1354
3224.6755120256103,1316
3226.359963256751,1343
3228.0441446061795,1391
3229.7280563960758,1385
3231.411698948703,1376
3233.0950725863995,1383
3234.778177631587,1361
3236.461014406761,1389
3238.1435832345005,1366
3239.8258844374595,1332
3241.507918338374,1372
3243.1896852600576,1392
3244.8711855254023,1424
3246.552419457381,1397
3248.233387379042,1395
3249.914089613516,1368
3251.59452648401,1363
3253.274698313813,1407
3254.95460542629,1363
3256.6342481448855,1343
3258.313626793125,1335
3259.9927416946084,1406
3261.6715931730196,1298
3263.3501815521176,1293
3265.0285071557437,1350
3266.706570307815,1290
3268.3843713323286,1356
3270.0619105533615,1333
3271.739188295068,1405
3273.4162048816834,1418
3275.0929606375184,1321
3276.769455886966,1352
3278.445690954498,1386
3280.1216661646613,1398
3281.797381842087,1368
3283.4728383114807,1352
3285.1480358976296,1422
3286.8229749253996,1375
3288.4976557197333,1386
3290.172078605655,1387
3291.846243908266,1328
3293.5201519527463,1308
3295.193803064357,1367
3296.8671975684374,1345
3298.5403357904024,1386
3300.21321805575,1350
3301.8858446900567,1414
3303.558216018975,1381
3305.23033236824,1376
3306.9021940636603,1333
3308.57380143113,1341
3310.2451547966184,1339
3311.916254486174,1318
3313.5871008259246,1413
3315.2576941420766,1361
3316.9280347609147,1350
3318.5981230088046,1388
3320.2679592121895,1301
3321.9375436975924,1289
3323.606876791612,1363
3325.27595882093,1321
3326.944790112305,1375
3328.6133709925753,1345
3330.2817017886573,1349
3331.949782827547,1358
3333.617614436319,1347
3335.2851969421245,1421
3336.952530672199,1365
3338.619615953853,1389
3340.286453114475,1347
3341.9530424815357,1412
3343.619384382583,1397
3345.2854791452437,1394
3346.951327097224,1370
3348.6169285663073,1399
3350.2822838803577,1367
3351.947393367319,1346
3353.61225735521,1413
3355.2768761721345,1353
3356.9412501462693,1300
3358.605379605873,1436
3360.2692648792827,1340
3361.9329062949146,1352
3363.596304181263,1364
