CollectionTime,9/20/2024 12:22:10 PM
ExposureUsed,3
CalibratedSpectrum
-962.7078968117929,707
-959.9714848408522,780
-957.2358232597828,765
-954.5009119013725,787
-951.7667505983302,791
-949.0333391832855,795
-946.3006774887896,778
-943.5687653473143,776
-940.837602591253,825
-938.1071890529199,793
-935.3775245645503,787
-932.6486089583007,773
-929.9204420662485,797
-927.1930237203925,767
-924.4663537526524,806
-921.7404319948689,810
-919.0152582788041,832
-916.2908324361409,843
-913.5671542984834,823
-910.8442236973568,759
-908.1220404642074,798
-905.4006044304027,770
-902.679915427231,791
-899.959973285902,748
-897.2407778375464,743
-894.5223289132158,760
-891.8046263438832,767
-889.0876699604426,765
-886.3714595937089,759
-883.6559950744183,736
-880.9412762332282,774
-878.2273029007168,738
-875.5140749073835,717
-872.8015920836489,771
-870.0898542598545,736
-867.3788612662631,726
-864.6686129330585,732
-861.9591090903457,778
-859.2503495681506,746
-856.5423341964203,702
-853.8350628050229,755
-851.1285352237478,750
-848.4227512823054,777
-845.7177108103272,770
-843.0134136373656,768
-840.3098595928943,758
-837.6070485063082,755
-834.9049802069229,748
-832.2036545239757,754
-829.5030712866244,757
-826.8032303239481,739
-824.1041314649472,765
-821.4057745385428,807
-818.7081593735775,768
-816.0112857988148,732
-813.3151536429393,746
-810.6197627345566,764
-807.9251129021936,767
-805.2312039742981,786
-802.5380357792392,762
-799.8456081453069,779
-797.1539209007124,736
-794.462973873588,791
-791.772766891987,799
-789.083299783884,811
-786.3945723771743,795
-783.7065844996748,790
-781.0193359791231,728
-778.3328266431781,791
-775.6470563194197,740
-772.9620248353489,780
-770.2777320183878,757
-767.5941776958798,763
-764.9113616950891,773
-762.2292838432011,768
-759.5479439673222,734
-756.8673418944801,706
-754.1874774516235,790
-751.5083504656222,796
-748.8299607632671,803
-746.15230817127,806
-743.475392516264,793
-740.7992136248035,767
-738.1237713233636,779
-735.4490654383407,772
-732.7750957960521,804
-730.1018622227365,791
-727.4293645445534,758
-724.7576025875837,804
-722.0865761778291,849
-719.4162851412126,816
-716.7467293035781,845
-714.0779084906909,764
-711.409822528237,825
-708.7424712418238,831
-706.0758544569796,805
-703.4099719991541,853
-700.7448236937178,850
-698.0804093659622,843
-695.4167288411002,840
-692.7537819442656,863
-690.0915685005134,883
-687.4300883348199,900
-684.7693412720819,843
-682.1093271371178,908
-679.4500457546669,898
-676.7914969493897,807
-674.1336805458676,852
-671.4765963686034,818
-668.8202442420206,831
-666.1646239904642,856
-663.5097354382001,794
-660.8555784094151,827
-658.2021527282176,829
-655.5494582186366,880
-652.8974947046223,869
-650.2462620100463,924
-647.5957599587009,875
-644.9459883742998,895
-642.2969470804776,913
-639.6486359007902,888
-637.0010546587141,911
-634.3542031776476,974
-631.7080812809096,908
-629.0626887917401,880
-626.4180255333008,891
-623.7740913286734,925
-621.1308860008619,900
-618.4884093727904,889
-615.8466612673046,890
-613.2056415071715,868
-610.5653499150785,942
-607.9257863136347,948
-605.28695052537,949
-602.6488423727357,842
-600.0114616781036,933
-597.3748082637674,940
-594.7388819519412,985
-592.1036825647604,985
-589.4692099242818,940
-586.8354638524829,978
-584.2024441712624,942
-581.5701507024403,961
-578.9385832677575,1016
-576.3077416888759,1000
-573.6776257873787,931
-571.0482353847704,908
-568.4195703024757,949
-565.7916303618415,917
-563.164415384135,940
-560.5379251905453,941
-557.9121596021815,950
-555.2871184400748,922
-552.6628015251767,927
-550.0392086783606,995
-547.4163397204204,978
-544.794194472071,991
-542.1727727539491,990
-539.5520743866118,954
-536.9320991905377,1015
-534.3128469861261,1006
-531.6943175936979,1042
-529.0765108334947,1066
-526.4594265256793,1119
-523.8430644903358,1344
-521.2274245474689,1452
-518.612506517005,1562
-515.9983102187913,1550
-513.3848354725959,1584
-510.77208209810846,1648
-508.16004991493924,1703
-505.5487387426199,1883
-502.9381484006032,1960
-500.3282787082628,1962
-497.71912948489364,1936
-495.1107005497117,1879
-492.5029917218539,1784
-489.8960028203786,1618
-487.28973366426493,1421
-484.68418407241325,1291
-482.07935386364494,1221
-479.47524285670266,1198
-476.87185087025,1199
-474.2691777228715,1158
-471.66722323307334,1168
-469.0659872192821,1168
-466.4654694998459,1181
-463.86566989303384,1142
-461.26658821703614,1109
-458.66822428996414,1139
-456.07057792985,1193
-453.4736489546475,1130
-450.877437182231,1080
-448.28194243039627,1083
-445.68716451686,1114
-443.09310325926003,1121
-440.49975847515555,1125
-437.9071299820263,1091
-435.31521759727354,1193
-432.72402113821954,1168
-430.13354042210767,1133
-427.5437752661022,1178
-424.95472548728867,1127
-422.36639090267386,1202
-419.7787713291855,1282
-417.1918665836721,1202
-414.60567648290385,1221
-412.0202008435715,1221
-409.4354394822874,1317
-406.8513922155845,1254
-404.26805885991723,1166
-401.685439231661,1269
-399.103533147112,1267
-396.522340422488,1256
-393.9418608739278,1257
-391.3620943174908,1187
-388.7830405691583,1198
-386.2046994448317,1148
-383.6270707603344,1192
-381.05015433141045,1120
-378.473949973725,1020
-375.8984575028645,960
-373.32367673433623,870
-370.74960748356875,875
-368.1762495659117,813
-365.60360279663576,694
-363.03166699093265,678
-360.4604419639154,627
-357.8899275306178,614
-355.32012350599507,627
-352.7510297049233,569
-350.1826459421999,601
-347.61497203254316,588
-345.04800779059235,521
-342.4817530309082,540
-339.91620756797226,570
-337.35137121618743,643
-334.7872437898774,582
-332.22382510328725,586
-329.66111497058273,601
-327.09911320585127,563
-324.53781962310075,560
-321.9772340362607,575
-319.4173562591816,548
-316.8581861056348,531
-314.2997233893127,573
-311.7419679238294,605
-309.1849195227194,636
-306.62857799943856,709
-304.0729431673641,683
-301.51801483979375,652
-298.963792829947,594
-296.41027695096386,560
-293.85746701590574,560
-291.3053628377552,636
-288.7539642294155,660
-286.2032710037115,678
-283.65328297338897,682
-281.1039999511146,734
-278.5554217494762,770
-276.007548180983,732
-273.4603790580651,797
-270.9139141930734,762
-268.3681533982807,799
-265.8230964858798,773
-263.27874326798565,784
-260.7350935566336,808
-258.1921471637804,771
-255.6499039013039,904
-253.10836358100266,966
-250.56752601459698,783
-248.02739101372765,871
-245.48795838995704,949
-242.94922795476816,932
-240.41119951956557,918
-237.8738728956746,988
-235.33724789434166,887
-232.80132432673452,852
-230.2661020039418,794
-227.73158073697357,889
-225.19776033676033,939
-222.66464061415422,1044
-220.1322213799284,1074
-217.60050244477725,956
-215.06948361931552,998
-212.53916471408013,1123
-210.00954553952818,1132
-207.48062590603843,950
-204.9524056239104,924
-202.4248845033651,1003
-199.8980623545441,1010
-197.37193898751036,1041
-194.84651421224817,1087
-192.32178783866232,1035
-189.79775967657952,1045
-187.27442953574644,1124
-184.7517972258321,1220
-182.2298625564256,1113
-179.7086253370378,967
-177.18808537710026,1025
-174.66824248596583,1249
-172.14909647290835,1309
-169.6306471471229,1210
-167.11289431772548,1111
-164.59583779375328,1131
-162.07947738416453,1246
-159.5638128978386,1712
-157.04884414357605,1772
-154.53457093009854,1481
-152.02099306604828,1163
-149.50811035998936,1249
-146.99592262040665,1515
-144.48442965570587,1872
-141.97363127421409,1820
-139.46352728417958,1870
-136.95411749377126,1660
-134.44540171107985,1502
-131.93737974411636,1365
-129.43005140081357,1449
-126.92341648902493,1895
-124.41747481652521,2092
-121.91222619101006,2521
-119.40767042009657,2396
-116.90380731132257,1736
-114.40063667214702,2142
-111.8981583099503,3685
-109.3963720320337,6478
-106.89527764561933,10920
-104.39487495785067,13909
-101.89516377579241,16341
-99.39614390642998,19351
-96.89781515667039,24855
-94.40017733334128,30758
-91.90323024319173,31545
-89.40697369289148,22733
-86.91140748903172,14664
-84.41653143812482,11318
-81.92234534660395,16210
-79.42884902082358,24942
-76.93604226705907,29639
-74.4439248915071,25588
-71.95249670028534,19622
-69.46175749943245,15738
-66.97170709490854,13096
-64.48234529259423,12481
-61.99367189829195,12929
-59.50568671772464,11905
-57.01838955653636,11410
-54.53178022029283,12067
-52.045858514480074,11667
-49.560624244506016,14036
-47.07607721569923,14765
-44.59221723330904,13604
-42.10904410250669,14461
-39.62655762838392,17612
-37.14475761595372,23522
-34.66364387015028,26071
-32.18321619582866,27154
-29.70347439776515,30323
-27.224418280657005,32798
-24.74604764912317,38028
-22.26836230770266,50951
-19.7913620608565,65035
-17.315046712966478,65035
-14.83941606833514,65035
-12.36446993118659,65035
-9.89020810566592,65035
-7.416630395839093,65035
-4.94373660569363,65035
-2.471526539137585,65035
-6.821210263296962E-13,65035
2.47084320796705,65035
4.941003281093458,65035
7.410480415786196,65035
9.879274808531363,65035
12.347386655893956,65035
14.814816154518212,65035
17.28156350112681,65035
19.74762889252179,65035
22.21301252558385,28545
24.67771459727237,8498
27.141735304626195,7960
29.605074844762612,7862
32.06773341487792,5881
34.52971121224755,5114
36.99100843422559,5513
39.45162527824516,4379
41.91156194181792,4006
44.370818622535126,4521
46.82939551806646,3495
49.287292826160524,6197
51.74451074464503,6682
54.201049471426245,4761
56.65690920448981,3428
59.112090141899785,2805
61.56659248179983,2328
64.02041642241159,2703
66.4735621620365,3060
68.92602989905402,3577
71.37781983192338,4056
73.82893215918205,3491
76.27936707944684,2715
78.72912479141326,2709
81.17820549385567,2493
83.62660938562783,1958
86.07433666566146,1593
88.5213875329681,1584
90.96776218663751,2188
93.41346082583925,2433
95.85848364982041,2409
98.30283085790859,2486
100.7465026495089,2144
103.18949922410604,1785
105.63182078126385,1577
108.07346752062438,1859
110.51443964190923,1557
112.95473734491827,1675
115.39436082953114,1693
117.83331029570547,1771
120.27158594347827,2186
122.7091879729652,2053
125.1461165843615,1768
127.58237197794062,1519
130.01795435405518,1504
132.4528639131364,1559
134.88710085569494,1524
137.32066538231982,1641
139.75355769367923,1800
142.1857779905207,1698
144.61732647366978,1421
147.04820334403132,1251
149.47840880258934,1306
151.90794305040674,1425
154.33680628862487,1453
156.76499871846443,1672
159.19252054122433,1898
161.61937195828352,2065
164.04555317109896,2176
166.47106438120693,2457
168.89590579022217,2570
171.320077599839,2714
173.7435800118302,2883
176.16641322804742,2969
178.58857745042144,2955
181.01007288096173,3008
183.43089972175687,3117
185.85105817497413,3125
188.27054844285988,3087
190.6893707277394,3106
193.10752523201643,3020
195.5250121581745,3273
197.9418317087751,3269
200.3579840864594,3290
202.7734694939469,3383
205.18828813403627,3592
207.6024402096051,3550
210.01592592360964,3404
212.42874547908548,3493
214.84089907914665,3372
217.2523869269868,3336
219.66320922587727,3385
222.0733661791695,3477
224.48285799029293,3365
226.8916848627572,3323
229.29984700014882,3424
231.7073446061355,3334
234.11417788446204,3383
236.520347038953,3716
238.92585227351185,3599
241.33069379212054,3821
243.73487179884035,3831
246.1383864978112,3757
248.541238093252,3693
250.9434267894609,3958
253.34495279081432,3789
255.74581630176783,3715
258.1460175268563,3765
260.54555667069314,3768
262.9444339379703,3732
265.3426495334594,3745
267.7402036620107,3755
270.1370965285529,3489
272.53332833809407,3411
274.9288992957214,3346
277.32380960660055,3236
279.718059475976,3154
282.1116491091717,3147
284.5045787115897,3098
286.89684848871195,2964
289.2884586460981,3160
291.67940938938807,3244
294.0697009242996,3125
296.4593334566299,3244
298.84830719225477,3199
301.23662233712923,3172
303.6242790972866,2980
306.01127767884,2926
308.39761828798066,2975
310.78330113097934,2868
313.16832641418534,2855
315.5526943440269,2750
317.9364051270112,2801
320.3194589697242,2844
322.70185607883093,2805
325.0835966610754,2768
327.4646809232805,2707
329.8451090723478,2728
332.2248813152577,2705
334.6039978590701,2636
336.9824589109231,2725
339.36026467803447,2661
341.7374153677,2543
344.113911187295,2559
346.48975234427337,2566
348.8649390461686,2599
351.2394715005918,2584
353.61334991523415,2543
355.9865744978655,2575
358.35914545633375,2647
360.73106299856715,2647
363.10232733257146,2604
365.47293866643247,2452
367.84289720831396,2533
370.2122031664593,2464
372.5808567491905,2506
374.9488581649083,2451
377.31620762209275,2478
379.6829053293021,2405
382.0489514951745,2405
384.4143463284262,2375
386.7790900378528,2442
389.14318283232853,2487
391.50662492080653,2490
393.86941651231916,2511
396.23155781597745,2515
398.5930490409713,2461
400.9538903965696,2472
403.3140820921202,2409
405.6736243370498,2301
408.03251734086336,2316
410.3907613131465,2343
412.74835646356166,2332
415.10530300185144,2339
417.4616011378372,2327
419.81725108141893,2290
422.1722530425758,2387
424.5266072313656,2430
426.880313857925,2373
429.2333731324701,2271
431.58578526529516,2346
433.9375504667738,2392
436.2886689473588,2268
438.63914091758113,2290
440.9889665880513,2317
443.33814616945835,2301
445.68667987257015,2263
448.03456790823395,2330
450.3818104873759,2223
452.72840782100013,2226
455.07436012019105,2284
457.41966759611057,2341
459.7643304600007,2231
462.10834892318155,2305
464.4517231970525,2195
466.79445349309174,2273
469.1365400228566,2276
471.4779829979826,2289
473.81878263018564,2250
476.15893913125876,2345
478.4984527130747,2378
480.8373235875855,2391
483.17555196682144,2451
485.5131380628919,2550
487.8500820879857,2559
490.1863842543697,2758
492.52204477439034,2971
494.8570638604725,3308
497.1914417251204,3447
499.52517858091653,3782
501.85827464052306,3829
504.19073011668036,4033
506.5225452222086,3849
508.85372017000566,3802
511.18425517304956,3848
513.514150444396,4169
515.8434061971808,5373
518.1720226446176,6365
520.4999999999999,6616
522.8273384766991,6127
525.1540382881666,5997
527.480099647932,5482
529.8055227696037,4484
532.1303078668694,3364
534.454455153496,2799
536.777964843328,2516
539.1008371502907,2499
541.4230722883866,2477
543.744670471698,2406
546.0656319143858,2400
548.3859568306899,2330
550.7056454349294,2357
553.0246979415016,2313
555.3431145648834,2387
557.6608955196306,2218
559.978041020377,2242
562.2945512818363,2215
564.6104265188006,2311
566.9256669461412,2276
569.2402727788082,2277
571.5542442318302,2262
573.8675815203156,2267
576.1802848594508,2244
578.4923544645015,2359
580.8037905508126,2391
583.114593333807,2283
585.4247630289875,2349
587.7342998519354,2326
590.0432040183106,2421
592.3514757438526,2338
594.6591152443794,2310
596.9661227357875,2230
599.2724984340531,2270
601.578242555231,2240
603.8833553154542,2310
606.1878369309362,2217
608.4916876179676,2360
610.7949075929192,2277
613.0974970722403,2386
615.3994562724587,2322
617.7007854101818,2259
620.0014847020951,2289
622.3015543649641,2317
624.6009946156324,2320
626.8998056710224,2343
629.1979877481361,2307
631.4955410640538,2331
633.7924658359349,2345
636.0887622810175,2332
638.3844306166192,2371
640.6794710601358,2310
642.9738838290426,2315
645.2676691408932,2313
647.5608272133207,2371
649.853358264037,2356
652.1452625108324,2386
654.4365401715764,2462
656.7271914642178,2429
659.0172166067838,2327
661.3066158173809,2432
663.5953893141935,2380
665.8835373154867,2334
668.1710600396028,2431
670.4579577049639,2284
672.7442305300709,2415
675.0298787335033,2329
677.3149025339197,2356
679.599302150058,2365
681.8830778007342,2392
684.1662297048437,2376
686.4487580813608,2488
688.7306631493387,2405
691.0119451279091,2337
693.2926042362834,2307
695.5726406937516,2291
697.8520547196814,2289
700.1308465335215,2359
702.4090163547982,2316
704.6865644031171,2326
706.9634908981619,2293
709.2397960596965,2256
711.5154801075631,2286
713.7905432616823,2359
716.0649857420548,2278
718.3388077687592,2223
720.612009561953,2295
722.8845913418733,2406
725.1565533288352,2316
727.427895743234,2300
729.6986188055427,2301
731.9687227363137,2366
734.238207756178,2361
736.5070740858458,2356
738.7753219461066,2287
741.0429515578281,2322
743.3099631419569,2271
745.5763569195191,2366
747.8421331116193,2292
750.1072919394409,2316
752.3718336242467,2297
754.6357583873777,2210
756.8990664502545,2285
759.1617580343765,2299
761.423833361321,2363
763.6852926527457,2255
765.9461361303862,2320
768.206364016058,2316
770.4659765316536,2440
772.7249738991469,2375
774.9833563405886,2384
777.2411240781092,2456
779.4982773339183,2305
781.7548163303044,2386
784.010741289634,2345
786.2660524343538,2337
788.5207499869881,2453
790.7748341701416,2399
793.0283052064964,2318
795.2811633188143,2351
797.5334087299362,2369
799.7850416627813,2433
802.0360623403484,2405
804.2864709857143,2361
806.5362678220353,2387
808.7854530725468,2407
811.0340269605625,2314
813.2819897094754,2411
815.5293415427581,2373
817.77608268396,2368
820.0222133567116,2278
822.2677337847211,2318
824.5126441917765,2425
826.7569448017433,2382
829.0006358385675,2396
831.2437175262731,2364
833.4861900889629,2334
835.7280537508192,2392
837.9693087361026,2377
840.2099552691533,2309
842.4499935743896,2311
844.689423876309,2335
846.9282463994886,2420
849.1664613685833,2400
851.4040690083276,2401
853.6410695435349,2358
855.877463199097,2387
858.1132501999847,2444
860.3484307712487,2417
862.5830051380175,2316
864.8169735254988,2435
867.0503361589791,2415
869.2830932638243,2376
871.5152450654786,2355
873.7467917894654,2492
875.9777336613873,2431
878.2080709069252,2450
880.4378037518389,2416
882.666932421968,2433
884.8954571432301,2431
887.1233781416219,2454
889.3506956432192,2466
891.5774098741766,2375
893.803521060728,2504
896.0290294291852,2492
898.2539352059397,2488
900.4782386174619,2401
902.7019398903011,2437
904.925039251085,2498
907.147536926521,2465
909.3694331433943,2401
911.59072812857,2433
913.8114221089921,2406
916.0315153116827,2406
918.2510079637437,2408
920.4699002923547,2437
922.6881925247761,2400
924.905884888345,2483
927.1229776104793,2351
929.3394709186747,2409
931.555365040506,2415
933.7706602036275,2405
935.9853566357709,2393
938.1994545647489,2509
940.4129542184515,2447
942.6258558248488,2388
944.8381596119883,2404
947.0498658079974,2351
949.2609746410825,2362
951.4714863395287,2339
953.6814011316998,2476
955.8907192460387,2326
958.0994409110671,2367
960.3075663553858,2439
962.5150958076741,2426
964.7220294966913,2336
966.928367651274,2371
969.1341105003388,2335
971.3392582728806,2337
973.5438111979742,2348
975.747769504772,2264
977.9511334225061,2360
980.153903180487,2325
982.3560790081052,2374
984.5576611348289,2335
986.7586497902058,2322
988.9590452038618,2275
991.158847605503,2210
993.3580572249133,2228
995.5566742919558,2192
997.7546990365728,2116
999.952131688785,2085
1002.1489724786926,2061
1004.3452216364743,2112
1006.5408793923874,2099
1008.7359459767691,2057
1010.9304216200343,2021
1013.1243065526781,2024
1015.3176010052733,1966
1017.510305208472,1985
1019.7024193930064,1976
1021.8939437896848,1992
1024.0848786293977,2029
1026.2752241431122,2044
1028.4649805618747,2007
1030.6541481168115,2072
1032.842727039127,1983
1035.0307175601051,1956
1037.2181199111074,1974
1039.4049343235752,1979
1041.591161029029,2004
1043.7768002590683,1956
1045.9618522453698,1954
1048.1463172196918,1953
1050.3301954138697,1919
1052.513487059818,1981
1054.69619238953,1949
1056.8783116350783,1967
1059.0598450286152,1947
1061.2407928023704,1954
1063.4211551886528,1906
1065.6009324198508,1883
1067.780124728432,1961
1069.9587323469414,1951
1072.1367555080046,1939
1074.314194444325,1929
1076.4910493886855,1878
1078.667320573947,1872
1080.843008233051,1866
1083.0181125990161,1911
1085.1926339049414,1860
1087.3665723840027,1847
1089.5399282694575,1882
1091.7127017946405,1884
1093.8848931929647,1847
1096.0565026979243,1876
1098.2275305430899,1932
1100.3979769621128,1828
1102.567842188722,1812
1104.737126456726,1784
1106.9058300000124,1812
1109.0739530525475,1797
1111.2414958483764,1804
1113.4084586216231,1858
1115.5748416064907,1815
1117.7406450372605,1810
1119.9058691482942,1712
1122.0705141740304,1820
1124.2345803489884,1804
1126.3980679077658,1853
1128.5609770850388,1836
1130.7233081155623,1846
1132.8850612341707,1814
1135.0462366757774,1736
1137.2068346753745,1790
1139.3668554680326,1783
1141.526299288901,1841
1143.68516637321,1816
1145.8434569562655,1774
1148.001171273455,1802
1150.158309560244,1752
1152.3148720521767,1771
1154.470858984876,1759
1156.626270594044,1782
1158.7811071154629,1810
1160.9353687849912,1715
1163.089055838569,1738
1165.242168512213,1784
1167.3947070420209,1766
1169.5466716641677,1814
1171.6980626149075,1826
1173.8488801305748,1806
1175.9991244475814,1794
1178.1487958024186,1815
1180.2978944316555,1763
1182.4464205719428,1724
1184.5943744600072,1735
1186.7417563326567,1815
1188.8885664267755,1746
1191.0348049793297,1787
1193.1804722273619,1723
1195.325568407995,1728
1197.4700937584303,1720
1199.614048515948,1744
1201.7574329179074,1785
1203.900247201746,1836
1206.042491604982,1770
1208.1841663652099,1739
1210.3252717201053,1761
1212.465807907422,1791
1214.6057751649923,1889
1216.7451737307279,1814
1218.8840038426192,1787
1221.0222657387353,1816
1223.1599596572241,1844
1225.2970858363137,1826
1227.4336445143094,1804
1229.5696359295966,1831
1231.705060320639,1890
1233.8399179259786,1859
1235.9742089842384,1848
1238.107933734118,1868
1240.2410924143974,1784
1242.373685263935,1800
1244.5057125216676,1770
1246.6371744266116,1780
1248.7680712178621,1872
1250.898403134593,1898
1253.028170416058,1851
1255.1573733015875,1840
1257.2860120305932,1892
1259.4140868425648,1784
1261.54159797707,1884
1263.6685456737569,1833
1265.7949301723515,1845
1267.9207517126597,1843
1270.046010534565,1835
1272.1707068780306,1938
1274.2948409830983,1879
1276.4184130898889,1931
1278.541423438603,1973
1280.6638722695184,1901
1282.785759822993,1852
1284.9070863394636,1933
1287.0278520594447,1931
1289.1480572235314,1965
1291.2677020723963,1973
1293.3867868467923,1928
1295.5053117875495,2005
1297.623277135579,1933
1299.740683131868,1950
1301.8575300174857,1999
1303.973818033578,1986
1306.0895474213703,2038
1308.2047184221678,2076
1310.3193312773528,2031
1312.4333862283888,1986
1314.5468835168163,1964
1316.659823384255,2071
1318.7722060724045,2041
1320.8840318230418,2030
1322.9953008780249,2072
1325.1060134792888,2023
1327.2161698688478,2025
1329.3257702887959,2021
1331.4348149813054,1973
1333.5433041886276,2025
1335.6512381530933,2059
1337.7586171171101,2058
1339.8654413231675,1966
1341.9717110138317,1988
1344.0774264317488,2003
1346.1825878196432,1974
1348.2871954203192,1957
1350.3912494766587,1983
1352.4947502316231,2015
1354.5976979282532,2000
1356.7000928096686,1979
1358.8019351190665,1970
1360.9032250997243,1954
1363.0039629949988,1953
1365.1041490483235,1959
1367.2037835032133,1993
1369.3028666032606,1983
1371.401398592137,1980
1373.4993797135926,2070
1375.5968102114575,1951
1377.6936903296396,1977
1379.7900203121262,2061
1381.8858004029835,2040
1383.9810308463561,2019
1386.075711886469,1934
1388.1698437676241,2004
1390.2634267342032,2047
1392.356461030667,2016
1394.4489469015557,2019
1396.5408845914872,1951
1398.6322743451592,2047
1400.7231164073469,2114
1402.813411022907,2069
1404.903158436773,2098
1406.9923588939578,2055
1409.0810126395531,2102
1411.1691199187303,2121
1413.2566809767386,2138
1415.343696058907,2169
1417.4301654106425,2153
1419.5160892774315,2203
1421.6014679048399,2161
1423.6863015385125,2174
1425.7705904241707,2193
1427.8543348076178,2167
1429.9375349347342,2191
1432.0201910514802,2198
1434.102303403894,2273
1436.1838722380944,2285
1438.2648978002767,2319
1440.3453803367174,2342
1442.4253200937692,2339
1444.5047173178677,2416
1446.5835722555234,2461
1448.6618851533285,2416
1450.739656257952,2589
1452.8168858161434,2484
1454.8935740747306,2518
1456.96972128062,2482
1459.045327680797,2652
1461.120393522327,2690
1463.1949190523528,2723
1465.2689045180973,2712
1467.3423501668608,2756
1469.415256246024,2801
1471.4876230030463,2897
1473.559450685465,2946
1475.6307395408976,2977
1477.7014898170391,3055
1479.771701761665,3165
1481.8413756226287,3239
1483.9105116478618,3186
1485.9791100853772,3210
1488.0471711832643,3309
1490.1146951896926,3358
1492.1816823529098,3327
1494.2481329212433,3423
1496.3140471430984,3462
1498.3794252669609,3428
1500.4442675413939,3540
1502.5085742150404,3641
1504.572345536622,3525
1506.6355817549388,3539
1508.6982831188702,3594
1510.7604498773744,3684
1512.8220822794883,3781
1514.8831805743293,3820
1516.9437450110909,3806
1519.003775839048,3919
1521.0632733075522,3783
1523.1222376660367,3850
1525.1806691640113,3818
1527.2385680510652,3960
1529.2959345768668,3970
1531.3527689911643,4001
1533.4090715437833,4258
1535.4648424846291,4212
1537.5200820636855,4157
1539.5747905310159,4215
1541.6289681367616,4307
1543.6826151311434,4247
1545.7357317644614,4375
1547.7883182870937,4422
1549.8403749494987,4420
1551.8919020022113,4612
1553.9428996958477,4742
1555.9933682811015,4808
1558.0433080087469,4921
1560.0927191296346,4970
1562.1416018946961,4914
1564.1899565549415,5012
1566.2377833614592,4897
1568.2850825654164,4765
1570.3318544180606,4565
1572.3780991707158,4555
1574.423817074788,4450
1576.4690083817595,4087
1578.5136733431923,3977
1580.5578122107272,3850
1582.601425236085,3668
1584.6445126710646,3385
1586.6870747675434,3271
1588.7291117774776,3167
1590.7706239529034,3092
1592.8116115459347,2979
1594.8520748087658,2818
1596.8920139936686,2795
1598.9314293529933,2594
1600.9703211391711,2575
1603.008689604711,2508
1605.0465350022005,2442
1607.0838575843068,2420
1609.1206576037753,2344
1611.1569353134305,2294
1613.1926909661765,2321
1615.2279248149953,2293
1617.2626371129481,2206
1619.2968281131757,2168
1621.3304980688963,2252
1623.3636472334088,2128
1625.39627586009,2044
1627.428384202396,2045
1629.459972513861,2095
1631.4910410480993,2029
1633.5215900588028,2013
1635.551619799744,2011
1637.5811305247717,2002
1639.6101224878166,2030
1641.6385959428862,1971
1643.6665511440683,1987
1645.693988345528,1870
1647.7209078015112,1866
1649.7473097663405,1934
1651.7731944944203,1942
1653.7985622402307,1919
1655.823413258333,1952
1657.847747803366,1963
1659.8715661300494,1967
1661.8948684931793,1877
1663.9176551476316,1953
1665.9399263483624,1949
1667.9616823504057,1911
1669.982923408873,1894
1672.0036497789574,1859
1674.0238617159293,1867
1676.043559475138,1821
1678.0627433120121,1922
1680.081413482059,1897
1682.0995702408654,1919
1684.117213844096,1872
1686.134344547495,1933
1688.1509626068864,1929
1690.1670682781705,1884
1692.182661817329,1885
1694.1977434804217,1883
1696.2123135235875,1809
1698.226372203043,1850
1700.2399197750851,1935
1702.2529564960905,1887
1704.2654826225112,1803
1706.277498410882,1810
1708.2890041178139,1825
1710.2999999999988,1902
1712.3104863142066,1755
1714.3204633172854,1780
1716.329931266163,1828
1718.3388904178469,1852
1720.3473410294214,1855
1722.3552833580516,1821
1724.3627176609807,1826
1726.3696441955308,1813
1728.3760632191033,1777
1730.3819749891782,1784
1732.3873797633146,1810
1734.3922777991502,1826
1736.3966693544012,1806
1738.4005546868639,1766
1740.4039340544127,1745
1742.406807715001,1756
1744.4091759266616,1761
1746.4110389475054,1700
1748.4123970357223,1820
1750.413250449582,1798
1752.4135994474318,1734
1754.4134442876993,1733
1756.4127852288902,1823
1758.4116225295893,1781
1760.4099564484595,1795
1762.407787244244,1742
1764.405115175764,1771
1766.4019405019203,1787
1768.3982634816916,1753
1770.3940843741357,1740
1772.3894034383907,1728
1774.3842209336717,1696
1776.378537119274,1683
1778.372352254571,1706
1780.3656665990156,1720
1782.3584804121397,1632
1784.3507939535534,1771
1786.3426074829463,1679
1788.3339212600863,1682
1790.3247355448211,1731
1792.3150505970766,1710
1794.3048666768573,1724
1796.2941840442477,1693
1798.2830029594106,1660
1800.2713236825884,1708
1802.2591464741004,1782
1804.2464715943465,1706
1806.2332993038058,1689
1808.2196298630352,1690
1810.2054635326708,1719
1812.190800573428,1656
1814.175641246101,1708
1816.1599858115628,1723
1818.1438345307652,1729
1820.127187664738,1721
1822.1100454745924,1705
1824.092408221516,1692
1826.0742761667766,1659
1828.055649571721,1647
1830.0365286977735,1718
1832.0169138064398,1669
1833.9968051593014,1684
1835.9762030180214,1702
1837.9551076443408,1643
1839.9335193000788,1619
1841.9114382471344,1670
1843.888864747485,1631
1845.8657990631878,1653
1847.842241456378,1713
1849.8181921892697,1667
1851.7936515241558,1618
1853.7686197234098,1652
1855.7430970494815,1696
1857.7170837649014,1669
1859.6905801322787,1677
1861.6635864143004,1667
1863.6361028737338,1647
1865.608129773424,1664
1867.5796673762961,1664
1869.5507159453537,1665
1871.521275743678,1704
1873.4913470344313,1676
1875.4609300808534,1666
1877.4300251462632,1714
1879.3986324940588,1634
1881.366752387717,1719
1883.3343850907936,1749
1885.3015308669228,1647
1887.268189979819,1693
1889.2343626932739,1667
1891.2000492711595,1729
1893.1652499774254,1744
1895.1299650761011,1673
1897.0941948312952,1730
1899.0579395071945,1693
1901.0211993680641,1694
1902.98397467825,1665
1904.9462657021745,1658
1906.9080727043415,1664
1908.869395949332,1745
1910.8302357018065,1692
1912.790592226504,1660
1914.7504657882428,1653
1916.7098566519212,1695
1918.6687650825133,1628
1920.6271913450764,1658
1922.5851357047422,1744
1924.5425984267245,1602
1926.499579776314,1665
1928.4560800188833,1693
1930.4120994198802,1678
1932.367638244833,1706
1934.32269675935,1695
1936.2772752291175,1660
1938.231373919899,1720
1940.1849930975404,1750
1942.1381330279637,1559
1944.0907939771696,1664
1946.0429762112412,1651
1947.9946799963363,1625
1949.9459055986945,1663
1951.896653284633,1650
1953.8469233205478,1699
1955.7967159729142,1578
1957.7460315082863,1679
1959.6948701932974,1726
1961.6432322946594,1619
1963.5911180791632,1660
1965.5385278136787,1627
1967.4854617651545,1639
1969.4319202006182,1676
1971.377903387176,1665
1973.3234115920136,1576
1975.268445082395,1637
1977.2130041256642,1641
1979.1570889892423,1612
1981.1006999406304,1621
1983.04383724741,1599
1984.986501177238,1624
1986.928691997853,1617
1988.8704099770712,1579
1990.811655382789,1634
1992.7524284829801,1623
1994.692729545698,1555
1996.6325588390755,1632
1998.5719166313224,1633
2000.5108031907307,1549
2002.4492187856677,1654
2004.387163684583,1632
2006.3246381560011,1598
2008.2616424685298,1555
2010.1981768908527,1643
2012.1342416917332,1667
2014.069837140014,1645
2016.0049635046162,1578
2017.9396210545406,1680
2019.8738100588666,1586
2021.8075307867502,1647
2023.740783507431,1608
2025.6735684902228,1568
2027.6058860045214,1547
2029.5377363198004,1648
2031.4691197056118,1621
2033.4000364315875,1606
2035.3304867674374,1663
2037.260470982952,1597
2039.189989347998,1634
2041.1190421325232,1560
2043.047629606554,1589
2044.9757520401945,1598
2046.9034097036288,1528
2048.8306028671195,1624
2050.7573318010086,1626
2052.683596775716,1595
2054.609398061742,1604
2056.5347359296647,1618
2058.4596106501403,1630
2060.384022493906,1545
2062.3079717317764,1558
2064.231458634646,1576
2066.1544834734873,1595
2068.077046519352,1622
2069.99914804337,1634
2071.9207883167524,1591
2073.8419676107865,1603
2075.7626861968406,1559
2077.6829443463607,1606
2079.6027423308715,1602
2081.522080421977,1557
2083.440958891362,1593
2085.359378010786,1609
2087.2773380520907,1550
2089.194839287196,1555
2091.111881988101,1573
2093.0284664268825,1590
2094.9445928756973,1603
2096.86026160678,1621
2098.775472892446,1592
2100.690227005088,1604
2102.604524217178,1613
2104.5183648012676,1603
2106.431749029985,1602
2108.34467717604,1539
2110.2571495122206,1628
2112.169166311393,1636
2114.080727846503,1599
2115.9918343905747,1596
2117.902486216711,1625
2119.8126835980956,1635
2121.722426807987,1548
2123.6317161197285,1646
2125.5405518067364,1595
2127.448934142509,1615
2129.356863400624,1641
2131.264339854737,1638
2133.1713637785815,1653
2135.077935445972,1642
2136.9840551308002,1604
2138.889723107037,1596
2140.7949396487334,1585
2142.699705030018,1650
2144.6040195250994,1642
2146.507883408264,1628
2148.4112969538774,1607
2150.3142604363848,1628
2152.2167741303097,1671
2154.1188383102535,1603
2156.0204532508997,1661
2157.9216192270064,1698
2159.822336513414,1673
2161.7226053850413,1602
2163.622426116884,1686
2165.5217989840185,1630
2167.4207242616,1637
2169.319202224862,1615
2171.2172331491165,1669
2173.1148173097563,1695
2175.0119549822507,1706
2176.90864644215,1747
2178.8048919650823,1708
2180.7006918267534,1697
2182.596046302952,1673
2184.4909556695407,1704
2186.3854202024645,1666
2188.279440177746,1669
2190.173015871487,1748
2192.066147559868,1739
2193.958835519149,1674
2195.851080025667,1639
2197.7428813558417,1616
2199.6342397861667,1655
2201.5251555932186,1668
2203.415629053651,1691
2205.3056604441986,1683
2207.19525004167,1758
2209.084398122958,1717
2210.9731049650327,1740
2212.861370844941,1791
2214.749196039812,1772
2216.636580826851,1703
2218.523525483344,1761
2220.410030286655,1706
2222.296095514226,1737
2224.1817214435805,1749
2226.066908352319,1703
2227.951656518121,1741
2229.835966218746,1739
2231.71983773203,1748
2233.6032713358913,1709
2235.486267308324,1701
2237.3688259274036,1720
2239.2509474712824,1721
2241.132632218193,1758
2243.013880446447,1701
2244.8946924344323,1672
2246.7750684606203,1750
2248.6550088035574,1696
2250.534513741871,1747
2252.413583554265,1715
2254.292218519526,1656
2256.170418916517,1747
2258.0481850241786,1719
2259.925517121534,1710
2261.8024154876825,1703
2263.678880401803,1716
2265.5549121431536,1712
2267.430510991071,1700
2269.305677224971,1679
2271.180411124348,1630
2273.0547129687766,1705
2274.9285830379076,1684
2276.8020216114737,1655
2278.6750289692845,1690
2280.5476053912294,1700
2282.4197511572766,1775
2284.2914665474727,1748
2286.162751841943,1759
2288.0336073208937,1816
2289.904033264608,1695
2291.774029953448,1784
2293.6435976678554,1707
2295.5127366883517,1666
2297.381447295534,1709
2299.2497297700825,1605
2301.1175843927526,1531
2302.9850114443825,1605
2304.852011205885,1530
2306.7185839582553,1542
2308.5847299825664,1498
2310.4504495599676,1502
2312.3157429716925,1509
2314.1806104990483,1503
2316.0450524234247,1531
2317.9090690262888,1535
2319.772660589186,1581
2321.635827393742,1526
2323.498569721661,1482
2325.3608878547248,1471
2327.2227820747967,1519
2329.0842526638157,1465
2330.945299903803,1471
2332.805924076857,1499
2334.6661254651535,1501
2336.525904350951,1527
2338.3852610165827,1490
2340.244195744464,1492
2342.102708817088,1505
2343.9608005170253,1485
2345.8184711269287,1531
2347.675720929526,1532
2349.532550207628,1525
2351.38895924412,1544
2353.24494832197,1598
2355.100517724223,1518
2356.955667734004,1501
2358.810398634514,1508
2360.664710709037,1498
2362.5186042409337,1511
2364.3720795136437,1532
2366.225136810686,1572
2368.0777764156583,1511
2369.929998612237,1578
2371.7818036841777,1486
2373.633191915315,1529
2375.484163589562,1546
2377.3347189909114,1599
2379.184858403434,1485
2381.03458211128,1566
2382.8838903986775,1529
2384.732783549936,1466
2386.5812618494406,1539
2388.4293255816588,1516
2390.2769750311327,1491
2392.1242104824883,1533
2393.971032220427,1593
2395.8174405297295,1556
2397.6634356952563,1535
2399.509018001947,1554
2401.3541877348193,1571
2403.1989451789705,1562
2405.043290619576,1546
2406.8872243418905,1558
2408.730746631247,1485
2410.5738577730594,1519
2412.4165580528183,1550
2414.258847756095,1569
2416.100727168537,1518
2417.9421965758734,1513
2419.783256263912,1575
2421.623906518538,1579
2423.4641476257157,1539
2425.303979871491,1569
2427.143403541984,1552
2428.9824189233977,1507
2430.821026302012,1592
2432.6592259641866,1503
2434.497018196361,1559
2436.33440328505,1632
2438.171381516851,1548
2440.00795317844,1554
2441.844118556569,1613
2443.6798779380724,1556
2445.5152316098606,1511
2447.3501798589255,1565
2449.1847229723357,1538
2451.0188612372403,1578
2452.8525949408663,1532
2454.6859243705203,1557
2456.518849813587,1573
2458.3513715575314,1562
2460.183489889895,1487
2462.015205098301,1546
2463.8465174704493,1529
2465.67742729412,1617
2467.5079348571717,1539
2469.338040447542,1557
2471.1677443532476,1570
2472.9970468623833,1559
2474.825948263123,1552
2476.6544488437207,1572
2478.482548892508,1618
2480.310248697896,1559
2482.137548548374,1580
2483.9644487325118,1575
2485.790949538956,1594
2487.617051256433,1632
2489.44275417375,1591
2491.26805857979,1581
2493.0929647635157,1622
2494.917473013971,1564
2496.741583620276,1671
2498.5652968716304,1645
2500.3886130573137,1600
2502.2115324666834,1626
2504.0340553891765,1646
2505.856182114308,1665
2507.6779129316733,1703
2509.499248130945,1619
2511.3201880018764,1620
2513.140732834298,1630
2514.9608829181198,1630
2516.780638543331,1650
2518.6,1712
2520.418967578273,1672
2522.237541568376,1704
2524.0557222606144,1754
2525.8735099453706,1710
2527.6909049131086,1690
2529.507907454368,1662
2531.32451785977,1675
2533.140736420014,1668
2534.9565634258774,1744
2536.771999168218,1700
2538.5870439379714,1723
2540.4016980261526,1759
2542.2159617238544,1759
2544.02983532225,1744
2545.8433191125914,1757
2547.656413386209,1806
2549.4691184345115,1859
2551.2814345489874,1748
2553.093362021204,1823
2554.904901142808,1850
2556.716052205523,1795
2558.526815501153,1824
2560.3371913215824,1868
2562.147179958771,1851
2563.956781704761,1925
2565.7659968516705,1864
2567.5748256916986,1833
2569.3832685171224,1859
2571.1913256202984,1961
2572.9989972936614,1895
2574.806283829725,1979
2576.613185521084,1880
2578.4197026604074,2003
2580.2258355404483,1918
2582.031584454035,1927
2583.836949694077,1899
2585.6419315535613,1923
2587.4465303255533,2034
2589.2507463032002,1993
2591.0545797797245,1990
2592.8580310484303,1968
2594.6611004026995,2070
2596.463788135992,1977
2598.266094541849,1962
2600.0680199138874,1993
2601.869564545807,2021
2603.670728731383,1989
2605.4715127644704,2014
2607.2719169390048,2130
2609.071941548998,2044
2610.8715868885433,2031
2612.670853251811,2080
2614.469740933052,2027
2616.268250226594,2033
2618.0663814268455,2039
2619.864134828292,1936
2621.6615107255006,2075
2623.458509413115,2046
2625.2551311858597,1964
2627.0513763385347,1923
2628.8472451660223,1881
2630.6427379632833,1945
2632.4378550253564,1969
2634.232596647359,1857
2636.026963124488,1934
2637.8209547520187,1840
2639.6145718253065,1892
2641.407814639785,1902
2643.200683490966,1859
2644.9931786744414,1779
2646.7853004858807,1823
2648.577049221034,1823
2650.3684251757277,1789
2652.1594286458712,1813
2653.9500599274484,1781
2655.740319316525,1796
2657.5302071092437,1788
2659.3197236018286,1720
2661.10886909058,1733
2662.8976438718782,1747
2664.686048242183,1716
2666.4740824980327,1697
2668.2617469360443,1689
2670.0490418529134,1691
2671.8359675454153,1691
2673.622524310403,1657
2675.408712444811,1669
2677.1945322456495,1681
2678.979984010009,1600
2680.76506803506,1588
2682.5497846180497,1633
2684.334134056306,1616
2686.1181166472343,1616
2687.9017326883213,1637
2689.6849824771293,1635
2691.4678663113013,1587
2693.2503844885596,1548
2695.032537306705,1639
2696.8143250636167,1609
2698.5957480572542,1561
2700.3768065856534,1581
2702.1575009469316,1537
2703.937831439283,1570
2705.717798360982,1553
2707.4974020103837,1570
2709.276642685917,1530
2711.055520686095,1471
2712.834036309506,1505
2714.612189854819,1530
2716.389981620782,1584
2718.1674119062204,1539
2719.944481010041,1531
2721.721189231226,1561
2723.4975368688415,1556
2725.273524222027,1534
2727.0491515900053,1536
2728.824419272075,1484
2730.5993275676146,1479
2732.3738767760838,1543
2734.148067197016,1516
2735.921899130031,1527
2737.6953728748194,1511
2739.468488731156,1497
2741.2412469988926,1417
2743.0136479779617,1483
2744.785691968372,1487
2746.5573792702116,1486
2748.3287101836504,1453
2750.099685008934,1526
2751.870304046388,1507
2753.640567596418,1520
2755.4104759595057,1530
2757.1800294362156,1599
2758.949228327187,1491
2760.7180729331412,1513
2762.486563554877,1472
2764.254700493272,1435
2766.022484049284,1443
2767.789914523947,1513
2769.5569922183786,1553
2771.3237174337705,1559
2773.090090471394,1523
2774.8561116326036,1561
2776.6217812188274,1436
2778.3870995315756,1446
2780.1520668724356,1484
2781.9166835430747,1485
2783.6809498452394,1482
2785.444866080754,1523
2787.2084325515225,1463
2788.971649559527,1439
2790.73451740683,1470
2792.4970363955713,1495
2794.2592068279705,1488
2796.0210290063264,1492
2797.7825032330147,1415
2799.543629810493,1447
2801.304409041296,1468
2803.0648412280366,1463
2804.8249266734088,1484
2806.5846656801846,1484
2808.344058551212,1514
2810.1031055894246,1493
2811.8618070978273,1462
2813.6201633795085,1468
2815.378174737636,1508
2817.1358414754536,1451
2818.893163896285,1430
2820.6501423035334,1503
2822.4067770006814,1505
2824.1630682912883,1504
2825.9190164789957,1487
2827.6746218675207,1505
2829.429884760661,1518
2831.184805462294,1547
2832.9393842763743,1456
2834.693621506936,1507
2836.4475174580916,1460
2838.201072434034,1459
2839.954286739034,1467
2841.707160677441,1404
2843.459694553685,1487
2845.2118886722724,1426
2846.96374333779,1528
2848.7152588549034,1510
2850.4664355283567,1445
2852.217273662973,1448
2853.9677735636546,1454
2855.7179355353833,1504
2857.4677598832186,1520
2859.217246912299,1496
2860.9663969278427,1483
2862.715210235146,1457
2864.4636871395846,1477
2866.211827946614,1436
2867.9596329617652,1415
2869.7071024906536,1446
2871.4542368389684,1429
2873.20103631248,1462
2874.947501217038,1450
2876.6936318585695,1489
2878.4394285430812,1408
2880.1848915766604,1423
2881.9300212654707,1421
2883.6748179157553,1434
2885.4192818338374,1429
2887.1634133261173,1514
2888.907212699077,1431
2890.6506802592744,1507
2892.393816313348,1481
2894.1366211680142,1484
2895.8790951300693,1431
2897.621238506388,1442
2899.363051603925,1510
2901.1045347297118,1477
2902.8456881908596,1491
2904.58651229456,1500
2906.327007348081,1446
2908.067173658772,1482
2909.8070115340597,1488
2911.5465212814497,1423
2913.285703208527,1448
2915.0245576229563,1495
2916.7630848324807,1479
2918.5012851449196,1416
2920.2391588681758,1470
2921.976706310227,1500
2923.7139277791334,1483
2925.4508235830313,1504
2927.187394030137,1415
2928.923639428745,1376
2930.6595600872306,1411
2932.395156314046,1475
2934.1304284177218,1508
2935.8653767068713,1465
2937.6000014901815,1458
2939.3343030764227,1445
2941.068281774442,1469
2942.8019378931644,1444
2944.5352717415976,1465
2946.2682836288236,1439
2948.0009738640065,1432
2949.7333427563885,1395
2951.465390615289,1434
2953.1971177501086,1427
2954.9285244703265,1469
2956.6596110855,1461
2958.3903779052657,1462
2960.1208252393385,1472
2961.8509533975125,1444
2963.5807626896617,1395
2965.3102534257378,1472
2967.0394259157715,1444
2968.768280469873,1435
2970.496817398232,1496
2972.2250370111146,1496
2973.952939618869,1438
2975.6805255319196,1482
2977.4077950607707,1471
2979.134748516006,1431
2980.861386208289,1506
2982.587708448359,1463
2984.313715547037,1454
2986.039407815222,1456
2987.764785563891,1458
2989.489849104102,1451
2991.2145987469908,1480
2992.9390348037705,1458
2994.6631575857346,1476
2996.3869674042576,1464
2998.1104645707887,1462
2999.83364939686,1442
3001.5565221940783,1474
3003.2790832741334,1426
3005.0013329487924,1392
3006.7232715298996,1504
3008.4448993293804,1423
3010.166216659239,1423
3011.887223831558,1420
3013.607921158498,1437
3015.3283089522993,1463
3017.0483875252826,1446
3018.7681571898443,1505
3020.4876182584626,1449
3022.2067710436927,1440
3023.9256158581707,1484
3025.644153014609,1359
3027.362382825801,1467
3029.0803056046193,1438
3030.797921664012,1455
3032.5152313170106,1465
3034.2322348767225,1423
3035.9489326563353,1398
3037.665324969115,1421
3039.3814121284063,1458
3041.097194447633,1450
3042.812672240299,1493
3044.5278458199855,1445
3046.2427155003525,1464
3047.9572815951406,1479
3049.671544418167,1446
3051.38550428333,1431
3053.0991615046073,1486
3054.812516396051,1496
3056.5255692717974,1415
3058.2383204460575,1400
3059.9507702331257,1433
3061.662918947372,1460
3063.3747669032446,1441
3065.0863144152736,1448
3066.7975617980674,1446
3068.508509366309,1456
3070.219157434767,1463
3071.9295063182844,1446
3073.639556331785,1434
3075.3493077902704,1400
3077.058761008821,1453
3078.7679163025964,1438
3080.476773986837,1446
3082.1853343768594,1471
3083.89359778806,1465
3085.6015645359153,1448
3087.3092349359786,1441
3089.016609303884,1424
3090.7236879553434,1477
3092.4304712061476,1435
3094.136959372166,1462
3095.843152769349,1478
3097.5490517137237,1461
3099.2546565213966,1446
3100.959967508554,1464
3102.66498499146,1436
3104.3697092864577,1396
3106.0741407099695,1539
3107.778279578498,1421
3109.482126208622,1497
3111.1856809170004,1489
3112.8889440203716,1477
3114.5919158355528,1473
3116.294596679439,1459
3117.996986869006,1481
3119.6990867213062,1431
3121.4008965534726,1469
3123.102416682717,1432
3124.803647426329,1484
3126.5045891016784,1424
3128.205242026213,1472
3129.90560651746,1424
3131.605682893025,1460
3133.3054714705922,1450
3135.0049725679282,1475
3136.7041865028714,1443
3138.4031135933465,1430
3140.101754157353,1445
3141.800108512971,1483
3143.498176978357,1432
3145.1959598717494,1459
3146.8934575114636,1438
3148.5906702158954,1387
3150.2875983035183,1467
3151.9842420928853,1459
3153.680601902627,1431
3155.376678051456,1398
3157.07247085816,1448
3158.767980641609,1476
3160.463207720748,1432
3162.158152414606,1490
3163.8528150422862,1431
3165.5471959229726,1461
3167.2412953759303,1435
3168.9351137204976,1471
3170.628651276098,1449
3172.3219083622307,1487
3174.014885298474,1412
3175.707582404485,1436
3177.4000000000005,1453
3179.092138404835,1441
3180.7839979388846,1448
3182.47557892212,1414
3184.166881674594,1455
3185.8579065164386,1394
3187.5486537678626,1425
3189.2391237491547,1410
3190.9293167806827,1437
3192.6192331828934,1428
3194.3088732763117,1428
3195.998237381542,1433
3197.687325819268,1428
3199.376138910251,1384
3201.064676975334,1421
3202.7529403354347,1460
3204.4409293115523,1421
3206.1286442247647,1421
3207.816085396229,1404
3209.5032531471825,1419
3211.190147798936,1377
3212.8767696728846,1408
3214.5631190905015,1370
3216.2491963733373,1408
3217.9350018430214,1419
3219.6205358212637,1427
3221.305798629851,1362
3222.990790590651,1391
3224.6755120256103,1330
3226.359963256751,1397
3228.0441446061795,1354
3229.7280563960758,1469
3231.411698948703,1413
3233.0950725863995,1422
3234.778177631587,1377
3236.461014406761,1406
3238.1435832345005,1405
3239.8258844374595,1469
3241.507918338374,1397
3243.1896852600576,1437
3244.8711855254023,1427
3246.552419457381,1429
3248.233387379042,1400
3249.914089613516,1468
3251.59452648401,1458
3253.274698313813,1359
3254.95460542629,1423
3256.6342481448855,1411
3258.313626793125,1417
3259.9927416946084,1419
3261.6715931730196,1415
3263.3501815521176,1471
3265.0285071557437,1388
3266.706570307815,1452
3268.3843713323286,1373
3270.0619105533615,1392
3271.739188295068,1393
3273.4162048816834,1424
3275.0929606375184,1443
3276.769455886966,1387
3278.445690954498,1349
3280.1216661646613,1404
3281.797381842087,1401
3283.4728383114807,1426
3285.1480358976296,1365
3286.8229749253996,1377
3288.4976557197333,1398
3290.172078605655,1388
3291.846243908266,1400
3293.5201519527463,1392
3295.193803064357,1379
3296.8671975684374,1410
3298.5403357904024,1323
3300.21321805575,1329
3301.8858446900567,1392
3303.558216018975,1393
3305.23033236824,1428
3306.9021940636603,1439
3308.57380143113,1388
3310.2451547966184,1409
3311.916254486174,1395
3313.5871008259246,1419
3315.2576941420766,1445
3316.9280347609147,1430
3318.5981230088046,1427
3320.2679592121895,1401
3321.9375436975924,1321
3323.606876791612,1375
3325.27595882093,1430
3326.944790112305,1367
3328.6133709925753,1386
3330.2817017886573,1387
3331.949782827547,1398
3333.617614436319,1377
3335.2851969421245,1398
3336.952530672199,1395
3338.619615953853,1383
3340.286453114475,1413
3341.9530424815357,1400
3343.619384382583,1412
3345.2854791452437,1414
3346.951327097224,1388
3348.6169285663073,1413
3350.2822838803577,1329
3351.947393367319,1456
3353.61225735521,1430
3355.2768761721345,1410
3356.9412501462693,1423
3358.605379605873,1390
3360.2692648792827,1437
3361.9329062949146,1371
3363.596304181263,1308
