CollectionTime,9/20/2024 12:23:36 PM
ExposureUsed,3
CalibratedSpectrum
-962.7078968117929,702
-959.9714848408522,705
-957.2358232597828,715
-954.5009119013725,737
-951.7667505983302,756
-949.0333391832855,784
-946.3006774887896,751
-943.5687653473143,752
-940.837602591253,813
-938.1071890529199,769
-935.3775245645503,720
-932.6486089583007,745
-929.9204420662485,751
-927.1930237203925,758
-924.4663537526524,747
-921.7404319948689,756
-919.0152582788041,821
-916.2908324361409,844
-913.5671542984834,797
-910.8442236973568,729
-908.1220404642074,757
-905.4006044304027,766
-902.679915427231,787
-899.959973285902,724
-897.2407778375464,682
-894.5223289132158,731
-891.8046263438832,751
-889.0876699604426,758
-886.3714595937089,780
-883.6559950744183,692
-880.9412762332282,734
-878.2273029007168,749
-875.5140749073835,703
-872.8015920836489,695
-870.0898542598545,663
-867.3788612662631,700
-864.6686129330585,684
-861.9591090903457,692
-859.2503495681506,694
-856.5423341964203,702
-853.8350628050229,724
-851.1285352237478,708
-848.4227512823054,734
-845.7177108103272,720
-843.0134136373656,711
-840.3098595928943,737
-837.6070485063082,692
-834.9049802069229,709
-832.2036545239757,735
-829.5030712866244,702
-826.8032303239481,718
-824.1041314649472,708
-821.4057745385428,705
-818.7081593735775,700
-816.0112857988148,691
-813.3151536429393,719
-810.6197627345566,718
-807.9251129021936,688
-805.2312039742981,716
-802.5380357792392,772
-799.8456081453069,722
-797.1539209007124,720
-794.462973873588,722
-791.772766891987,774
-789.083299783884,723
-786.3945723771743,740
-783.7065844996748,741
-781.0193359791231,707
-778.3328266431781,740
-775.6470563194197,774
-772.9620248353489,734
-770.2777320183878,740
-767.5941776958798,761
-764.9113616950891,692
-762.2292838432011,708
-759.5479439673222,725
-756.8673418944801,706
-754.1874774516235,741
-751.5083504656222,717
-748.8299607632671,740
-746.15230817127,767
-743.475392516264,791
-740.7992136248035,786
-738.1237713233636,766
-735.4490654383407,734
-732.7750957960521,711
-730.1018622227365,734
-727.4293645445534,744
-724.7576025875837,754
-722.0865761778291,755
-719.4162851412126,822
-716.7467293035781,796
-714.0779084906909,789
-711.409822528237,787
-708.7424712418238,782
-706.0758544569796,776
-703.4099719991541,809
-700.7448236937178,802
-698.0804093659622,819
-695.4167288411002,787
-692.7537819442656,809
-690.0915685005134,777
-687.4300883348199,804
-684.7693412720819,822
-682.1093271371178,813
-679.4500457546669,804
-676.7914969493897,809
-674.1336805458676,825
-671.4765963686034,815
-668.8202442420206,811
-666.1646239904642,815
-663.5097354382001,807
-660.8555784094151,805
-658.2021527282176,842
-655.5494582186366,808
-652.8974947046223,806
-650.2462620100463,852
-647.5957599587009,846
-644.9459883742998,894
-642.2969470804776,842
-639.6486359007902,916
-637.0010546587141,889
-634.3542031776476,917
-631.7080812809096,896
-629.0626887917401,843
-626.4180255333008,864
-623.7740913286734,887
-621.1308860008619,835
-618.4884093727904,797
-615.8466612673046,860
-613.2056415071715,847
-610.5653499150785,842
-607.9257863136347,891
-605.28695052537,873
-602.6488423727357,848
-600.0114616781036,869
-597.3748082637674,896
-594.7388819519412,928
-592.1036825647604,975
-589.4692099242818,897
-586.8354638524829,880
-584.2024441712624,923
-581.5701507024403,936
-578.9385832677575,1000
-576.3077416888759,925
-573.6776257873787,906
-571.0482353847704,846
-568.4195703024757,887
-565.7916303618415,892
-563.164415384135,909
-560.5379251905453,923
-557.9121596021815,889
-555.2871184400748,829
-552.6628015251767,897
-550.0392086783606,982
-547.4163397204204,952
-544.794194472071,947
-542.1727727539491,958
-539.5520743866118,944
-536.9320991905377,927
-534.3128469861261,951
-531.6943175936979,964
-529.0765108334947,976
-526.4594265256793,1106
-523.8430644903358,1258
-521.2274245474689,1418
-518.612506517005,1486
-515.9983102187913,1503
-513.3848354725959,1522
-510.77208209810846,1457
-508.16004991493924,1650
-505.5487387426199,1638
-502.9381484006032,1760
-500.3282787082628,1859
-497.71912948489364,1878
-495.1107005497117,1783
-492.5029917218539,1689
-489.8960028203786,1507
-487.28973366426493,1369
-484.68418407241325,1276
-482.07935386364494,1201
-479.47524285670266,1137
-476.87185087025,1125
-474.2691777228715,1109
-471.66722323307334,1099
-469.0659872192821,1135
-466.4654694998459,1099
-463.86566989303384,1156
-461.26658821703614,1118
-458.66822428996414,1119
-456.07057792985,1124
-453.4736489546475,1096
-450.877437182231,1092
-448.28194243039627,1005
-445.68716451686,1114
-443.09310325926003,1043
-440.49975847515555,1090
-437.9071299820263,1089
-435.31521759727354,1140
-432.72402113821954,1088
-430.13354042210767,1076
-427.5437752661022,1107
-424.95472548728867,1099
-422.36639090267386,1189
-419.7787713291855,1223
-417.1918665836721,1155
-414.60567648290385,1176
-412.0202008435715,1134
-409.4354394822874,1250
-406.8513922155845,1240
-404.26805885991723,1204
-401.685439231661,1169
-399.103533147112,1201
-396.522340422488,1197
-393.9418608739278,1149
-391.3620943174908,1139
-388.7830405691583,1116
-386.2046994448317,1078
-383.6270707603344,1091
-381.05015433141045,1021
-378.473949973725,1007
-375.8984575028645,918
-373.32367673433623,803
-370.74960748356875,882
-368.1762495659117,786
-365.60360279663576,695
-363.03166699093265,652
-360.4604419639154,626
-357.8899275306178,603
-355.32012350599507,590
-352.7510297049233,564
-350.1826459421999,567
-347.61497203254316,558
-345.04800779059235,525
-342.4817530309082,532
-339.91620756797226,587
-337.35137121618743,633
-334.7872437898774,585
-332.22382510328725,584
-329.66111497058273,580
-327.09911320585127,558
-324.53781962310075,571
-321.9772340362607,579
-319.4173562591816,552
-316.8581861056348,549
-314.2997233893127,551
-311.7419679238294,618
-309.1849195227194,589
-306.62857799943856,663
-304.0729431673641,616
-301.51801483979375,582
-298.963792829947,551
-296.41027695096386,553
-293.85746701590574,602
-291.3053628377552,647
-288.7539642294155,693
-286.2032710037115,686
-283.65328297338897,633
-281.1039999511146,737
-278.5554217494762,749
-276.007548180983,714
-273.4603790580651,772
-270.9139141930734,765
-268.3681533982807,730
-265.8230964858798,740
-263.27874326798565,793
-260.7350935566336,776
-258.1921471637804,761
-255.6499039013039,898
-253.10836358100266,889
-250.56752601459698,777
-248.02739101372765,835
-245.48795838995704,925
-242.94922795476816,909
-240.41119951956557,934
-237.8738728956746,952
-235.33724789434166,857
-232.80132432673452,812
-230.2661020039418,747
-227.73158073697357,883
-225.19776033676033,906
-222.66464061415422,971
-220.1322213799284,998
-217.60050244477725,937
-215.06948361931552,963
-212.53916471408013,1158
-210.00954553952818,1164
-207.48062590603843,998
-204.9524056239104,863
-202.4248845033651,909
-199.8980623545441,984
-197.37193898751036,1056
-194.84651421224817,1055
-192.32178783866232,991
-189.79775967657952,1046
-187.27442953574644,1130
-184.7517972258321,1172
-182.2298625564256,1076
-179.7086253370378,892
-177.18808537710026,985
-174.66824248596583,1181
-172.14909647290835,1141
-169.6306471471229,1105
-167.11289431772548,1042
-164.59583779375328,1033
-162.07947738416453,1153
-159.5638128978386,1573
-157.04884414357605,1697
-154.53457093009854,1507
-152.02099306604828,1196
-149.50811035998936,1228
-146.99592262040665,1473
-144.48442965570587,1771
-141.97363127421409,1826
-139.46352728417958,1859
-136.95411749377126,1693
-134.44540171107985,1471
-131.93737974411636,1480
-129.43005140081357,1464
-126.92341648902493,1869
-124.41747481652521,2133
-121.91222619101006,2382
-119.40767042009657,2155
-116.90380731132257,1811
-114.40063667214702,2212
-111.8981583099503,3609
-109.3963720320337,6604
-106.89527764561933,10954
-104.39487495785067,13827
-101.89516377579241,16226
-99.39614390642998,19534
-96.89781515667039,25644
-94.40017733334128,32072
-91.90323024319173,30982
-89.40697369289148,22726
-86.91140748903172,15029
-84.41653143812482,11861
-81.92234534660395,16606
-79.42884902082358,25086
-76.93604226705907,28270
-74.4439248915071,23956
-71.95249670028534,18445
-69.46175749943245,15156
-66.97170709490854,13485
-64.48234529259423,13629
-61.99367189829195,13698
-59.50568671772464,12678
-57.01838955653636,11901
-54.53178022029283,11433
-52.045858514480074,11583
-49.560624244506016,13511
-47.07607721569923,14519
-44.59221723330904,13408
-42.10904410250669,13705
-39.62655762838392,16480
-37.14475761595372,22443
-34.66364387015028,23491
-32.18321619582866,26465
-29.70347439776515,31317
-27.224418280657005,33000
-24.74604764912317,37899
-22.26836230770266,52119
-19.7913620608565,65034
-17.315046712966478,65034
-14.83941606833514,65034
-12.36446993118659,65034
-9.89020810566592,65034
-7.416630395839093,65034
-4.94373660569363,65034
-2.471526539137585,65034
-6.821210263296962E-13,65034
2.47084320796705,65034
4.941003281093458,65034
7.410480415786196,65034
9.879274808531363,65034
12.347386655893956,65034
14.814816154518212,65034
17.28156350112681,65034
19.74762889252179,65034
22.21301252558385,28466
24.67771459727237,8647
27.141735304626195,8244
29.605074844762612,8340
32.06773341487792,6237
34.52971121224755,5642
36.99100843422559,5972
39.45162527824516,4435
41.91156194181792,4051
44.370818622535126,4680
46.82939551806646,3582
49.287292826160524,6054
51.74451074464503,6564
54.201049471426245,4535
56.65690920448981,3214
59.112090141899785,2653
61.56659248179983,2342
64.02041642241159,2652
66.4735621620365,2889
68.92602989905402,3661
71.37781983192338,4113
73.82893215918205,3422
76.27936707944684,2775
78.72912479141326,2819
81.17820549385567,2381
83.62660938562783,2046
86.07433666566146,1629
88.5213875329681,1700
90.96776218663751,2159
93.41346082583925,2372
95.85848364982041,2575
98.30283085790859,2543
100.7465026495089,2111
103.18949922410604,1753
105.63182078126385,1652
108.07346752062438,1953
110.51443964190923,1472
112.95473734491827,1667
115.39436082953114,1640
117.83331029570547,1643
120.27158594347827,2214
122.7091879729652,1986
125.1461165843615,1508
127.58237197794062,1373
130.01795435405518,1347
132.4528639131364,1523
134.88710085569494,1526
137.32066538231982,1695
139.75355769367923,1790
142.1857779905207,1565
144.61732647366978,1379
147.04820334403132,1321
149.47840880258934,1289
151.90794305040674,1389
154.33680628862487,1405
156.76499871846443,1602
159.19252054122433,1811
161.61937195828352,2011
164.04555317109896,2129
166.47106438120693,2373
168.89590579022217,2540
171.320077599839,2868
173.7435800118302,2913
176.16641322804742,2915
178.58857745042144,2968
181.01007288096173,2938
183.43089972175687,3031
185.85105817497413,3024
188.27054844285988,3142
190.6893707277394,3042
193.10752523201643,2947
195.5250121581745,3224
197.9418317087751,3443
200.3579840864594,3234
202.7734694939469,3363
205.18828813403627,3538
207.6024402096051,3513
210.01592592360964,3438
212.42874547908548,3400
214.84089907914665,3359
217.2523869269868,3297
219.66320922587727,3399
222.0733661791695,3317
224.48285799029293,3215
226.8916848627572,3287
229.29984700014882,3476
231.7073446061355,3457
234.11417788446204,3480
236.520347038953,3527
238.92585227351185,3491
241.33069379212054,3686
243.73487179884035,3738
246.1383864978112,3718
248.541238093252,3799
250.9434267894609,3746
253.34495279081432,3670
255.74581630176783,3608
258.1460175268563,3828
260.54555667069314,3752
262.9444339379703,3648
265.3426495334594,3821
267.7402036620107,3656
270.1370965285529,3447
272.53332833809407,3328
274.9288992957214,3293
277.32380960660055,3149
279.718059475976,3167
282.1116491091717,3091
284.5045787115897,3046
286.89684848871195,3025
289.2884586460981,3233
291.67940938938807,3068
294.0697009242996,3109
296.4593334566299,3034
298.84830719225477,3115
301.23662233712923,3047
303.6242790972866,2998
306.01127767884,2994
308.39761828798066,3005
310.78330113097934,2940
313.16832641418534,2801
315.5526943440269,2787
317.9364051270112,2782
320.3194589697242,2769
322.70185607883093,2722
325.0835966610754,2636
327.4646809232805,2579
329.8451090723478,2529
332.2248813152577,2630
334.6039978590701,2645
336.9824589109231,2644
339.36026467803447,2575
341.7374153677,2535
344.113911187295,2441
346.48975234427337,2486
348.8649390461686,2600
351.2394715005918,2605
353.61334991523415,2474
355.9865744978655,2537
358.35914545633375,2626
360.73106299856715,2562
363.10232733257146,2533
365.47293866643247,2475
367.84289720831396,2456
370.2122031664593,2448
372.5808567491905,2470
374.9488581649083,2429
377.31620762209275,2310
379.6829053293021,2339
382.0489514951745,2392
384.4143463284262,2465
386.7790900378528,2399
389.14318283232853,2424
391.50662492080653,2371
393.86941651231916,2453
396.23155781597745,2409
398.5930490409713,2397
400.9538903965696,2362
403.3140820921202,2347
405.6736243370498,2307
408.03251734086336,2258
410.3907613131465,2222
412.74835646356166,2287
415.10530300185144,2313
417.4616011378372,2253
419.81725108141893,2321
422.1722530425758,2326
424.5266072313656,2349
426.880313857925,2286
429.2333731324701,2320
431.58578526529516,2304
433.9375504667738,2210
436.2886689473588,2251
438.63914091758113,2237
440.9889665880513,2230
443.33814616945835,2289
445.68667987257015,2316
448.03456790823395,2141
450.3818104873759,2184
452.72840782100013,2159
455.07436012019105,2292
457.41966759611057,2248
459.7643304600007,2207
462.10834892318155,2226
464.4517231970525,2191
466.79445349309174,2261
469.1365400228566,2255
471.4779829979826,2192
473.81878263018564,2300
476.15893913125876,2205
478.4984527130747,2346
480.8373235875855,2378
483.17555196682144,2465
485.5131380628919,2425
487.8500820879857,2561
490.1863842543697,2727
492.52204477439034,2922
494.8570638604725,3140
497.1914417251204,3422
499.52517858091653,3628
501.85827464052306,3756
504.19073011668036,3696
506.5225452222086,3695
508.85372017000566,3707
511.18425517304956,3727
513.514150444396,4143
515.8434061971808,5147
518.1720226446176,6204
520.4999999999999,6496
522.8273384766991,6320
525.1540382881666,5867
527.480099647932,5273
529.8055227696037,4310
532.1303078668694,3234
534.454455153496,2791
536.777964843328,2527
539.1008371502907,2425
541.4230722883866,2350
543.744670471698,2395
546.0656319143858,2317
548.3859568306899,2245
550.7056454349294,2271
553.0246979415016,2303
555.3431145648834,2294
557.6608955196306,2222
559.978041020377,2203
562.2945512818363,2181
564.6104265188006,2275
566.9256669461412,2219
569.2402727788082,2185
571.5542442318302,2231
573.8675815203156,2246
576.1802848594508,2254
578.4923544645015,2222
580.8037905508126,2360
583.114593333807,2241
585.4247630289875,2209
587.7342998519354,2174
590.0432040183106,2232
592.3514757438526,2321
594.6591152443794,2275
596.9661227357875,2260
599.2724984340531,2189
601.578242555231,2243
603.8833553154542,2189
606.1878369309362,2174
608.4916876179676,2218
610.7949075929192,2192
613.0974970722403,2200
615.3994562724587,2224
617.7007854101818,2248
620.0014847020951,2267
622.3015543649641,2168
624.6009946156324,2317
626.8998056710224,2285
629.1979877481361,2256
631.4955410640538,2290
633.7924658359349,2233
636.0887622810175,2290
638.3844306166192,2260
640.6794710601358,2281
642.9738838290426,2251
645.2676691408932,2343
647.5608272133207,2364
649.853358264037,2332
652.1452625108324,2348
654.4365401715764,2398
656.7271914642178,2399
659.0172166067838,2365
661.3066158173809,2306
663.5953893141935,2338
665.8835373154867,2260
668.1710600396028,2302
670.4579577049639,2299
672.7442305300709,2323
675.0298787335033,2340
677.3149025339197,2300
679.599302150058,2289
681.8830778007342,2268
684.1662297048437,2324
686.4487580813608,2318
688.7306631493387,2312
691.0119451279091,2275
693.2926042362834,2288
695.5726406937516,2264
697.8520547196814,2288
700.1308465335215,2336
702.4090163547982,2233
704.6865644031171,2316
706.9634908981619,2244
709.2397960596965,2245
711.5154801075631,2285
713.7905432616823,2289
716.0649857420548,2278
718.3388077687592,2276
720.612009561953,2291
722.8845913418733,2259
725.1565533288352,2295
727.427895743234,2242
729.6986188055427,2247
731.9687227363137,2256
734.238207756178,2231
736.5070740858458,2322
738.7753219461066,2302
741.0429515578281,2304
743.3099631419569,2242
745.5763569195191,2289
747.8421331116193,2247
750.1072919394409,2269
752.3718336242467,2250
754.6357583873777,2296
756.8990664502545,2265
759.1617580343765,2206
761.423833361321,2293
763.6852926527457,2248
765.9461361303862,2273
768.206364016058,2313
770.4659765316536,2221
772.7249738991469,2327
774.9833563405886,2343
777.2411240781092,2260
779.4982773339183,2310
781.7548163303044,2308
784.010741289634,2363
786.2660524343538,2390
788.5207499869881,2417
790.7748341701416,2431
793.0283052064964,2378
795.2811633188143,2325
797.5334087299362,2293
799.7850416627813,2284
802.0360623403484,2354
804.2864709857143,2333
806.5362678220353,2341
808.7854530725468,2274
811.0340269605625,2307
813.2819897094754,2265
815.5293415427581,2335
817.77608268396,2253
820.0222133567116,2330
822.2677337847211,2364
824.5126441917765,2301
826.7569448017433,2309
829.0006358385675,2281
831.2437175262731,2294
833.4861900889629,2231
835.7280537508192,2379
837.9693087361026,2350
840.2099552691533,2339
842.4499935743896,2374
844.689423876309,2303
846.9282463994886,2385
849.1664613685833,2311
851.4040690083276,2340
853.6410695435349,2290
855.877463199097,2378
858.1132501999847,2370
860.3484307712487,2295
862.5830051380175,2384
864.8169735254988,2358
867.0503361589791,2332
869.2830932638243,2257
871.5152450654786,2325
873.7467917894654,2371
875.9777336613873,2427
878.2080709069252,2390
880.4378037518389,2375
882.666932421968,2363
884.8954571432301,2412
887.1233781416219,2477
889.3506956432192,2461
891.5774098741766,2453
893.803521060728,2407
896.0290294291852,2412
898.2539352059397,2420
900.4782386174619,2352
902.7019398903011,2363
904.925039251085,2413
907.147536926521,2377
909.3694331433943,2307
911.59072812857,2327
913.8114221089921,2409
916.0315153116827,2404
918.2510079637437,2338
920.4699002923547,2235
922.6881925247761,2260
924.905884888345,2348
927.1229776104793,2412
929.3394709186747,2343
931.555365040506,2312
933.7706602036275,2416
935.9853566357709,2347
938.1994545647489,2310
940.4129542184515,2397
942.6258558248488,2370
944.8381596119883,2349
947.0498658079974,2387
949.2609746410825,2263
951.4714863395287,2360
953.6814011316998,2299
955.8907192460387,2330
958.0994409110671,2427
960.3075663553858,2336
962.5150958076741,2252
964.7220294966913,2254
966.928367651274,2281
969.1341105003388,2295
971.3392582728806,2256
973.5438111979742,2260
975.747769504772,2261
977.9511334225061,2249
980.153903180487,2232
982.3560790081052,2284
984.5576611348289,2182
986.7586497902058,2193
988.9590452038618,2134
991.158847605503,2199
993.3580572249133,2175
995.5566742919558,2038
997.7546990365728,2056
999.952131688785,2035
1002.1489724786926,2063
1004.3452216364743,2058
1006.5408793923874,2071
1008.7359459767691,1980
1010.9304216200343,2012
1013.1243065526781,1996
1015.3176010052733,1964
1017.510305208472,1968
1019.7024193930064,1949
1021.8939437896848,2018
1024.0848786293977,1898
1026.2752241431122,1982
1028.4649805618747,1979
1030.6541481168115,1942
1032.842727039127,1944
1035.0307175601051,1918
1037.2181199111074,1980
1039.4049343235752,1939
1041.591161029029,1878
1043.7768002590683,1854
1045.9618522453698,1875
1048.1463172196918,1845
1050.3301954138697,1961
1052.513487059818,1893
1054.69619238953,1912
1056.8783116350783,1890
1059.0598450286152,1880
1061.2407928023704,1869
1063.4211551886528,1865
1065.6009324198508,1936
1067.780124728432,1871
1069.9587323469414,1944
1072.1367555080046,1890
1074.314194444325,1826
1076.4910493886855,1868
1078.667320573947,1845
1080.843008233051,1826
1083.0181125990161,1772
1085.1926339049414,1758
1087.3665723840027,1888
1089.5399282694575,1846
1091.7127017946405,1816
1093.8848931929647,1871
1096.0565026979243,1866
1098.2275305430899,1791
1100.3979769621128,1757
1102.567842188722,1800
1104.737126456726,1761
1106.9058300000124,1827
1109.0739530525475,1814
1111.2414958483764,1776
1113.4084586216231,1814
1115.5748416064907,1818
1117.7406450372605,1777
1119.9058691482942,1783
1122.0705141740304,1707
1124.2345803489884,1711
1126.3980679077658,1790
1128.5609770850388,1726
1130.7233081155623,1713
1132.8850612341707,1698
1135.0462366757774,1751
1137.2068346753745,1836
1139.3668554680326,1776
1141.526299288901,1813
1143.68516637321,1702
1145.8434569562655,1784
1148.001171273455,1734
1150.158309560244,1697
1152.3148720521767,1718
1154.470858984876,1714
1156.626270594044,1765
1158.7811071154629,1724
1160.9353687849912,1730
1163.089055838569,1827
1165.242168512213,1748
1167.3947070420209,1698
1169.5466716641677,1751
1171.6980626149075,1722
1173.8488801305748,1698
1175.9991244475814,1755
1178.1487958024186,1749
1180.2978944316555,1686
1182.4464205719428,1691
1184.5943744600072,1730
1186.7417563326567,1775
1188.8885664267755,1728
1191.0348049793297,1730
1193.1804722273619,1641
1195.325568407995,1767
1197.4700937584303,1761
1199.614048515948,1690
1201.7574329179074,1702
1203.900247201746,1743
1206.042491604982,1690
1208.1841663652099,1688
1210.3252717201053,1718
1212.465807907422,1811
1214.6057751649923,1779
1216.7451737307279,1778
1218.8840038426192,1761
1221.0222657387353,1728
1223.1599596572241,1780
1225.2970858363137,1695
1227.4336445143094,1772
1229.5696359295966,1769
1231.705060320639,1813
1233.8399179259786,1837
1235.9742089842384,1745
1238.107933734118,1770
1240.2410924143974,1781
1242.373685263935,1842
1244.5057125216676,1790
1246.6371744266116,1787
1248.7680712178621,1787
1250.898403134593,1809
1253.028170416058,1793
1255.1573733015875,1751
1257.2860120305932,1749
1259.4140868425648,1776
1261.54159797707,1741
1263.6685456737569,1831
1265.7949301723515,1843
1267.9207517126597,1814
1270.046010534565,1800
1272.1707068780306,1850
1274.2948409830983,1836
1276.4184130898889,1887
1278.541423438603,1836
1280.6638722695184,1823
1282.785759822993,1831
1284.9070863394636,1833
1287.0278520594447,1883
1289.1480572235314,1921
1291.2677020723963,1877
1293.3867868467923,1957
1295.5053117875495,1959
1297.623277135579,1930
1299.740683131868,2030
1301.8575300174857,1983
1303.973818033578,1956
1306.0895474213703,1953
1308.2047184221678,1929
1310.3193312773528,1983
1312.4333862283888,1928
1314.5468835168163,2002
1316.659823384255,2032
1318.7722060724045,2002
1320.8840318230418,1910
1322.9953008780249,1925
1325.1060134792888,2016
1327.2161698688478,1987
1329.3257702887959,1947
1331.4348149813054,2044
1333.5433041886276,1907
1335.6512381530933,2034
1337.7586171171101,1945
1339.8654413231675,1993
1341.9717110138317,1986
1344.0774264317488,2034
1346.1825878196432,1907
1348.2871954203192,1994
1350.3912494766587,1991
1352.4947502316231,1968
1354.5976979282532,1964
1356.7000928096686,1918
1358.8019351190665,1949
1360.9032250997243,1963
1363.0039629949988,1912
1365.1041490483235,1907
1367.2037835032133,1898
1369.3028666032606,1875
1371.401398592137,1957
1373.4993797135926,2022
1375.5968102114575,1953
1377.6936903296396,1991
1379.7900203121262,2015
1381.8858004029835,1922
1383.9810308463561,1928
1386.075711886469,1968
1388.1698437676241,1993
1390.2634267342032,1977
1392.356461030667,1981
1394.4489469015557,2002
1396.5408845914872,2049
1398.6322743451592,1990
1400.7231164073469,2034
1402.813411022907,1971
1404.903158436773,2099
1406.9923588939578,2061
1409.0810126395531,2109
1411.1691199187303,2058
1413.2566809767386,2125
1415.343696058907,2032
1417.4301654106425,2094
1419.5160892774315,2257
1421.6014679048399,2163
1423.6863015385125,2132
1425.7705904241707,2189
1427.8543348076178,2203
1429.9375349347342,2190
1432.0201910514802,2212
1434.102303403894,2217
1436.1838722380944,2300
1438.2648978002767,2288
1440.3453803367174,2330
1442.4253200937692,2309
1444.5047173178677,2383
1446.5835722555234,2370
1448.6618851533285,2391
1450.739656257952,2445
1452.8168858161434,2522
1454.8935740747306,2552
1456.96972128062,2554
1459.045327680797,2643
1461.120393522327,2639
1463.1949190523528,2596
1465.2689045180973,2733
1467.3423501668608,2857
1469.415256246024,2810
1471.4876230030463,2888
1473.559450685465,2913
1475.6307395408976,2945
1477.7014898170391,2999
1479.771701761665,3070
1481.8413756226287,3185
1483.9105116478618,3156
1485.9791100853772,3163
1488.0471711832643,3222
1490.1146951896926,3257
1492.1816823529098,3300
1494.2481329212433,3407
1496.3140471430984,3410
1498.3794252669609,3460
1500.4442675413939,3503
1502.5085742150404,3526
1504.572345536622,3579
1506.6355817549388,3619
1508.6982831188702,3654
1510.7604498773744,3596
1512.8220822794883,3675
1514.8831805743293,3754
1516.9437450110909,3842
1519.003775839048,3894
1521.0632733075522,3763
1523.1222376660367,3883
1525.1806691640113,3930
1527.2385680510652,4036
1529.2959345768668,4061
1531.3527689911643,4116
1533.4090715437833,4204
1535.4648424846291,4139
1537.5200820636855,4285
1539.5747905310159,4325
1541.6289681367616,4306
1543.6826151311434,4395
1545.7357317644614,4554
1547.7883182870937,4441
1549.8403749494987,4650
1551.8919020022113,4655
1553.9428996958477,4740
1555.9933682811015,4857
1558.0433080087469,5119
1560.0927191296346,4968
1562.1416018946961,5082
1564.1899565549415,4942
1566.2377833614592,5001
1568.2850825654164,4772
1570.3318544180606,4656
1572.3780991707158,4467
1574.423817074788,4170
1576.4690083817595,4049
1578.5136733431923,3960
1580.5578122107272,3710
1582.601425236085,3635
1584.6445126710646,3367
1586.6870747675434,3160
1588.7291117774776,3204
1590.7706239529034,2953
1592.8116115459347,2915
1594.8520748087658,2773
1596.8920139936686,2806
1598.9314293529933,2610
1600.9703211391711,2627
1603.008689604711,2529
1605.0465350022005,2389
1607.0838575843068,2424
1609.1206576037753,2351
1611.1569353134305,2334
1613.1926909661765,2296
1615.2279248149953,2193
1617.2626371129481,2178
1619.2968281131757,2152
1621.3304980688963,2091
1623.3636472334088,2103
1625.39627586009,2102
1627.428384202396,1993
1629.459972513861,2104
1631.4910410480993,1993
1633.5215900588028,1998
1635.551619799744,2013
1637.5811305247717,1913
1639.6101224878166,1938
1641.6385959428862,1883
1643.6665511440683,1913
1645.693988345528,1920
1647.7209078015112,1928
1649.7473097663405,1892
1651.7731944944203,1899
1653.7985622402307,1958
1655.823413258333,1823
1657.847747803366,1889
1659.8715661300494,1877
1661.8948684931793,1817
1663.9176551476316,1868
1665.9399263483624,1841
1667.9616823504057,1874
1669.982923408873,1833
1672.0036497789574,1887
1674.0238617159293,1891
1676.043559475138,1840
1678.0627433120121,1834
1680.081413482059,1903
1682.0995702408654,1898
1684.117213844096,1871
1686.134344547495,1790
1688.1509626068864,1838
1690.1670682781705,1870
1692.182661817329,1759
1694.1977434804217,1852
1696.2123135235875,1860
1698.226372203043,1889
1700.2399197750851,1801
1702.2529564960905,1843
1704.2654826225112,1901
1706.277498410882,1852
1708.2890041178139,1789
1710.2999999999988,1782
1712.3104863142066,1831
1714.3204633172854,1779
1716.329931266163,1762
1718.3388904178469,1812
1720.3473410294214,1777
1722.3552833580516,1799
1724.3627176609807,1806
1726.3696441955308,1762
1728.3760632191033,1730
1730.3819749891782,1828
1732.3873797633146,1774
1734.3922777991502,1732
1736.3966693544012,1760
1738.4005546868639,1789
1740.4039340544127,1742
1742.406807715001,1725
1744.4091759266616,1734
1746.4110389475054,1745
1748.4123970357223,1725
1750.413250449582,1683
1752.4135994474318,1779
1754.4134442876993,1786
1756.4127852288902,1781
1758.4116225295893,1667
1760.4099564484595,1758
1762.407787244244,1729
1764.405115175764,1712
1766.4019405019203,1714
1768.3982634816916,1693
1770.3940843741357,1653
1772.3894034383907,1693
1774.3842209336717,1630
1776.378537119274,1662
1778.372352254571,1710
1780.3656665990156,1714
1782.3584804121397,1656
1784.3507939535534,1621
1786.3426074829463,1639
1788.3339212600863,1642
1790.3247355448211,1683
1792.3150505970766,1661
1794.3048666768573,1682
1796.2941840442477,1703
1798.2830029594106,1704
1800.2713236825884,1646
1802.2591464741004,1708
1804.2464715943465,1664
1806.2332993038058,1637
1808.2196298630352,1662
1810.2054635326708,1710
1812.190800573428,1702
1814.175641246101,1687
1816.1599858115628,1682
1818.1438345307652,1697
1820.127187664738,1647
1822.1100454745924,1688
1824.092408221516,1659
1826.0742761667766,1620
1828.055649571721,1642
1830.0365286977735,1676
1832.0169138064398,1682
1833.9968051593014,1687
1835.9762030180214,1684
1837.9551076443408,1623
1839.9335193000788,1652
1841.9114382471344,1666
1843.888864747485,1662
1845.8657990631878,1593
1847.842241456378,1677
1849.8181921892697,1549
1851.7936515241558,1566
1853.7686197234098,1565
1855.7430970494815,1632
1857.7170837649014,1599
1859.6905801322787,1624
1861.6635864143004,1635
1863.6361028737338,1565
1865.608129773424,1685
1867.5796673762961,1688
1869.5507159453537,1660
1871.521275743678,1656
1873.4913470344313,1685
1875.4609300808534,1684
1877.4300251462632,1660
1879.3986324940588,1651
1881.366752387717,1681
1883.3343850907936,1695
1885.3015308669228,1676
1887.268189979819,1693
1889.2343626932739,1636
1891.2000492711595,1635
1893.1652499774254,1691
1895.1299650761011,1620
1897.0941948312952,1650
1899.0579395071945,1648
1901.0211993680641,1658
1902.98397467825,1659
1904.9462657021745,1665
1906.9080727043415,1652
1908.869395949332,1663
1910.8302357018065,1670
1912.790592226504,1627
1914.7504657882428,1616
1916.7098566519212,1588
1918.6687650825133,1670
1920.6271913450764,1645
1922.5851357047422,1591
1924.5425984267245,1631
1926.499579776314,1718
1928.4560800188833,1621
1930.4120994198802,1661
1932.367638244833,1630
1934.32269675935,1700
1936.2772752291175,1638
1938.231373919899,1650
1940.1849930975404,1654
1942.1381330279637,1599
1944.0907939771696,1647
1946.0429762112412,1619
1947.9946799963363,1569
1949.9459055986945,1619
1951.896653284633,1583
1953.8469233205478,1603
1955.7967159729142,1661
1957.7460315082863,1635
1959.6948701932974,1563
1961.6432322946594,1583
1963.5911180791632,1607
1965.5385278136787,1607
1967.4854617651545,1540
1969.4319202006182,1619
1971.377903387176,1635
1973.3234115920136,1591
1975.268445082395,1581
1977.2130041256642,1584
1979.1570889892423,1580
1981.1006999406304,1633
1983.04383724741,1593
1984.986501177238,1616
1986.928691997853,1611
1988.8704099770712,1661
1990.811655382789,1557
1992.7524284829801,1653
1994.692729545698,1651
1996.6325588390755,1598
1998.5719166313224,1582
2000.5108031907307,1637
2002.4492187856677,1600
2004.387163684583,1555
2006.3246381560011,1535
2008.2616424685298,1542
2010.1981768908527,1617
2012.1342416917332,1571
2014.069837140014,1518
2016.0049635046162,1598
2017.9396210545406,1601
2019.8738100588666,1587
2021.8075307867502,1537
2023.740783507431,1559
2025.6735684902228,1557
2027.6058860045214,1525
2029.5377363198004,1566
2031.4691197056118,1536
2033.4000364315875,1539
2035.3304867674374,1610
2037.260470982952,1573
2039.189989347998,1588
2041.1190421325232,1510
2043.047629606554,1518
2044.9757520401945,1573
2046.9034097036288,1596
2048.8306028671195,1550
2050.7573318010086,1559
2052.683596775716,1652
2054.609398061742,1583
2056.5347359296647,1538
2058.4596106501403,1550
2060.384022493906,1595
2062.3079717317764,1548
2064.231458634646,1555
2066.1544834734873,1520
2068.077046519352,1556
2069.99914804337,1475
2071.9207883167524,1528
2073.8419676107865,1576
2075.7626861968406,1592
2077.6829443463607,1599
2079.6027423308715,1542
2081.522080421977,1540
2083.440958891362,1550
2085.359378010786,1560
2087.2773380520907,1610
2089.194839287196,1571
2091.111881988101,1639
2093.0284664268825,1576
2094.9445928756973,1551
2096.86026160678,1510
2098.775472892446,1539
2100.690227005088,1533
2102.604524217178,1502
2104.5183648012676,1563
2106.431749029985,1526
2108.34467717604,1554
2110.2571495122206,1580
2112.169166311393,1546
2114.080727846503,1562
2115.9918343905747,1572
2117.902486216711,1498
2119.8126835980956,1554
2121.722426807987,1537
2123.6317161197285,1600
2125.5405518067364,1619
2127.448934142509,1606
2129.356863400624,1587
2131.264339854737,1609
2133.1713637785815,1575
2135.077935445972,1605
2136.9840551308002,1583
2138.889723107037,1516
2140.7949396487334,1601
2142.699705030018,1609
2144.6040195250994,1592
2146.507883408264,1583
2148.4112969538774,1670
2150.3142604363848,1634
2152.2167741303097,1616
2154.1188383102535,1631
2156.0204532508997,1669
2157.9216192270064,1643
2159.822336513414,1622
2161.7226053850413,1600
2163.622426116884,1643
2165.5217989840185,1591
2167.4207242616,1675
2169.319202224862,1627
2171.2172331491165,1610
2173.1148173097563,1647
2175.0119549822507,1611
2176.90864644215,1688
2178.8048919650823,1651
2180.7006918267534,1617
2182.596046302952,1642
2184.4909556695407,1669
2186.3854202024645,1605
2188.279440177746,1547
2190.173015871487,1602
2192.066147559868,1585
2193.958835519149,1638
2195.851080025667,1713
2197.7428813558417,1668
2199.6342397861667,1670
2201.5251555932186,1652
2203.415629053651,1664
2205.3056604441986,1698
2207.19525004167,1673
2209.084398122958,1695
2210.9731049650327,1686
2212.861370844941,1698
2214.749196039812,1687
2216.636580826851,1741
2218.523525483344,1731
2220.410030286655,1668
2222.296095514226,1746
2224.1817214435805,1685
2226.066908352319,1683
2227.951656518121,1729
2229.835966218746,1694
2231.71983773203,1724
2233.6032713358913,1683
2235.486267308324,1710
2237.3688259274036,1682
2239.2509474712824,1689
2241.132632218193,1744
2243.013880446447,1708
2244.8946924344323,1693
2246.7750684606203,1653
2248.6550088035574,1696
2250.534513741871,1668
2252.413583554265,1724
2254.292218519526,1717
2256.170418916517,1635
2258.0481850241786,1690
2259.925517121534,1659
2261.8024154876825,1750
2263.678880401803,1709
2265.5549121431536,1727
2267.430510991071,1673
2269.305677224971,1650
2271.180411124348,1616
2273.0547129687766,1623
2274.9285830379076,1600
2276.8020216114737,1712
2278.6750289692845,1678
2280.5476053912294,1661
2282.4197511572766,1679
2284.2914665474727,1725
2286.162751841943,1770
2288.0336073208937,1751
2289.904033264608,1784
2291.774029953448,1660
2293.6435976678554,1660
2295.5127366883517,1693
2297.381447295534,1625
2299.2497297700825,1635
2301.1175843927526,1568
2302.9850114443825,1522
2304.852011205885,1510
2306.7185839582553,1545
2308.5847299825664,1481
2310.4504495599676,1479
2312.3157429716925,1429
2314.1806104990483,1465
2316.0450524234247,1502
2317.9090690262888,1507
2319.772660589186,1517
2321.635827393742,1477
2323.498569721661,1479
2325.3608878547248,1428
2327.2227820747967,1519
2329.0842526638157,1489
2330.945299903803,1483
2332.805924076857,1458
2334.6661254651535,1465
2336.525904350951,1519
2338.3852610165827,1431
2340.244195744464,1490
2342.102708817088,1475
2343.9608005170253,1519
2345.8184711269287,1471
2347.675720929526,1443
2349.532550207628,1498
2351.38895924412,1480
2353.24494832197,1456
2355.100517724223,1491
2356.955667734004,1520
2358.810398634514,1549
2360.664710709037,1507
2362.5186042409337,1472
2364.3720795136437,1518
2366.225136810686,1518
2368.0777764156583,1491
2369.929998612237,1481
2371.7818036841777,1426
2373.633191915315,1519
2375.484163589562,1501
2377.3347189909114,1478
2379.184858403434,1510
2381.03458211128,1517
2382.8838903986775,1498
2384.732783549936,1496
2386.5812618494406,1518
2388.4293255816588,1514
2390.2769750311327,1469
2392.1242104824883,1507
2393.971032220427,1515
2395.8174405297295,1553
2397.6634356952563,1600
2399.509018001947,1499
2401.3541877348193,1470
2403.1989451789705,1483
2405.043290619576,1498
2406.8872243418905,1533
2408.730746631247,1537
2410.5738577730594,1491
2412.4165580528183,1529
2414.258847756095,1573
2416.100727168537,1484
2417.9421965758734,1526
2419.783256263912,1549
2421.623906518538,1556
2423.4641476257157,1510
2425.303979871491,1498
2427.143403541984,1509
2428.9824189233977,1451
2430.821026302012,1508
2432.6592259641866,1512
2434.497018196361,1522
2436.33440328505,1543
2438.171381516851,1552
2440.00795317844,1558
2441.844118556569,1555
2443.6798779380724,1538
2445.5152316098606,1494
2447.3501798589255,1473
2449.1847229723357,1546
2451.0188612372403,1514
2452.8525949408663,1568
2454.6859243705203,1506
2456.518849813587,1577
2458.3513715575314,1582
2460.183489889895,1516
2462.015205098301,1535
2463.8465174704493,1569
2465.67742729412,1585
2467.5079348571717,1513
2469.338040447542,1480
2471.1677443532476,1520
2472.9970468623833,1539
2474.825948263123,1550
2476.6544488437207,1551
2478.482548892508,1577
2480.310248697896,1577
2482.137548548374,1602
2483.9644487325118,1549
2485.790949538956,1577
2487.617051256433,1532
2489.44275417375,1580
2491.26805857979,1519
2493.0929647635157,1571
2494.917473013971,1581
2496.741583620276,1625
2498.5652968716304,1588
2500.3886130573137,1623
2502.2115324666834,1678
2504.0340553891765,1636
2505.856182114308,1546
2507.6779129316733,1653
2509.499248130945,1600
2511.3201880018764,1603
2513.140732834298,1696
2514.9608829181198,1638
2516.780638543331,1674
2518.6,1638
2520.418967578273,1595
2522.237541568376,1682
2524.0557222606144,1649
2525.8735099453706,1578
2527.6909049131086,1640
2529.507907454368,1599
2531.32451785977,1636
2533.140736420014,1601
2534.9565634258774,1680
2536.771999168218,1701
2538.5870439379714,1712
2540.4016980261526,1708
2542.2159617238544,1789
2544.02983532225,1710
2545.8433191125914,1713
2547.656413386209,1774
2549.4691184345115,1750
2551.2814345489874,1786
2553.093362021204,1783
2554.904901142808,1845
2556.716052205523,1787
2558.526815501153,1809
2560.3371913215824,1826
2562.147179958771,1833
2563.956781704761,1897
2565.7659968516705,1813
2567.5748256916986,1862
2569.3832685171224,1854
2571.1913256202984,1814
2572.9989972936614,1945
2574.806283829725,1873
2576.613185521084,1938
2578.4197026604074,1940
2580.2258355404483,1929
2582.031584454035,1970
2583.836949694077,2021
2585.6419315535613,1947
2587.4465303255533,1953
2589.2507463032002,2006
2591.0545797797245,1993
2592.8580310484303,2025
2594.6611004026995,1955
2596.463788135992,1969
2598.266094541849,1955
2600.0680199138874,2026
2601.869564545807,2019
2603.670728731383,1973
2605.4715127644704,2003
2607.2719169390048,1934
2609.071941548998,2003
2610.8715868885433,1997
2612.670853251811,2049
2614.469740933052,2026
2616.268250226594,2011
2618.0663814268455,1979
2619.864134828292,1903
2621.6615107255006,1934
2623.458509413115,1966
2625.2551311858597,1928
2627.0513763385347,1953
2628.8472451660223,1907
2630.6427379632833,1901
2632.4378550253564,1881
2634.232596647359,1898
2636.026963124488,1813
2637.8209547520187,1846
2639.6145718253065,1831
2641.407814639785,1846
2643.200683490966,1823
2644.9931786744414,1812
2646.7853004858807,1828
2648.577049221034,1863
2650.3684251757277,1762
2652.1594286458712,1793
2653.9500599274484,1771
2655.740319316525,1740
2657.5302071092437,1687
2659.3197236018286,1730
2661.10886909058,1753
2662.8976438718782,1666
2664.686048242183,1668
2666.4740824980327,1702
2668.2617469360443,1743
2670.0490418529134,1715
2671.8359675454153,1678
2673.622524310403,1633
2675.408712444811,1663
2677.1945322456495,1608
2678.979984010009,1688
2680.76506803506,1644
2682.5497846180497,1612
2684.334134056306,1528
2686.1181166472343,1647
2687.9017326883213,1605
2689.6849824771293,1627
2691.4678663113013,1575
2693.2503844885596,1531
2695.032537306705,1553
2696.8143250636167,1576
2698.5957480572542,1523
2700.3768065856534,1570
2702.1575009469316,1520
2703.937831439283,1536
2705.717798360982,1523
2707.4974020103837,1505
2709.276642685917,1559
2711.055520686095,1517
2712.834036309506,1634
2714.612189854819,1482
2716.389981620782,1483
2718.1674119062204,1454
2719.944481010041,1536
2721.721189231226,1512
2723.4975368688415,1554
2725.273524222027,1523
2727.0491515900053,1462
2728.824419272075,1495
2730.5993275676146,1486
2732.3738767760838,1426
2734.148067197016,1520
2735.921899130031,1482
2737.6953728748194,1524
2739.468488731156,1488
2741.2412469988926,1503
2743.0136479779617,1480
2744.785691968372,1465
2746.5573792702116,1451
2748.3287101836504,1466
2750.099685008934,1480
2751.870304046388,1493
2753.640567596418,1483
2755.4104759595057,1451
2757.1800294362156,1455
2758.949228327187,1447
2760.7180729331412,1430
2762.486563554877,1481
2764.254700493272,1481
2766.022484049284,1438
2767.789914523947,1421
2769.5569922183786,1432
2771.3237174337705,1442
2773.090090471394,1459
2774.8561116326036,1450
2776.6217812188274,1425
2778.3870995315756,1457
2780.1520668724356,1443
2781.9166835430747,1448
2783.6809498452394,1452
2785.444866080754,1382
2787.2084325515225,1474
2788.971649559527,1428
2790.73451740683,1542
2792.4970363955713,1474
2794.2592068279705,1509
2796.0210290063264,1451
2797.7825032330147,1431
2799.543629810493,1423
2801.304409041296,1415
2803.0648412280366,1431
2804.8249266734088,1461
2806.5846656801846,1556
2808.344058551212,1453
2810.1031055894246,1460
2811.8618070978273,1473
2813.6201633795085,1477
2815.378174737636,1453
2817.1358414754536,1423
2818.893163896285,1467
2820.6501423035334,1425
2822.4067770006814,1466
2824.1630682912883,1464
2825.9190164789957,1488
2827.6746218675207,1456
2829.429884760661,1503
2831.184805462294,1496
2832.9393842763743,1476
2834.693621506936,1416
2836.4475174580916,1433
2838.201072434034,1445
2839.954286739034,1465
2841.707160677441,1478
2843.459694553685,1454
2845.2118886722724,1446
2846.96374333779,1482
2848.7152588549034,1461
2850.4664355283567,1426
2852.217273662973,1452
2853.9677735636546,1414
2855.7179355353833,1460
2857.4677598832186,1467
2859.217246912299,1487
2860.9663969278427,1457
2862.715210235146,1428
2864.4636871395846,1462
2866.211827946614,1471
2867.9596329617652,1460
2869.7071024906536,1403
2871.4542368389684,1461
2873.20103631248,1384
2874.947501217038,1441
2876.6936318585695,1443
2878.4394285430812,1438
2880.1848915766604,1421
2881.9300212654707,1443
2883.6748179157553,1429
2885.4192818338374,1424
2887.1634133261173,1485
2888.907212699077,1408
2890.6506802592744,1455
2892.393816313348,1512
2894.1366211680142,1437
2895.8790951300693,1412
2897.621238506388,1427
2899.363051603925,1512
2901.1045347297118,1463
2902.8456881908596,1441
2904.58651229456,1510
2906.327007348081,1458
2908.067173658772,1461
2909.8070115340597,1398
2911.5465212814497,1373
2913.285703208527,1408
2915.0245576229563,1439
2916.7630848324807,1408
2918.5012851449196,1423
2920.2391588681758,1370
2921.976706310227,1453
2923.7139277791334,1392
2925.4508235830313,1441
2927.187394030137,1412
2928.923639428745,1385
2930.6595600872306,1473
2932.395156314046,1436
2934.1304284177218,1482
2935.8653767068713,1497
2937.6000014901815,1450
2939.3343030764227,1411
2941.068281774442,1435
2942.8019378931644,1498
2944.5352717415976,1495
2946.2682836288236,1471
2948.0009738640065,1415
2949.7333427563885,1436
2951.465390615289,1436
2953.1971177501086,1485
2954.9285244703265,1452
2956.6596110855,1458
2958.3903779052657,1441
2960.1208252393385,1448
2961.8509533975125,1459
2963.5807626896617,1497
2965.3102534257378,1450
2967.0394259157715,1454
2968.768280469873,1498
2970.496817398232,1504
2972.2250370111146,1437
2973.952939618869,1437
2975.6805255319196,1430
2977.4077950607707,1483
2979.134748516006,1476
2980.861386208289,1441
2982.587708448359,1412
2984.313715547037,1421
2986.039407815222,1467
2987.764785563891,1441
2989.489849104102,1427
2991.2145987469908,1408
2992.9390348037705,1430
2994.6631575857346,1486
2996.3869674042576,1410
2998.1104645707887,1486
2999.83364939686,1392
3001.5565221940783,1424
3003.2790832741334,1442
3005.0013329487924,1437
3006.7232715298996,1413
3008.4448993293804,1481
3010.166216659239,1379
3011.887223831558,1364
3013.607921158498,1410
3015.3283089522993,1457
3017.0483875252826,1479
3018.7681571898443,1446
3020.4876182584626,1333
3022.2067710436927,1430
3023.9256158581707,1455
3025.644153014609,1436
3027.362382825801,1456
3029.0803056046193,1437
3030.797921664012,1419
3032.5152313170106,1426
3034.2322348767225,1439
3035.9489326563353,1404
3037.665324969115,1454
3039.3814121284063,1411
3041.097194447633,1450
3042.812672240299,1425
3044.5278458199855,1384
3046.2427155003525,1473
3047.9572815951406,1431
3049.671544418167,1361
3051.38550428333,1418
3053.0991615046073,1435
3054.812516396051,1449
3056.5255692717974,1443
3058.2383204460575,1446
3059.9507702331257,1423
3061.662918947372,1425
3063.3747669032446,1438
3065.0863144152736,1443
3066.7975617980674,1424
3068.508509366309,1425
3070.219157434767,1425
3071.9295063182844,1433
3073.639556331785,1452
3075.3493077902704,1401
3077.058761008821,1452
3078.7679163025964,1464
3080.476773986837,1471
3082.1853343768594,1445
3083.89359778806,1414
3085.6015645359153,1399
3087.3092349359786,1471
3089.016609303884,1424
3090.7236879553434,1453
3092.4304712061476,1441
3094.136959372166,1390
3095.843152769349,1433
3097.5490517137237,1470
3099.2546565213966,1413
3100.959967508554,1404
3102.66498499146,1467
3104.3697092864577,1436
3106.0741407099695,1403
3107.778279578498,1448
3109.482126208622,1423
3111.1856809170004,1421
3112.8889440203716,1477
3114.5919158355528,1436
3116.294596679439,1431
3117.996986869006,1479
3119.6990867213062,1467
3121.4008965534726,1446
3123.102416682717,1459
3124.803647426329,1478
3126.5045891016784,1418
3128.205242026213,1550
3129.90560651746,1477
3131.605682893025,1504
3133.3054714705922,1456
3135.0049725679282,1450
3136.7041865028714,1463
3138.4031135933465,1437
3140.101754157353,1502
3141.800108512971,1384
3143.498176978357,1422
3145.1959598717494,1430
3146.8934575114636,1487
3148.5906702158954,1439
3150.2875983035183,1418
3151.9842420928853,1455
3153.680601902627,1464
3155.376678051456,1430
3157.07247085816,1405
3158.767980641609,1413
3160.463207720748,1392
3162.158152414606,1423
3163.8528150422862,1418
3165.5471959229726,1415
3167.2412953759303,1448
3168.9351137204976,1479
3170.628651276098,1418
3172.3219083622307,1458
3174.014885298474,1451
3175.707582404485,1464
3177.4000000000005,1438
3179.092138404835,1437
3180.7839979388846,1443
3182.47557892212,1392
3184.166881674594,1477
3185.8579065164386,1447
3187.5486537678626,1447
3189.2391237491547,1431
3190.9293167806827,1426
3192.6192331828934,1421
3194.3088732763117,1355
3195.998237381542,1437
3197.687325819268,1389
3199.376138910251,1363
3201.064676975334,1421
3202.7529403354347,1389
3204.4409293115523,1419
3206.1286442247647,1437
3207.816085396229,1366
3209.5032531471825,1357
3211.190147798936,1408
3212.8767696728846,1373
3214.5631190905015,1405
3216.2491963733373,1373
3217.9350018430214,1444
3219.6205358212637,1391
3221.305798629851,1410
3222.990790590651,1378
3224.6755120256103,1398
3226.359963256751,1347
3228.0441446061795,1374
3229.7280563960758,1369
3231.411698948703,1406
3233.0950725863995,1388
3234.778177631587,1379
3236.461014406761,1386
3238.1435832345005,1442
3239.8258844374595,1428
3241.507918338374,1402
3243.1896852600576,1384
3244.8711855254023,1383
3246.552419457381,1407
3248.233387379042,1386
3249.914089613516,1390
3251.59452648401,1366
3253.274698313813,1399
3254.95460542629,1411
3256.6342481448855,1398
3258.313626793125,1413
3259.9927416946084,1346
3261.6715931730196,1410
3263.3501815521176,1365
3265.0285071557437,1379
3266.706570307815,1389
3268.3843713323286,1449
3270.0619105533615,1382
3271.739188295068,1447
3273.4162048816834,1377
3275.0929606375184,1390
3276.769455886966,1385
3278.445690954498,1402
3280.1216661646613,1428
3281.797381842087,1451
3283.4728383114807,1397
3285.1480358976296,1408
3286.8229749253996,1419
3288.4976557197333,1382
3290.172078605655,1378
3291.846243908266,1352
3293.5201519527463,1401
3295.193803064357,1389
3296.8671975684374,1388
3298.5403357904024,1400
3300.21321805575,1430
3301.8858446900567,1420
3303.558216018975,1391
3305.23033236824,1411
3306.9021940636603,1390
3308.57380143113,1428
3310.2451547966184,1367
3311.916254486174,1406
3313.5871008259246,1418
3315.2576941420766,1397
3316.9280347609147,1388
3318.5981230088046,1422
3320.2679592121895,1393
3321.9375436975924,1389
3323.606876791612,1357
3325.27595882093,1378
3326.944790112305,1422
3328.6133709925753,1407
3330.2817017886573,1355
3331.949782827547,1424
3333.617614436319,1404
3335.2851969421245,1417
3336.952530672199,1430
3338.619615953853,1434
3340.286453114475,1408
3341.9530424815357,1277
3343.619384382583,1410
3345.2854791452437,1403
3346.951327097224,1395
3348.6169285663073,1404
3350.2822838803577,1414
3351.947393367319,1381
3353.61225735521,1361
3355.2768761721345,1347
3356.9412501462693,1381
3358.605379605873,1332
3360.2692648792827,1363
3361.9329062949146,1394
3363.596304181263,1383
