CollectionTime,9/20/2024 12:22:03 PM
ExposureUsed,3
CalibratedSpectrum
-962.7078968117929,722
-959.9714848408522,734
-957.2358232597828,751
-954.5009119013725,782
-951.7667505983302,781
-949.0333391832855,806
-946.3006774887896,795
-943.5687653473143,784
-940.837602591253,815
-938.1071890529199,817
-935.3775245645503,770
-932.6486089583007,816
-929.9204420662485,737
-927.1930237203925,789
-924.4663537526524,795
-921.7404319948689,801
-919.0152582788041,843
-916.2908324361409,794
-913.5671542984834,787
-910.8442236973568,752
-908.1220404642074,777
-905.4006044304027,767
-902.679915427231,790
-899.959973285902,732
-897.2407778375464,758
-894.5223289132158,756
-891.8046263438832,722
-889.0876699604426,757
-886.3714595937089,760
-883.6559950744183,729
-880.9412762332282,734
-878.2273029007168,761
-875.5140749073835,775
-872.8015920836489,768
-870.0898542598545,732
-867.3788612662631,724
-864.6686129330585,701
-861.9591090903457,713
-859.2503495681506,733
-856.5423341964203,717
-853.8350628050229,737
-851.1285352237478,723
-848.4227512823054,746
-845.7177108103272,750
-843.0134136373656,727
-840.3098595928943,704
-837.6070485063082,718
-834.9049802069229,761
-832.2036545239757,757
-829.5030712866244,722
-826.8032303239481,741
-824.1041314649472,736
-821.4057745385428,737
-818.7081593735775,765
-816.0112857988148,787
-813.3151536429393,754
-810.6197627345566,755
-807.9251129021936,737
-805.2312039742981,740
-802.5380357792392,766
-799.8456081453069,740
-797.1539209007124,790
-794.462973873588,811
-791.772766891987,773
-789.083299783884,781
-786.3945723771743,769
-783.7065844996748,699
-781.0193359791231,768
-778.3328266431781,753
-775.6470563194197,720
-772.9620248353489,766
-770.2777320183878,761
-767.5941776958798,718
-764.9113616950891,775
-762.2292838432011,754
-759.5479439673222,713
-756.8673418944801,752
-754.1874774516235,771
-751.5083504656222,765
-748.8299607632671,772
-746.15230817127,775
-743.475392516264,777
-740.7992136248035,779
-738.1237713233636,782
-735.4490654383407,739
-732.7750957960521,762
-730.1018622227365,772
-727.4293645445534,753
-724.7576025875837,776
-722.0865761778291,797
-719.4162851412126,784
-716.7467293035781,790
-714.0779084906909,828
-711.409822528237,823
-708.7424712418238,829
-706.0758544569796,811
-703.4099719991541,880
-700.7448236937178,783
-698.0804093659622,854
-695.4167288411002,806
-692.7537819442656,836
-690.0915685005134,841
-687.4300883348199,862
-684.7693412720819,845
-682.1093271371178,865
-679.4500457546669,815
-676.7914969493897,835
-674.1336805458676,870
-671.4765963686034,804
-668.8202442420206,809
-666.1646239904642,842
-663.5097354382001,826
-660.8555784094151,839
-658.2021527282176,808
-655.5494582186366,840
-652.8974947046223,846
-650.2462620100463,821
-647.5957599587009,852
-644.9459883742998,965
-642.2969470804776,925
-639.6486359007902,889
-637.0010546587141,939
-634.3542031776476,967
-631.7080812809096,884
-629.0626887917401,904
-626.4180255333008,886
-623.7740913286734,917
-621.1308860008619,875
-618.4884093727904,883
-615.8466612673046,894
-613.2056415071715,898
-610.5653499150785,866
-607.9257863136347,928
-605.28695052537,943
-602.6488423727357,894
-600.0114616781036,931
-597.3748082637674,932
-594.7388819519412,968
-592.1036825647604,927
-589.4692099242818,902
-586.8354638524829,960
-584.2024441712624,956
-581.5701507024403,919
-578.9385832677575,959
-576.3077416888759,951
-573.6776257873787,932
-571.0482353847704,916
-568.4195703024757,947
-565.7916303618415,911
-563.164415384135,905
-560.5379251905453,910
-557.9121596021815,935
-555.2871184400748,915
-552.6628015251767,912
-550.0392086783606,970
-547.4163397204204,1021
-544.794194472071,978
-542.1727727539491,990
-539.5520743866118,1004
-536.9320991905377,996
-534.3128469861261,1023
-531.6943175936979,1024
-529.0765108334947,1014
-526.4594265256793,1024
-523.8430644903358,1257
-521.2274245474689,1439
-518.612506517005,1504
-515.9983102187913,1555
-513.3848354725959,1556
-510.77208209810846,1539
-508.16004991493924,1619
-505.5487387426199,1842
-502.9381484006032,1926
-500.3282787082628,1873
-497.71912948489364,1895
-495.1107005497117,1894
-492.5029917218539,1724
-489.8960028203786,1535
-487.28973366426493,1431
-484.68418407241325,1325
-482.07935386364494,1253
-479.47524285670266,1130
-476.87185087025,1127
-474.2691777228715,1138
-471.66722323307334,1114
-469.0659872192821,1096
-466.4654694998459,1160
-463.86566989303384,1159
-461.26658821703614,1122
-458.66822428996414,1123
-456.07057792985,1109
-453.4736489546475,1115
-450.877437182231,1124
-448.28194243039627,1165
-445.68716451686,1091
-443.09310325926003,1143
-440.49975847515555,1163
-437.9071299820263,1138
-435.31521759727354,1180
-432.72402113821954,1166
-430.13354042210767,1096
-427.5437752661022,1127
-424.95472548728867,1132
-422.36639090267386,1151
-419.7787713291855,1182
-417.1918665836721,1244
-414.60567648290385,1268
-412.0202008435715,1235
-409.4354394822874,1287
-406.8513922155845,1260
-404.26805885991723,1167
-401.685439231661,1248
-399.103533147112,1255
-396.522340422488,1269
-393.9418608739278,1194
-391.3620943174908,1180
-388.7830405691583,1168
-386.2046994448317,1147
-383.6270707603344,1119
-381.05015433141045,1076
-378.473949973725,1037
-375.8984575028645,962
-373.32367673433623,869
-370.74960748356875,830
-368.1762495659117,788
-365.60360279663576,707
-363.03166699093265,695
-360.4604419639154,626
-357.8899275306178,606
-355.32012350599507,633
-352.7510297049233,579
-350.1826459421999,607
-347.61497203254316,585
-345.04800779059235,539
-342.4817530309082,500
-339.91620756797226,579
-337.35137121618743,600
-334.7872437898774,555
-332.22382510328725,580
-329.66111497058273,577
-327.09911320585127,609
-324.53781962310075,599
-321.9772340362607,560
-319.4173562591816,537
-316.8581861056348,551
-314.2997233893127,531
-311.7419679238294,583
-309.1849195227194,619
-306.62857799943856,690
-304.0729431673641,667
-301.51801483979375,634
-298.963792829947,603
-296.41027695096386,628
-293.85746701590574,624
-291.3053628377552,630
-288.7539642294155,650
-286.2032710037115,695
-283.65328297338897,650
-281.1039999511146,683
-278.5554217494762,754
-276.007548180983,718
-273.4603790580651,741
-270.9139141930734,755
-268.3681533982807,687
-265.8230964858798,775
-263.27874326798565,746
-260.7350935566336,746
-258.1921471637804,772
-255.6499039013039,847
-253.10836358100266,907
-250.56752601459698,789
-248.02739101372765,862
-245.48795838995704,907
-242.94922795476816,893
-240.41119951956557,931
-237.8738728956746,931
-235.33724789434166,904
-232.80132432673452,844
-230.2661020039418,790
-227.73158073697357,863
-225.19776033676033,941
-222.66464061415422,1023
-220.1322213799284,998
-217.60050244477725,913
-215.06948361931552,975
-212.53916471408013,1092
-210.00954553952818,1050
-207.48062590603843,900
-204.9524056239104,876
-202.4248845033651,999
-199.8980623545441,964
-197.37193898751036,999
-194.84651421224817,1041
-192.32178783866232,990
-189.79775967657952,956
-187.27442953574644,1122
-184.7517972258321,1140
-182.2298625564256,1036
-179.7086253370378,907
-177.18808537710026,1011
-174.66824248596583,1161
-172.14909647290835,1155
-169.6306471471229,1106
-167.11289431772548,1178
-164.59583779375328,1114
-162.07947738416453,1194
-159.5638128978386,1595
-157.04884414357605,1743
-154.53457093009854,1521
-152.02099306604828,1183
-149.50811035998936,1295
-146.99592262040665,1533
-144.48442965570587,1750
-141.97363127421409,1831
-139.46352728417958,1749
-136.95411749377126,1738
-134.44540171107985,1456
-131.93737974411636,1398
-129.43005140081357,1411
-126.92341648902493,1709
-124.41747481652521,2085
-121.91222619101006,2492
-119.40767042009657,2180
-116.90380731132257,1791
-114.40063667214702,2309
-111.8981583099503,3786
-109.3963720320337,6455
-106.89527764561933,10619
-104.39487495785067,13441
-101.89516377579241,16131
-99.39614390642998,19322
-96.89781515667039,25095
-94.40017733334128,31057
-91.90323024319173,31103
-89.40697369289148,22373
-86.91140748903172,14323
-84.41653143812482,11165
-81.92234534660395,15832
-79.42884902082358,23473
-76.93604226705907,27254
-74.4439248915071,22892
-71.95249670028534,17298
-69.46175749943245,13647
-66.97170709490854,11424
-64.48234529259423,10786
-61.99367189829195,10714
-59.50568671772464,9356
-57.01838955653636,9164
-54.53178022029283,10297
-52.045858514480074,10204
-49.560624244506016,12309
-47.07607721569923,13294
-44.59221723330904,12593
-42.10904410250669,14174
-39.62655762838392,17998
-37.14475761595372,23116
-34.66364387015028,26434
-32.18321619582866,28153
-29.70347439776515,29905
-27.224418280657005,30706
-24.74604764912317,34765
-22.26836230770266,45401
-19.7913620608565,65035
-17.315046712966478,65035
-14.83941606833514,65035
-12.36446993118659,65035
-9.89020810566592,65035
-7.416630395839093,65035
-4.94373660569363,65035
-2.471526539137585,65035
-6.821210263296962E-13,65035
2.47084320796705,65035
4.941003281093458,65035
7.410480415786196,65035
9.879274808531363,65035
12.347386655893956,65035
14.814816154518212,65035
17.28156350112681,65035
19.74762889252179,65035
22.21301252558385,27706
24.67771459727237,8060
27.141735304626195,7655
29.605074844762612,7391
32.06773341487792,5585
34.52971121224755,5034
36.99100843422559,4942
39.45162527824516,3818
41.91156194181792,3691
44.370818622535126,4185
46.82939551806646,3342
49.287292826160524,5694
51.74451074464503,6350
54.201049471426245,4239
56.65690920448981,3282
59.112090141899785,2952
61.56659248179983,2413
64.02041642241159,2771
66.4735621620365,2905
68.92602989905402,3235
71.37781983192338,3821
73.82893215918205,3178
76.27936707944684,2539
78.72912479141326,2568
81.17820549385567,2456
83.62660938562783,2002
86.07433666566146,1542
88.5213875329681,1651
90.96776218663751,2189
93.41346082583925,2469
95.85848364982041,2455
98.30283085790859,2441
100.7465026495089,2009
103.18949922410604,1808
105.63182078126385,1679
108.07346752062438,1811
110.51443964190923,1577
112.95473734491827,1625
115.39436082953114,1660
117.83331029570547,1673
120.27158594347827,2180
122.7091879729652,1918
125.1461165843615,1757
127.58237197794062,1518
130.01795435405518,1435
132.4528639131364,1431
134.88710085569494,1426
137.32066538231982,1682
139.75355769367923,1809
142.1857779905207,1654
144.61732647366978,1343
147.04820334403132,1233
149.47840880258934,1221
151.90794305040674,1502
154.33680628862487,1392
156.76499871846443,1664
159.19252054122433,2037
161.61937195828352,2050
164.04555317109896,2124
166.47106438120693,2394
168.89590579022217,2487
171.320077599839,2727
173.7435800118302,2865
176.16641322804742,2879
178.58857745042144,2928
181.01007288096173,2930
183.43089972175687,3036
185.85105817497413,3016
188.27054844285988,3038
190.6893707277394,3236
193.10752523201643,2998
195.5250121581745,3248
197.9418317087751,3148
200.3579840864594,3258
202.7734694939469,3462
205.18828813403627,3589
207.6024402096051,3442
210.01592592360964,3480
212.42874547908548,3464
214.84089907914665,3475
217.2523869269868,3335
219.66320922587727,3345
222.0733661791695,3264
224.48285799029293,3256
226.8916848627572,3300
229.29984700014882,3439
231.7073446061355,3361
234.11417788446204,3487
236.520347038953,3564
238.92585227351185,3677
241.33069379212054,3747
243.73487179884035,3731
246.1383864978112,3706
248.541238093252,3666
250.9434267894609,3735
253.34495279081432,3712
255.74581630176783,3702
258.1460175268563,3735
260.54555667069314,3736
262.9444339379703,3693
265.3426495334594,3763
267.7402036620107,3721
270.1370965285529,3493
272.53332833809407,3406
274.9288992957214,3293
277.32380960660055,3217
279.718059475976,3154
282.1116491091717,3113
284.5045787115897,3075
286.89684848871195,3063
289.2884586460981,3146
291.67940938938807,3251
294.0697009242996,3075
296.4593334566299,3128
298.84830719225477,3144
301.23662233712923,3077
303.6242790972866,3071
306.01127767884,2977
308.39761828798066,2964
310.78330113097934,2981
313.16832641418534,2732
315.5526943440269,2860
317.9364051270112,2745
320.3194589697242,2833
322.70185607883093,2771
325.0835966610754,2762
327.4646809232805,2572
329.8451090723478,2658
332.2248813152577,2669
334.6039978590701,2688
336.9824589109231,2630
339.36026467803447,2558
341.7374153677,2589
344.113911187295,2543
346.48975234427337,2574
348.8649390461686,2488
351.2394715005918,2639
353.61334991523415,2495
355.9865744978655,2538
358.35914545633375,2624
360.73106299856715,2650
363.10232733257146,2494
365.47293866643247,2476
367.84289720831396,2487
370.2122031664593,2444
372.5808567491905,2461
374.9488581649083,2352
377.31620762209275,2400
379.6829053293021,2424
382.0489514951745,2351
384.4143463284262,2382
386.7790900378528,2402
389.14318283232853,2487
391.50662492080653,2397
393.86941651231916,2463
396.23155781597745,2434
398.5930490409713,2434
400.9538903965696,2379
403.3140820921202,2408
405.6736243370498,2310
408.03251734086336,2303
410.3907613131465,2331
412.74835646356166,2274
415.10530300185144,2271
417.4616011378372,2323
419.81725108141893,2338
422.1722530425758,2342
424.5266072313656,2307
426.880313857925,2200
429.2333731324701,2313
431.58578526529516,2324
433.9375504667738,2319
436.2886689473588,2247
438.63914091758113,2256
440.9889665880513,2262
443.33814616945835,2300
445.68667987257015,2265
448.03456790823395,2273
450.3818104873759,2208
452.72840782100013,2155
455.07436012019105,2211
457.41966759611057,2216
459.7643304600007,2232
462.10834892318155,2224
464.4517231970525,2268
466.79445349309174,2347
469.1365400228566,2288
471.4779829979826,2211
473.81878263018564,2218
476.15893913125876,2304
478.4984527130747,2400
480.8373235875855,2397
483.17555196682144,2489
485.5131380628919,2450
487.8500820879857,2554
490.1863842543697,2703
492.52204477439034,2924
494.8570638604725,3182
497.1914417251204,3354
499.52517858091653,3601
501.85827464052306,3881
504.19073011668036,3899
506.5225452222086,3964
508.85372017000566,3814
511.18425517304956,3888
513.514150444396,4132
515.8434061971808,5223
518.1720226446176,6281
520.4999999999999,6464
522.8273384766991,6286
525.1540382881666,5955
527.480099647932,5372
529.8055227696037,4284
532.1303078668694,3227
534.454455153496,2788
536.777964843328,2577
539.1008371502907,2451
541.4230722883866,2543
543.744670471698,2341
546.0656319143858,2409
548.3859568306899,2364
550.7056454349294,2340
553.0246979415016,2380
555.3431145648834,2405
557.6608955196306,2226
559.978041020377,2308
562.2945512818363,2307
564.6104265188006,2350
566.9256669461412,2292
569.2402727788082,2203
571.5542442318302,2243
573.8675815203156,2251
576.1802848594508,2188
578.4923544645015,2292
580.8037905508126,2293
583.114593333807,2282
585.4247630289875,2360
587.7342998519354,2383
590.0432040183106,2318
592.3514757438526,2283
594.6591152443794,2326
596.9661227357875,2370
599.2724984340531,2243
601.578242555231,2209
603.8833553154542,2258
606.1878369309362,2299
608.4916876179676,2276
610.7949075929192,2266
613.0974970722403,2271
615.3994562724587,2325
617.7007854101818,2298
620.0014847020951,2264
622.3015543649641,2377
624.6009946156324,2359
626.8998056710224,2288
629.1979877481361,2313
631.4955410640538,2263
633.7924658359349,2238
636.0887622810175,2273
638.3844306166192,2337
640.6794710601358,2252
642.9738838290426,2323
645.2676691408932,2285
647.5608272133207,2406
649.853358264037,2345
652.1452625108324,2412
654.4365401715764,2417
656.7271914642178,2405
659.0172166067838,2484
661.3066158173809,2452
663.5953893141935,2369
665.8835373154867,2334
668.1710600396028,2322
670.4579577049639,2305
672.7442305300709,2358
675.0298787335033,2382
677.3149025339197,2305
679.599302150058,2343
681.8830778007342,2388
684.1662297048437,2353
686.4487580813608,2401
688.7306631493387,2366
691.0119451279091,2315
693.2926042362834,2308
695.5726406937516,2321
697.8520547196814,2283
700.1308465335215,2289
702.4090163547982,2197
704.6865644031171,2339
706.9634908981619,2278
709.2397960596965,2273
711.5154801075631,2314
713.7905432616823,2334
716.0649857420548,2278
718.3388077687592,2300
720.612009561953,2354
722.8845913418733,2265
725.1565533288352,2272
727.427895743234,2263
729.6986188055427,2369
731.9687227363137,2256
734.238207756178,2269
736.5070740858458,2352
738.7753219461066,2295
741.0429515578281,2251
743.3099631419569,2260
745.5763569195191,2288
747.8421331116193,2252
750.1072919394409,2285
752.3718336242467,2244
754.6357583873777,2224
756.8990664502545,2244
759.1617580343765,2351
761.423833361321,2285
763.6852926527457,2290
765.9461361303862,2281
768.206364016058,2311
770.4659765316536,2316
772.7249738991469,2275
774.9833563405886,2386
777.2411240781092,2337
779.4982773339183,2327
781.7548163303044,2310
784.010741289634,2419
786.2660524343538,2445
788.5207499869881,2397
790.7748341701416,2399
793.0283052064964,2374
795.2811633188143,2347
797.5334087299362,2257
799.7850416627813,2271
802.0360623403484,2282
804.2864709857143,2372
806.5362678220353,2359
808.7854530725468,2344
811.0340269605625,2328
813.2819897094754,2307
815.5293415427581,2410
817.77608268396,2450
820.0222133567116,2272
822.2677337847211,2296
824.5126441917765,2359
826.7569448017433,2317
829.0006358385675,2401
831.2437175262731,2326
833.4861900889629,2352
835.7280537508192,2348
837.9693087361026,2294
840.2099552691533,2392
842.4499935743896,2252
844.689423876309,2300
846.9282463994886,2382
849.1664613685833,2355
851.4040690083276,2326
853.6410695435349,2380
855.877463199097,2366
858.1132501999847,2370
860.3484307712487,2362
862.5830051380175,2315
864.8169735254988,2365
867.0503361589791,2302
869.2830932638243,2324
871.5152450654786,2385
873.7467917894654,2403
875.9777336613873,2421
878.2080709069252,2436
880.4378037518389,2377
882.666932421968,2332
884.8954571432301,2347
887.1233781416219,2455
889.3506956432192,2448
891.5774098741766,2407
893.803521060728,2416
896.0290294291852,2512
898.2539352059397,2417
900.4782386174619,2390
902.7019398903011,2408
904.925039251085,2378
907.147536926521,2422
909.3694331433943,2361
911.59072812857,2417
913.8114221089921,2354
916.0315153116827,2271
918.2510079637437,2402
920.4699002923547,2362
922.6881925247761,2335
924.905884888345,2341
927.1229776104793,2379
929.3394709186747,2384
931.555365040506,2376
933.7706602036275,2397
935.9853566357709,2362
938.1994545647489,2382
940.4129542184515,2350
942.6258558248488,2387
944.8381596119883,2318
947.0498658079974,2316
949.2609746410825,2365
951.4714863395287,2382
953.6814011316998,2420
955.8907192460387,2376
958.0994409110671,2369
960.3075663553858,2372
962.5150958076741,2446
964.7220294966913,2375
966.928367651274,2398
969.1341105003388,2335
971.3392582728806,2300
973.5438111979742,2376
975.747769504772,2312
977.9511334225061,2355
980.153903180487,2275
982.3560790081052,2183
984.5576611348289,2269
986.7586497902058,2231
988.9590452038618,2154
991.158847605503,2190
993.3580572249133,2231
995.5566742919558,2157
997.7546990365728,2041
999.952131688785,2060
1002.1489724786926,2018
1004.3452216364743,2029
1006.5408793923874,2051
1008.7359459767691,2080
1010.9304216200343,1959
1013.1243065526781,1978
1015.3176010052733,1983
1017.510305208472,1979
1019.7024193930064,1944
1021.8939437896848,1973
1024.0848786293977,1997
1026.2752241431122,1987
1028.4649805618747,1987
1030.6541481168115,1982
1032.842727039127,2039
1035.0307175601051,1980
1037.2181199111074,1931
1039.4049343235752,1887
1041.591161029029,1936
1043.7768002590683,1904
1045.9618522453698,1967
1048.1463172196918,1937
1050.3301954138697,1990
1052.513487059818,1992
1054.69619238953,1907
1056.8783116350783,1940
1059.0598450286152,1868
1061.2407928023704,1867
1063.4211551886528,1903
1065.6009324198508,1978
1067.780124728432,1926
1069.9587323469414,1927
1072.1367555080046,1913
1074.314194444325,1860
1076.4910493886855,1937
1078.667320573947,1800
1080.843008233051,1823
1083.0181125990161,1902
1085.1926339049414,1804
1087.3665723840027,1856
1089.5399282694575,1908
1091.7127017946405,1911
1093.8848931929647,1829
1096.0565026979243,1810
1098.2275305430899,1859
1100.3979769621128,1847
1102.567842188722,1793
1104.737126456726,1778
1106.9058300000124,1858
1109.0739530525475,1831
1111.2414958483764,1793
1113.4084586216231,1848
1115.5748416064907,1783
1117.7406450372605,1786
1119.9058691482942,1807
1122.0705141740304,1835
1124.2345803489884,1843
1126.3980679077658,1867
1128.5609770850388,1837
1130.7233081155623,1744
1132.8850612341707,1814
1135.0462366757774,1775
1137.2068346753745,1745
1139.3668554680326,1750
1141.526299288901,1769
1143.68516637321,1737
1145.8434569562655,1808
1148.001171273455,1751
1150.158309560244,1810
1152.3148720521767,1771
1154.470858984876,1744
1156.626270594044,1771
1158.7811071154629,1798
1160.9353687849912,1683
1163.089055838569,1776
1165.242168512213,1761
1167.3947070420209,1768
1169.5466716641677,1719
1171.6980626149075,1679
1173.8488801305748,1864
1175.9991244475814,1792
1178.1487958024186,1811
1180.2978944316555,1703
1182.4464205719428,1742
1184.5943744600072,1734
1186.7417563326567,1727
1188.8885664267755,1775
1191.0348049793297,1728
1193.1804722273619,1709
1195.325568407995,1856
1197.4700937584303,1745
1199.614048515948,1778
1201.7574329179074,1766
1203.900247201746,1772
1206.042491604982,1772
1208.1841663652099,1742
1210.3252717201053,1728
1212.465807907422,1733
1214.6057751649923,1850
1216.7451737307279,1804
1218.8840038426192,1827
1221.0222657387353,1811
1223.1599596572241,1737
1225.2970858363137,1764
1227.4336445143094,1870
1229.5696359295966,1846
1231.705060320639,1848
1233.8399179259786,1819
1235.9742089842384,1795
1238.107933734118,1794
1240.2410924143974,1851
1242.373685263935,1903
1244.5057125216676,1808
1246.6371744266116,1804
1248.7680712178621,1824
1250.898403134593,1803
1253.028170416058,1794
1255.1573733015875,1751
1257.2860120305932,1768
1259.4140868425648,1846
1261.54159797707,1846
1263.6685456737569,1847
1265.7949301723515,1876
1267.9207517126597,1860
1270.046010534565,1891
1272.1707068780306,1862
1274.2948409830983,1864
1276.4184130898889,1918
1278.541423438603,1842
1280.6638722695184,1896
1282.785759822993,1903
1284.9070863394636,1884
1287.0278520594447,1867
1289.1480572235314,1924
1291.2677020723963,1871
1293.3867868467923,1903
1295.5053117875495,1984
1297.623277135579,1944
1299.740683131868,1992
1301.8575300174857,1996
1303.973818033578,1956
1306.0895474213703,1967
1308.2047184221678,1993
1310.3193312773528,2024
1312.4333862283888,1955
1314.5468835168163,2042
1316.659823384255,1965
1318.7722060724045,1996
1320.8840318230418,1996
1322.9953008780249,1991
1325.1060134792888,2014
1327.2161698688478,2007
1329.3257702887959,2038
1331.4348149813054,1984
1333.5433041886276,1945
1335.6512381530933,2017
1337.7586171171101,1957
1339.8654413231675,1968
1341.9717110138317,1999
1344.0774264317488,1980
1346.1825878196432,2004
1348.2871954203192,1968
1350.3912494766587,1938
1352.4947502316231,1936
1354.5976979282532,2054
1356.7000928096686,1993
1358.8019351190665,1992
1360.9032250997243,1920
1363.0039629949988,1984
1365.1041490483235,2013
1367.2037835032133,1888
1369.3028666032606,1866
1371.401398592137,1952
1373.4993797135926,2067
1375.5968102114575,2109
1377.6936903296396,2084
1379.7900203121262,2034
1381.8858004029835,1972
1383.9810308463561,2005
1386.075711886469,1968
1388.1698437676241,2031
1390.2634267342032,2002
1392.356461030667,2085
1394.4489469015557,2047
1396.5408845914872,2038
1398.6322743451592,2049
1400.7231164073469,2123
1402.813411022907,1977
1404.903158436773,2029
1406.9923588939578,2051
1409.0810126395531,2076
1411.1691199187303,2159
1413.2566809767386,2088
1415.343696058907,2111
1417.4301654106425,2115
1419.5160892774315,2170
1421.6014679048399,2179
1423.6863015385125,2195
1425.7705904241707,2215
1427.8543348076178,2186
1429.9375349347342,2194
1432.0201910514802,2309
1434.102303403894,2242
1436.1838722380944,2282
1438.2648978002767,2308
1440.3453803367174,2437
1442.4253200937692,2442
1444.5047173178677,2328
1446.5835722555234,2399
1448.6618851533285,2495
1450.739656257952,2511
1452.8168858161434,2523
1454.8935740747306,2568
1456.96972128062,2629
1459.045327680797,2630
1461.120393522327,2733
1463.1949190523528,2737
1465.2689045180973,2710
1467.3423501668608,2787
1469.415256246024,2876
1471.4876230030463,2830
1473.559450685465,2967
1475.6307395408976,2967
1477.7014898170391,3019
1479.771701761665,3061
1481.8413756226287,3182
1483.9105116478618,3117
1485.9791100853772,3271
1488.0471711832643,3287
1490.1146951896926,3248
1492.1816823529098,3317
1494.2481329212433,3353
1496.3140471430984,3415
1498.3794252669609,3442
1500.4442675413939,3489
1502.5085742150404,3578
1504.572345536622,3597
1506.6355817549388,3596
1508.6982831188702,3667
1510.7604498773744,3641
1512.8220822794883,3768
1514.8831805743293,3848
1516.9437450110909,3747
1519.003775839048,3886
1521.0632733075522,3917
1523.1222376660367,3876
1525.1806691640113,3850
1527.2385680510652,3882
1529.2959345768668,4074
1531.3527689911643,4078
1533.4090715437833,4234
1535.4648424846291,4128
1537.5200820636855,4201
1539.5747905310159,4214
1541.6289681367616,4337
1543.6826151311434,4436
1545.7357317644614,4360
1547.7883182870937,4419
1549.8403749494987,4519
1551.8919020022113,4587
1553.9428996958477,4672
1555.9933682811015,4781
1558.0433080087469,4856
1560.0927191296346,4870
1562.1416018946961,5039
1564.1899565549415,5042
1566.2377833614592,4885
1568.2850825654164,4784
1570.3318544180606,4627
1572.3780991707158,4497
1574.423817074788,4363
1576.4690083817595,4103
1578.5136733431923,3984
1580.5578122107272,3724
1582.601425236085,3660
1584.6445126710646,3528
1586.6870747675434,3419
1588.7291117774776,3167
1590.7706239529034,3083
1592.8116115459347,2980
1594.8520748087658,2884
1596.8920139936686,2759
1598.9314293529933,2709
1600.9703211391711,2613
1603.008689604711,2534
1605.0465350022005,2442
1607.0838575843068,2418
1609.1206576037753,2340
1611.1569353134305,2323
1613.1926909661765,2323
1615.2279248149953,2207
1617.2626371129481,2148
1619.2968281131757,2179
1621.3304980688963,2137
1623.3636472334088,2168
1625.39627586009,2109
1627.428384202396,2059
1629.459972513861,1988
1631.4910410480993,2042
1633.5215900588028,2065
1635.551619799744,1952
1637.5811305247717,2028
1639.6101224878166,1964
1641.6385959428862,1932
1643.6665511440683,2001
1645.693988345528,1938
1647.7209078015112,1905
1649.7473097663405,1907
1651.7731944944203,1891
1653.7985622402307,1859
1655.823413258333,1847
1657.847747803366,1869
1659.8715661300494,1937
1661.8948684931793,1971
1663.9176551476316,1901
1665.9399263483624,1911
1667.9616823504057,1889
1669.982923408873,1886
1672.0036497789574,1912
1674.0238617159293,1833
1676.043559475138,1832
1678.0627433120121,1920
1680.081413482059,1902
1682.0995702408654,1922
1684.117213844096,1925
1686.134344547495,1894
1688.1509626068864,1856
1690.1670682781705,1850
1692.182661817329,1865
1694.1977434804217,1806
1696.2123135235875,1840
1698.226372203043,1840
1700.2399197750851,1930
1702.2529564960905,1801
1704.2654826225112,1864
1706.277498410882,1795
1708.2890041178139,1885
1710.2999999999988,1831
1712.3104863142066,1767
1714.3204633172854,1820
1716.329931266163,1773
1718.3388904178469,1851
1720.3473410294214,1867
1722.3552833580516,1837
1724.3627176609807,1836
1726.3696441955308,1767
1728.3760632191033,1775
1730.3819749891782,1769
1732.3873797633146,1763
1734.3922777991502,1768
1736.3966693544012,1822
1738.4005546868639,1772
1740.4039340544127,1778
1742.406807715001,1775
1744.4091759266616,1808
1746.4110389475054,1736
1748.4123970357223,1790
1750.413250449582,1728
1752.4135994474318,1754
1754.4134442876993,1777
1756.4127852288902,1812
1758.4116225295893,1803
1760.4099564484595,1747
1762.407787244244,1764
1764.405115175764,1775
1766.4019405019203,1676
1768.3982634816916,1703
1770.3940843741357,1705
1772.3894034383907,1748
1774.3842209336717,1735
1776.378537119274,1715
1778.372352254571,1735
1780.3656665990156,1682
1782.3584804121397,1713
1784.3507939535534,1689
1786.3426074829463,1767
1788.3339212600863,1736
1790.3247355448211,1709
1792.3150505970766,1697
1794.3048666768573,1632
1796.2941840442477,1735
1798.2830029594106,1786
1800.2713236825884,1681
1802.2591464741004,1721
1804.2464715943465,1705
1806.2332993038058,1611
1808.2196298630352,1754
1810.2054635326708,1673
1812.190800573428,1737
1814.175641246101,1697
1816.1599858115628,1693
1818.1438345307652,1742
1820.127187664738,1768
1822.1100454745924,1690
1824.092408221516,1689
1826.0742761667766,1762
1828.055649571721,1693
1830.0365286977735,1691
1832.0169138064398,1712
1833.9968051593014,1656
1835.9762030180214,1759
1837.9551076443408,1714
1839.9335193000788,1692
1841.9114382471344,1712
1843.888864747485,1748
1845.8657990631878,1673
1847.842241456378,1599
1849.8181921892697,1637
1851.7936515241558,1720
1853.7686197234098,1647
1855.7430970494815,1635
1857.7170837649014,1626
1859.6905801322787,1650
1861.6635864143004,1690
1863.6361028737338,1668
1865.608129773424,1653
1867.5796673762961,1653
1869.5507159453537,1728
1871.521275743678,1669
1873.4913470344313,1751
1875.4609300808534,1719
1877.4300251462632,1638
1879.3986324940588,1628
1881.366752387717,1651
1883.3343850907936,1666
1885.3015308669228,1687
1887.268189979819,1670
1889.2343626932739,1657
1891.2000492711595,1627
1893.1652499774254,1628
1895.1299650761011,1733
1897.0941948312952,1676
1899.0579395071945,1669
1901.0211993680641,1695
1902.98397467825,1736
1904.9462657021745,1681
1906.9080727043415,1626
1908.869395949332,1708
1910.8302357018065,1666
1912.790592226504,1647
1914.7504657882428,1709
1916.7098566519212,1652
1918.6687650825133,1696
1920.6271913450764,1703
1922.5851357047422,1696
1924.5425984267245,1649
1926.499579776314,1640
1928.4560800188833,1669
1930.4120994198802,1643
1932.367638244833,1663
1934.32269675935,1704
1936.2772752291175,1709
1938.231373919899,1693
1940.1849930975404,1663
1942.1381330279637,1643
1944.0907939771696,1670
1946.0429762112412,1647
1947.9946799963363,1581
1949.9459055986945,1613
1951.896653284633,1574
1953.8469233205478,1651
1955.7967159729142,1636
1957.7460315082863,1606
1959.6948701932974,1595
1961.6432322946594,1669
1963.5911180791632,1681
1965.5385278136787,1652
1967.4854617651545,1555
1969.4319202006182,1655
1971.377903387176,1648
1973.3234115920136,1653
1975.268445082395,1555
1977.2130041256642,1684
1979.1570889892423,1669
1981.1006999406304,1603
1983.04383724741,1643
1984.986501177238,1640
1986.928691997853,1585
1988.8704099770712,1604
1990.811655382789,1636
1992.7524284829801,1583
1994.692729545698,1618
1996.6325588390755,1588
1998.5719166313224,1640
2000.5108031907307,1624
2002.4492187856677,1607
2004.387163684583,1591
2006.3246381560011,1598
2008.2616424685298,1597
2010.1981768908527,1631
2012.1342416917332,1602
2014.069837140014,1638
2016.0049635046162,1569
2017.9396210545406,1577
2019.8738100588666,1665
2021.8075307867502,1625
2023.740783507431,1613
2025.6735684902228,1603
2027.6058860045214,1600
2029.5377363198004,1526
2031.4691197056118,1631
2033.4000364315875,1603
2035.3304867674374,1572
2037.260470982952,1594
2039.189989347998,1552
2041.1190421325232,1518
2043.047629606554,1543
2044.9757520401945,1606
2046.9034097036288,1605
2048.8306028671195,1604
2050.7573318010086,1576
2052.683596775716,1656
2054.609398061742,1571
2056.5347359296647,1554
2058.4596106501403,1563
2060.384022493906,1566
2062.3079717317764,1550
2064.231458634646,1604
2066.1544834734873,1586
2068.077046519352,1621
2069.99914804337,1597
2071.9207883167524,1622
2073.8419676107865,1535
2075.7626861968406,1593
2077.6829443463607,1550
2079.6027423308715,1584
2081.522080421977,1541
2083.440958891362,1630
2085.359378010786,1534
2087.2773380520907,1590
2089.194839287196,1585
2091.111881988101,1574
2093.0284664268825,1557
2094.9445928756973,1569
2096.86026160678,1566
2098.775472892446,1531
2100.690227005088,1565
2102.604524217178,1646
2104.5183648012676,1584
2106.431749029985,1586
2108.34467717604,1580
2110.2571495122206,1634
2112.169166311393,1548
2114.080727846503,1518
2115.9918343905747,1508
2117.902486216711,1555
2119.8126835980956,1575
2121.722426807987,1622
2123.6317161197285,1559
2125.5405518067364,1563
2127.448934142509,1617
2129.356863400624,1594
2131.264339854737,1638
2133.1713637785815,1677
2135.077935445972,1575
2136.9840551308002,1651
2138.889723107037,1583
2140.7949396487334,1612
2142.699705030018,1596
2144.6040195250994,1569
2146.507883408264,1635
2148.4112969538774,1663
2150.3142604363848,1650
2152.2167741303097,1668
2154.1188383102535,1647
2156.0204532508997,1620
2157.9216192270064,1664
2159.822336513414,1668
2161.7226053850413,1714
2163.622426116884,1668
2165.5217989840185,1655
2167.4207242616,1650
2169.319202224862,1634
2171.2172331491165,1676
2173.1148173097563,1704
2175.0119549822507,1645
2176.90864644215,1643
2178.8048919650823,1699
2180.7006918267534,1636
2182.596046302952,1665
2184.4909556695407,1743
2186.3854202024645,1681
2188.279440177746,1678
2190.173015871487,1690
2192.066147559868,1712
2193.958835519149,1734
2195.851080025667,1677
2197.7428813558417,1683
2199.6342397861667,1692
2201.5251555932186,1748
2203.415629053651,1678
2205.3056604441986,1730
2207.19525004167,1718
2209.084398122958,1683
2210.9731049650327,1689
2212.861370844941,1760
2214.749196039812,1749
2216.636580826851,1749
2218.523525483344,1724
2220.410030286655,1737
2222.296095514226,1725
2224.1817214435805,1757
2226.066908352319,1672
2227.951656518121,1734
2229.835966218746,1698
2231.71983773203,1780
2233.6032713358913,1746
2235.486267308324,1724
2237.3688259274036,1652
2239.2509474712824,1687
2241.132632218193,1707
2243.013880446447,1723
2244.8946924344323,1763
2246.7750684606203,1694
2248.6550088035574,1730
2250.534513741871,1727
2252.413583554265,1768
2254.292218519526,1734
2256.170418916517,1719
2258.0481850241786,1715
2259.925517121534,1705
2261.8024154876825,1649
2263.678880401803,1686
2265.5549121431536,1729
2267.430510991071,1686
2269.305677224971,1686
2271.180411124348,1664
2273.0547129687766,1699
2274.9285830379076,1725
2276.8020216114737,1688
2278.6750289692845,1759
2280.5476053912294,1767
2282.4197511572766,1720
2284.2914665474727,1768
2286.162751841943,1751
2288.0336073208937,1688
2289.904033264608,1797
2291.774029953448,1730
2293.6435976678554,1729
2295.5127366883517,1727
2297.381447295534,1657
2299.2497297700825,1591
2301.1175843927526,1548
2302.9850114443825,1573
2304.852011205885,1510
2306.7185839582553,1491
2308.5847299825664,1507
2310.4504495599676,1529
2312.3157429716925,1511
2314.1806104990483,1466
2316.0450524234247,1442
2317.9090690262888,1482
2319.772660589186,1500
2321.635827393742,1482
2323.498569721661,1521
2325.3608878547248,1508
2327.2227820747967,1463
2329.0842526638157,1446
2330.945299903803,1481
2332.805924076857,1512
2334.6661254651535,1481
2336.525904350951,1537
2338.3852610165827,1475
2340.244195744464,1504
2342.102708817088,1508
2343.9608005170253,1512
2345.8184711269287,1465
2347.675720929526,1457
2349.532550207628,1444
2351.38895924412,1477
2353.24494832197,1465
2355.100517724223,1483
2356.955667734004,1487
2358.810398634514,1512
2360.664710709037,1533
2362.5186042409337,1463
2364.3720795136437,1473
2366.225136810686,1538
2368.0777764156583,1498
2369.929998612237,1521
2371.7818036841777,1429
2373.633191915315,1571
2375.484163589562,1502
2377.3347189909114,1529
2379.184858403434,1551
2381.03458211128,1485
2382.8838903986775,1512
2384.732783549936,1577
2386.5812618494406,1528
2388.4293255816588,1539
2390.2769750311327,1544
2392.1242104824883,1509
2393.971032220427,1472
2395.8174405297295,1529
2397.6634356952563,1577
2399.509018001947,1508
2401.3541877348193,1528
2403.1989451789705,1485
2405.043290619576,1560
2406.8872243418905,1517
2408.730746631247,1519
2410.5738577730594,1583
2412.4165580528183,1549
2414.258847756095,1505
2416.100727168537,1532
2417.9421965758734,1484
2419.783256263912,1517
2421.623906518538,1558
2423.4641476257157,1617
2425.303979871491,1567
2427.143403541984,1492
2428.9824189233977,1528
2430.821026302012,1584
2432.6592259641866,1585
2434.497018196361,1495
2436.33440328505,1574
2438.171381516851,1536
2440.00795317844,1533
2441.844118556569,1498
2443.6798779380724,1591
2445.5152316098606,1561
2447.3501798589255,1553
2449.1847229723357,1583
2451.0188612372403,1618
2452.8525949408663,1614
2454.6859243705203,1543
2456.518849813587,1604
2458.3513715575314,1607
2460.183489889895,1556
2462.015205098301,1592
2463.8465174704493,1541
2465.67742729412,1560
2467.5079348571717,1577
2469.338040447542,1554
2471.1677443532476,1567
2472.9970468623833,1520
2474.825948263123,1580
2476.6544488437207,1540
2478.482548892508,1546
2480.310248697896,1533
2482.137548548374,1627
2483.9644487325118,1579
2485.790949538956,1553
2487.617051256433,1556
2489.44275417375,1539
2491.26805857979,1596
2493.0929647635157,1598
2494.917473013971,1580
2496.741583620276,1646
2498.5652968716304,1599
2500.3886130573137,1582
2502.2115324666834,1578
2504.0340553891765,1591
2505.856182114308,1613
2507.6779129316733,1683
2509.499248130945,1695
2511.3201880018764,1631
2513.140732834298,1662
2514.9608829181198,1602
2516.780638543331,1607
2518.6,1634
2520.418967578273,1653
2522.237541568376,1625
2524.0557222606144,1650
2525.8735099453706,1703
2527.6909049131086,1691
2529.507907454368,1703
2531.32451785977,1736
2533.140736420014,1710
2534.9565634258774,1701
2536.771999168218,1765
2538.5870439379714,1711
2540.4016980261526,1723
2542.2159617238544,1744
2544.02983532225,1734
2545.8433191125914,1811
2547.656413386209,1763
2549.4691184345115,1785
2551.2814345489874,1785
2553.093362021204,1800
2554.904901142808,1761
2556.716052205523,1836
2558.526815501153,1836
2560.3371913215824,1893
2562.147179958771,1820
2563.956781704761,1870
2565.7659968516705,1803
2567.5748256916986,1884
2569.3832685171224,1875
2571.1913256202984,1861
2572.9989972936614,1868
2574.806283829725,1926
2576.613185521084,1895
2578.4197026604074,1895
2580.2258355404483,1897
2582.031584454035,1939
2583.836949694077,1964
2585.6419315535613,1938
2587.4465303255533,2014
2589.2507463032002,2018
2591.0545797797245,1966
2592.8580310484303,1982
2594.6611004026995,2015
2596.463788135992,1975
2598.266094541849,2033
2600.0680199138874,1970
2601.869564545807,2041
2603.670728731383,1983
2605.4715127644704,2065
2607.2719169390048,2011
2609.071941548998,2055
2610.8715868885433,2041
2612.670853251811,2072
2614.469740933052,2042
2616.268250226594,2050
2618.0663814268455,2006
2619.864134828292,2055
2621.6615107255006,2012
2623.458509413115,1964
2625.2551311858597,1936
2627.0513763385347,1945
2628.8472451660223,1897
2630.6427379632833,1838
2632.4378550253564,1918
2634.232596647359,1844
2636.026963124488,1882
2637.8209547520187,1851
2639.6145718253065,1768
2641.407814639785,1847
2643.200683490966,1898
2644.9931786744414,1834
2646.7853004858807,1840
2648.577049221034,1846
2650.3684251757277,1809
2652.1594286458712,1815
2653.9500599274484,1785
2655.740319316525,1722
2657.5302071092437,1751
2659.3197236018286,1735
2661.10886909058,1729
2662.8976438718782,1701
2664.686048242183,1660
2666.4740824980327,1762
2668.2617469360443,1677
2670.0490418529134,1662
2671.8359675454153,1700
2673.622524310403,1599
2675.408712444811,1614
2677.1945322456495,1603
2678.979984010009,1629
2680.76506803506,1654
2682.5497846180497,1620
2684.334134056306,1592
2686.1181166472343,1595
2687.9017326883213,1545
2689.6849824771293,1602
2691.4678663113013,1617
2693.2503844885596,1641
2695.032537306705,1565
2696.8143250636167,1517
2698.5957480572542,1555
2700.3768065856534,1575
2702.1575009469316,1579
2703.937831439283,1598
2705.717798360982,1597
2707.4974020103837,1522
2709.276642685917,1553
2711.055520686095,1594
2712.834036309506,1579
2714.612189854819,1482
2716.389981620782,1536
2718.1674119062204,1476
2719.944481010041,1522
2721.721189231226,1529
2723.4975368688415,1583
2725.273524222027,1493
2727.0491515900053,1566
2728.824419272075,1515
2730.5993275676146,1483
2732.3738767760838,1498
2734.148067197016,1432
2735.921899130031,1521
2737.6953728748194,1467
2739.468488731156,1468
2741.2412469988926,1495
2743.0136479779617,1482
2744.785691968372,1481
2746.5573792702116,1516
2748.3287101836504,1478
2750.099685008934,1475
2751.870304046388,1499
2753.640567596418,1499
2755.4104759595057,1516
2757.1800294362156,1475
2758.949228327187,1481
2760.7180729331412,1520
2762.486563554877,1480
2764.254700493272,1466
2766.022484049284,1500
2767.789914523947,1429
2769.5569922183786,1475
2771.3237174337705,1459
2773.090090471394,1468
2774.8561116326036,1479
2776.6217812188274,1444
2778.3870995315756,1461
2780.1520668724356,1461
2781.9166835430747,1493
2783.6809498452394,1484
2785.444866080754,1464
2787.2084325515225,1450
2788.971649559527,1447
2790.73451740683,1462
2792.4970363955713,1453
2794.2592068279705,1424
2796.0210290063264,1471
2797.7825032330147,1387
2799.543629810493,1438
2801.304409041296,1456
2803.0648412280366,1453
2804.8249266734088,1456
2806.5846656801846,1459
2808.344058551212,1500
2810.1031055894246,1466
2811.8618070978273,1522
2813.6201633795085,1483
2815.378174737636,1433
2817.1358414754536,1441
2818.893163896285,1393
2820.6501423035334,1488
2822.4067770006814,1384
2824.1630682912883,1402
2825.9190164789957,1415
2827.6746218675207,1477
2829.429884760661,1450
2831.184805462294,1474
2832.9393842763743,1509
2834.693621506936,1557
2836.4475174580916,1443
2838.201072434034,1490
2839.954286739034,1457
2841.707160677441,1430
2843.459694553685,1437
2845.2118886722724,1422
2846.96374333779,1438
2848.7152588549034,1482
2850.4664355283567,1466
2852.217273662973,1494
2853.9677735636546,1474
2855.7179355353833,1481
2857.4677598832186,1476
2859.217246912299,1432
2860.9663969278427,1463
2862.715210235146,1459
2864.4636871395846,1456
2866.211827946614,1453
2867.9596329617652,1426
2869.7071024906536,1476
2871.4542368389684,1484
2873.20103631248,1415
2874.947501217038,1482
2876.6936318585695,1457
2878.4394285430812,1447
2880.1848915766604,1429
2881.9300212654707,1436
2883.6748179157553,1444
2885.4192818338374,1468
2887.1634133261173,1463
2888.907212699077,1489
2890.6506802592744,1445
2892.393816313348,1476
2894.1366211680142,1501
2895.8790951300693,1414
2897.621238506388,1455
2899.363051603925,1491
2901.1045347297118,1474
2902.8456881908596,1511
2904.58651229456,1453
2906.327007348081,1436
2908.067173658772,1442
2909.8070115340597,1494
2911.5465212814497,1453
2913.285703208527,1423
2915.0245576229563,1397
2916.7630848324807,1441
2918.5012851449196,1460
2920.2391588681758,1450
2921.976706310227,1383
2923.7139277791334,1432
2925.4508235830313,1419
2927.187394030137,1483
2928.923639428745,1498
2930.6595600872306,1439
2932.395156314046,1457
2934.1304284177218,1503
2935.8653767068713,1462
2937.6000014901815,1528
2939.3343030764227,1495
2941.068281774442,1430
2942.8019378931644,1496
2944.5352717415976,1469
2946.2682836288236,1461
2948.0009738640065,1448
2949.7333427563885,1455
2951.465390615289,1479
2953.1971177501086,1471
2954.9285244703265,1440
2956.6596110855,1492
2958.3903779052657,1462
2960.1208252393385,1415
2961.8509533975125,1460
2963.5807626896617,1433
2965.3102534257378,1506
2967.0394259157715,1436
2968.768280469873,1420
2970.496817398232,1492
2972.2250370111146,1414
2973.952939618869,1397
2975.6805255319196,1413
2977.4077950607707,1444
2979.134748516006,1512
2980.861386208289,1445
2982.587708448359,1460
2984.313715547037,1443
2986.039407815222,1460
2987.764785563891,1407
2989.489849104102,1433
2991.2145987469908,1465
2992.9390348037705,1421
2994.6631575857346,1445
2996.3869674042576,1476
2998.1104645707887,1462
2999.83364939686,1440
3001.5565221940783,1406
3003.2790832741334,1429
3005.0013329487924,1441
3006.7232715298996,1387
3008.4448993293804,1416
3010.166216659239,1449
3011.887223831558,1480
3013.607921158498,1485
3015.3283089522993,1477
3017.0483875252826,1461
3018.7681571898443,1389
3020.4876182584626,1436
3022.2067710436927,1430
3023.9256158581707,1467
3025.644153014609,1435
3027.362382825801,1457
3029.0803056046193,1441
3030.797921664012,1429
3032.5152313170106,1496
3034.2322348767225,1395
3035.9489326563353,1352
3037.665324969115,1440
3039.3814121284063,1437
3041.097194447633,1459
3042.812672240299,1381
3044.5278458199855,1391
3046.2427155003525,1452
3047.9572815951406,1419
3049.671544418167,1461
3051.38550428333,1468
3053.0991615046073,1400
3054.812516396051,1453
3056.5255692717974,1456
3058.2383204460575,1408
3059.9507702331257,1344
3061.662918947372,1447
3063.3747669032446,1447
3065.0863144152736,1442
3066.7975617980674,1424
3068.508509366309,1482
3070.219157434767,1447
3071.9295063182844,1379
3073.639556331785,1478
3075.3493077902704,1428
3077.058761008821,1416
3078.7679163025964,1434
3080.476773986837,1490
3082.1853343768594,1497
3083.89359778806,1482
3085.6015645359153,1450
3087.3092349359786,1447
3089.016609303884,1428
3090.7236879553434,1487
3092.4304712061476,1446
3094.136959372166,1433
3095.843152769349,1432
3097.5490517137237,1404
3099.2546565213966,1439
3100.959967508554,1407
3102.66498499146,1472
3104.3697092864577,1469
3106.0741407099695,1460
3107.778279578498,1426
3109.482126208622,1391
3111.1856809170004,1453
3112.8889440203716,1535
3114.5919158355528,1472
3116.294596679439,1358
3117.996986869006,1474
3119.6990867213062,1453
3121.4008965534726,1470
3123.102416682717,1400
3124.803647426329,1466
3126.5045891016784,1475
3128.205242026213,1459
3129.90560651746,1454
3131.605682893025,1454
3133.3054714705922,1444
3135.0049725679282,1485
3136.7041865028714,1447
3138.4031135933465,1443
3140.101754157353,1427
3141.800108512971,1453
3143.498176978357,1438
3145.1959598717494,1465
3146.8934575114636,1431
3148.5906702158954,1389
3150.2875983035183,1494
3151.9842420928853,1464
3153.680601902627,1417
3155.376678051456,1420
3157.07247085816,1435
3158.767980641609,1411
3160.463207720748,1435
3162.158152414606,1394
3163.8528150422862,1502
3165.5471959229726,1477
3167.2412953759303,1415
3168.9351137204976,1416
3170.628651276098,1434
3172.3219083622307,1387
3174.014885298474,1457
3175.707582404485,1436
3177.4000000000005,1439
3179.092138404835,1443
3180.7839979388846,1463
3182.47557892212,1437
3184.166881674594,1433
3185.8579065164386,1480
3187.5486537678626,1445
3189.2391237491547,1448
3190.9293167806827,1444
3192.6192331828934,1441
3194.3088732763117,1434
3195.998237381542,1430
3197.687325819268,1387
3199.376138910251,1396
3201.064676975334,1408
3202.7529403354347,1365
3204.4409293115523,1373
3206.1286442247647,1377
3207.816085396229,1381
3209.5032531471825,1336
3211.190147798936,1411
3212.8767696728846,1456
3214.5631190905015,1436
3216.2491963733373,1453
3217.9350018430214,1367
3219.6205358212637,1392
3221.305798629851,1347
3222.990790590651,1383
3224.6755120256103,1403
3226.359963256751,1366
3228.0441446061795,1402
3229.7280563960758,1409
3231.411698948703,1396
3233.0950725863995,1404
3234.778177631587,1387
3236.461014406761,1395
3238.1435832345005,1399
3239.8258844374595,1348
3241.507918338374,1456
3243.1896852600576,1390
3244.8711855254023,1386
3246.552419457381,1383
3248.233387379042,1359
3249.914089613516,1473
3251.59452648401,1406
3253.274698313813,1414
3254.95460542629,1364
3256.6342481448855,1382
3258.313626793125,1339
3259.9927416946084,1402
3261.6715931730196,1400
3263.3501815521176,1382
3265.0285071557437,1354
3266.706570307815,1423
3268.3843713323286,1393
3270.0619105533615,1375
3271.739188295068,1354
3273.4162048816834,1398
3275.0929606375184,1451
3276.769455886966,1375
3278.445690954498,1410
3280.1216661646613,1401
3281.797381842087,1382
3283.4728383114807,1402
3285.1480358976296,1418
3286.8229749253996,1460
3288.4976557197333,1355
3290.172078605655,1400
3291.846243908266,1342
3293.5201519527463,1328
3295.193803064357,1375
3296.8671975684374,1420
3298.5403357904024,1420
3300.21321805575,1468
3301.8858446900567,1378
3303.558216018975,1429
3305.23033236824,1366
3306.9021940636603,1401
3308.57380143113,1383
3310.2451547966184,1395
3311.916254486174,1424
3313.5871008259246,1371
3315.2576941420766,1407
3316.9280347609147,1460
3318.5981230088046,1437
3320.2679592121895,1369
3321.9375436975924,1379
3323.606876791612,1349
3325.27595882093,1329
3326.944790112305,1424
3328.6133709925753,1404
3330.2817017886573,1407
3331.949782827547,1331
3333.617614436319,1466
3335.2851969421245,1362
3336.952530672199,1386
3338.619615953853,1414
3340.286453114475,1427
3341.9530424815357,1356
3343.619384382583,1428
3345.2854791452437,1382
3346.951327097224,1409
3348.6169285663073,1471
3350.2822838803577,1415
3351.947393367319,1439
3353.61225735521,1426
3355.2768761721345,1389
3356.9412501462693,1396
3358.605379605873,1385
3360.2692648792827,1401
3361.9329062949146,1426
3363.596304181263,1318
