CollectionTime,9/20/2024 12:19:25 PM
ExposureUsed,3
CalibratedSpectrum
-962.7078968117929,629
-959.9714848408522,663
-957.2358232597828,685
-954.5009119013725,672
-951.7667505983302,732
-949.0333391832855,722
-946.3006774887896,722
-943.5687653473143,739
-940.837602591253,732
-938.1071890529199,723
-935.3775245645503,687
-932.6486089583007,698
-929.9204420662485,740
-927.1930237203925,712
-924.4663537526524,722
-921.7404319948689,763
-919.0152582788041,739
-916.2908324361409,777
-913.5671542984834,728
-910.8442236973568,683
-908.1220404642074,703
-905.4006044304027,692
-902.679915427231,713
-899.959973285902,704
-897.2407778375464,700
-894.5223289132158,684
-891.8046263438832,703
-889.0876699604426,674
-886.3714595937089,722
-883.6559950744183,663
-880.9412762332282,657
-878.2273029007168,695
-875.5140749073835,683
-872.8015920836489,644
-870.0898542598545,625
-867.3788612662631,621
-864.6686129330585,674
-861.9591090903457,685
-859.2503495681506,672
-856.5423341964203,642
-853.8350628050229,658
-851.1285352237478,642
-848.4227512823054,689
-845.7177108103272,649
-843.0134136373656,673
-840.3098595928943,673
-837.6070485063082,702
-834.9049802069229,675
-832.2036545239757,664
-829.5030712866244,662
-826.8032303239481,675
-824.1041314649472,657
-821.4057745385428,666
-818.7081593735775,678
-816.0112857988148,666
-813.3151536429393,657
-810.6197627345566,691
-807.9251129021936,653
-805.2312039742981,690
-802.5380357792392,687
-799.8456081453069,692
-797.1539209007124,683
-794.462973873588,732
-791.772766891987,720
-789.083299783884,713
-786.3945723771743,677
-783.7065844996748,677
-781.0193359791231,683
-778.3328266431781,646
-775.6470563194197,682
-772.9620248353489,653
-770.2777320183878,672
-767.5941776958798,688
-764.9113616950891,714
-762.2292838432011,661
-759.5479439673222,636
-756.8673418944801,667
-754.1874774516235,722
-751.5083504656222,737
-748.8299607632671,740
-746.15230817127,721
-743.475392516264,678
-740.7992136248035,730
-738.1237713233636,723
-735.4490654383407,670
-732.7750957960521,664
-730.1018622227365,702
-727.4293645445534,713
-724.7576025875837,718
-722.0865761778291,697
-719.4162851412126,755
-716.7467293035781,729
-714.0779084906909,707
-711.409822528237,753
-708.7424712418238,723
-706.0758544569796,745
-703.4099719991541,762
-700.7448236937178,756
-698.0804093659622,725
-695.4167288411002,746
-692.7537819442656,755
-690.0915685005134,757
-687.4300883348199,757
-684.7693412720819,823
-682.1093271371178,782
-679.4500457546669,752
-676.7914969493897,727
-674.1336805458676,762
-671.4765963686034,732
-668.8202442420206,773
-666.1646239904642,773
-663.5097354382001,780
-660.8555784094151,762
-658.2021527282176,778
-655.5494582186366,789
-652.8974947046223,817
-650.2462620100463,795
-647.5957599587009,800
-644.9459883742998,811
-642.2969470804776,821
-639.6486359007902,799
-637.0010546587141,848
-634.3542031776476,872
-631.7080812809096,794
-629.0626887917401,837
-626.4180255333008,737
-623.7740913286734,809
-621.1308860008619,855
-618.4884093727904,778
-615.8466612673046,798
-613.2056415071715,818
-610.5653499150785,829
-607.9257863136347,891
-605.28695052537,905
-602.6488423727357,866
-600.0114616781036,829
-597.3748082637674,803
-594.7388819519412,898
-592.1036825647604,870
-589.4692099242818,828
-586.8354638524829,846
-584.2024441712624,877
-581.5701507024403,853
-578.9385832677575,910
-576.3077416888759,907
-573.6776257873787,834
-571.0482353847704,832
-568.4195703024757,837
-565.7916303618415,845
-563.164415384135,857
-560.5379251905453,877
-557.9121596021815,864
-555.2871184400748,850
-552.6628015251767,890
-550.0392086783606,921
-547.4163397204204,914
-544.794194472071,967
-542.1727727539491,921
-539.5520743866118,919
-536.9320991905377,929
-534.3128469861261,954
-531.6943175936979,942
-529.0765108334947,972
-526.4594265256793,1074
-523.8430644903358,1278
-521.2274245474689,1419
-518.612506517005,1509
-515.9983102187913,1506
-513.3848354725959,1589
-510.77208209810846,1601
-508.16004991493924,1671
-505.5487387426199,1889
-502.9381484006032,1968
-500.3282787082628,2040
-497.71912948489364,2047
-495.1107005497117,1938
-492.5029917218539,1831
-489.8960028203786,1616
-487.28973366426493,1463
-484.68418407241325,1310
-482.07935386364494,1205
-479.47524285670266,1151
-476.87185087025,1144
-474.2691777228715,1133
-471.66722323307334,1061
-469.0659872192821,1149
-466.4654694998459,1122
-463.86566989303384,1091
-461.26658821703614,1059
-458.66822428996414,1071
-456.07057792985,1051
-453.4736489546475,1084
-450.877437182231,1039
-448.28194243039627,1021
-445.68716451686,1033
-443.09310325926003,1010
-440.49975847515555,1056
-437.9071299820263,1060
-435.31521759727354,1088
-432.72402113821954,1077
-430.13354042210767,1099
-427.5437752661022,1105
-424.95472548728867,1087
-422.36639090267386,1099
-419.7787713291855,1189
-417.1918665836721,1149
-414.60567648290385,1153
-412.0202008435715,1169
-409.4354394822874,1187
-406.8513922155845,1151
-404.26805885991723,1184
-401.685439231661,1158
-399.103533147112,1171
-396.522340422488,1147
-393.9418608739278,1166
-391.3620943174908,1118
-388.7830405691583,1115
-386.2046994448317,1123
-383.6270707603344,1059
-381.05015433141045,1037
-378.473949973725,1026
-375.8984575028645,949
-373.32367673433623,842
-370.74960748356875,894
-368.1762495659117,737
-365.60360279663576,688
-363.03166699093265,692
-360.4604419639154,631
-357.8899275306178,585
-355.32012350599507,594
-352.7510297049233,549
-350.1826459421999,605
-347.61497203254316,593
-345.04800779059235,583
-342.4817530309082,584
-339.91620756797226,589
-337.35137121618743,629
-334.7872437898774,578
-332.22382510328725,579
-329.66111497058273,565
-327.09911320585127,571
-324.53781962310075,607
-321.9772340362607,577
-319.4173562591816,577
-316.8581861056348,576
-314.2997233893127,587
-311.7419679238294,620
-309.1849195227194,629
-306.62857799943856,722
-304.0729431673641,617
-301.51801483979375,638
-298.963792829947,592
-296.41027695096386,584
-293.85746701590574,585
-291.3053628377552,602
-288.7539642294155,668
-286.2032710037115,678
-283.65328297338897,664
-281.1039999511146,728
-278.5554217494762,680
-276.007548180983,782
-273.4603790580651,832
-270.9139141930734,767
-268.3681533982807,765
-265.8230964858798,749
-263.27874326798565,827
-260.7350935566336,767
-258.1921471637804,785
-255.6499039013039,872
-253.10836358100266,911
-250.56752601459698,793
-248.02739101372765,829
-245.48795838995704,887
-242.94922795476816,893
-240.41119951956557,990
-237.8738728956746,903
-235.33724789434166,909
-232.80132432673452,858
-230.2661020039418,781
-227.73158073697357,857
-225.19776033676033,860
-222.66464061415422,986
-220.1322213799284,1023
-217.60050244477725,957
-215.06948361931552,965
-212.53916471408013,1112
-210.00954553952818,1077
-207.48062590603843,906
-204.9524056239104,869
-202.4248845033651,895
-199.8980623545441,863
-197.37193898751036,1005
-194.84651421224817,1065
-192.32178783866232,1046
-189.79775967657952,1029
-187.27442953574644,1164
-184.7517972258321,1204
-182.2298625564256,1036
-179.7086253370378,900
-177.18808537710026,974
-174.66824248596583,1156
-172.14909647290835,1208
-169.6306471471229,1160
-167.11289431772548,1136
-164.59583779375328,1099
-162.07947738416453,1242
-159.5638128978386,1680
-157.04884414357605,1699
-154.53457093009854,1679
-152.02099306604828,1315
-149.50811035998936,1201
-146.99592262040665,1460
-144.48442965570587,1762
-141.97363127421409,1697
-139.46352728417958,1770
-136.95411749377126,1646
-134.44540171107985,1533
-131.93737974411636,1437
-129.43005140081357,1511
-126.92341648902493,1719
-124.41747481652521,2021
-121.91222619101006,2291
-119.40767042009657,2216
-116.90380731132257,2032
-114.40063667214702,2780
-111.8981583099503,4304
-109.3963720320337,7363
-106.89527764561933,10936
-104.39487495785067,13123
-101.89516377579241,15102
-99.39614390642998,18890
-96.89781515667039,24506
-94.40017733334128,29397
-91.90323024319173,30525
-89.40697369289148,21892
-86.91140748903172,12753
-84.41653143812482,9754
-81.92234534660395,14444
-79.42884902082358,22106
-76.93604226705907,26458
-74.4439248915071,24820
-71.95249670028534,19929
-69.46175749943245,13434
-66.97170709490854,8782
-64.48234529259423,7671
-61.99367189829195,8504
-59.50568671772464,8967
-57.01838955653636,10123
-54.53178022029283,12703
-52.045858514480074,13382
-49.560624244506016,16627
-47.07607721569923,16232
-44.59221723330904,15439
-42.10904410250669,16013
-39.62655762838392,19484
-37.14475761595372,25248
-34.66364387015028,28714
-32.18321619582866,28511
-29.70347439776515,30382
-27.224418280657005,32346
-24.74604764912317,35247
-22.26836230770266,47270
-19.7913620608565,65033
-17.315046712966478,65033
-14.83941606833514,65033
-12.36446993118659,65033
-9.89020810566592,65033
-7.416630395839093,65033
-4.94373660569363,65033
-2.471526539137585,65033
-6.821210263296962E-13,65033
2.47084320796705,65033
4.941003281093458,65033
7.410480415786196,65033
9.879274808531363,65033
12.347386655893956,65033
14.814816154518212,65033
17.28156350112681,65033
19.74762889252179,65033
22.21301252558385,29172
24.67771459727237,8497
27.141735304626195,7501
29.605074844762612,7190
32.06773341487792,5352
34.52971121224755,4999
36.99100843422559,5321
39.45162527824516,4429
41.91156194181792,4163
44.370818622535126,4088
46.82939551806646,3408
49.287292826160524,5923
51.74451074464503,6266
54.201049471426245,4386
56.65690920448981,3045
59.112090141899785,2522
61.56659248179983,2527
64.02041642241159,2809
66.4735621620365,3142
68.92602989905402,3768
71.37781983192338,3872
73.82893215918205,3177
76.27936707944684,2452
78.72912479141326,2356
81.17820549385567,2080
83.62660938562783,1884
86.07433666566146,1666
88.5213875329681,1970
90.96776218663751,2236
93.41346082583925,2271
95.85848364982041,2533
98.30283085790859,2461
100.7465026495089,1877
103.18949922410604,1721
105.63182078126385,1631
108.07346752062438,1770
110.51443964190923,1556
112.95473734491827,1655
115.39436082953114,1566
117.83331029570547,1730
120.27158594347827,2307
122.7091879729652,2079
125.1461165843615,1825
127.58237197794062,1528
130.01795435405518,1406
132.4528639131364,1437
134.88710085569494,1513
137.32066538231982,1713
139.75355769367923,1666
142.1857779905207,1614
144.61732647366978,1382
147.04820334403132,1249
149.47840880258934,1365
151.90794305040674,1565
154.33680628862487,1519
156.76499871846443,1624
159.19252054122433,1835
161.61937195828352,1946
164.04555317109896,2015
166.47106438120693,2341
168.89590579022217,2574
171.320077599839,2826
173.7435800118302,2801
176.16641322804742,2797
178.58857745042144,2983
181.01007288096173,2885
183.43089972175687,2901
185.85105817497413,2876
188.27054844285988,2991
190.6893707277394,2992
193.10752523201643,3030
195.5250121581745,3061
197.9418317087751,3221
200.3579840864594,3124
202.7734694939469,3268
205.18828813403627,3467
207.6024402096051,3436
210.01592592360964,3228
212.42874547908548,3290
214.84089907914665,3290
217.2523869269868,3313
219.66320922587727,3200
222.0733661791695,3261
224.48285799029293,3165
226.8916848627572,3302
229.29984700014882,3577
231.7073446061355,3369
234.11417788446204,3349
236.520347038953,3424
238.92585227351185,3506
241.33069379212054,3599
243.73487179884035,3689
246.1383864978112,3729
248.541238093252,3738
250.9434267894609,3776
253.34495279081432,3567
255.74581630176783,3455
258.1460175268563,3538
260.54555667069314,3561
262.9444339379703,3558
265.3426495334594,3565
267.7402036620107,3605
270.1370965285529,3384
272.53332833809407,3377
274.9288992957214,3213
277.32380960660055,3164
279.718059475976,3108
282.1116491091717,3222
284.5045787115897,3058
286.89684848871195,3009
289.2884586460981,3135
291.67940938938807,3149
294.0697009242996,3238
296.4593334566299,3208
298.84830719225477,3054
301.23662233712923,3184
303.6242790972866,2986
306.01127767884,2962
308.39761828798066,3019
310.78330113097934,2905
313.16832641418534,2787
315.5526943440269,2792
317.9364051270112,2752
320.3194589697242,2790
322.70185607883093,2785
325.0835966610754,2702
327.4646809232805,2709
329.8451090723478,2662
332.2248813152577,2740
334.6039978590701,2713
336.9824589109231,2687
339.36026467803447,2639
341.7374153677,2537
344.113911187295,2533
346.48975234427337,2552
348.8649390461686,2562
351.2394715005918,2686
353.61334991523415,2510
355.9865744978655,2479
358.35914545633375,2581
360.73106299856715,2632
363.10232733257146,2501
365.47293866643247,2477
367.84289720831396,2456
370.2122031664593,2467
372.5808567491905,2445
374.9488581649083,2412
377.31620762209275,2433
379.6829053293021,2313
382.0489514951745,2368
384.4143463284262,2321
386.7790900378528,2303
389.14318283232853,2395
391.50662492080653,2452
393.86941651231916,2461
396.23155781597745,2414
398.5930490409713,2345
400.9538903965696,2382
403.3140820921202,2272
405.6736243370498,2297
408.03251734086336,2248
410.3907613131465,2338
412.74835646356166,2266
415.10530300185144,2283
417.4616011378372,2331
419.81725108141893,2280
422.1722530425758,2196
424.5266072313656,2318
426.880313857925,2362
429.2333731324701,2271
431.58578526529516,2277
433.9375504667738,2292
436.2886689473588,2204
438.63914091758113,2253
440.9889665880513,2221
443.33814616945835,2198
445.68667987257015,2217
448.03456790823395,2229
450.3818104873759,2295
452.72840782100013,2211
455.07436012019105,2211
457.41966759611057,2282
459.7643304600007,2237
462.10834892318155,2208
464.4517231970525,2226
466.79445349309174,2216
469.1365400228566,2209
471.4779829979826,2282
473.81878263018564,2253
476.15893913125876,2315
478.4984527130747,2402
480.8373235875855,2548
483.17555196682144,2467
485.5131380628919,2543
487.8500820879857,2613
490.1863842543697,2854
492.52204477439034,3097
494.8570638604725,3462
497.1914417251204,3691
499.52517858091653,4068
501.85827464052306,4306
504.19073011668036,4342
506.5225452222086,4181
508.85372017000566,4229
511.18425517304956,4138
513.514150444396,4349
515.8434061971808,5766
518.1720226446176,6855
520.4999999999999,7179
522.8273384766991,6833
525.1540382881666,6383
527.480099647932,5738
529.8055227696037,4604
532.1303078668694,3427
534.454455153496,2945
536.777964843328,2441
539.1008371502907,2471
541.4230722883866,2387
543.744670471698,2389
546.0656319143858,2359
548.3859568306899,2305
550.7056454349294,2348
553.0246979415016,2253
555.3431145648834,2263
557.6608955196306,2178
559.978041020377,2140
562.2945512818363,2186
564.6104265188006,2358
566.9256669461412,2201
569.2402727788082,2242
571.5542442318302,2303
573.8675815203156,2281
576.1802848594508,2256
578.4923544645015,2304
580.8037905508126,2328
583.114593333807,2278
585.4247630289875,2275
587.7342998519354,2294
590.0432040183106,2407
592.3514757438526,2359
594.6591152443794,2350
596.9661227357875,2290
599.2724984340531,2185
601.578242555231,2162
603.8833553154542,2302
606.1878369309362,2198
608.4916876179676,2280
610.7949075929192,2242
613.0974970722403,2253
615.3994562724587,2291
617.7007854101818,2278
620.0014847020951,2315
622.3015543649641,2249
624.6009946156324,2226
626.8998056710224,2255
629.1979877481361,2340
631.4955410640538,2228
633.7924658359349,2240
636.0887622810175,2295
638.3844306166192,2310
640.6794710601358,2337
642.9738838290426,2361
645.2676691408932,2332
647.5608272133207,2423
649.853358264037,2345
652.1452625108324,2389
654.4365401715764,2439
656.7271914642178,2366
659.0172166067838,2413
661.3066158173809,2325
663.5953893141935,2368
665.8835373154867,2325
668.1710600396028,2299
670.4579577049639,2278
672.7442305300709,2420
675.0298787335033,2353
677.3149025339197,2325
679.599302150058,2298
681.8830778007342,2299
684.1662297048437,2353
686.4487580813608,2323
688.7306631493387,2385
691.0119451279091,2320
693.2926042362834,2276
695.5726406937516,2318
697.8520547196814,2265
700.1308465335215,2287
702.4090163547982,2237
704.6865644031171,2256
706.9634908981619,2319
709.2397960596965,2310
711.5154801075631,2301
713.7905432616823,2309
716.0649857420548,2353
718.3388077687592,2240
720.612009561953,2262
722.8845913418733,2263
725.1565533288352,2267
727.427895743234,2354
729.6986188055427,2208
731.9687227363137,2251
734.238207756178,2249
736.5070740858458,2264
738.7753219461066,2284
741.0429515578281,2302
743.3099631419569,2291
745.5763569195191,2269
747.8421331116193,2210
750.1072919394409,2266
752.3718336242467,2298
754.6357583873777,2250
756.8990664502545,2203
759.1617580343765,2288
761.423833361321,2233
763.6852926527457,2335
765.9461361303862,2368
768.206364016058,2272
770.4659765316536,2266
772.7249738991469,2387
774.9833563405886,2334
777.2411240781092,2318
779.4982773339183,2419
781.7548163303044,2271
784.010741289634,2282
786.2660524343538,2394
788.5207499869881,2365
790.7748341701416,2332
793.0283052064964,2326
795.2811633188143,2326
797.5334087299362,2342
799.7850416627813,2292
802.0360623403484,2267
804.2864709857143,2345
806.5362678220353,2397
808.7854530725468,2457
811.0340269605625,2344
813.2819897094754,2334
815.5293415427581,2322
817.77608268396,2414
820.0222133567116,2345
822.2677337847211,2349
824.5126441917765,2349
826.7569448017433,2362
829.0006358385675,2357
831.2437175262731,2287
833.4861900889629,2344
835.7280537508192,2314
837.9693087361026,2298
840.2099552691533,2364
842.4499935743896,2417
844.689423876309,2345
846.9282463994886,2336
849.1664613685833,2345
851.4040690083276,2395
853.6410695435349,2385
855.877463199097,2371
858.1132501999847,2334
860.3484307712487,2305
862.5830051380175,2281
864.8169735254988,2308
867.0503361589791,2326
869.2830932638243,2369
871.5152450654786,2344
873.7467917894654,2391
875.9777336613873,2438
878.2080709069252,2415
880.4378037518389,2374
882.666932421968,2369
884.8954571432301,2424
887.1233781416219,2456
889.3506956432192,2390
891.5774098741766,2508
893.803521060728,2369
896.0290294291852,2475
898.2539352059397,2539
900.4782386174619,2384
902.7019398903011,2367
904.925039251085,2404
907.147536926521,2430
909.3694331433943,2364
911.59072812857,2408
913.8114221089921,2451
916.0315153116827,2413
918.2510079637437,2302
920.4699002923547,2330
922.6881925247761,2303
924.905884888345,2406
927.1229776104793,2330
929.3394709186747,2353
931.555365040506,2364
933.7706602036275,2333
935.9853566357709,2315
938.1994545647489,2342
940.4129542184515,2449
942.6258558248488,2330
944.8381596119883,2352
947.0498658079974,2399
949.2609746410825,2415
951.4714863395287,2367
953.6814011316998,2391
955.8907192460387,2370
958.0994409110671,2323
960.3075663553858,2351
962.5150958076741,2399
964.7220294966913,2379
966.928367651274,2309
969.1341105003388,2288
971.3392582728806,2286
973.5438111979742,2280
975.747769504772,2289
977.9511334225061,2300
980.153903180487,2218
982.3560790081052,2172
984.5576611348289,2217
986.7586497902058,2221
988.9590452038618,2179
991.158847605503,2214
993.3580572249133,2198
995.5566742919558,2097
997.7546990365728,1995
999.952131688785,2020
1002.1489724786926,2037
1004.3452216364743,1970
1006.5408793923874,2022
1008.7359459767691,1981
1010.9304216200343,1903
1013.1243065526781,1984
1015.3176010052733,1917
1017.510305208472,1895
1019.7024193930064,1914
1021.8939437896848,1897
1024.0848786293977,1984
1026.2752241431122,2005
1028.4649805618747,1904
1030.6541481168115,1907
1032.842727039127,1945
1035.0307175601051,1870
1037.2181199111074,1844
1039.4049343235752,1835
1041.591161029029,1919
1043.7768002590683,1899
1045.9618522453698,1871
1048.1463172196918,1794
1050.3301954138697,1871
1052.513487059818,1864
1054.69619238953,1882
1056.8783116350783,1814
1059.0598450286152,1792
1061.2407928023704,1816
1063.4211551886528,1799
1065.6009324198508,1781
1067.780124728432,1879
1069.9587323469414,1848
1072.1367555080046,1854
1074.314194444325,1852
1076.4910493886855,1748
1078.667320573947,1785
1080.843008233051,1789
1083.0181125990161,1712
1085.1926339049414,1772
1087.3665723840027,1760
1089.5399282694575,1787
1091.7127017946405,1768
1093.8848931929647,1802
1096.0565026979243,1789
1098.2275305430899,1797
1100.3979769621128,1789
1102.567842188722,1747
1104.737126456726,1683
1106.9058300000124,1758
1109.0739530525475,1755
1111.2414958483764,1765
1113.4084586216231,1736
1115.5748416064907,1762
1117.7406450372605,1717
1119.9058691482942,1774
1122.0705141740304,1735
1124.2345803489884,1750
1126.3980679077658,1750
1128.5609770850388,1766
1130.7233081155623,1775
1132.8850612341707,1746
1135.0462366757774,1665
1137.2068346753745,1702
1139.3668554680326,1720
1141.526299288901,1688
1143.68516637321,1700
1145.8434569562655,1714
1148.001171273455,1731
1150.158309560244,1678
1152.3148720521767,1623
1154.470858984876,1684
1156.626270594044,1663
1158.7811071154629,1697
1160.9353687849912,1690
1163.089055838569,1690
1165.242168512213,1711
1167.3947070420209,1828
1169.5466716641677,1731
1171.6980626149075,1734
1173.8488801305748,1708
1175.9991244475814,1702
1178.1487958024186,1740
1180.2978944316555,1678
1182.4464205719428,1683
1184.5943744600072,1672
1186.7417563326567,1624
1188.8885664267755,1663
1191.0348049793297,1637
1193.1804722273619,1639
1195.325568407995,1691
1197.4700937584303,1652
1199.614048515948,1677
1201.7574329179074,1644
1203.900247201746,1641
1206.042491604982,1714
1208.1841663652099,1663
1210.3252717201053,1685
1212.465807907422,1678
1214.6057751649923,1764
1216.7451737307279,1685
1218.8840038426192,1702
1221.0222657387353,1704
1223.1599596572241,1755
1225.2970858363137,1748
1227.4336445143094,1703
1229.5696359295966,1732
1231.705060320639,1737
1233.8399179259786,1770
1235.9742089842384,1723
1238.107933734118,1789
1240.2410924143974,1763
1242.373685263935,1749
1244.5057125216676,1768
1246.6371744266116,1684
1248.7680712178621,1726
1250.898403134593,1658
1253.028170416058,1723
1255.1573733015875,1774
1257.2860120305932,1802
1259.4140868425648,1729
1261.54159797707,1757
1263.6685456737569,1715
1265.7949301723515,1646
1267.9207517126597,1752
1270.046010534565,1793
1272.1707068780306,1810
1274.2948409830983,1797
1276.4184130898889,1747
1278.541423438603,1818
1280.6638722695184,1813
1282.785759822993,1837
1284.9070863394636,1757
1287.0278520594447,1812
1289.1480572235314,1794
1291.2677020723963,1814
1293.3867868467923,1846
1295.5053117875495,1878
1297.623277135579,1842
1299.740683131868,1795
1301.8575300174857,1782
1303.973818033578,1848
1306.0895474213703,1881
1308.2047184221678,1871
1310.3193312773528,1851
1312.4333862283888,1824
1314.5468835168163,1925
1316.659823384255,1900
1318.7722060724045,1868
1320.8840318230418,1853
1322.9953008780249,1896
1325.1060134792888,1889
1327.2161698688478,1909
1329.3257702887959,1825
1331.4348149813054,1910
1333.5433041886276,1897
1335.6512381530933,1851
1337.7586171171101,1886
1339.8654413231675,1824
1341.9717110138317,1905
1344.0774264317488,1915
1346.1825878196432,1905
1348.2871954203192,1915
1350.3912494766587,1877
1352.4947502316231,1821
1354.5976979282532,1877
1356.7000928096686,1879
1358.8019351190665,1792
1360.9032250997243,1890
1363.0039629949988,1881
1365.1041490483235,1944
1367.2037835032133,1856
1369.3028666032606,1850
1371.401398592137,1873
1373.4993797135926,1820
1375.5968102114575,1837
1377.6936903296396,1873
1379.7900203121262,1920
1381.8858004029835,1897
1383.9810308463561,1896
1386.075711886469,1848
1388.1698437676241,1877
1390.2634267342032,1857
1392.356461030667,1906
1394.4489469015557,1898
1396.5408845914872,1877
1398.6322743451592,1946
1400.7231164073469,1986
1402.813411022907,1877
1404.903158436773,1936
1406.9923588939578,1933
1409.0810126395531,1951
1411.1691199187303,2003
1413.2566809767386,1980
1415.343696058907,2012
1417.4301654106425,2033
1419.5160892774315,2047
1421.6014679048399,2044
1423.6863015385125,1991
1425.7705904241707,1980
1427.8543348076178,2023
1429.9375349347342,2114
1432.0201910514802,2025
1434.102303403894,2018
1436.1838722380944,2062
1438.2648978002767,2056
1440.3453803367174,2077
1442.4253200937692,2157
1444.5047173178677,2192
1446.5835722555234,2205
1448.6618851533285,2277
1450.739656257952,2292
1452.8168858161434,2232
1454.8935740747306,2314
1456.96972128062,2408
1459.045327680797,2419
1461.120393522327,2418
1463.1949190523528,2345
1465.2689045180973,2443
1467.3423501668608,2517
1469.415256246024,2523
1471.4876230030463,2602
1473.559450685465,2586
1475.6307395408976,2690
1477.7014898170391,2747
1479.771701761665,2683
1481.8413756226287,2631
1483.9105116478618,2806
1485.9791100853772,2839
1488.0471711832643,2852
1490.1146951896926,2817
1492.1816823529098,2869
1494.2481329212433,2997
1496.3140471430984,2947
1498.3794252669609,2949
1500.4442675413939,3026
1502.5085742150404,3083
1504.572345536622,3143
1506.6355817549388,3089
1508.6982831188702,3024
1510.7604498773744,3060
1512.8220822794883,3129
1514.8831805743293,3244
1516.9437450110909,3176
1519.003775839048,3185
1521.0632733075522,3133
1523.1222376660367,3349
1525.1806691640113,3192
1527.2385680510652,3296
1529.2959345768668,3363
1531.3527689911643,3448
1533.4090715437833,3462
1535.4648424846291,3509
1537.5200820636855,3545
1539.5747905310159,3523
1541.6289681367616,3569
1543.6826151311434,3617
1545.7357317644614,3679
1547.7883182870937,3749
1549.8403749494987,3900
1551.8919020022113,3771
1553.9428996958477,3914
1555.9933682811015,3933
1558.0433080087469,3956
1560.0927191296346,4064
1562.1416018946961,4041
1564.1899565549415,4083
1566.2377833614592,3991
1568.2850825654164,3901
1570.3318544180606,3887
1572.3780991707158,3720
1574.423817074788,3580
1576.4690083817595,3605
1578.5136733431923,3317
1580.5578122107272,3216
1582.601425236085,3113
1584.6445126710646,2989
1586.6870747675434,2888
1588.7291117774776,2765
1590.7706239529034,2599
1592.8116115459347,2529
1594.8520748087658,2540
1596.8920139936686,2426
1598.9314293529933,2340
1600.9703211391711,2285
1603.008689604711,2176
1605.0465350022005,2310
1607.0838575843068,2278
1609.1206576037753,2203
1611.1569353134305,2130
1613.1926909661765,2090
1615.2279248149953,2070
1617.2626371129481,2059
1619.2968281131757,2017
1621.3304980688963,2013
1623.3636472334088,1993
1625.39627586009,1969
1627.428384202396,1963
1629.459972513861,1894
1631.4910410480993,1981
1633.5215900588028,1938
1635.551619799744,1912
1637.5811305247717,1876
1639.6101224878166,1870
1641.6385959428862,1836
1643.6665511440683,1894
1645.693988345528,1783
1647.7209078015112,1869
1649.7473097663405,1808
1651.7731944944203,1869
1653.7985622402307,1834
1655.823413258333,1923
1657.847747803366,1856
1659.8715661300494,1853
1661.8948684931793,1768
1663.9176551476316,1767
1665.9399263483624,1858
1667.9616823504057,1858
1669.982923408873,1769
1672.0036497789574,1854
1674.0238617159293,1809
1676.043559475138,1756
1678.0627433120121,1833
1680.081413482059,1823
1682.0995702408654,1786
1684.117213844096,1821
1686.134344547495,1752
1688.1509626068864,1837
1690.1670682781705,1781
1692.182661817329,1771
1694.1977434804217,1754
1696.2123135235875,1774
1698.226372203043,1787
1700.2399197750851,1829
1702.2529564960905,1888
1704.2654826225112,1782
1706.277498410882,1867
1708.2890041178139,1761
1710.2999999999988,1743
1712.3104863142066,1727
1714.3204633172854,1783
1716.329931266163,1805
1718.3388904178469,1743
1720.3473410294214,1783
1722.3552833580516,1733
1724.3627176609807,1713
1726.3696441955308,1715
1728.3760632191033,1811
1730.3819749891782,1800
1732.3873797633146,1762
1734.3922777991502,1747
1736.3966693544012,1687
1738.4005546868639,1755
1740.4039340544127,1738
1742.406807715001,1702
1744.4091759266616,1686
1746.4110389475054,1774
1748.4123970357223,1689
1750.413250449582,1763
1752.4135994474318,1720
1754.4134442876993,1770
1756.4127852288902,1719
1758.4116225295893,1720
1760.4099564484595,1714
1762.407787244244,1678
1764.405115175764,1679
1766.4019405019203,1712
1768.3982634816916,1749
1770.3940843741357,1704
1772.3894034383907,1735
1774.3842209336717,1689
1776.378537119274,1706
1778.372352254571,1698
1780.3656665990156,1696
1782.3584804121397,1654
1784.3507939535534,1670
1786.3426074829463,1659
1788.3339212600863,1756
1790.3247355448211,1713
1792.3150505970766,1631
1794.3048666768573,1677
1796.2941840442477,1661
1798.2830029594106,1614
1800.2713236825884,1683
1802.2591464741004,1701
1804.2464715943465,1642
1806.2332993038058,1692
1808.2196298630352,1628
1810.2054635326708,1699
1812.190800573428,1734
1814.175641246101,1650
1816.1599858115628,1659
1818.1438345307652,1646
1820.127187664738,1656
1822.1100454745924,1633
1824.092408221516,1697
1826.0742761667766,1613
1828.055649571721,1613
1830.0365286977735,1680
1832.0169138064398,1683
1833.9968051593014,1745
1835.9762030180214,1653
1837.9551076443408,1640
1839.9335193000788,1660
1841.9114382471344,1667
1843.888864747485,1709
1845.8657990631878,1676
1847.842241456378,1597
1849.8181921892697,1636
1851.7936515241558,1605
1853.7686197234098,1612
1855.7430970494815,1664
1857.7170837649014,1623
1859.6905801322787,1618
1861.6635864143004,1582
1863.6361028737338,1623
1865.608129773424,1722
1867.5796673762961,1630
1869.5507159453537,1700
1871.521275743678,1622
1873.4913470344313,1661
1875.4609300808534,1656
1877.4300251462632,1663
1879.3986324940588,1638
1881.366752387717,1669
1883.3343850907936,1672
1885.3015308669228,1617
1887.268189979819,1677
1889.2343626932739,1685
1891.2000492711595,1609
1893.1652499774254,1621
1895.1299650761011,1654
1897.0941948312952,1666
1899.0579395071945,1639
1901.0211993680641,1706
1902.98397467825,1690
1904.9462657021745,1643
1906.9080727043415,1679
1908.869395949332,1674
1910.8302357018065,1699
1912.790592226504,1620
1914.7504657882428,1709
1916.7098566519212,1686
1918.6687650825133,1691
1920.6271913450764,1689
1922.5851357047422,1669
1924.5425984267245,1651
1926.499579776314,1664
1928.4560800188833,1727
1930.4120994198802,1613
1932.367638244833,1635
1934.32269675935,1680
1936.2772752291175,1653
1938.231373919899,1594
1940.1849930975404,1585
1942.1381330279637,1613
1944.0907939771696,1626
1946.0429762112412,1653
1947.9946799963363,1639
1949.9459055986945,1616
1951.896653284633,1654
1953.8469233205478,1672
1955.7967159729142,1665
1957.7460315082863,1614
1959.6948701932974,1592
1961.6432322946594,1563
1963.5911180791632,1639
1965.5385278136787,1593
1967.4854617651545,1666
1969.4319202006182,1657
1971.377903387176,1625
1973.3234115920136,1626
1975.268445082395,1606
1977.2130041256642,1645
1979.1570889892423,1591
1981.1006999406304,1597
1983.04383724741,1621
1984.986501177238,1591
1986.928691997853,1616
1988.8704099770712,1629
1990.811655382789,1630
1992.7524284829801,1636
1994.692729545698,1548
1996.6325588390755,1594
1998.5719166313224,1629
2000.5108031907307,1587
2002.4492187856677,1658
2004.387163684583,1614
2006.3246381560011,1588
2008.2616424685298,1600
2010.1981768908527,1531
2012.1342416917332,1537
2014.069837140014,1616
2016.0049635046162,1557
2017.9396210545406,1688
2019.8738100588666,1566
2021.8075307867502,1640
2023.740783507431,1535
2025.6735684902228,1558
2027.6058860045214,1636
2029.5377363198004,1575
2031.4691197056118,1591
2033.4000364315875,1613
2035.3304867674374,1555
2037.260470982952,1547
2039.189989347998,1584
2041.1190421325232,1538
2043.047629606554,1576
2044.9757520401945,1542
2046.9034097036288,1570
2048.8306028671195,1573
2050.7573318010086,1579
2052.683596775716,1508
2054.609398061742,1542
2056.5347359296647,1570
2058.4596106501403,1535
2060.384022493906,1590
2062.3079717317764,1562
2064.231458634646,1536
2066.1544834734873,1616
2068.077046519352,1553
2069.99914804337,1527
2071.9207883167524,1505
2073.8419676107865,1545
2075.7626861968406,1540
2077.6829443463607,1602
2079.6027423308715,1581
2081.522080421977,1488
2083.440958891362,1562
2085.359378010786,1598
2087.2773380520907,1520
2089.194839287196,1492
2091.111881988101,1504
2093.0284664268825,1509
2094.9445928756973,1614
2096.86026160678,1558
2098.775472892446,1509
2100.690227005088,1529
2102.604524217178,1563
2104.5183648012676,1592
2106.431749029985,1523
2108.34467717604,1611
2110.2571495122206,1577
2112.169166311393,1580
2114.080727846503,1624
2115.9918343905747,1555
2117.902486216711,1581
2119.8126835980956,1611
2121.722426807987,1576
2123.6317161197285,1579
2125.5405518067364,1586
2127.448934142509,1606
2129.356863400624,1650
2131.264339854737,1587
2133.1713637785815,1644
2135.077935445972,1583
2136.9840551308002,1600
2138.889723107037,1612
2140.7949396487334,1624
2142.699705030018,1605
2144.6040195250994,1623
2146.507883408264,1610
2148.4112969538774,1616
2150.3142604363848,1633
2152.2167741303097,1651
2154.1188383102535,1663
2156.0204532508997,1591
2157.9216192270064,1625
2159.822336513414,1634
2161.7226053850413,1681
2163.622426116884,1639
2165.5217989840185,1639
2167.4207242616,1640
2169.319202224862,1727
2171.2172331491165,1657
2173.1148173097563,1709
2175.0119549822507,1737
2176.90864644215,1706
2178.8048919650823,1666
2180.7006918267534,1658
2182.596046302952,1656
2184.4909556695407,1721
2186.3854202024645,1744
2188.279440177746,1749
2190.173015871487,1673
2192.066147559868,1620
2193.958835519149,1708
2195.851080025667,1714
2197.7428813558417,1739
2199.6342397861667,1685
2201.5251555932186,1649
2203.415629053651,1764
2205.3056604441986,1711
2207.19525004167,1730
2209.084398122958,1745
2210.9731049650327,1768
2212.861370844941,1724
2214.749196039812,1737
2216.636580826851,1786
2218.523525483344,1731
2220.410030286655,1741
2222.296095514226,1752
2224.1817214435805,1802
2226.066908352319,1715
2227.951656518121,1750
2229.835966218746,1846
2231.71983773203,1693
2233.6032713358913,1760
2235.486267308324,1646
2237.3688259274036,1669
2239.2509474712824,1769
2241.132632218193,1747
2243.013880446447,1819
2244.8946924344323,1708
2246.7750684606203,1712
2248.6550088035574,1711
2250.534513741871,1730
2252.413583554265,1808
2254.292218519526,1759
2256.170418916517,1680
2258.0481850241786,1682
2259.925517121534,1706
2261.8024154876825,1745
2263.678880401803,1716
2265.5549121431536,1763
2267.430510991071,1711
2269.305677224971,1750
2271.180411124348,1655
2273.0547129687766,1696
2274.9285830379076,1685
2276.8020216114737,1699
2278.6750289692845,1695
2280.5476053912294,1732
2282.4197511572766,1836
2284.2914665474727,1760
2286.162751841943,1815
2288.0336073208937,1829
2289.904033264608,1707
2291.774029953448,1741
2293.6435976678554,1676
2295.5127366883517,1651
2297.381447295534,1591
2299.2497297700825,1567
2301.1175843927526,1516
2302.9850114443825,1486
2304.852011205885,1508
2306.7185839582553,1500
2308.5847299825664,1470
2310.4504495599676,1462
2312.3157429716925,1403
2314.1806104990483,1391
2316.0450524234247,1450
2317.9090690262888,1473
2319.772660589186,1442
2321.635827393742,1405
2323.498569721661,1484
2325.3608878547248,1427
2327.2227820747967,1402
2329.0842526638157,1391
2330.945299903803,1399
2332.805924076857,1497
2334.6661254651535,1474
2336.525904350951,1407
2338.3852610165827,1391
2340.244195744464,1425
2342.102708817088,1461
2343.9608005170253,1443
2345.8184711269287,1429
2347.675720929526,1387
2349.532550207628,1368
2351.38895924412,1425
2353.24494832197,1442
2355.100517724223,1476
2356.955667734004,1433
2358.810398634514,1444
2360.664710709037,1428
2362.5186042409337,1387
2364.3720795136437,1434
2366.225136810686,1482
2368.0777764156583,1471
2369.929998612237,1495
2371.7818036841777,1451
2373.633191915315,1482
2375.484163589562,1441
2377.3347189909114,1463
2379.184858403434,1510
2381.03458211128,1462
2382.8838903986775,1431
2384.732783549936,1459
2386.5812618494406,1466
2388.4293255816588,1483
2390.2769750311327,1484
2392.1242104824883,1488
2393.971032220427,1460
2395.8174405297295,1504
2397.6634356952563,1460
2399.509018001947,1477
2401.3541877348193,1430
2403.1989451789705,1449
2405.043290619576,1440
2406.8872243418905,1555
2408.730746631247,1455
2410.5738577730594,1472
2412.4165580528183,1449
2414.258847756095,1420
2416.100727168537,1474
2417.9421965758734,1525
2419.783256263912,1479
2421.623906518538,1452
2423.4641476257157,1502
2425.303979871491,1488
2427.143403541984,1531
2428.9824189233977,1435
2430.821026302012,1532
2432.6592259641866,1509
2434.497018196361,1450
2436.33440328505,1453
2438.171381516851,1494
2440.00795317844,1557
2441.844118556569,1544
2443.6798779380724,1481
2445.5152316098606,1524
2447.3501798589255,1508
2449.1847229723357,1489
2451.0188612372403,1444
2452.8525949408663,1482
2454.6859243705203,1467
2456.518849813587,1484
2458.3513715575314,1500
2460.183489889895,1475
2462.015205098301,1447
2463.8465174704493,1493
2465.67742729412,1504
2467.5079348571717,1517
2469.338040447542,1486
2471.1677443532476,1472
2472.9970468623833,1533
2474.825948263123,1525
2476.6544488437207,1515
2478.482548892508,1515
2480.310248697896,1539
2482.137548548374,1504
2483.9644487325118,1485
2485.790949538956,1514
2487.617051256433,1477
2489.44275417375,1498
2491.26805857979,1528
2493.0929647635157,1569
2494.917473013971,1518
2496.741583620276,1526
2498.5652968716304,1564
2500.3886130573137,1559
2502.2115324666834,1566
2504.0340553891765,1480
2505.856182114308,1571
2507.6779129316733,1495
2509.499248130945,1550
2511.3201880018764,1503
2513.140732834298,1526
2514.9608829181198,1607
2516.780638543331,1567
2518.6,1548
2520.418967578273,1465
2522.237541568376,1544
2524.0557222606144,1535
2525.8735099453706,1585
2527.6909049131086,1612
2529.507907454368,1581
2531.32451785977,1611
2533.140736420014,1598
2534.9565634258774,1592
2536.771999168218,1594
2538.5870439379714,1602
2540.4016980261526,1706
2542.2159617238544,1675
2544.02983532225,1681
2545.8433191125914,1727
2547.656413386209,1684
2549.4691184345115,1690
2551.2814345489874,1671
2553.093362021204,1769
2554.904901142808,1695
2556.716052205523,1746
2558.526815501153,1747
2560.3371913215824,1685
2562.147179958771,1759
2563.956781704761,1770
2565.7659968516705,1767
2567.5748256916986,1702
2569.3832685171224,1715
2571.1913256202984,1806
2572.9989972936614,1820
2574.806283829725,1778
2576.613185521084,1757
2578.4197026604074,1880
2580.2258355404483,1831
2582.031584454035,1845
2583.836949694077,1893
2585.6419315535613,1750
2587.4465303255533,1860
2589.2507463032002,1894
2591.0545797797245,1861
2592.8580310484303,1839
2594.6611004026995,1815
2596.463788135992,1892
2598.266094541849,1860
2600.0680199138874,1873
2601.869564545807,1864
2603.670728731383,1922
2605.4715127644704,1882
2607.2719169390048,1868
2609.071941548998,1822
2610.8715868885433,1884
2612.670853251811,1889
2614.469740933052,1838
2616.268250226594,1930
2618.0663814268455,1890
2619.864134828292,1817
2621.6615107255006,1868
2623.458509413115,1845
2625.2551311858597,1802
2627.0513763385347,1794
2628.8472451660223,1681
2630.6427379632833,1834
2632.4378550253564,1804
2634.232596647359,1756
2636.026963124488,1724
2637.8209547520187,1716
2639.6145718253065,1676
2641.407814639785,1648
2643.200683490966,1673
2644.9931786744414,1701
2646.7853004858807,1718
2648.577049221034,1671
2650.3684251757277,1739
2652.1594286458712,1650
2653.9500599274484,1653
2655.740319316525,1594
2657.5302071092437,1606
2659.3197236018286,1687
2661.10886909058,1644
2662.8976438718782,1600
2664.686048242183,1684
2666.4740824980327,1644
2668.2617469360443,1581
2670.0490418529134,1589
2671.8359675454153,1571
2673.622524310403,1586
2675.408712444811,1537
2677.1945322456495,1537
2678.979984010009,1521
2680.76506803506,1530
2682.5497846180497,1569
2684.334134056306,1536
2686.1181166472343,1514
2687.9017326883213,1533
2689.6849824771293,1544
2691.4678663113013,1588
2693.2503844885596,1529
2695.032537306705,1537
2696.8143250636167,1538
2698.5957480572542,1481
2700.3768065856534,1485
2702.1575009469316,1491
2703.937831439283,1499
2705.717798360982,1473
2707.4974020103837,1457
2709.276642685917,1470
2711.055520686095,1483
2712.834036309506,1472
2714.612189854819,1444
2716.389981620782,1455
2718.1674119062204,1433
2719.944481010041,1495
2721.721189231226,1461
2723.4975368688415,1536
2725.273524222027,1465
2727.0491515900053,1483
2728.824419272075,1422
2730.5993275676146,1444
2732.3738767760838,1422
2734.148067197016,1481
2735.921899130031,1394
2737.6953728748194,1419
2739.468488731156,1444
2741.2412469988926,1449
2743.0136479779617,1490
2744.785691968372,1444
2746.5573792702116,1423
2748.3287101836504,1489
2750.099685008934,1423
2751.870304046388,1390
2753.640567596418,1451
2755.4104759595057,1443
2757.1800294362156,1443
2758.949228327187,1427
2760.7180729331412,1444
2762.486563554877,1480
2764.254700493272,1456
2766.022484049284,1388
2767.789914523947,1443
2769.5569922183786,1476
2771.3237174337705,1459
2773.090090471394,1447
2774.8561116326036,1442
2776.6217812188274,1460
2778.3870995315756,1462
2780.1520668724356,1438
2781.9166835430747,1416
2783.6809498452394,1442
2785.444866080754,1459
2787.2084325515225,1393
2788.971649559527,1397
2790.73451740683,1448
2792.4970363955713,1442
2794.2592068279705,1375
2796.0210290063264,1391
2797.7825032330147,1429
2799.543629810493,1441
2801.304409041296,1426
2803.0648412280366,1452
2804.8249266734088,1418
2806.5846656801846,1489
2808.344058551212,1423
2810.1031055894246,1440
2811.8618070978273,1479
2813.6201633795085,1475
2815.378174737636,1436
2817.1358414754536,1444
2818.893163896285,1415
2820.6501423035334,1426
2822.4067770006814,1405
2824.1630682912883,1406
2825.9190164789957,1426
2827.6746218675207,1495
2829.429884760661,1405
2831.184805462294,1418
2832.9393842763743,1464
2834.693621506936,1415
2836.4475174580916,1446
2838.201072434034,1438
2839.954286739034,1397
2841.707160677441,1425
2843.459694553685,1456
2845.2118886722724,1445
2846.96374333779,1441
2848.7152588549034,1396
2850.4664355283567,1413
2852.217273662973,1445
2853.9677735636546,1338
2855.7179355353833,1434
2857.4677598832186,1431
2859.217246912299,1432
2860.9663969278427,1482
2862.715210235146,1423
2864.4636871395846,1427
2866.211827946614,1413
2867.9596329617652,1434
2869.7071024906536,1439
2871.4542368389684,1447
2873.20103631248,1427
2874.947501217038,1397
2876.6936318585695,1408
2878.4394285430812,1447
2880.1848915766604,1405
2881.9300212654707,1420
2883.6748179157553,1385
2885.4192818338374,1349
2887.1634133261173,1433
2888.907212699077,1433
2890.6506802592744,1416
2892.393816313348,1477
2894.1366211680142,1424
2895.8790951300693,1372
2897.621238506388,1375
2899.363051603925,1360
2901.1045347297118,1442
2902.8456881908596,1424
2904.58651229456,1441
2906.327007348081,1402
2908.067173658772,1418
2909.8070115340597,1435
2911.5465212814497,1407
2913.285703208527,1402
2915.0245576229563,1441
2916.7630848324807,1384
2918.5012851449196,1426
2920.2391588681758,1452
2921.976706310227,1417
2923.7139277791334,1394
2925.4508235830313,1423
2927.187394030137,1373
2928.923639428745,1434
2930.6595600872306,1387
2932.395156314046,1434
2934.1304284177218,1427
2935.8653767068713,1406
2937.6000014901815,1447
2939.3343030764227,1442
2941.068281774442,1437
2942.8019378931644,1472
2944.5352717415976,1505
2946.2682836288236,1425
2948.0009738640065,1409
2949.7333427563885,1345
2951.465390615289,1473
2953.1971177501086,1424
2954.9285244703265,1428
2956.6596110855,1424
2958.3903779052657,1413
2960.1208252393385,1370
2961.8509533975125,1410
2963.5807626896617,1415
2965.3102534257378,1418
2967.0394259157715,1392
2968.768280469873,1356
2970.496817398232,1406
2972.2250370111146,1390
2973.952939618869,1472
2975.6805255319196,1477
2977.4077950607707,1446
2979.134748516006,1437
2980.861386208289,1426
2982.587708448359,1467
2984.313715547037,1412
2986.039407815222,1393
2987.764785563891,1416
2989.489849104102,1461
2991.2145987469908,1394
2992.9390348037705,1461
2994.6631575857346,1455
2996.3869674042576,1417
2998.1104645707887,1456
2999.83364939686,1431
3001.5565221940783,1427
3003.2790832741334,1444
3005.0013329487924,1418
3006.7232715298996,1337
3008.4448993293804,1388
3010.166216659239,1413
3011.887223831558,1385
3013.607921158498,1384
3015.3283089522993,1482
3017.0483875252826,1407
3018.7681571898443,1415
3020.4876182584626,1353
3022.2067710436927,1334
3023.9256158581707,1369
3025.644153014609,1408
3027.362382825801,1471
3029.0803056046193,1426
3030.797921664012,1420
3032.5152313170106,1391
3034.2322348767225,1421
3035.9489326563353,1463
3037.665324969115,1427
3039.3814121284063,1430
3041.097194447633,1417
3042.812672240299,1408
3044.5278458199855,1419
3046.2427155003525,1419
3047.9572815951406,1348
3049.671544418167,1437
3051.38550428333,1435
3053.0991615046073,1442
3054.812516396051,1409
3056.5255692717974,1454
3058.2383204460575,1396
3059.9507702331257,1406
3061.662918947372,1389
3063.3747669032446,1411
3065.0863144152736,1408
3066.7975617980674,1424
3068.508509366309,1420
3070.219157434767,1336
3071.9295063182844,1416
3073.639556331785,1370
3075.3493077902704,1318
3077.058761008821,1396
3078.7679163025964,1422
3080.476773986837,1413
3082.1853343768594,1397
3083.89359778806,1419
3085.6015645359153,1405
3087.3092349359786,1435
3089.016609303884,1462
3090.7236879553434,1411
3092.4304712061476,1396
3094.136959372166,1420
3095.843152769349,1411
3097.5490517137237,1458
3099.2546565213966,1361
3100.959967508554,1417
3102.66498499146,1411
3104.3697092864577,1405
3106.0741407099695,1372
3107.778279578498,1357
3109.482126208622,1361
3111.1856809170004,1411
3112.8889440203716,1399
3114.5919158355528,1407
3116.294596679439,1407
3117.996986869006,1437
3119.6990867213062,1445
3121.4008965534726,1417
3123.102416682717,1463
3124.803647426329,1434
3126.5045891016784,1452
3128.205242026213,1423
3129.90560651746,1418
3131.605682893025,1349
3133.3054714705922,1414
3135.0049725679282,1390
3136.7041865028714,1412
3138.4031135933465,1369
3140.101754157353,1459
3141.800108512971,1405
3143.498176978357,1389
3145.1959598717494,1415
3146.8934575114636,1385
3148.5906702158954,1401
3150.2875983035183,1400
3151.9842420928853,1434
3153.680601902627,1417
3155.376678051456,1379
3157.07247085816,1376
3158.767980641609,1337
3160.463207720748,1424
3162.158152414606,1456
3163.8528150422862,1377
3165.5471959229726,1349
3167.2412953759303,1414
3168.9351137204976,1353
3170.628651276098,1375
3172.3219083622307,1426
3174.014885298474,1447
3175.707582404485,1415
3177.4000000000005,1387
3179.092138404835,1327
3180.7839979388846,1403
3182.47557892212,1415
3184.166881674594,1422
3185.8579065164386,1358
3187.5486537678626,1466
3189.2391237491547,1414
3190.9293167806827,1335
3192.6192331828934,1369
3194.3088732763117,1394
3195.998237381542,1405
3197.687325819268,1346
3199.376138910251,1384
3201.064676975334,1378
3202.7529403354347,1395
3204.4409293115523,1290
3206.1286442247647,1374
3207.816085396229,1370
3209.5032531471825,1389
3211.190147798936,1358
3212.8767696728846,1392
3214.5631190905015,1376
3216.2491963733373,1382
3217.9350018430214,1368
3219.6205358212637,1383
3221.305798629851,1326
3222.990790590651,1391
3224.6755120256103,1343
3226.359963256751,1345
3228.0441446061795,1348
3229.7280563960758,1305
3231.411698948703,1380
3233.0950725863995,1307
3234.778177631587,1435
3236.461014406761,1406
3238.1435832345005,1435
3239.8258844374595,1366
3241.507918338374,1376
3243.1896852600576,1337
3244.8711855254023,1420
3246.552419457381,1365
3248.233387379042,1393
3249.914089613516,1378
3251.59452648401,1358
3253.274698313813,1436
3254.95460542629,1384
3256.6342481448855,1377
3258.313626793125,1372
3259.9927416946084,1359
3261.6715931730196,1364
3263.3501815521176,1359
3265.0285071557437,1339
3266.706570307815,1377
3268.3843713323286,1285
3270.0619105533615,1362
3271.739188295068,1322
3273.4162048816834,1322
3275.0929606375184,1405
3276.769455886966,1417
3278.445690954498,1374
3280.1216661646613,1385
3281.797381842087,1361
3283.4728383114807,1400
3285.1480358976296,1379
3286.8229749253996,1323
3288.4976557197333,1363
3290.172078605655,1298
3291.846243908266,1377
3293.5201519527463,1384
3295.193803064357,1356
3296.8671975684374,1335
3298.5403357904024,1383
3300.21321805575,1323
3301.8858446900567,1325
3303.558216018975,1420
3305.23033236824,1365
3306.9021940636603,1344
3308.57380143113,1363
3310.2451547966184,1364
3311.916254486174,1389
3313.5871008259246,1391
3315.2576941420766,1364
3316.9280347609147,1357
3318.5981230088046,1398
3320.2679592121895,1292
3321.9375436975924,1329
3323.606876791612,1321
3325.27595882093,1308
3326.944790112305,1333
3328.6133709925753,1335
3330.2817017886573,1331
3331.949782827547,1355
3333.617614436319,1373
3335.2851969421245,1320
3336.952530672199,1306
3338.619615953853,1358
3340.286453114475,1389
3341.9530424815357,1410
3343.619384382583,1386
3345.2854791452437,1379
3346.951327097224,1339
3348.6169285663073,1302
3350.2822838803577,1345
3351.947393367319,1358
3353.61225735521,1392
3355.2768761721345,1387
3356.9412501462693,1366
3358.605379605873,1381
3360.2692648792827,1366
3361.9329062949146,1335
3363.596304181263,1345
