CollectionTime,9/20/2024 12:22:17 PM
ExposureUsed,3
CalibratedSpectrum
-962.7078968117929,836
-959.9714848408522,888
-957.2358232597828,907
-954.5009119013725,904
-951.7667505983302,921
-949.0333391832855,944
-946.3006774887896,904
-943.5687653473143,904
-940.837602591253,936
-938.1071890529199,935
-935.3775245645503,914
-932.6486089583007,932
-929.9204420662485,928
-927.1930237203925,933
-924.4663537526524,969
-921.7404319948689,961
-919.0152582788041,983
-916.2908324361409,957
-913.5671542984834,924
-910.8442236973568,917
-908.1220404642074,922
-905.4006044304027,943
-902.679915427231,923
-899.959973285902,935
-897.2407778375464,871
-894.5223289132158,922
-891.8046263438832,889
-889.0876699604426,885
-886.3714595937089,921
-883.6559950744183,924
-880.9412762332282,904
-878.2273029007168,905
-875.5140749073835,915
-872.8015920836489,899
-870.0898542598545,886
-867.3788612662631,888
-864.6686129330585,891
-861.9591090903457,911
-859.2503495681506,872
-856.5423341964203,839
-853.8350628050229,837
-851.1285352237478,885
-848.4227512823054,893
-845.7177108103272,891
-843.0134136373656,870
-840.3098595928943,863
-837.6070485063082,867
-834.9049802069229,905
-832.2036545239757,906
-829.5030712866244,834
-826.8032303239481,897
-824.1041314649472,875
-821.4057745385428,914
-818.7081593735775,907
-816.0112857988148,897
-813.3151536429393,872
-810.6197627345566,919
-807.9251129021936,887
-805.2312039742981,931
-802.5380357792392,929
-799.8456081453069,903
-797.1539209007124,889
-794.462973873588,973
-791.772766891987,954
-789.083299783884,913
-786.3945723771743,915
-783.7065844996748,901
-781.0193359791231,867
-778.3328266431781,918
-775.6470563194197,887
-772.9620248353489,868
-770.2777320183878,912
-767.5941776958798,920
-764.9113616950891,911
-762.2292838432011,919
-759.5479439673222,935
-756.8673418944801,879
-754.1874774516235,907
-751.5083504656222,935
-748.8299607632671,910
-746.15230817127,979
-743.475392516264,935
-740.7992136248035,923
-738.1237713233636,907
-735.4490654383407,900
-732.7750957960521,908
-730.1018622227365,931
-727.4293645445534,894
-724.7576025875837,919
-722.0865761778291,930
-719.4162851412126,950
-716.7467293035781,937
-714.0779084906909,981
-711.409822528237,963
-708.7424712418238,999
-706.0758544569796,967
-703.4099719991541,941
-700.7448236937178,1002
-698.0804093659622,1031
-695.4167288411002,1004
-692.7537819442656,979
-690.0915685005134,987
-687.4300883348199,1029
-684.7693412720819,1015
-682.1093271371178,1010
-679.4500457546669,960
-676.7914969493897,939
-674.1336805458676,1033
-671.4765963686034,965
-668.8202442420206,1020
-666.1646239904642,983
-663.5097354382001,974
-660.8555784094151,983
-658.2021527282176,997
-655.5494582186366,977
-652.8974947046223,978
-650.2462620100463,1034
-647.5957599587009,1045
-644.9459883742998,1081
-642.2969470804776,1062
-639.6486359007902,1032
-637.0010546587141,1067
-634.3542031776476,1075
-631.7080812809096,1055
-629.0626887917401,1010
-626.4180255333008,978
-623.7740913286734,1102
-621.1308860008619,1025
-618.4884093727904,1031
-615.8466612673046,1024
-613.2056415071715,1014
-610.5653499150785,1056
-607.9257863136347,1055
-605.28695052537,1090
-602.6488423727357,1063
-600.0114616781036,1050
-597.3748082637674,1133
-594.7388819519412,1106
-592.1036825647604,1140
-589.4692099242818,1035
-586.8354638524829,1073
-584.2024441712624,1144
-581.5701507024403,1115
-578.9385832677575,1206
-576.3077416888759,1126
-573.6776257873787,1097
-571.0482353847704,1074
-568.4195703024757,1035
-565.7916303618415,1058
-563.164415384135,1135
-560.5379251905453,1104
-557.9121596021815,1109
-555.2871184400748,1053
-552.6628015251767,1104
-550.0392086783606,1142
-547.4163397204204,1100
-544.794194472071,1143
-542.1727727539491,1189
-539.5520743866118,1146
-536.9320991905377,1127
-534.3128469861261,1144
-531.6943175936979,1169
-529.0765108334947,1244
-526.4594265256793,1246
-523.8430644903358,1474
-521.2274245474689,1578
-518.612506517005,1673
-515.9983102187913,1624
-513.3848354725959,1705
-510.77208209810846,1738
-508.16004991493924,1794
-505.5487387426199,1934
-502.9381484006032,2015
-500.3282787082628,2018
-497.71912948489364,2077
-495.1107005497117,1978
-492.5029917218539,1863
-489.8960028203786,1708
-487.28973366426493,1580
-484.68418407241325,1443
-482.07935386364494,1388
-479.47524285670266,1272
-476.87185087025,1305
-474.2691777228715,1319
-471.66722323307334,1325
-469.0659872192821,1249
-466.4654694998459,1364
-463.86566989303384,1251
-461.26658821703614,1240
-458.66822428996414,1308
-456.07057792985,1348
-453.4736489546475,1329
-450.877437182231,1299
-448.28194243039627,1226
-445.68716451686,1248
-443.09310325926003,1264
-440.49975847515555,1264
-437.9071299820263,1229
-435.31521759727354,1309
-432.72402113821954,1259
-430.13354042210767,1233
-427.5437752661022,1270
-424.95472548728867,1248
-422.36639090267386,1353
-419.7787713291855,1419
-417.1918665836721,1357
-414.60567648290385,1323
-412.0202008435715,1337
-409.4354394822874,1426
-406.8513922155845,1369
-404.26805885991723,1382
-401.685439231661,1452
-399.103533147112,1427
-396.522340422488,1372
-393.9418608739278,1333
-391.3620943174908,1285
-388.7830405691583,1288
-386.2046994448317,1270
-383.6270707603344,1238
-381.05015433141045,1151
-378.473949973725,1121
-375.8984575028645,1042
-373.32367673433623,940
-370.74960748356875,931
-368.1762495659117,862
-365.60360279663576,728
-363.03166699093265,698
-360.4604419639154,639
-357.8899275306178,614
-355.32012350599507,612
-352.7510297049233,552
-350.1826459421999,573
-347.61497203254316,541
-345.04800779059235,572
-342.4817530309082,563
-339.91620756797226,588
-337.35137121618743,607
-334.7872437898774,591
-332.22382510328725,586
-329.66111497058273,599
-327.09911320585127,531
-324.53781962310075,542
-321.9772340362607,558
-319.4173562591816,528
-316.8581861056348,554
-314.2997233893127,559
-311.7419679238294,603
-309.1849195227194,605
-306.62857799943856,659
-304.0729431673641,619
-301.51801483979375,604
-298.963792829947,547
-296.41027695096386,574
-293.85746701590574,601
-291.3053628377552,632
-288.7539642294155,674
-286.2032710037115,679
-283.65328297338897,669
-281.1039999511146,732
-278.5554217494762,741
-276.007548180983,672
-273.4603790580651,732
-270.9139141930734,734
-268.3681533982807,770
-265.8230964858798,728
-263.27874326798565,760
-260.7350935566336,730
-258.1921471637804,748
-255.6499039013039,903
-253.10836358100266,874
-250.56752601459698,786
-248.02739101372765,849
-245.48795838995704,926
-242.94922795476816,846
-240.41119951956557,958
-237.8738728956746,905
-235.33724789434166,827
-232.80132432673452,835
-230.2661020039418,784
-227.73158073697357,867
-225.19776033676033,928
-222.66464061415422,939
-220.1322213799284,1035
-217.60050244477725,949
-215.06948361931552,998
-212.53916471408013,1116
-210.00954553952818,1119
-207.48062590603843,934
-204.9524056239104,912
-202.4248845033651,984
-199.8980623545441,957
-197.37193898751036,1066
-194.84651421224817,1119
-192.32178783866232,965
-189.79775967657952,1000
-187.27442953574644,1085
-184.7517972258321,1142
-182.2298625564256,997
-179.7086253370378,917
-177.18808537710026,975
-174.66824248596583,1215
-172.14909647290835,1190
-169.6306471471229,1140
-167.11289431772548,993
-164.59583779375328,1010
-162.07947738416453,1209
-159.5638128978386,1557
-157.04884414357605,1567
-154.53457093009854,1502
-152.02099306604828,1141
-149.50811035998936,1158
-146.99592262040665,1498
-144.48442965570587,1712
-141.97363127421409,1743
-139.46352728417958,1822
-136.95411749377126,1710
-134.44540171107985,1444
-131.93737974411636,1434
-129.43005140081357,1446
-126.92341648902493,1714
-124.41747481652521,1974
-121.91222619101006,2313
-119.40767042009657,2119
-116.90380731132257,1755
-114.40063667214702,2240
-111.8981583099503,3742
-109.3963720320337,6440
-106.89527764561933,10812
-104.39487495785067,13703
-101.89516377579241,16056
-99.39614390642998,19543
-96.89781515667039,24950
-94.40017733334128,31201
-91.90323024319173,31429
-89.40697369289148,22993
-86.91140748903172,14438
-84.41653143812482,11558
-81.92234534660395,16534
-79.42884902082358,25060
-76.93604226705907,28877
-74.4439248915071,24563
-71.95249670028534,19455
-69.46175749943245,15680
-66.97170709490854,13058
-64.48234529259423,13228
-61.99367189829195,13942
-59.50568671772464,12521
-57.01838955653636,12069
-54.53178022029283,12521
-52.045858514480074,12107
-49.560624244506016,14275
-47.07607721569923,14988
-44.59221723330904,14338
-42.10904410250669,15347
-39.62655762838392,18103
-37.14475761595372,24713
-34.66364387015028,26272
-32.18321619582866,27665
-29.70347439776515,31683
-27.224418280657005,34105
-24.74604764912317,37701
-22.26836230770266,50090
-19.7913620608565,65035
-17.315046712966478,65035
-14.83941606833514,65035
-12.36446993118659,65035
-9.89020810566592,65035
-7.416630395839093,65035
-4.94373660569363,65035
-2.471526539137585,65035
-6.821210263296962E-13,65035
2.47084320796705,65035
4.941003281093458,65035
7.410480415786196,65035
9.879274808531363,65035
12.347386655893956,65035
14.814816154518212,65035
17.28156350112681,65035
19.74762889252179,65035
22.21301252558385,28981
24.67771459727237,8661
27.141735304626195,8409
29.605074844762612,8235
32.06773341487792,5931
34.52971121224755,5343
36.99100843422559,5430
39.45162527824516,4249
41.91156194181792,3978
44.370818622535126,4572
46.82939551806646,3482
49.287292826160524,6249
51.74451074464503,6403
54.201049471426245,4663
56.65690920448981,3165
59.112090141899785,2451
61.56659248179983,2276
64.02041642241159,2611
66.4735621620365,2884
68.92602989905402,3579
71.37781983192338,4025
73.82893215918205,3376
76.27936707944684,2808
78.72912479141326,2763
81.17820549385567,2316
83.62660938562783,1909
86.07433666566146,1618
88.5213875329681,1742
90.96776218663751,2267
93.41346082583925,2312
95.85848364982041,2445
98.30283085790859,2590
100.7465026495089,2083
103.18949922410604,1754
105.63182078126385,1583
108.07346752062438,1837
110.51443964190923,1552
112.95473734491827,1620
115.39436082953114,1608
117.83331029570547,1677
120.27158594347827,2257
122.7091879729652,1940
125.1461165843615,1653
127.58237197794062,1415
130.01795435405518,1472
132.4528639131364,1513
134.88710085569494,1591
137.32066538231982,1639
139.75355769367923,1786
142.1857779905207,1537
144.61732647366978,1363
147.04820334403132,1263
149.47840880258934,1368
151.90794305040674,1438
154.33680628862487,1512
156.76499871846443,1650
159.19252054122433,1876
161.61937195828352,2103
164.04555317109896,2226
166.47106438120693,2451
168.89590579022217,2592
171.320077599839,2959
173.7435800118302,3077
176.16641322804742,2986
178.58857745042144,3165
181.01007288096173,3100
183.43089972175687,3186
185.85105817497413,3255
188.27054844285988,3263
190.6893707277394,3247
193.10752523201643,3292
195.5250121581745,3511
197.9418317087751,3529
200.3579840864594,3535
202.7734694939469,3687
205.18828813403627,3878
207.6024402096051,3770
210.01592592360964,3585
212.42874547908548,3735
214.84089907914665,3547
217.2523869269868,3546
219.66320922587727,3569
222.0733661791695,3537
224.48285799029293,3460
226.8916848627572,3625
229.29984700014882,3688
231.7073446061355,3557
234.11417788446204,3582
236.520347038953,3772
238.92585227351185,3777
241.33069379212054,4002
243.73487179884035,4019
246.1383864978112,4015
248.541238093252,4031
250.9434267894609,4112
253.34495279081432,3929
255.74581630176783,3848
258.1460175268563,3928
260.54555667069314,3922
262.9444339379703,3997
265.3426495334594,3959
267.7402036620107,3978
270.1370965285529,3728
272.53332833809407,3481
274.9288992957214,3425
277.32380960660055,3365
279.718059475976,3331
282.1116491091717,3324
284.5045787115897,3291
286.89684848871195,3143
289.2884586460981,3310
291.67940938938807,3325
294.0697009242996,3384
296.4593334566299,3285
298.84830719225477,3314
301.23662233712923,3279
303.6242790972866,3142
306.01127767884,3137
308.39761828798066,3214
310.78330113097934,3121
313.16832641418534,2988
315.5526943440269,2982
317.9364051270112,3022
320.3194589697242,2944
322.70185607883093,3001
325.0835966610754,2994
327.4646809232805,2867
329.8451090723478,2786
332.2248813152577,2814
334.6039978590701,2896
336.9824589109231,2813
339.36026467803447,2786
341.7374153677,2684
344.113911187295,2769
346.48975234427337,2767
348.8649390461686,2759
351.2394715005918,2849
353.61334991523415,2708
355.9865744978655,2765
358.35914545633375,2795
360.73106299856715,2762
363.10232733257146,2781
365.47293866643247,2712
367.84289720831396,2588
370.2122031664593,2659
372.5808567491905,2544
374.9488581649083,2703
377.31620762209275,2621
379.6829053293021,2503
382.0489514951745,2656
384.4143463284262,2679
386.7790900378528,2586
389.14318283232853,2628
391.50662492080653,2603
393.86941651231916,2642
396.23155781597745,2675
398.5930490409713,2653
400.9538903965696,2585
403.3140820921202,2499
405.6736243370498,2505
408.03251734086336,2496
410.3907613131465,2422
412.74835646356166,2474
415.10530300185144,2569
417.4616011378372,2516
419.81725108141893,2549
422.1722530425758,2597
424.5266072313656,2566
426.880313857925,2534
429.2333731324701,2563
431.58578526529516,2528
433.9375504667738,2537
436.2886689473588,2483
438.63914091758113,2429
440.9889665880513,2470
443.33814616945835,2501
445.68667987257015,2464
448.03456790823395,2377
450.3818104873759,2446
452.72840782100013,2393
455.07436012019105,2383
457.41966759611057,2513
459.7643304600007,2482
462.10834892318155,2397
464.4517231970525,2439
466.79445349309174,2421
469.1365400228566,2435
471.4779829979826,2422
473.81878263018564,2450
476.15893913125876,2464
478.4984527130747,2556
480.8373235875855,2669
483.17555196682144,2720
485.5131380628919,2795
487.8500820879857,2935
490.1863842543697,3004
492.52204477439034,3132
494.8570638604725,3330
497.1914417251204,3672
499.52517858091653,3821
501.85827464052306,4060
504.19073011668036,4119
506.5225452222086,4069
508.85372017000566,4118
511.18425517304956,4070
513.514150444396,4338
515.8434061971808,5537
518.1720226446176,6427
520.4999999999999,6678
522.8273384766991,6449
525.1540382881666,6082
527.480099647932,5552
529.8055227696037,4539
532.1303078668694,3487
534.454455153496,2956
536.777964843328,2758
539.1008371502907,2733
541.4230722883866,2699
543.744670471698,2675
546.0656319143858,2542
548.3859568306899,2463
550.7056454349294,2590
553.0246979415016,2507
555.3431145648834,2542
557.6608955196306,2457
559.978041020377,2381
562.2945512818363,2456
564.6104265188006,2568
566.9256669461412,2522
569.2402727788082,2425
571.5542442318302,2524
573.8675815203156,2545
576.1802848594508,2435
578.4923544645015,2492
580.8037905508126,2571
583.114593333807,2582
585.4247630289875,2553
587.7342998519354,2450
590.0432040183106,2433
592.3514757438526,2644
594.6591152443794,2534
596.9661227357875,2498
599.2724984340531,2566
601.578242555231,2529
603.8833553154542,2494
606.1878369309362,2530
608.4916876179676,2468
610.7949075929192,2489
613.0974970722403,2421
615.3994562724587,2484
617.7007854101818,2510
620.0014847020951,2576
622.3015543649641,2487
624.6009946156324,2536
626.8998056710224,2534
629.1979877481361,2580
631.4955410640538,2501
633.7924658359349,2467
636.0887622810175,2542
638.3844306166192,2490
640.6794710601358,2518
642.9738838290426,2558
645.2676691408932,2629
647.5608272133207,2522
649.853358264037,2522
652.1452625108324,2659
654.4365401715764,2676
656.7271914642178,2656
659.0172166067838,2725
661.3066158173809,2524
663.5953893141935,2647
665.8835373154867,2531
668.1710600396028,2587
670.4579577049639,2578
672.7442305300709,2520
675.0298787335033,2593
677.3149025339197,2566
679.599302150058,2541
681.8830778007342,2546
684.1662297048437,2530
686.4487580813608,2572
688.7306631493387,2485
691.0119451279091,2507
693.2926042362834,2629
695.5726406937516,2583
697.8520547196814,2608
700.1308465335215,2500
702.4090163547982,2519
704.6865644031171,2606
706.9634908981619,2579
709.2397960596965,2572
711.5154801075631,2594
713.7905432616823,2450
716.0649857420548,2536
718.3388077687592,2536
720.612009561953,2511
722.8845913418733,2534
725.1565533288352,2474
727.427895743234,2536
729.6986188055427,2432
731.9687227363137,2546
734.238207756178,2600
736.5070740858458,2532
738.7753219461066,2605
741.0429515578281,2504
743.3099631419569,2536
745.5763569195191,2503
747.8421331116193,2511
750.1072919394409,2541
752.3718336242467,2514
754.6357583873777,2450
756.8990664502545,2569
759.1617580343765,2561
761.423833361321,2540
763.6852926527457,2515
765.9461361303862,2545
768.206364016058,2482
770.4659765316536,2525
772.7249738991469,2534
774.9833563405886,2490
777.2411240781092,2483
779.4982773339183,2574
781.7548163303044,2527
784.010741289634,2500
786.2660524343538,2587
788.5207499869881,2594
790.7748341701416,2651
793.0283052064964,2580
795.2811633188143,2567
797.5334087299362,2540
799.7850416627813,2508
802.0360623403484,2484
804.2864709857143,2543
806.5362678220353,2596
808.7854530725468,2642
811.0340269605625,2600
813.2819897094754,2548
815.5293415427581,2638
817.77608268396,2537
820.0222133567116,2560
822.2677337847211,2547
824.5126441917765,2575
826.7569448017433,2650
829.0006358385675,2578
831.2437175262731,2550
833.4861900889629,2554
835.7280537508192,2519
837.9693087361026,2603
840.2099552691533,2572
842.4499935743896,2520
844.689423876309,2608
846.9282463994886,2567
849.1664613685833,2558
851.4040690083276,2591
853.6410695435349,2574
855.877463199097,2612
858.1132501999847,2577
860.3484307712487,2611
862.5830051380175,2600
864.8169735254988,2555
867.0503361589791,2531
869.2830932638243,2625
871.5152450654786,2526
873.7467917894654,2661
875.9777336613873,2603
878.2080709069252,2703
880.4378037518389,2664
882.666932421968,2511
884.8954571432301,2621
887.1233781416219,2642
889.3506956432192,2687
891.5774098741766,2672
893.803521060728,2639
896.0290294291852,2728
898.2539352059397,2673
900.4782386174619,2570
902.7019398903011,2537
904.925039251085,2665
907.147536926521,2600
909.3694331433943,2703
911.59072812857,2661
913.8114221089921,2694
916.0315153116827,2583
918.2510079637437,2533
920.4699002923547,2640
922.6881925247761,2638
924.905884888345,2557
927.1229776104793,2544
929.3394709186747,2523
931.555365040506,2567
933.7706602036275,2533
935.9853566357709,2634
938.1994545647489,2636
940.4129542184515,2512
942.6258558248488,2670
944.8381596119883,2652
947.0498658079974,2666
949.2609746410825,2605
951.4714863395287,2582
953.6814011316998,2711
955.8907192460387,2630
958.0994409110671,2568
960.3075663553858,2546
962.5150958076741,2613
964.7220294966913,2546
966.928367651274,2512
969.1341105003388,2455
971.3392582728806,2464
973.5438111979742,2543
975.747769504772,2439
977.9511334225061,2489
980.153903180487,2522
982.3560790081052,2450
984.5576611348289,2387
986.7586497902058,2432
988.9590452038618,2489
991.158847605503,2450
993.3580572249133,2374
995.5566742919558,2349
997.7546990365728,2334
999.952131688785,2315
1002.1489724786926,2284
1004.3452216364743,2252
1006.5408793923874,2166
1008.7359459767691,2209
1010.9304216200343,2279
1013.1243065526781,2224
1015.3176010052733,2167
1017.510305208472,2242
1019.7024193930064,2262
1021.8939437896848,2234
1024.0848786293977,2191
1026.2752241431122,2165
1028.4649805618747,2222
1030.6541481168115,2164
1032.842727039127,2133
1035.0307175601051,2117
1037.2181199111074,2164
1039.4049343235752,2117
1041.591161029029,2126
1043.7768002590683,2168
1045.9618522453698,2168
1048.1463172196918,2131
1050.3301954138697,2189
1052.513487059818,2136
1054.69619238953,2161
1056.8783116350783,2111
1059.0598450286152,2189
1061.2407928023704,2155
1063.4211551886528,2080
1065.6009324198508,2077
1067.780124728432,2104
1069.9587323469414,2138
1072.1367555080046,2113
1074.314194444325,2152
1076.4910493886855,2142
1078.667320573947,2030
1080.843008233051,2029
1083.0181125990161,2088
1085.1926339049414,2090
1087.3665723840027,2076
1089.5399282694575,2063
1091.7127017946405,2105
1093.8848931929647,2130
1096.0565026979243,2054
1098.2275305430899,2044
1100.3979769621128,1992
1102.567842188722,2055
1104.737126456726,1973
1106.9058300000124,1997
1109.0739530525475,1998
1111.2414958483764,2070
1113.4084586216231,1978
1115.5748416064907,2005
1117.7406450372605,1995
1119.9058691482942,2003
1122.0705141740304,2046
1124.2345803489884,1923
1126.3980679077658,1899
1128.5609770850388,2055
1130.7233081155623,2014
1132.8850612341707,2011
1135.0462366757774,2014
1137.2068346753745,2006
1139.3668554680326,1974
1141.526299288901,1936
1143.68516637321,1948
1145.8434569562655,1987
1148.001171273455,1974
1150.158309560244,1971
1152.3148720521767,1942
1154.470858984876,1953
1156.626270594044,1965
1158.7811071154629,2000
1160.9353687849912,1899
1163.089055838569,1937
1165.242168512213,1997
1167.3947070420209,1963
1169.5466716641677,1913
1171.6980626149075,1959
1173.8488801305748,1989
1175.9991244475814,1982
1178.1487958024186,1878
1180.2978944316555,1919
1182.4464205719428,1926
1184.5943744600072,1954
1186.7417563326567,1847
1188.8885664267755,1963
1191.0348049793297,2018
1193.1804722273619,1919
1195.325568407995,1963
1197.4700937584303,2005
1199.614048515948,1924
1201.7574329179074,2005
1203.900247201746,1968
1206.042491604982,1917
1208.1841663652099,1972
1210.3252717201053,1915
1212.465807907422,1997
1214.6057751649923,1980
1216.7451737307279,1977
1218.8840038426192,2008
1221.0222657387353,1961
1223.1599596572241,2047
1225.2970858363137,2024
1227.4336445143094,2060
1229.5696359295966,2059
1231.705060320639,2054
1233.8399179259786,2026
1235.9742089842384,1920
1238.107933734118,1989
1240.2410924143974,1976
1242.373685263935,1985
1244.5057125216676,2072
1246.6371744266116,2071
1248.7680712178621,2028
1250.898403134593,1961
1253.028170416058,2030
1255.1573733015875,1990
1257.2860120305932,2076
1259.4140868425648,2057
1261.54159797707,2013
1263.6685456737569,2103
1265.7949301723515,2000
1267.9207517126597,2010
1270.046010534565,2008
1272.1707068780306,2057
1274.2948409830983,2038
1276.4184130898889,2071
1278.541423438603,2109
1280.6638722695184,2046
1282.785759822993,2138
1284.9070863394636,2064
1287.0278520594447,2084
1289.1480572235314,2138
1291.2677020723963,2125
1293.3867868467923,2152
1295.5053117875495,2205
1297.623277135579,2267
1299.740683131868,2109
1301.8575300174857,2227
1303.973818033578,2097
1306.0895474213703,2238
1308.2047184221678,2227
1310.3193312773528,2210
1312.4333862283888,2295
1314.5468835168163,2196
1316.659823384255,2213
1318.7722060724045,2239
1320.8840318230418,2186
1322.9953008780249,2176
1325.1060134792888,2193
1327.2161698688478,2261
1329.3257702887959,2266
1331.4348149813054,2278
1333.5433041886276,2264
1335.6512381530933,2233
1337.7586171171101,2190
1339.8654413231675,2178
1341.9717110138317,2212
1344.0774264317488,2249
1346.1825878196432,2180
1348.2871954203192,2196
1350.3912494766587,2192
1352.4947502316231,2183
1354.5976979282532,2146
1356.7000928096686,2221
1358.8019351190665,2210
1360.9032250997243,2190
1363.0039629949988,2128
1365.1041490483235,2104
1367.2037835032133,2211
1369.3028666032606,2195
1371.401398592137,2236
1373.4993797135926,2181
1375.5968102114575,2183
1377.6936903296396,2209
1379.7900203121262,2255
1381.8858004029835,2181
1383.9810308463561,2177
1386.075711886469,2228
1388.1698437676241,2214
1390.2634267342032,2236
1392.356461030667,2154
1394.4489469015557,2286
1396.5408845914872,2164
1398.6322743451592,2222
1400.7231164073469,2291
1402.813411022907,2285
1404.903158436773,2269
1406.9923588939578,2253
1409.0810126395531,2243
1411.1691199187303,2342
1413.2566809767386,2237
1415.343696058907,2310
1417.4301654106425,2346
1419.5160892774315,2363
1421.6014679048399,2396
1423.6863015385125,2342
1425.7705904241707,2413
1427.8543348076178,2324
1429.9375349347342,2375
1432.0201910514802,2448
1434.102303403894,2439
1436.1838722380944,2436
1438.2648978002767,2511
1440.3453803367174,2503
1442.4253200937692,2575
1444.5047173178677,2599
1446.5835722555234,2573
1448.6618851533285,2604
1450.739656257952,2707
1452.8168858161434,2725
1454.8935740747306,2768
1456.96972128062,2842
1459.045327680797,2838
1461.120393522327,2889
1463.1949190523528,2931
1465.2689045180973,3081
1467.3423501668608,2950
1469.415256246024,2979
1471.4876230030463,3011
1473.559450685465,3074
1475.6307395408976,3170
1477.7014898170391,3263
1479.771701761665,3313
1481.8413756226287,3324
1483.9105116478618,3246
1485.9791100853772,3404
1488.0471711832643,3403
1490.1146951896926,3519
1492.1816823529098,3552
1494.2481329212433,3598
1496.3140471430984,3612
1498.3794252669609,3687
1500.4442675413939,3607
1502.5085742150404,3806
1504.572345536622,3705
1506.6355817549388,3792
1508.6982831188702,3743
1510.7604498773744,3839
1512.8220822794883,3843
1514.8831805743293,3895
1516.9437450110909,4013
1519.003775839048,3912
1521.0632733075522,3966
1523.1222376660367,4146
1525.1806691640113,4128
1527.2385680510652,4174
1529.2959345768668,4165
1531.3527689911643,4208
1533.4090715437833,4397
1535.4648424846291,4412
1537.5200820636855,4511
1539.5747905310159,4402
1541.6289681367616,4483
1543.6826151311434,4584
1545.7357317644614,4675
1547.7883182870937,4623
1549.8403749494987,4862
1551.8919020022113,4810
1553.9428996958477,4720
1555.9933682811015,4946
1558.0433080087469,5006
1560.0927191296346,5176
1562.1416018946961,5184
1564.1899565549415,5161
1566.2377833614592,5000
1568.2850825654164,4871
1570.3318544180606,4712
1572.3780991707158,4700
1574.423817074788,4509
1576.4690083817595,4311
1578.5136733431923,4089
1580.5578122107272,4006
1582.601425236085,3837
1584.6445126710646,3647
1586.6870747675434,3604
1588.7291117774776,3299
1590.7706239529034,3192
1592.8116115459347,3101
1594.8520748087658,3141
1596.8920139936686,2965
1598.9314293529933,2860
1600.9703211391711,2743
1603.008689604711,2796
1605.0465350022005,2649
1607.0838575843068,2575
1609.1206576037753,2542
1611.1569353134305,2468
1613.1926909661765,2373
1615.2279248149953,2363
1617.2626371129481,2349
1619.2968281131757,2376
1621.3304980688963,2375
1623.3636472334088,2312
1625.39627586009,2219
1627.428384202396,2301
1629.459972513861,2197
1631.4910410480993,2166
1633.5215900588028,2219
1635.551619799744,2195
1637.5811305247717,2190
1639.6101224878166,2199
1641.6385959428862,2072
1643.6665511440683,2155
1645.693988345528,2109
1647.7209078015112,2119
1649.7473097663405,2123
1651.7731944944203,2072
1653.7985622402307,2032
1655.823413258333,2098
1657.847747803366,2063
1659.8715661300494,2153
1661.8948684931793,2103
1663.9176551476316,2118
1665.9399263483624,2125
1667.9616823504057,2076
1669.982923408873,2066
1672.0036497789574,2052
1674.0238617159293,2122
1676.043559475138,2037
1678.0627433120121,2032
1680.081413482059,2059
1682.0995702408654,2076
1684.117213844096,2034
1686.134344547495,2029
1688.1509626068864,2060
1690.1670682781705,1966
1692.182661817329,1978
1694.1977434804217,2037
1696.2123135235875,2044
1698.226372203043,2087
1700.2399197750851,2099
1702.2529564960905,2016
1704.2654826225112,2071
1706.277498410882,1975
1708.2890041178139,2040
1710.2999999999988,1945
1712.3104863142066,2060
1714.3204633172854,2063
1716.329931266163,2057
1718.3388904178469,1989
1720.3473410294214,1960
1722.3552833580516,1967
1724.3627176609807,1972
1726.3696441955308,1957
1728.3760632191033,1980
1730.3819749891782,1984
1732.3873797633146,1988
1734.3922777991502,1939
1736.3966693544012,1941
1738.4005546868639,1998
1740.4039340544127,1918
1742.406807715001,1927
1744.4091759266616,1950
1746.4110389475054,1974
1748.4123970357223,1907
1750.413250449582,1915
1752.4135994474318,1863
1754.4134442876993,1900
1756.4127852288902,1847
1758.4116225295893,1944
1760.4099564484595,1928
1762.407787244244,1907
1764.405115175764,1835
1766.4019405019203,1846
1768.3982634816916,1814
1770.3940843741357,1870
1772.3894034383907,1855
1774.3842209336717,1833
1776.378537119274,1788
1778.372352254571,1848
1780.3656665990156,1928
1782.3584804121397,1891
1784.3507939535534,1905
1786.3426074829463,1870
1788.3339212600863,1866
1790.3247355448211,1900
1792.3150505970766,1853
1794.3048666768573,1788
1796.2941840442477,1854
1798.2830029594106,1845
1800.2713236825884,1878
1802.2591464741004,1861
1804.2464715943465,1820
1806.2332993038058,1838
1808.2196298630352,1819
1810.2054635326708,1789
1812.190800573428,1921
1814.175641246101,1836
1816.1599858115628,1849
1818.1438345307652,1879
1820.127187664738,1875
1822.1100454745924,1833
1824.092408221516,1856
1826.0742761667766,1787
1828.055649571721,1861
1830.0365286977735,1854
1832.0169138064398,1886
1833.9968051593014,1918
1835.9762030180214,1855
1837.9551076443408,1830
1839.9335193000788,1828
1841.9114382471344,1809
1843.888864747485,1841
1845.8657990631878,1835
1847.842241456378,1806
1849.8181921892697,1835
1851.7936515241558,1787
1853.7686197234098,1831
1855.7430970494815,1792
1857.7170837649014,1782
1859.6905801322787,1788
1861.6635864143004,1780
1863.6361028737338,1796
1865.608129773424,1855
1867.5796673762961,1829
1869.5507159453537,1883
1871.521275743678,1862
1873.4913470344313,1791
1875.4609300808534,1828
1877.4300251462632,1849
1879.3986324940588,1873
1881.366752387717,1825
1883.3343850907936,1834
1885.3015308669228,1781
1887.268189979819,1840
1889.2343626932739,1894
1891.2000492711595,1773
1893.1652499774254,1870
1895.1299650761011,1852
1897.0941948312952,1876
1899.0579395071945,1862
1901.0211993680641,1840
1902.98397467825,1815
1904.9462657021745,1799
1906.9080727043415,1869
1908.869395949332,1902
1910.8302357018065,1825
1912.790592226504,1819
1914.7504657882428,1835
1916.7098566519212,1891
1918.6687650825133,1887
1920.6271913450764,1811
1922.5851357047422,1871
1924.5425984267245,1821
1926.499579776314,1833
1928.4560800188833,1861
1930.4120994198802,1876
1932.367638244833,1838
1934.32269675935,1838
1936.2772752291175,1810
1938.231373919899,1834
1940.1849930975404,1794
1942.1381330279637,1776
1944.0907939771696,1775
1946.0429762112412,1814
1947.9946799963363,1801
1949.9459055986945,1786
1951.896653284633,1749
1953.8469233205478,1813
1955.7967159729142,1825
1957.7460315082863,1770
1959.6948701932974,1785
1961.6432322946594,1773
1963.5911180791632,1788
1965.5385278136787,1869
1967.4854617651545,1761
1969.4319202006182,1827
1971.377903387176,1805
1973.3234115920136,1790
1975.268445082395,1837
1977.2130041256642,1757
1979.1570889892423,1751
1981.1006999406304,1850
1983.04383724741,1806
1984.986501177238,1820
1986.928691997853,1799
1988.8704099770712,1745
1990.811655382789,1754
1992.7524284829801,1802
1994.692729545698,1801
1996.6325588390755,1749
1998.5719166313224,1744
2000.5108031907307,1767
2002.4492187856677,1789
2004.387163684583,1706
2006.3246381560011,1758
2008.2616424685298,1787
2010.1981768908527,1728
2012.1342416917332,1751
2014.069837140014,1816
2016.0049635046162,1760
2017.9396210545406,1692
2019.8738100588666,1736
2021.8075307867502,1684
2023.740783507431,1759
2025.6735684902228,1773
2027.6058860045214,1739
2029.5377363198004,1767
2031.4691197056118,1746
2033.4000364315875,1780
2035.3304867674374,1779
2037.260470982952,1710
2039.189989347998,1771
2041.1190421325232,1721
2043.047629606554,1745
2044.9757520401945,1733
2046.9034097036288,1791
2048.8306028671195,1720
2050.7573318010086,1796
2052.683596775716,1737
2054.609398061742,1787
2056.5347359296647,1742
2058.4596106501403,1774
2060.384022493906,1746
2062.3079717317764,1769
2064.231458634646,1713
2066.1544834734873,1693
2068.077046519352,1709
2069.99914804337,1777
2071.9207883167524,1669
2073.8419676107865,1715
2075.7626861968406,1697
2077.6829443463607,1762
2079.6027423308715,1774
2081.522080421977,1716
2083.440958891362,1711
2085.359378010786,1752
2087.2773380520907,1762
2089.194839287196,1728
2091.111881988101,1651
2093.0284664268825,1754
2094.9445928756973,1739
2096.86026160678,1733
2098.775472892446,1779
2100.690227005088,1770
2102.604524217178,1710
2104.5183648012676,1719
2106.431749029985,1744
2108.34467717604,1778
2110.2571495122206,1730
2112.169166311393,1787
2114.080727846503,1752
2115.9918343905747,1745
2117.902486216711,1785
2119.8126835980956,1780
2121.722426807987,1735
2123.6317161197285,1757
2125.5405518067364,1687
2127.448934142509,1789
2129.356863400624,1778
2131.264339854737,1780
2133.1713637785815,1801
2135.077935445972,1809
2136.9840551308002,1823
2138.889723107037,1783
2140.7949396487334,1766
2142.699705030018,1797
2144.6040195250994,1806
2146.507883408264,1765
2148.4112969538774,1771
2150.3142604363848,1778
2152.2167741303097,1767
2154.1188383102535,1772
2156.0204532508997,1789
2157.9216192270064,1800
2159.822336513414,1741
2161.7226053850413,1771
2163.622426116884,1856
2165.5217989840185,1743
2167.4207242616,1870
2169.319202224862,1845
2171.2172331491165,1756
2173.1148173097563,1816
2175.0119549822507,1781
2176.90864644215,1832
2178.8048919650823,1749
2180.7006918267534,1845
2182.596046302952,1852
2184.4909556695407,1750
2186.3854202024645,1844
2188.279440177746,1780
2190.173015871487,1847
2192.066147559868,1819
2193.958835519149,1827
2195.851080025667,1822
2197.7428813558417,1839
2199.6342397861667,1844
2201.5251555932186,1809
2203.415629053651,1890
2205.3056604441986,1807
2207.19525004167,1843
2209.084398122958,1859
2210.9731049650327,1913
2212.861370844941,1891
2214.749196039812,1918
2216.636580826851,1866
2218.523525483344,1838
2220.410030286655,1917
2222.296095514226,1890
2224.1817214435805,1871
2226.066908352319,1888
2227.951656518121,1813
2229.835966218746,1812
2231.71983773203,1866
2233.6032713358913,1880
2235.486267308324,1867
2237.3688259274036,1857
2239.2509474712824,1858
2241.132632218193,1817
2243.013880446447,1850
2244.8946924344323,1866
2246.7750684606203,1820
2248.6550088035574,1852
2250.534513741871,1893
2252.413583554265,1850
2254.292218519526,1922
2256.170418916517,1877
2258.0481850241786,1840
2259.925517121534,1831
2261.8024154876825,1865
2263.678880401803,1876
2265.5549121431536,1874
2267.430510991071,1800
2269.305677224971,1832
2271.180411124348,1828
2273.0547129687766,1766
2274.9285830379076,1754
2276.8020216114737,1813
2278.6750289692845,1808
2280.5476053912294,1870
2282.4197511572766,1891
2284.2914665474727,1871
2286.162751841943,1857
2288.0336073208937,1903
2289.904033264608,1947
2291.774029953448,1922
2293.6435976678554,1828
2295.5127366883517,1810
2297.381447295534,1857
2299.2497297700825,1755
2301.1175843927526,1682
2302.9850114443825,1706
2304.852011205885,1673
2306.7185839582553,1679
2308.5847299825664,1654
2310.4504495599676,1697
2312.3157429716925,1657
2314.1806104990483,1671
2316.0450524234247,1666
2317.9090690262888,1614
2319.772660589186,1612
2321.635827393742,1646
2323.498569721661,1668
2325.3608878547248,1618
2327.2227820747967,1637
2329.0842526638157,1631
2330.945299903803,1665
2332.805924076857,1641
2334.6661254651535,1640
2336.525904350951,1647
2338.3852610165827,1564
2340.244195744464,1627
2342.102708817088,1675
2343.9608005170253,1639
2345.8184711269287,1682
2347.675720929526,1615
2349.532550207628,1620
2351.38895924412,1636
2353.24494832197,1652
2355.100517724223,1644
2356.955667734004,1640
2358.810398634514,1607
2360.664710709037,1740
2362.5186042409337,1763
2364.3720795136437,1671
2366.225136810686,1660
2368.0777764156583,1651
2369.929998612237,1630
2371.7818036841777,1657
2373.633191915315,1727
2375.484163589562,1623
2377.3347189909114,1660
2379.184858403434,1713
2381.03458211128,1664
2382.8838903986775,1657
2384.732783549936,1680
2386.5812618494406,1718
2388.4293255816588,1685
2390.2769750311327,1684
2392.1242104824883,1708
2393.971032220427,1702
2395.8174405297295,1685
2397.6634356952563,1696
2399.509018001947,1737
2401.3541877348193,1678
2403.1989451789705,1716
2405.043290619576,1687
2406.8872243418905,1722
2408.730746631247,1660
2410.5738577730594,1650
2412.4165580528183,1620
2414.258847756095,1646
2416.100727168537,1679
2417.9421965758734,1672
2419.783256263912,1726
2421.623906518538,1693
2423.4641476257157,1652
2425.303979871491,1739
2427.143403541984,1696
2428.9824189233977,1665
2430.821026302012,1726
2432.6592259641866,1697
2434.497018196361,1696
2436.33440328505,1686
2438.171381516851,1699
2440.00795317844,1714
2441.844118556569,1759
2443.6798779380724,1692
2445.5152316098606,1744
2447.3501798589255,1711
2449.1847229723357,1708
2451.0188612372403,1672
2452.8525949408663,1711
2454.6859243705203,1698
2456.518849813587,1724
2458.3513715575314,1763
2460.183489889895,1785
2462.015205098301,1688
2463.8465174704493,1694
2465.67742729412,1689
2467.5079348571717,1672
2469.338040447542,1749
2471.1677443532476,1725
2472.9970468623833,1751
2474.825948263123,1706
2476.6544488437207,1724
2478.482548892508,1780
2480.310248697896,1661
2482.137548548374,1686
2483.9644487325118,1773
2485.790949538956,1759
2487.617051256433,1752
2489.44275417375,1702
2491.26805857979,1720
2493.0929647635157,1784
2494.917473013971,1780
2496.741583620276,1745
2498.5652968716304,1824
2500.3886130573137,1712
2502.2115324666834,1745
2504.0340553891765,1745
2505.856182114308,1819
2507.6779129316733,1812
2509.499248130945,1793
2511.3201880018764,1799
2513.140732834298,1696
2514.9608829181198,1792
2516.780638543331,1794
2518.6,1742
2520.418967578273,1773
2522.237541568376,1799
2524.0557222606144,1871
2525.8735099453706,1870
2527.6909049131086,1879
2529.507907454368,1887
2531.32451785977,1805
2533.140736420014,1867
2534.9565634258774,1903
2536.771999168218,1820
2538.5870439379714,1863
2540.4016980261526,1912
2542.2159617238544,1952
2544.02983532225,1941
2545.8433191125914,1974
2547.656413386209,1936
2549.4691184345115,2003
2551.2814345489874,1994
2553.093362021204,1960
2554.904901142808,1936
2556.716052205523,2028
2558.526815501153,1970
2560.3371913215824,1987
2562.147179958771,1978
2563.956781704761,1967
2565.7659968516705,2021
2567.5748256916986,2047
2569.3832685171224,2015
2571.1913256202984,1980
2572.9989972936614,2020
2574.806283829725,2087
2576.613185521084,2096
2578.4197026604074,2083
2580.2258355404483,2118
2582.031584454035,2072
2583.836949694077,2111
2585.6419315535613,2058
2587.4465303255533,2116
2589.2507463032002,2150
2591.0545797797245,2154
2592.8580310484303,2160
2594.6611004026995,2097
2596.463788135992,2139
2598.266094541849,2119
2600.0680199138874,2134
2601.869564545807,2109
2603.670728731383,2187
2605.4715127644704,2145
2607.2719169390048,2169
2609.071941548998,2270
2610.8715868885433,2195
2612.670853251811,2146
2614.469740933052,2113
2616.268250226594,2249
2618.0663814268455,2208
2619.864134828292,2136
2621.6615107255006,2190
2623.458509413115,2143
2625.2551311858597,2127
2627.0513763385347,2130
2628.8472451660223,2093
2630.6427379632833,2106
2632.4378550253564,2063
2634.232596647359,2039
2636.026963124488,2101
2637.8209547520187,2070
2639.6145718253065,2041
2641.407814639785,2055
2643.200683490966,1988
2644.9931786744414,1994
2646.7853004858807,1966
2648.577049221034,1977
2650.3684251757277,1952
2652.1594286458712,1978
2653.9500599274484,1891
2655.740319316525,1946
2657.5302071092437,1913
2659.3197236018286,1943
2661.10886909058,1900
2662.8976438718782,1897
2664.686048242183,1934
2666.4740824980327,1922
2668.2617469360443,1854
2670.0490418529134,1831
2671.8359675454153,1814
2673.622524310403,1827
2675.408712444811,1849
2677.1945322456495,1793
2678.979984010009,1812
2680.76506803506,1831
2682.5497846180497,1772
2684.334134056306,1777
2686.1181166472343,1791
2687.9017326883213,1723
2689.6849824771293,1759
2691.4678663113013,1728
2693.2503844885596,1730
2695.032537306705,1665
2696.8143250636167,1777
2698.5957480572542,1676
2700.3768065856534,1743
2702.1575009469316,1693
2703.937831439283,1711
2705.717798360982,1726
2707.4974020103837,1677
2709.276642685917,1667
2711.055520686095,1663
2712.834036309506,1647
2714.612189854819,1733
2716.389981620782,1676
2718.1674119062204,1708
2719.944481010041,1728
2721.721189231226,1629
2723.4975368688415,1680
2725.273524222027,1738
2727.0491515900053,1687
2728.824419272075,1683
2730.5993275676146,1632
2732.3738767760838,1661
2734.148067197016,1636
2735.921899130031,1675
2737.6953728748194,1598
2739.468488731156,1570
2741.2412469988926,1603
2743.0136479779617,1661
2744.785691968372,1611
2746.5573792702116,1704
2748.3287101836504,1691
2750.099685008934,1658
2751.870304046388,1613
2753.640567596418,1717
2755.4104759595057,1657
2757.1800294362156,1615
2758.949228327187,1634
2760.7180729331412,1625
2762.486563554877,1629
2764.254700493272,1639
2766.022484049284,1592
2767.789914523947,1599
2769.5569922183786,1611
2771.3237174337705,1640
2773.090090471394,1674
2774.8561116326036,1633
2776.6217812188274,1691
2778.3870995315756,1654
2780.1520668724356,1684
2781.9166835430747,1653
2783.6809498452394,1617
2785.444866080754,1685
2787.2084325515225,1649
2788.971649559527,1584
2790.73451740683,1615
2792.4970363955713,1598
2794.2592068279705,1608
2796.0210290063264,1628
2797.7825032330147,1624
2799.543629810493,1613
2801.304409041296,1624
2803.0648412280366,1648
2804.8249266734088,1674
2806.5846656801846,1647
2808.344058551212,1654
2810.1031055894246,1613
2811.8618070978273,1640
2813.6201633795085,1620
2815.378174737636,1606
2817.1358414754536,1599
2818.893163896285,1573
2820.6501423035334,1621
2822.4067770006814,1580
2824.1630682912883,1662
2825.9190164789957,1634
2827.6746218675207,1653
2829.429884760661,1662
2831.184805462294,1654
2832.9393842763743,1648
2834.693621506936,1658
2836.4475174580916,1640
2838.201072434034,1635
2839.954286739034,1616
2841.707160677441,1649
2843.459694553685,1689
2845.2118886722724,1613
2846.96374333779,1644
2848.7152588549034,1614
2850.4664355283567,1631
2852.217273662973,1569
2853.9677735636546,1654
2855.7179355353833,1636
2857.4677598832186,1574
2859.217246912299,1641
2860.9663969278427,1638
2862.715210235146,1639
2864.4636871395846,1643
2866.211827946614,1612
2867.9596329617652,1646
2869.7071024906536,1669
2871.4542368389684,1592
2873.20103631248,1609
2874.947501217038,1560
2876.6936318585695,1629
2878.4394285430812,1574
2880.1848915766604,1612
2881.9300212654707,1620
2883.6748179157553,1632
2885.4192818338374,1619
2887.1634133261173,1633
2888.907212699077,1599
2890.6506802592744,1645
2892.393816313348,1602
2894.1366211680142,1646
2895.8790951300693,1621
2897.621238506388,1614
2899.363051603925,1647
2901.1045347297118,1657
2902.8456881908596,1630
2904.58651229456,1637
2906.327007348081,1632
2908.067173658772,1590
2909.8070115340597,1630
2911.5465212814497,1601
2913.285703208527,1547
2915.0245576229563,1622
2916.7630848324807,1602
2918.5012851449196,1547
2920.2391588681758,1592
2921.976706310227,1564
2923.7139277791334,1658
2925.4508235830313,1596
2927.187394030137,1629
2928.923639428745,1677
2930.6595600872306,1697
2932.395156314046,1629
2934.1304284177218,1645
2935.8653767068713,1616
2937.6000014901815,1653
2939.3343030764227,1715
2941.068281774442,1622
2942.8019378931644,1651
2944.5352717415976,1644
2946.2682836288236,1578
2948.0009738640065,1619
2949.7333427563885,1627
2951.465390615289,1645
2953.1971177501086,1662
2954.9285244703265,1588
2956.6596110855,1638
2958.3903779052657,1578
2960.1208252393385,1622
2961.8509533975125,1629
2963.5807626896617,1611
2965.3102534257378,1640
2967.0394259157715,1613
2968.768280469873,1618
2970.496817398232,1674
2972.2250370111146,1603
2973.952939618869,1618
2975.6805255319196,1647
2977.4077950607707,1599
2979.134748516006,1656
2980.861386208289,1637
2982.587708448359,1628
2984.313715547037,1580
2986.039407815222,1603
2987.764785563891,1601
2989.489849104102,1615
2991.2145987469908,1657
2992.9390348037705,1606
2994.6631575857346,1580
2996.3869674042576,1568
2998.1104645707887,1610
2999.83364939686,1609
3001.5565221940783,1559
3003.2790832741334,1589
3005.0013329487924,1518
3006.7232715298996,1590
3008.4448993293804,1554
3010.166216659239,1573
3011.887223831558,1563
3013.607921158498,1607
3015.3283089522993,1593
3017.0483875252826,1597
3018.7681571898443,1609
3020.4876182584626,1552
3022.2067710436927,1618
3023.9256158581707,1581
3025.644153014609,1614
3027.362382825801,1615
3029.0803056046193,1592
3030.797921664012,1613
3032.5152313170106,1590
3034.2322348767225,1591
3035.9489326563353,1631
3037.665324969115,1610
3039.3814121284063,1596
3041.097194447633,1653
3042.812672240299,1589
3044.5278458199855,1584
3046.2427155003525,1580
3047.9572815951406,1589
3049.671544418167,1589
3051.38550428333,1609
3053.0991615046073,1601
3054.812516396051,1585
3056.5255692717974,1588
3058.2383204460575,1588
3059.9507702331257,1601
3061.662918947372,1563
3063.3747669032446,1591
3065.0863144152736,1571
3066.7975617980674,1574
3068.508509366309,1599
3070.219157434767,1568
3071.9295063182844,1625
3073.639556331785,1564
3075.3493077902704,1598
3077.058761008821,1646
3078.7679163025964,1639
3080.476773986837,1657
3082.1853343768594,1573
3083.89359778806,1586
3085.6015645359153,1585
3087.3092349359786,1575
3089.016609303884,1570
3090.7236879553434,1638
3092.4304712061476,1604
3094.136959372166,1574
3095.843152769349,1651
3097.5490517137237,1596
3099.2546565213966,1551
3100.959967508554,1639
3102.66498499146,1630
3104.3697092864577,1590
3106.0741407099695,1597
3107.778279578498,1616
3109.482126208622,1601
3111.1856809170004,1591
3112.8889440203716,1566
3114.5919158355528,1570
3116.294596679439,1613
3117.996986869006,1536
3119.6990867213062,1605
3121.4008965534726,1600
3123.102416682717,1637
3124.803647426329,1671
3126.5045891016784,1584
3128.205242026213,1653
3129.90560651746,1567
3131.605682893025,1664
3133.3054714705922,1611
3135.0049725679282,1627
3136.7041865028714,1580
3138.4031135933465,1568
3140.101754157353,1499
3141.800108512971,1632
3143.498176978357,1618
3145.1959598717494,1561
3146.8934575114636,1608
3148.5906702158954,1627
3150.2875983035183,1550
3151.9842420928853,1594
3153.680601902627,1547
3155.376678051456,1605
3157.07247085816,1555
3158.767980641609,1635
3160.463207720748,1557
3162.158152414606,1577
3163.8528150422862,1612
3165.5471959229726,1612
3167.2412953759303,1566
3168.9351137204976,1584
3170.628651276098,1606
3172.3219083622307,1602
3174.014885298474,1565
3175.707582404485,1589
3177.4000000000005,1571
3179.092138404835,1597
3180.7839979388846,1520
3182.47557892212,1560
3184.166881674594,1582
3185.8579065164386,1605
3187.5486537678626,1576
3189.2391237491547,1556
3190.9293167806827,1543
3192.6192331828934,1545
3194.3088732763117,1553
3195.998237381542,1574
3197.687325819268,1519
3199.376138910251,1563
3201.064676975334,1558
3202.7529403354347,1550
3204.4409293115523,1547
3206.1286442247647,1568
3207.816085396229,1568
3209.5032531471825,1572
3211.190147798936,1483
3212.8767696728846,1533
3214.5631190905015,1529
3216.2491963733373,1519
3217.9350018430214,1550
3219.6205358212637,1579
3221.305798629851,1555
3222.990790590651,1516
3224.6755120256103,1506
3226.359963256751,1503
3228.0441446061795,1454
3229.7280563960758,1543
3231.411698948703,1523
3233.0950725863995,1564
3234.778177631587,1562
3236.461014406761,1581
3238.1435832345005,1548
3239.8258844374595,1520
3241.507918338374,1569
3243.1896852600576,1598
3244.8711855254023,1594
3246.552419457381,1555
3248.233387379042,1571
3249.914089613516,1496
3251.59452648401,1565
3253.274698313813,1552
3254.95460542629,1547
3256.6342481448855,1557
3258.313626793125,1532
3259.9927416946084,1544
3261.6715931730196,1547
3263.3501815521176,1494
3265.0285071557437,1562
3266.706570307815,1521
3268.3843713323286,1535
3270.0619105533615,1512
3271.739188295068,1548
3273.4162048816834,1518
3275.0929606375184,1590
3276.769455886966,1559
3278.445690954498,1555
3280.1216661646613,1548
3281.797381842087,1542
3283.4728383114807,1610
3285.1480358976296,1540
3286.8229749253996,1511
3288.4976557197333,1560
3290.172078605655,1544
3291.846243908266,1487
3293.5201519527463,1557
3295.193803064357,1503
3296.8671975684374,1515
3298.5403357904024,1547
3300.21321805575,1500
3301.8858446900567,1508
3303.558216018975,1495
3305.23033236824,1592
3306.9021940636603,1517
3308.57380143113,1516
3310.2451547966184,1525
3311.916254486174,1574
3313.5871008259246,1524
3315.2576941420766,1565
3316.9280347609147,1536
3318.5981230088046,1524
3320.2679592121895,1574
3321.9375436975924,1500
3323.606876791612,1517
3325.27595882093,1535
3326.944790112305,1465
3328.6133709925753,1522
3330.2817017886573,1601
3331.949782827547,1533
3333.617614436319,1583
3335.2851969421245,1615
3336.952530672199,1537
3338.619615953853,1539
3340.286453114475,1523
3341.9530424815357,1533
3343.619384382583,1555
3345.2854791452437,1497
3346.951327097224,1511
3348.6169285663073,1479
3350.2822838803577,1557
3351.947393367319,1587
3353.61225735521,1585
3355.2768761721345,1559
3356.9412501462693,1527
3358.605379605873,1522
3360.2692648792827,1555
3361.9329062949146,1513
3363.596304181263,1525
