CollectionTime,9/20/2024 12:23:03 PM
ExposureUsed,3
CalibratedSpectrum
-962.7078968117929,665
-959.9714848408522,732
-957.2358232597828,713
-954.5009119013725,713
-951.7667505983302,803
-949.0333391832855,757
-946.3006774887896,736
-943.5687653473143,757
-940.837602591253,774
-938.1071890529199,714
-935.3775245645503,703
-932.6486089583007,769
-929.9204420662485,680
-927.1930237203925,682
-924.4663537526524,727
-921.7404319948689,770
-919.0152582788041,779
-916.2908324361409,762
-913.5671542984834,756
-910.8442236973568,747
-908.1220404642074,736
-905.4006044304027,782
-902.679915427231,701
-899.959973285902,748
-897.2407778375464,690
-894.5223289132158,690
-891.8046263438832,709
-889.0876699604426,740
-886.3714595937089,729
-883.6559950744183,667
-880.9412762332282,690
-878.2273029007168,682
-875.5140749073835,709
-872.8015920836489,712
-870.0898542598545,656
-867.3788612662631,717
-864.6686129330585,679
-861.9591090903457,721
-859.2503495681506,682
-856.5423341964203,679
-853.8350628050229,693
-851.1285352237478,692
-848.4227512823054,711
-845.7177108103272,691
-843.0134136373656,704
-840.3098595928943,698
-837.6070485063082,697
-834.9049802069229,671
-832.2036545239757,690
-829.5030712866244,764
-826.8032303239481,681
-824.1041314649472,683
-821.4057745385428,689
-818.7081593735775,699
-816.0112857988148,667
-813.3151536429393,683
-810.6197627345566,730
-807.9251129021936,690
-805.2312039742981,698
-802.5380357792392,724
-799.8456081453069,743
-797.1539209007124,699
-794.462973873588,751
-791.772766891987,720
-789.083299783884,729
-786.3945723771743,683
-783.7065844996748,698
-781.0193359791231,717
-778.3328266431781,687
-775.6470563194197,704
-772.9620248353489,724
-770.2777320183878,710
-767.5941776958798,717
-764.9113616950891,708
-762.2292838432011,692
-759.5479439673222,696
-756.8673418944801,708
-754.1874774516235,718
-751.5083504656222,743
-748.8299607632671,685
-746.15230817127,722
-743.475392516264,742
-740.7992136248035,689
-738.1237713233636,682
-735.4490654383407,720
-732.7750957960521,728
-730.1018622227365,741
-727.4293645445534,722
-724.7576025875837,772
-722.0865761778291,764
-719.4162851412126,779
-716.7467293035781,743
-714.0779084906909,736
-711.409822528237,761
-708.7424712418238,749
-706.0758544569796,769
-703.4099719991541,772
-700.7448236937178,761
-698.0804093659622,763
-695.4167288411002,782
-692.7537819442656,803
-690.0915685005134,797
-687.4300883348199,801
-684.7693412720819,799
-682.1093271371178,845
-679.4500457546669,807
-676.7914969493897,775
-674.1336805458676,808
-671.4765963686034,807
-668.8202442420206,777
-666.1646239904642,783
-663.5097354382001,799
-660.8555784094151,787
-658.2021527282176,814
-655.5494582186366,832
-652.8974947046223,858
-650.2462620100463,844
-647.5957599587009,835
-644.9459883742998,843
-642.2969470804776,850
-639.6486359007902,867
-637.0010546587141,868
-634.3542031776476,848
-631.7080812809096,822
-629.0626887917401,798
-626.4180255333008,832
-623.7740913286734,845
-621.1308860008619,879
-618.4884093727904,822
-615.8466612673046,823
-613.2056415071715,841
-610.5653499150785,820
-607.9257863136347,844
-605.28695052537,854
-602.6488423727357,855
-600.0114616781036,823
-597.3748082637674,871
-594.7388819519412,932
-592.1036825647604,921
-589.4692099242818,895
-586.8354638524829,802
-584.2024441712624,912
-581.5701507024403,904
-578.9385832677575,873
-576.3077416888759,885
-573.6776257873787,867
-571.0482353847704,860
-568.4195703024757,869
-565.7916303618415,849
-563.164415384135,868
-560.5379251905453,829
-557.9121596021815,888
-555.2871184400748,824
-552.6628015251767,856
-550.0392086783606,889
-547.4163397204204,933
-544.794194472071,981
-542.1727727539491,915
-539.5520743866118,936
-536.9320991905377,907
-534.3128469861261,930
-531.6943175936979,1004
-529.0765108334947,965
-526.4594265256793,1055
-523.8430644903358,1213
-521.2274245474689,1378
-518.612506517005,1419
-515.9983102187913,1420
-513.3848354725959,1486
-510.77208209810846,1554
-508.16004991493924,1542
-505.5487387426199,1659
-502.9381484006032,1850
-500.3282787082628,1887
-497.71912948489364,1859
-495.1107005497117,1751
-492.5029917218539,1562
-489.8960028203786,1527
-487.28973366426493,1426
-484.68418407241325,1264
-482.07935386364494,1163
-479.47524285670266,1126
-476.87185087025,1106
-474.2691777228715,1091
-471.66722323307334,1130
-469.0659872192821,1101
-466.4654694998459,1081
-463.86566989303384,1084
-461.26658821703614,1040
-458.66822428996414,1094
-456.07057792985,1112
-453.4736489546475,1104
-450.877437182231,1062
-448.28194243039627,1043
-445.68716451686,1055
-443.09310325926003,1042
-440.49975847515555,1060
-437.9071299820263,1094
-435.31521759727354,1100
-432.72402113821954,1097
-430.13354042210767,1061
-427.5437752661022,1055
-424.95472548728867,1118
-422.36639090267386,1104
-419.7787713291855,1190
-417.1918665836721,1201
-414.60567648290385,1184
-412.0202008435715,1144
-409.4354394822874,1160
-406.8513922155845,1161
-404.26805885991723,1168
-401.685439231661,1154
-399.103533147112,1178
-396.522340422488,1192
-393.9418608739278,1155
-391.3620943174908,1138
-388.7830405691583,1084
-386.2046994448317,1048
-383.6270707603344,1064
-381.05015433141045,1004
-378.473949973725,927
-375.8984575028645,942
-373.32367673433623,864
-370.74960748356875,811
-368.1762495659117,740
-365.60360279663576,682
-363.03166699093265,672
-360.4604419639154,615
-357.8899275306178,572
-355.32012350599507,591
-352.7510297049233,586
-350.1826459421999,592
-347.61497203254316,547
-345.04800779059235,523
-342.4817530309082,516
-339.91620756797226,544
-337.35137121618743,582
-334.7872437898774,607
-332.22382510328725,560
-329.66111497058273,566
-327.09911320585127,590
-324.53781962310075,572
-321.9772340362607,542
-319.4173562591816,536
-316.8581861056348,576
-314.2997233893127,558
-311.7419679238294,560
-309.1849195227194,601
-306.62857799943856,643
-304.0729431673641,646
-301.51801483979375,594
-298.963792829947,620
-296.41027695096386,650
-293.85746701590574,644
-291.3053628377552,626
-288.7539642294155,674
-286.2032710037115,660
-283.65328297338897,648
-281.1039999511146,726
-278.5554217494762,741
-276.007548180983,705
-273.4603790580651,740
-270.9139141930734,734
-268.3681533982807,733
-265.8230964858798,740
-263.27874326798565,778
-260.7350935566336,745
-258.1921471637804,807
-255.6499039013039,889
-253.10836358100266,914
-250.56752601459698,839
-248.02739101372765,853
-245.48795838995704,949
-242.94922795476816,912
-240.41119951956557,994
-237.8738728956746,928
-235.33724789434166,905
-232.80132432673452,833
-230.2661020039418,822
-227.73158073697357,972
-225.19776033676033,962
-222.66464061415422,950
-220.1322213799284,923
-217.60050244477725,912
-215.06948361931552,946
-212.53916471408013,1111
-210.00954553952818,1060
-207.48062590603843,951
-204.9524056239104,872
-202.4248845033651,949
-199.8980623545441,957
-197.37193898751036,976
-194.84651421224817,1018
-192.32178783866232,973
-189.79775967657952,1074
-187.27442953574644,1205
-184.7517972258321,1195
-182.2298625564256,1035
-179.7086253370378,958
-177.18808537710026,988
-174.66824248596583,1145
-172.14909647290835,1183
-169.6306471471229,1203
-167.11289431772548,1153
-164.59583779375328,1134
-162.07947738416453,1158
-159.5638128978386,1597
-157.04884414357605,1725
-154.53457093009854,1494
-152.02099306604828,1197
-149.50811035998936,1275
-146.99592262040665,1374
-144.48442965570587,1732
-141.97363127421409,1847
-139.46352728417958,1875
-136.95411749377126,1724
-134.44540171107985,1575
-131.93737974411636,1386
-129.43005140081357,1396
-126.92341648902493,1814
-124.41747481652521,2115
-121.91222619101006,2444
-119.40767042009657,2275
-116.90380731132257,1893
-114.40063667214702,2347
-111.8981583099503,3540
-109.3963720320337,5962
-106.89527764561933,10342
-104.39487495785067,13048
-101.89516377579241,15504
-99.39614390642998,18966
-96.89781515667039,25119
-94.40017733334128,30878
-91.90323024319173,29972
-89.40697369289148,21119
-86.91140748903172,13949
-84.41653143812482,10837
-81.92234534660395,15735
-79.42884902082358,23436
-76.93604226705907,26637
-74.4439248915071,22635
-71.95249670028534,17503
-69.46175749943245,13223
-66.97170709490854,11348
-64.48234529259423,11378
-61.99367189829195,10893
-59.50568671772464,9185
-57.01838955653636,8928
-54.53178022029283,9055
-52.045858514480074,9590
-49.560624244506016,11641
-47.07607721569923,13881
-44.59221723330904,13762
-42.10904410250669,13550
-39.62655762838392,17290
-37.14475761595372,23568
-34.66364387015028,28376
-32.18321619582866,34373
-29.70347439776515,35551
-27.224418280657005,34054
-24.74604764912317,37807
-22.26836230770266,50094
-19.7913620608565,65036
-17.315046712966478,65036
-14.83941606833514,65036
-12.36446993118659,65036
-9.89020810566592,65036
-7.416630395839093,65036
-4.94373660569363,65036
-2.471526539137585,65036
-6.821210263296962E-13,65036
2.47084320796705,65036
4.941003281093458,65036
7.410480415786196,65036
9.879274808531363,65036
12.347386655893956,65036
14.814816154518212,65036
17.28156350112681,65036
19.74762889252179,65036
22.21301252558385,27648
24.67771459727237,7711
27.141735304626195,7324
29.605074844762612,7355
32.06773341487792,5695
34.52971121224755,5421
36.99100843422559,4717
39.45162527824516,3720
41.91156194181792,3661
44.370818622535126,4124
46.82939551806646,3274
49.287292826160524,5321
51.74451074464503,6336
54.201049471426245,4017
56.65690920448981,2944
59.112090141899785,2620
61.56659248179983,2446
64.02041642241159,2932
66.4735621620365,3274
68.92602989905402,3547
71.37781983192338,3838
73.82893215918205,3197
76.27936707944684,2475
78.72912479141326,2382
81.17820549385567,2641
83.62660938562783,2330
86.07433666566146,1764
88.5213875329681,1545
90.96776218663751,2129
93.41346082583925,2578
95.85848364982041,2479
98.30283085790859,2356
100.7465026495089,2069
103.18949922410604,1965
105.63182078126385,1705
108.07346752062438,1772
110.51443964190923,1503
112.95473734491827,1620
115.39436082953114,1665
117.83331029570547,1686
120.27158594347827,2011
122.7091879729652,1942
125.1461165843615,1598
127.58237197794062,1434
130.01795435405518,1355
132.4528639131364,1341
134.88710085569494,1344
137.32066538231982,1712
139.75355769367923,1857
142.1857779905207,1612
144.61732647366978,1332
147.04820334403132,1256
149.47840880258934,1272
151.90794305040674,1620
154.33680628862487,1537
156.76499871846443,1771
159.19252054122433,1874
161.61937195828352,1989
164.04555317109896,2007
166.47106438120693,2261
168.89590579022217,2499
171.320077599839,2681
173.7435800118302,2822
176.16641322804742,2866
178.58857745042144,2800
181.01007288096173,3005
183.43089972175687,3068
185.85105817497413,2963
188.27054844285988,3051
190.6893707277394,3041
193.10752523201643,3211
195.5250121581745,3197
197.9418317087751,3195
200.3579840864594,3325
202.7734694939469,3356
205.18828813403627,3417
207.6024402096051,3420
210.01592592360964,3252
212.42874547908548,3302
214.84089907914665,3346
217.2523869269868,3232
219.66320922587727,3239
222.0733661791695,3332
224.48285799029293,3281
226.8916848627572,3428
229.29984700014882,3507
231.7073446061355,3414
234.11417788446204,3409
236.520347038953,3480
238.92585227351185,3567
241.33069379212054,3724
243.73487179884035,3632
246.1383864978112,3730
248.541238093252,3651
250.9434267894609,3828
253.34495279081432,3641
255.74581630176783,3696
258.1460175268563,3651
260.54555667069314,3651
262.9444339379703,3606
265.3426495334594,3624
267.7402036620107,3533
270.1370965285529,3387
272.53332833809407,3309
274.9288992957214,3213
277.32380960660055,3113
279.718059475976,3052
282.1116491091717,3116
284.5045787115897,2913
286.89684848871195,3021
289.2884586460981,3014
291.67940938938807,2975
294.0697009242996,3080
296.4593334566299,3043
298.84830719225477,3041
301.23662233712923,2936
303.6242790972866,2941
306.01127767884,2893
308.39761828798066,2774
310.78330113097934,2779
313.16832641418534,2749
315.5526943440269,2631
317.9364051270112,2744
320.3194589697242,2690
322.70185607883093,2700
325.0835966610754,2611
327.4646809232805,2539
329.8451090723478,2626
332.2248813152577,2627
334.6039978590701,2647
336.9824589109231,2622
339.36026467803447,2548
341.7374153677,2477
344.113911187295,2380
346.48975234427337,2520
348.8649390461686,2471
351.2394715005918,2535
353.61334991523415,2505
355.9865744978655,2507
358.35914545633375,2538
360.73106299856715,2537
363.10232733257146,2393
365.47293866643247,2473
367.84289720831396,2434
370.2122031664593,2404
372.5808567491905,2332
374.9488581649083,2326
377.31620762209275,2439
379.6829053293021,2335
382.0489514951745,2417
384.4143463284262,2299
386.7790900378528,2326
389.14318283232853,2340
391.50662492080653,2391
393.86941651231916,2414
396.23155781597745,2415
398.5930490409713,2368
400.9538903965696,2315
403.3140820921202,2183
405.6736243370498,2153
408.03251734086336,2138
410.3907613131465,2254
412.74835646356166,2222
415.10530300185144,2239
417.4616011378372,2200
419.81725108141893,2211
422.1722530425758,2200
424.5266072313656,2324
426.880313857925,2225
429.2333731324701,2250
431.58578526529516,2229
433.9375504667738,2244
436.2886689473588,2209
438.63914091758113,2288
440.9889665880513,2182
443.33814616945835,2134
445.68667987257015,2223
448.03456790823395,2205
450.3818104873759,2184
452.72840782100013,2209
455.07436012019105,2189
457.41966759611057,2109
459.7643304600007,2163
462.10834892318155,2157
464.4517231970525,2221
466.79445349309174,2186
469.1365400228566,2183
471.4779829979826,2218
473.81878263018564,2194
476.15893913125876,2185
478.4984527130747,2267
480.8373235875855,2349
483.17555196682144,2339
485.5131380628919,2411
487.8500820879857,2572
490.1863842543697,2688
492.52204477439034,2860
494.8570638604725,3064
497.1914417251204,3389
499.52517858091653,3617
501.85827464052306,3769
504.19073011668036,3740
506.5225452222086,3816
508.85372017000566,3675
511.18425517304956,3742
513.514150444396,4075
515.8434061971808,5124
518.1720226446176,6081
520.4999999999999,6297
522.8273384766991,6162
525.1540382881666,5766
527.480099647932,5323
529.8055227696037,4356
532.1303078668694,3177
534.454455153496,2639
536.777964843328,2501
539.1008371502907,2391
541.4230722883866,2350
543.744670471698,2251
546.0656319143858,2230
548.3859568306899,2217
550.7056454349294,2281
553.0246979415016,2309
555.3431145648834,2118
557.6608955196306,2132
559.978041020377,2087
562.2945512818363,2132
564.6104265188006,2202
566.9256669461412,2176
569.2402727788082,2157
571.5542442318302,2208
573.8675815203156,2207
576.1802848594508,2208
578.4923544645015,2279
580.8037905508126,2234
583.114593333807,2194
585.4247630289875,2230
587.7342998519354,2289
590.0432040183106,2231
592.3514757438526,2253
594.6591152443794,2186
596.9661227357875,2205
599.2724984340531,2202
601.578242555231,2197
603.8833553154542,2169
606.1878369309362,2110
608.4916876179676,2206
610.7949075929192,2220
613.0974970722403,2141
615.3994562724587,2135
617.7007854101818,2237
620.0014847020951,2213
622.3015543649641,2200
624.6009946156324,2151
626.8998056710224,2104
629.1979877481361,2254
631.4955410640538,2250
633.7924658359349,2246
636.0887622810175,2233
638.3844306166192,2265
640.6794710601358,2157
642.9738838290426,2205
645.2676691408932,2236
647.5608272133207,2278
649.853358264037,2277
652.1452625108324,2280
654.4365401715764,2233
656.7271914642178,2257
659.0172166067838,2278
661.3066158173809,2300
663.5953893141935,2394
665.8835373154867,2300
668.1710600396028,2167
670.4579577049639,2266
672.7442305300709,2388
675.0298787335033,2327
677.3149025339197,2225
679.599302150058,2199
681.8830778007342,2226
684.1662297048437,2245
686.4487580813608,2223
688.7306631493387,2261
691.0119451279091,2309
693.2926042362834,2250
695.5726406937516,2285
697.8520547196814,2146
700.1308465335215,2267
702.4090163547982,2242
704.6865644031171,2212
706.9634908981619,2191
709.2397960596965,2116
711.5154801075631,2216
713.7905432616823,2232
716.0649857420548,2216
718.3388077687592,2231
720.612009561953,2366
722.8845913418733,2208
725.1565533288352,2298
727.427895743234,2210
729.6986188055427,2230
731.9687227363137,2212
734.238207756178,2331
736.5070740858458,2207
738.7753219461066,2183
741.0429515578281,2271
743.3099631419569,2241
745.5763569195191,2176
747.8421331116193,2168
750.1072919394409,2269
752.3718336242467,2210
754.6357583873777,2263
756.8990664502545,2234
759.1617580343765,2216
761.423833361321,2292
763.6852926527457,2221
765.9461361303862,2271
768.206364016058,2197
770.4659765316536,2200
772.7249738991469,2277
774.9833563405886,2370
777.2411240781092,2261
779.4982773339183,2183
781.7548163303044,2245
784.010741289634,2231
786.2660524343538,2347
788.5207499869881,2332
790.7748341701416,2260
793.0283052064964,2298
795.2811633188143,2253
797.5334087299362,2262
799.7850416627813,2282
802.0360623403484,2340
804.2864709857143,2244
806.5362678220353,2337
808.7854530725468,2252
811.0340269605625,2238
813.2819897094754,2190
815.5293415427581,2282
817.77608268396,2215
820.0222133567116,2284
822.2677337847211,2240
824.5126441917765,2356
826.7569448017433,2266
829.0006358385675,2212
831.2437175262731,2221
833.4861900889629,2314
835.7280537508192,2280
837.9693087361026,2275
840.2099552691533,2219
842.4499935743896,2306
844.689423876309,2333
846.9282463994886,2312
849.1664613685833,2342
851.4040690083276,2261
853.6410695435349,2307
855.877463199097,2267
858.1132501999847,2315
860.3484307712487,2289
862.5830051380175,2204
864.8169735254988,2241
867.0503361589791,2289
869.2830932638243,2291
871.5152450654786,2281
873.7467917894654,2373
875.9777336613873,2391
878.2080709069252,2278
880.4378037518389,2360
882.666932421968,2362
884.8954571432301,2295
887.1233781416219,2408
889.3506956432192,2342
891.5774098741766,2343
893.803521060728,2343
896.0290294291852,2308
898.2539352059397,2338
900.4782386174619,2340
902.7019398903011,2285
904.925039251085,2297
907.147536926521,2259
909.3694331433943,2341
911.59072812857,2388
913.8114221089921,2335
916.0315153116827,2253
918.2510079637437,2277
920.4699002923547,2361
922.6881925247761,2290
924.905884888345,2292
927.1229776104793,2302
929.3394709186747,2248
931.555365040506,2230
933.7706602036275,2322
935.9853566357709,2293
938.1994545647489,2366
940.4129542184515,2311
942.6258558248488,2293
944.8381596119883,2246
947.0498658079974,2338
949.2609746410825,2313
951.4714863395287,2298
953.6814011316998,2339
955.8907192460387,2241
958.0994409110671,2360
960.3075663553858,2346
962.5150958076741,2307
964.7220294966913,2253
966.928367651274,2302
969.1341105003388,2260
971.3392582728806,2212
973.5438111979742,2167
975.747769504772,2220
977.9511334225061,2154
980.153903180487,2187
982.3560790081052,2228
984.5576611348289,2188
986.7586497902058,2141
988.9590452038618,2147
991.158847605503,2130
993.3580572249133,2056
995.5566742919558,2005
997.7546990365728,1996
999.952131688785,1969
1002.1489724786926,1992
1004.3452216364743,1982
1006.5408793923874,1971
1008.7359459767691,1971
1010.9304216200343,1896
1013.1243065526781,1940
1015.3176010052733,1888
1017.510305208472,1925
1019.7024193930064,1922
1021.8939437896848,1868
1024.0848786293977,1907
1026.2752241431122,1929
1028.4649805618747,2000
1030.6541481168115,1945
1032.842727039127,1892
1035.0307175601051,1897
1037.2181199111074,1854
1039.4049343235752,1836
1041.591161029029,1884
1043.7768002590683,1867
1045.9618522453698,1890
1048.1463172196918,1831
1050.3301954138697,1861
1052.513487059818,1807
1054.69619238953,1819
1056.8783116350783,1829
1059.0598450286152,1877
1061.2407928023704,1868
1063.4211551886528,1797
1065.6009324198508,1907
1067.780124728432,1865
1069.9587323469414,1833
1072.1367555080046,1843
1074.314194444325,1849
1076.4910493886855,1796
1078.667320573947,1785
1080.843008233051,1729
1083.0181125990161,1770
1085.1926339049414,1732
1087.3665723840027,1806
1089.5399282694575,1768
1091.7127017946405,1800
1093.8848931929647,1760
1096.0565026979243,1712
1098.2275305430899,1756
1100.3979769621128,1779
1102.567842188722,1709
1104.737126456726,1734
1106.9058300000124,1703
1109.0739530525475,1754
1111.2414958483764,1771
1113.4084586216231,1685
1115.5748416064907,1771
1117.7406450372605,1783
1119.9058691482942,1765
1122.0705141740304,1759
1124.2345803489884,1718
1126.3980679077658,1671
1128.5609770850388,1691
1130.7233081155623,1760
1132.8850612341707,1775
1135.0462366757774,1748
1137.2068346753745,1645
1139.3668554680326,1739
1141.526299288901,1732
1143.68516637321,1643
1145.8434569562655,1686
1148.001171273455,1673
1150.158309560244,1702
1152.3148720521767,1695
1154.470858984876,1698
1156.626270594044,1708
1158.7811071154629,1690
1160.9353687849912,1669
1163.089055838569,1699
1165.242168512213,1742
1167.3947070420209,1731
1169.5466716641677,1671
1171.6980626149075,1654
1173.8488801305748,1698
1175.9991244475814,1720
1178.1487958024186,1689
1180.2978944316555,1674
1182.4464205719428,1658
1184.5943744600072,1731
1186.7417563326567,1619
1188.8885664267755,1621
1191.0348049793297,1709
1193.1804722273619,1754
1195.325568407995,1715
1197.4700937584303,1717
1199.614048515948,1710
1201.7574329179074,1717
1203.900247201746,1736
1206.042491604982,1711
1208.1841663652099,1769
1210.3252717201053,1669
1212.465807907422,1742
1214.6057751649923,1721
1216.7451737307279,1732
1218.8840038426192,1708
1221.0222657387353,1758
1223.1599596572241,1749
1225.2970858363137,1733
1227.4336445143094,1690
1229.5696359295966,1708
1231.705060320639,1760
1233.8399179259786,1712
1235.9742089842384,1781
1238.107933734118,1758
1240.2410924143974,1757
1242.373685263935,1752
1244.5057125216676,1778
1246.6371744266116,1742
1248.7680712178621,1755
1250.898403134593,1738
1253.028170416058,1726
1255.1573733015875,1724
1257.2860120305932,1798
1259.4140868425648,1771
1261.54159797707,1737
1263.6685456737569,1771
1265.7949301723515,1797
1267.9207517126597,1828
1270.046010534565,1758
1272.1707068780306,1837
1274.2948409830983,1854
1276.4184130898889,1789
1278.541423438603,1791
1280.6638722695184,1807
1282.785759822993,1817
1284.9070863394636,1761
1287.0278520594447,1832
1289.1480572235314,1804
1291.2677020723963,1804
1293.3867868467923,1882
1295.5053117875495,1855
1297.623277135579,1870
1299.740683131868,1901
1301.8575300174857,1911
1303.973818033578,1997
1306.0895474213703,1875
1308.2047184221678,1948
1310.3193312773528,1900
1312.4333862283888,1974
1314.5468835168163,1961
1316.659823384255,1962
1318.7722060724045,2026
1320.8840318230418,1977
1322.9953008780249,1989
1325.1060134792888,1982
1327.2161698688478,1978
1329.3257702887959,1932
1331.4348149813054,1973
1333.5433041886276,1931
1335.6512381530933,1892
1337.7586171171101,1910
1339.8654413231675,1842
1341.9717110138317,1923
1344.0774264317488,1929
1346.1825878196432,1932
1348.2871954203192,1936
1350.3912494766587,1960
1352.4947502316231,1913
1354.5976979282532,1912
1356.7000928096686,1813
1358.8019351190665,1879
1360.9032250997243,1913
1363.0039629949988,1856
1365.1041490483235,1903
1367.2037835032133,1885
1369.3028666032606,1870
1371.401398592137,1887
1373.4993797135926,1909
1375.5968102114575,1926
1377.6936903296396,1876
1379.7900203121262,1950
1381.8858004029835,1932
1383.9810308463561,1963
1386.075711886469,1980
1388.1698437676241,1949
1390.2634267342032,1934
1392.356461030667,1949
1394.4489469015557,1990
1396.5408845914872,2048
1398.6322743451592,1921
1400.7231164073469,2029
1402.813411022907,1969
1404.903158436773,1969
1406.9923588939578,2019
1409.0810126395531,1989
1411.1691199187303,2067
1413.2566809767386,2064
1415.343696058907,2068
1417.4301654106425,2074
1419.5160892774315,2036
1421.6014679048399,2109
1423.6863015385125,2073
1425.7705904241707,2147
1427.8543348076178,2144
1429.9375349347342,2153
1432.0201910514802,2118
1434.102303403894,2170
1436.1838722380944,2225
1438.2648978002767,2252
1440.3453803367174,2297
1442.4253200937692,2325
1444.5047173178677,2408
1446.5835722555234,2313
1448.6618851533285,2406
1450.739656257952,2475
1452.8168858161434,2467
1454.8935740747306,2517
1456.96972128062,2623
1459.045327680797,2544
1461.120393522327,2616
1463.1949190523528,2578
1465.2689045180973,2695
1467.3423501668608,2772
1469.415256246024,2786
1471.4876230030463,2829
1473.559450685465,2902
1475.6307395408976,2971
1477.7014898170391,2935
1479.771701761665,3125
1481.8413756226287,3126
1483.9105116478618,3123
1485.9791100853772,3051
1488.0471711832643,3150
1490.1146951896926,3249
1492.1816823529098,3293
1494.2481329212433,3369
1496.3140471430984,3300
1498.3794252669609,3365
1500.4442675413939,3464
1502.5085742150404,3552
1504.572345536622,3454
1506.6355817549388,3580
1508.6982831188702,3543
1510.7604498773744,3481
1512.8220822794883,3698
1514.8831805743293,3723
1516.9437450110909,3757
1519.003775839048,3831
1521.0632733075522,3766
1523.1222376660367,3884
1525.1806691640113,3827
1527.2385680510652,3877
1529.2959345768668,3961
1531.3527689911643,4061
1533.4090715437833,4168
1535.4648424846291,4143
1537.5200820636855,4245
1539.5747905310159,4218
1541.6289681367616,4336
1543.6826151311434,4270
1545.7357317644614,4429
1547.7883182870937,4488
1549.8403749494987,4496
1551.8919020022113,4496
1553.9428996958477,4673
1555.9933682811015,4698
1558.0433080087469,4872
1560.0927191296346,4828
1562.1416018946961,4937
1564.1899565549415,4999
1566.2377833614592,4845
1568.2850825654164,4764
1570.3318544180606,4577
1572.3780991707158,4498
1574.423817074788,4277
1576.4690083817595,4141
1578.5136733431923,3803
1580.5578122107272,3730
1582.601425236085,3612
1584.6445126710646,3385
1586.6870747675434,3208
1588.7291117774776,3182
1590.7706239529034,3025
1592.8116115459347,2926
1594.8520748087658,2811
1596.8920139936686,2647
1598.9314293529933,2586
1600.9703211391711,2489
1603.008689604711,2479
1605.0465350022005,2446
1607.0838575843068,2333
1609.1206576037753,2338
1611.1569353134305,2285
1613.1926909661765,2175
1615.2279248149953,2162
1617.2626371129481,2147
1619.2968281131757,2077
1621.3304980688963,2046
1623.3636472334088,2073
1625.39627586009,1941
1627.428384202396,1979
1629.459972513861,2016
1631.4910410480993,1910
1633.5215900588028,2009
1635.551619799744,1937
1637.5811305247717,1914
1639.6101224878166,1952
1641.6385959428862,1905
1643.6665511440683,1912
1645.693988345528,1881
1647.7209078015112,1826
1649.7473097663405,1836
1651.7731944944203,1835
1653.7985622402307,1939
1655.823413258333,1831
1657.847747803366,1829
1659.8715661300494,1823
1661.8948684931793,1894
1663.9176551476316,1789
1665.9399263483624,1881
1667.9616823504057,1837
1669.982923408873,1850
1672.0036497789574,1742
1674.0238617159293,1811
1676.043559475138,1818
1678.0627433120121,1821
1680.081413482059,1790
1682.0995702408654,1881
1684.117213844096,1908
1686.134344547495,1830
1688.1509626068864,1798
1690.1670682781705,1818
1692.182661817329,1774
1694.1977434804217,1776
1696.2123135235875,1799
1698.226372203043,1808
1700.2399197750851,1824
1702.2529564960905,1719
1704.2654826225112,1817
1706.277498410882,1811
1708.2890041178139,1797
1710.2999999999988,1781
1712.3104863142066,1733
1714.3204633172854,1788
1716.329931266163,1828
1718.3388904178469,1785
1720.3473410294214,1767
1722.3552833580516,1823
1724.3627176609807,1735
1726.3696441955308,1763
1728.3760632191033,1769
1730.3819749891782,1744
1732.3873797633146,1781
1734.3922777991502,1761
1736.3966693544012,1712
1738.4005546868639,1747
1740.4039340544127,1721
1742.406807715001,1753
1744.4091759266616,1747
1746.4110389475054,1683
1748.4123970357223,1676
1750.413250449582,1691
1752.4135994474318,1712
1754.4134442876993,1651
1756.4127852288902,1726
1758.4116225295893,1680
1760.4099564484595,1746
1762.407787244244,1677
1764.405115175764,1758
1766.4019405019203,1690
1768.3982634816916,1656
1770.3940843741357,1605
1772.3894034383907,1650
1774.3842209336717,1655
1776.378537119274,1625
1778.372352254571,1669
1780.3656665990156,1664
1782.3584804121397,1674
1784.3507939535534,1634
1786.3426074829463,1724
1788.3339212600863,1728
1790.3247355448211,1685
1792.3150505970766,1643
1794.3048666768573,1662
1796.2941840442477,1661
1798.2830029594106,1705
1800.2713236825884,1655
1802.2591464741004,1640
1804.2464715943465,1703
1806.2332993038058,1617
1808.2196298630352,1663
1810.2054635326708,1652
1812.190800573428,1639
1814.175641246101,1648
1816.1599858115628,1652
1818.1438345307652,1619
1820.127187664738,1654
1822.1100454745924,1623
1824.092408221516,1638
1826.0742761667766,1573
1828.055649571721,1614
1830.0365286977735,1663
1832.0169138064398,1596
1833.9968051593014,1560
1835.9762030180214,1681
1837.9551076443408,1644
1839.9335193000788,1623
1841.9114382471344,1684
1843.888864747485,1636
1845.8657990631878,1640
1847.842241456378,1564
1849.8181921892697,1634
1851.7936515241558,1622
1853.7686197234098,1566
1855.7430970494815,1643
1857.7170837649014,1557
1859.6905801322787,1560
1861.6635864143004,1594
1863.6361028737338,1605
1865.608129773424,1562
1867.5796673762961,1630
1869.5507159453537,1667
1871.521275743678,1625
1873.4913470344313,1587
1875.4609300808534,1597
1877.4300251462632,1584
1879.3986324940588,1588
1881.366752387717,1664
1883.3343850907936,1634
1885.3015308669228,1572
1887.268189979819,1619
1889.2343626932739,1553
1891.2000492711595,1559
1893.1652499774254,1632
1895.1299650761011,1624
1897.0941948312952,1655
1899.0579395071945,1707
1901.0211993680641,1663
1902.98397467825,1622
1904.9462657021745,1667
1906.9080727043415,1724
1908.869395949332,1617
1910.8302357018065,1573
1912.790592226504,1652
1914.7504657882428,1607
1916.7098566519212,1544
1918.6687650825133,1633
1920.6271913450764,1618
1922.5851357047422,1547
1924.5425984267245,1602
1926.499579776314,1651
1928.4560800188833,1619
1930.4120994198802,1597
1932.367638244833,1660
1934.32269675935,1668
1936.2772752291175,1662
1938.231373919899,1574
1940.1849930975404,1622
1942.1381330279637,1602
1944.0907939771696,1599
1946.0429762112412,1644
1947.9946799963363,1619
1949.9459055986945,1583
1951.896653284633,1617
1953.8469233205478,1612
1955.7967159729142,1647
1957.7460315082863,1536
1959.6948701932974,1519
1961.6432322946594,1588
1963.5911180791632,1610
1965.5385278136787,1605
1967.4854617651545,1602
1969.4319202006182,1588
1971.377903387176,1540
1973.3234115920136,1623
1975.268445082395,1579
1977.2130041256642,1558
1979.1570889892423,1530
1981.1006999406304,1555
1983.04383724741,1541
1984.986501177238,1532
1986.928691997853,1606
1988.8704099770712,1566
1990.811655382789,1583
1992.7524284829801,1544
1994.692729545698,1531
1996.6325588390755,1565
1998.5719166313224,1572
2000.5108031907307,1543
2002.4492187856677,1512
2004.387163684583,1526
2006.3246381560011,1578
2008.2616424685298,1494
2010.1981768908527,1571
2012.1342416917332,1568
2014.069837140014,1525
2016.0049635046162,1507
2017.9396210545406,1511
2019.8738100588666,1506
2021.8075307867502,1491
2023.740783507431,1493
2025.6735684902228,1547
2027.6058860045214,1522
2029.5377363198004,1545
2031.4691197056118,1482
2033.4000364315875,1538
2035.3304867674374,1562
2037.260470982952,1557
2039.189989347998,1498
2041.1190421325232,1501
2043.047629606554,1555
2044.9757520401945,1583
2046.9034097036288,1504
2048.8306028671195,1530
2050.7573318010086,1548
2052.683596775716,1512
2054.609398061742,1551
2056.5347359296647,1523
2058.4596106501403,1538
2060.384022493906,1548
2062.3079717317764,1568
2064.231458634646,1554
2066.1544834734873,1507
2068.077046519352,1537
2069.99914804337,1506
2071.9207883167524,1512
2073.8419676107865,1559
2075.7626861968406,1486
2077.6829443463607,1507
2079.6027423308715,1537
2081.522080421977,1506
2083.440958891362,1582
2085.359378010786,1518
2087.2773380520907,1470
2089.194839287196,1541
2091.111881988101,1554
2093.0284664268825,1493
2094.9445928756973,1558
2096.86026160678,1526
2098.775472892446,1560
2100.690227005088,1509
2102.604524217178,1523
2104.5183648012676,1534
2106.431749029985,1530
2108.34467717604,1502
2110.2571495122206,1488
2112.169166311393,1550
2114.080727846503,1544
2115.9918343905747,1553
2117.902486216711,1539
2119.8126835980956,1554
2121.722426807987,1561
2123.6317161197285,1567
2125.5405518067364,1548
2127.448934142509,1535
2129.356863400624,1547
2131.264339854737,1563
2133.1713637785815,1640
2135.077935445972,1599
2136.9840551308002,1570
2138.889723107037,1601
2140.7949396487334,1525
2142.699705030018,1561
2144.6040195250994,1517
2146.507883408264,1560
2148.4112969538774,1605
2150.3142604363848,1571
2152.2167741303097,1622
2154.1188383102535,1605
2156.0204532508997,1534
2157.9216192270064,1563
2159.822336513414,1557
2161.7226053850413,1600
2163.622426116884,1581
2165.5217989840185,1520
2167.4207242616,1634
2169.319202224862,1592
2171.2172331491165,1570
2173.1148173097563,1604
2175.0119549822507,1597
2176.90864644215,1631
2178.8048919650823,1635
2180.7006918267534,1641
2182.596046302952,1562
2184.4909556695407,1602
2186.3854202024645,1540
2188.279440177746,1668
2190.173015871487,1543
2192.066147559868,1681
2193.958835519149,1654
2195.851080025667,1611
2197.7428813558417,1693
2199.6342397861667,1612
2201.5251555932186,1673
2203.415629053651,1676
2205.3056604441986,1654
2207.19525004167,1676
2209.084398122958,1625
2210.9731049650327,1656
2212.861370844941,1667
2214.749196039812,1622
2216.636580826851,1701
2218.523525483344,1692
2220.410030286655,1640
2222.296095514226,1633
2224.1817214435805,1649
2226.066908352319,1659
2227.951656518121,1712
2229.835966218746,1615
2231.71983773203,1661
2233.6032713358913,1691
2235.486267308324,1736
2237.3688259274036,1704
2239.2509474712824,1603
2241.132632218193,1681
2243.013880446447,1705
2244.8946924344323,1718
2246.7750684606203,1684
2248.6550088035574,1644
2250.534513741871,1656
2252.413583554265,1705
2254.292218519526,1617
2256.170418916517,1669
2258.0481850241786,1655
2259.925517121534,1701
2261.8024154876825,1686
2263.678880401803,1716
2265.5549121431536,1632
2267.430510991071,1687
2269.305677224971,1667
2271.180411124348,1637
2273.0547129687766,1683
2274.9285830379076,1612
2276.8020216114737,1622
2278.6750289692845,1601
2280.5476053912294,1637
2282.4197511572766,1717
2284.2914665474727,1715
2286.162751841943,1705
2288.0336073208937,1717
2289.904033264608,1722
2291.774029953448,1716
2293.6435976678554,1623
2295.5127366883517,1532
2297.381447295534,1570
2299.2497297700825,1594
2301.1175843927526,1581
2302.9850114443825,1502
2304.852011205885,1548
2306.7185839582553,1481
2308.5847299825664,1502
2310.4504495599676,1451
2312.3157429716925,1422
2314.1806104990483,1401
2316.0450524234247,1424
2317.9090690262888,1413
2319.772660589186,1417
2321.635827393742,1428
2323.498569721661,1408
2325.3608878547248,1451
2327.2227820747967,1442
2329.0842526638157,1422
2330.945299903803,1409
2332.805924076857,1503
2334.6661254651535,1448
2336.525904350951,1412
2338.3852610165827,1437
2340.244195744464,1457
2342.102708817088,1385
2343.9608005170253,1491
2345.8184711269287,1452
2347.675720929526,1467
2349.532550207628,1414
2351.38895924412,1400
2353.24494832197,1416
2355.100517724223,1410
2356.955667734004,1427
2358.810398634514,1489
2360.664710709037,1478
2362.5186042409337,1459
2364.3720795136437,1425
2366.225136810686,1487
2368.0777764156583,1431
2369.929998612237,1445
2371.7818036841777,1444
2373.633191915315,1490
2375.484163589562,1415
2377.3347189909114,1407
2379.184858403434,1416
2381.03458211128,1438
2382.8838903986775,1499
2384.732783549936,1499
2386.5812618494406,1472
2388.4293255816588,1490
2390.2769750311327,1447
2392.1242104824883,1480
2393.971032220427,1491
2395.8174405297295,1478
2397.6634356952563,1507
2399.509018001947,1513
2401.3541877348193,1543
2403.1989451789705,1492
2405.043290619576,1486
2406.8872243418905,1483
2408.730746631247,1490
2410.5738577730594,1483
2412.4165580528183,1506
2414.258847756095,1453
2416.100727168537,1473
2417.9421965758734,1505
2419.783256263912,1497
2421.623906518538,1509
2423.4641476257157,1487
2425.303979871491,1544
2427.143403541984,1467
2428.9824189233977,1515
2430.821026302012,1483
2432.6592259641866,1560
2434.497018196361,1535
2436.33440328505,1513
2438.171381516851,1469
2440.00795317844,1472
2441.844118556569,1496
2443.6798779380724,1474
2445.5152316098606,1527
2447.3501798589255,1534
2449.1847229723357,1464
2451.0188612372403,1539
2452.8525949408663,1501
2454.6859243705203,1528
2456.518849813587,1483
2458.3513715575314,1539
2460.183489889895,1513
2462.015205098301,1493
2463.8465174704493,1559
2465.67742729412,1544
2467.5079348571717,1489
2469.338040447542,1472
2471.1677443532476,1565
2472.9970468623833,1473
2474.825948263123,1521
2476.6544488437207,1565
2478.482548892508,1512
2480.310248697896,1545
2482.137548548374,1525
2483.9644487325118,1542
2485.790949538956,1522
2487.617051256433,1560
2489.44275417375,1572
2491.26805857979,1540
2493.0929647635157,1488
2494.917473013971,1529
2496.741583620276,1499
2498.5652968716304,1605
2500.3886130573137,1552
2502.2115324666834,1537
2504.0340553891765,1621
2505.856182114308,1598
2507.6779129316733,1605
2509.499248130945,1579
2511.3201880018764,1586
2513.140732834298,1620
2514.9608829181198,1609
2516.780638543331,1569
2518.6,1580
2520.418967578273,1521
2522.237541568376,1579
2524.0557222606144,1543
2525.8735099453706,1649
2527.6909049131086,1646
2529.507907454368,1604
2531.32451785977,1668
2533.140736420014,1635
2534.9565634258774,1700
2536.771999168218,1642
2538.5870439379714,1726
2540.4016980261526,1691
2542.2159617238544,1732
2544.02983532225,1685
2545.8433191125914,1727
2547.656413386209,1673
2549.4691184345115,1735
2551.2814345489874,1730
2553.093362021204,1732
2554.904901142808,1681
2556.716052205523,1794
2558.526815501153,1753
2560.3371913215824,1807
2562.147179958771,1815
2563.956781704761,1827
2565.7659968516705,1835
2567.5748256916986,1848
2569.3832685171224,1800
2571.1913256202984,1836
2572.9989972936614,1824
2574.806283829725,1821
2576.613185521084,1847
2578.4197026604074,1817
2580.2258355404483,1915
2582.031584454035,1909
2583.836949694077,1881
2585.6419315535613,1903
2587.4465303255533,1916
2589.2507463032002,1962
2591.0545797797245,1991
2592.8580310484303,1940
2594.6611004026995,1917
2596.463788135992,1978
2598.266094541849,1942
2600.0680199138874,1979
2601.869564545807,1951
2603.670728731383,1870
2605.4715127644704,1999
2607.2719169390048,2008
2609.071941548998,1887
2610.8715868885433,1973
2612.670853251811,1975
2614.469740933052,2067
2616.268250226594,1937
2618.0663814268455,2025
2619.864134828292,1991
2621.6615107255006,1973
2623.458509413115,2018
2625.2551311858597,1942
2627.0513763385347,1917
2628.8472451660223,1921
2630.6427379632833,1861
2632.4378550253564,1857
2634.232596647359,1844
2636.026963124488,1873
2637.8209547520187,1809
2639.6145718253065,1848
2641.407814639785,1831
2643.200683490966,1867
2644.9931786744414,1745
2646.7853004858807,1752
2648.577049221034,1740
2650.3684251757277,1736
2652.1594286458712,1798
2653.9500599274484,1747
2655.740319316525,1717
2657.5302071092437,1730
2659.3197236018286,1690
2661.10886909058,1655
2662.8976438718782,1684
2664.686048242183,1643
2666.4740824980327,1643
2668.2617469360443,1697
2670.0490418529134,1675
2671.8359675454153,1603
2673.622524310403,1574
2675.408712444811,1567
2677.1945322456495,1595
2678.979984010009,1634
2680.76506803506,1648
2682.5497846180497,1583
2684.334134056306,1573
2686.1181166472343,1636
2687.9017326883213,1615
2689.6849824771293,1563
2691.4678663113013,1544
2693.2503844885596,1542
2695.032537306705,1519
2696.8143250636167,1549
2698.5957480572542,1523
2700.3768065856534,1512
2702.1575009469316,1510
2703.937831439283,1509
2705.717798360982,1537
2707.4974020103837,1520
2709.276642685917,1462
2711.055520686095,1452
2712.834036309506,1512
2714.612189854819,1440
2716.389981620782,1489
2718.1674119062204,1496
2719.944481010041,1433
2721.721189231226,1496
2723.4975368688415,1530
2725.273524222027,1479
2727.0491515900053,1480
2728.824419272075,1460
2730.5993275676146,1441
2732.3738767760838,1460
2734.148067197016,1501
2735.921899130031,1420
2737.6953728748194,1392
2739.468488731156,1458
2741.2412469988926,1465
2743.0136479779617,1434
2744.785691968372,1473
2746.5573792702116,1419
2748.3287101836504,1432
2750.099685008934,1467
2751.870304046388,1433
2753.640567596418,1420
2755.4104759595057,1456
2757.1800294362156,1417
2758.949228327187,1390
2760.7180729331412,1412
2762.486563554877,1468
2764.254700493272,1454
2766.022484049284,1404
2767.789914523947,1466
2769.5569922183786,1385
2771.3237174337705,1450
2773.090090471394,1432
2774.8561116326036,1420
2776.6217812188274,1405
2778.3870995315756,1467
2780.1520668724356,1421
2781.9166835430747,1396
2783.6809498452394,1436
2785.444866080754,1423
2787.2084325515225,1411
2788.971649559527,1432
2790.73451740683,1436
2792.4970363955713,1384
2794.2592068279705,1443
2796.0210290063264,1423
2797.7825032330147,1427
2799.543629810493,1391
2801.304409041296,1402
2803.0648412280366,1463
2804.8249266734088,1396
2806.5846656801846,1416
2808.344058551212,1444
2810.1031055894246,1456
2811.8618070978273,1504
2813.6201633795085,1445
2815.378174737636,1392
2817.1358414754536,1388
2818.893163896285,1482
2820.6501423035334,1436
2822.4067770006814,1407
2824.1630682912883,1435
2825.9190164789957,1410
2827.6746218675207,1387
2829.429884760661,1423
2831.184805462294,1463
2832.9393842763743,1449
2834.693621506936,1465
2836.4475174580916,1397
2838.201072434034,1370
2839.954286739034,1381
2841.707160677441,1417
2843.459694553685,1363
2845.2118886722724,1397
2846.96374333779,1416
2848.7152588549034,1428
2850.4664355283567,1481
2852.217273662973,1481
2853.9677735636546,1442
2855.7179355353833,1415
2857.4677598832186,1407
2859.217246912299,1442
2860.9663969278427,1399
2862.715210235146,1379
2864.4636871395846,1382
2866.211827946614,1416
2867.9596329617652,1423
2869.7071024906536,1388
2871.4542368389684,1384
2873.20103631248,1422
2874.947501217038,1404
2876.6936318585695,1386
2878.4394285430812,1405
2880.1848915766604,1417
2881.9300212654707,1382
2883.6748179157553,1469
2885.4192818338374,1394
2887.1634133261173,1430
2888.907212699077,1408
2890.6506802592744,1445
2892.393816313348,1401
2894.1366211680142,1434
2895.8790951300693,1399
2897.621238506388,1449
2899.363051603925,1468
2901.1045347297118,1387
2902.8456881908596,1344
2904.58651229456,1382
2906.327007348081,1392
2908.067173658772,1449
2909.8070115340597,1422
2911.5465212814497,1461
2913.285703208527,1356
2915.0245576229563,1410
2916.7630848324807,1382
2918.5012851449196,1415
2920.2391588681758,1385
2921.976706310227,1345
2923.7139277791334,1387
2925.4508235830313,1325
2927.187394030137,1430
2928.923639428745,1362
2930.6595600872306,1401
2932.395156314046,1487
2934.1304284177218,1376
2935.8653767068713,1412
2937.6000014901815,1465
2939.3343030764227,1465
2941.068281774442,1405
2942.8019378931644,1447
2944.5352717415976,1424
2946.2682836288236,1383
2948.0009738640065,1370
2949.7333427563885,1406
2951.465390615289,1387
2953.1971177501086,1442
2954.9285244703265,1448
2956.6596110855,1410
2958.3903779052657,1449
2960.1208252393385,1394
2961.8509533975125,1378
2963.5807626896617,1368
2965.3102534257378,1364
2967.0394259157715,1380
2968.768280469873,1426
2970.496817398232,1399
2972.2250370111146,1424
2973.952939618869,1448
2975.6805255319196,1417
2977.4077950607707,1423
2979.134748516006,1426
2980.861386208289,1394
2982.587708448359,1434
2984.313715547037,1425
2986.039407815222,1364
2987.764785563891,1414
2989.489849104102,1412
2991.2145987469908,1418
2992.9390348037705,1390
2994.6631575857346,1433
2996.3869674042576,1391
2998.1104645707887,1454
2999.83364939686,1305
3001.5565221940783,1412
3003.2790832741334,1401
3005.0013329487924,1388
3006.7232715298996,1414
3008.4448993293804,1384
3010.166216659239,1427
3011.887223831558,1405
3013.607921158498,1366
3015.3283089522993,1375
3017.0483875252826,1381
3018.7681571898443,1328
3020.4876182584626,1410
3022.2067710436927,1321
3023.9256158581707,1446
3025.644153014609,1439
3027.362382825801,1405
3029.0803056046193,1393
3030.797921664012,1423
3032.5152313170106,1398
3034.2322348767225,1377
3035.9489326563353,1411
3037.665324969115,1382
3039.3814121284063,1368
3041.097194447633,1381
3042.812672240299,1396
3044.5278458199855,1373
3046.2427155003525,1393
3047.9572815951406,1374
3049.671544418167,1416
3051.38550428333,1392
3053.0991615046073,1433
3054.812516396051,1410
3056.5255692717974,1408
3058.2383204460575,1371
3059.9507702331257,1419
3061.662918947372,1392
3063.3747669032446,1429
3065.0863144152736,1484
3066.7975617980674,1416
3068.508509366309,1366
3070.219157434767,1416
3071.9295063182844,1487
3073.639556331785,1392
3075.3493077902704,1396
3077.058761008821,1403
3078.7679163025964,1410
3080.476773986837,1429
3082.1853343768594,1415
3083.89359778806,1365
3085.6015645359153,1371
3087.3092349359786,1430
3089.016609303884,1396
3090.7236879553434,1407
3092.4304712061476,1388
3094.136959372166,1395
3095.843152769349,1329
3097.5490517137237,1404
3099.2546565213966,1437
3100.959967508554,1422
3102.66498499146,1390
3104.3697092864577,1400
3106.0741407099695,1421
3107.778279578498,1405
3109.482126208622,1424
3111.1856809170004,1374
3112.8889440203716,1442
3114.5919158355528,1453
3116.294596679439,1430
3117.996986869006,1427
3119.6990867213062,1451
3121.4008965534726,1462
3123.102416682717,1433
3124.803647426329,1345
3126.5045891016784,1446
3128.205242026213,1381
3129.90560651746,1452
3131.605682893025,1418
3133.3054714705922,1452
3135.0049725679282,1428
3136.7041865028714,1381
3138.4031135933465,1426
3140.101754157353,1473
3141.800108512971,1450
3143.498176978357,1457
3145.1959598717494,1369
3146.8934575114636,1315
3148.5906702158954,1368
3150.2875983035183,1415
3151.9842420928853,1389
3153.680601902627,1476
3155.376678051456,1373
3157.07247085816,1403
3158.767980641609,1403
3160.463207720748,1444
3162.158152414606,1413
3163.8528150422862,1432
3165.5471959229726,1370
3167.2412953759303,1397
3168.9351137204976,1373
3170.628651276098,1384
3172.3219083622307,1392
3174.014885298474,1408
3175.707582404485,1388
3177.4000000000005,1427
3179.092138404835,1402
3180.7839979388846,1432
3182.47557892212,1333
3184.166881674594,1463
3185.8579065164386,1383
3187.5486537678626,1443
3189.2391237491547,1429
3190.9293167806827,1391
3192.6192331828934,1348
3194.3088732763117,1383
3195.998237381542,1330
3197.687325819268,1327
3199.376138910251,1359
3201.064676975334,1315
3202.7529403354347,1351
3204.4409293115523,1384
3206.1286442247647,1391
3207.816085396229,1308
3209.5032531471825,1374
3211.190147798936,1377
3212.8767696728846,1336
3214.5631190905015,1333
3216.2491963733373,1339
3217.9350018430214,1336
3219.6205358212637,1319
3221.305798629851,1354
3222.990790590651,1325
3224.6755120256103,1335
3226.359963256751,1334
3228.0441446061795,1325
3229.7280563960758,1400
3231.411698948703,1399
3233.0950725863995,1362
3234.778177631587,1345
3236.461014406761,1334
3238.1435832345005,1395
3239.8258844374595,1392
3241.507918338374,1351
3243.1896852600576,1410
3244.8711855254023,1333
3246.552419457381,1383
3248.233387379042,1334
3249.914089613516,1368
3251.59452648401,1461
3253.274698313813,1409
3254.95460542629,1333
3256.6342481448855,1384
3258.313626793125,1410
3259.9927416946084,1407
3261.6715931730196,1342
3263.3501815521176,1346
3265.0285071557437,1338
3266.706570307815,1319
3268.3843713323286,1367
3270.0619105533615,1290
3271.739188295068,1303
3273.4162048816834,1336
3275.0929606375184,1377
3276.769455886966,1346
3278.445690954498,1327
3280.1216661646613,1371
3281.797381842087,1360
3283.4728383114807,1385
3285.1480358976296,1392
3286.8229749253996,1371
3288.4976557197333,1316
3290.172078605655,1325
3291.846243908266,1325
3293.5201519527463,1282
3295.193803064357,1387
3296.8671975684374,1385
3298.5403357904024,1390
3300.21321805575,1345
3301.8858446900567,1349
3303.558216018975,1343
3305.23033236824,1349
3306.9021940636603,1389
3308.57380143113,1384
3310.2451547966184,1341
3311.916254486174,1362
3313.5871008259246,1390
3315.2576941420766,1334
3316.9280347609147,1347
3318.5981230088046,1382
3320.2679592121895,1397
3321.9375436975924,1341
3323.606876791612,1322
3325.27595882093,1380
3326.944790112305,1321
3328.6133709925753,1337
3330.2817017886573,1331
3331.949782827547,1382
3333.617614436319,1338
3335.2851969421245,1345
3336.952530672199,1412
3338.619615953853,1396
3340.286453114475,1325
3341.9530424815357,1400
3343.619384382583,1338
3345.2854791452437,1380
3346.951327097224,1353
3348.6169285663073,1339
3350.2822838803577,1370
3351.947393367319,1377
3353.61225735521,1339
3355.2768761721345,1352
3356.9412501462693,1349
3358.605379605873,1397
3360.2692648792827,1361
3361.9329062949146,1356
3363.596304181263,1326
