CollectionTime,7/10/2024 5:01:56 PM
ExposureUsed,3
CalibratedSpectrum
-962.7078968117929,2058
-959.9714848408522,2188
-957.2358232597828,2203
-954.5009119013725,2157
-951.7667505983302,2177
-949.0333391832855,2145
-946.3006774887896,2227
-943.5687653473143,2196
-940.837602591253,2208
-938.1071890529199,2171
-935.3775245645503,2224
-932.6486089583007,2160
-929.9204420662485,2290
-927.1930237203925,2189
-924.4663537526524,2143
-921.7404319948689,2216
-919.0152582788041,2256
-916.2908324361409,2292
-913.5671542984834,2219
-910.8442236973568,2219
-908.1220404642074,2137
-905.4006044304027,2216
-902.679915427231,2243
-899.959973285902,2153
-897.2407778375464,2202
-894.5223289132158,2205
-891.8046263438832,2187
-889.0876699604426,2170
-886.3714595937089,2219
-883.6559950744183,2236
-880.9412762332282,2189
-878.2273029007168,2260
-875.5140749073835,2266
-872.8015920836489,2307
-870.0898542598545,2226
-867.3788612662631,2244
-864.6686129330585,2267
-861.9591090903457,2165
-859.2503495681506,2253
-856.5423341964203,2206
-853.8350628050229,2195
-851.1285352237478,2285
-848.4227512823054,2202
-845.7177108103272,2244
-843.0134136373656,2284
-840.3098595928943,2248
-837.6070485063082,2203
-834.9049802069229,2333
-832.2036545239757,2236
-829.5030712866244,2210
-826.8032303239481,2233
-824.1041314649472,2335
-821.4057745385428,2281
-818.7081593735775,2305
-816.0112857988148,2287
-813.3151536429393,2311
-810.6197627345566,2284
-807.9251129021936,2301
-805.2312039742981,2306
-802.5380357792392,2323
-799.8456081453069,2306
-797.1539209007124,2362
-794.462973873588,2410
-791.772766891987,2339
-789.083299783884,2337
-786.3945723771743,2317
-783.7065844996748,2302
-781.0193359791231,2454
-778.3328266431781,2327
-775.6470563194197,2394
-772.9620248353489,2287
-770.2777320183878,2271
-767.5941776958798,2347
-764.9113616950891,2368
-762.2292838432011,2324
-759.5479439673222,2319
-756.8673418944801,2308
-754.1874774516235,2405
-751.5083504656222,2365
-748.8299607632671,2277
-746.15230817127,2376
-743.475392516264,2357
-740.7992136248035,2417
-738.1237713233636,2339
-735.4490654383407,2291
-732.7750957960521,2420
-730.1018622227365,2448
-727.4293645445534,2400
-724.7576025875837,2333
-722.0865761778291,2390
-719.4162851412126,2347
-716.7467293035781,2377
-714.0779084906909,2429
-711.409822528237,2378
-708.7424712418238,2410
-706.0758544569796,2419
-703.4099719991541,2512
-700.7448236937178,2413
-698.0804093659622,2516
-695.4167288411002,2512
-692.7537819442656,2496
-690.0915685005134,2428
-687.4300883348199,2443
-684.7693412720819,2432
-682.1093271371178,2517
-679.4500457546669,2429
-676.7914969493897,2433
-674.1336805458676,2418
-671.4765963686034,2431
-668.8202442420206,2482
-666.1646239904642,2474
-663.5097354382001,2527
-660.8555784094151,2426
-658.2021527282176,2518
-655.5494582186366,2518
-652.8974947046223,2512
-650.2462620100463,2472
-647.5957599587009,2510
-644.9459883742998,2544
-642.2969470804776,2517
-639.6486359007902,2560
-637.0010546587141,2556
-634.3542031776476,2548
-631.7080812809096,2516
-629.0626887917401,2534
-626.4180255333008,2619
-623.7740913286734,2576
-621.1308860008619,2542
-618.4884093727904,2496
-615.8466612673046,2566
-613.2056415071715,2515
-610.5653499150785,2590
-607.9257863136347,2565
-605.28695052537,2590
-602.6488423727357,2536
-600.0114616781036,2525
-597.3748082637674,2535
-594.7388819519412,2585
-592.1036825647604,2614
-589.4692099242818,2591
-586.8354638524829,2637
-584.2024441712624,2576
-581.5701507024403,2598
-578.9385832677575,2578
-576.3077416888759,2601
-573.6776257873787,2709
-571.0482353847704,2690
-568.4195703024757,2599
-565.7916303618415,2653
-563.164415384135,2609
-560.5379251905453,2532
-557.9121596021815,2677
-555.2871184400748,2585
-552.6628015251767,2588
-550.0392086783606,2537
-547.4163397204204,2570
-544.794194472071,2596
-542.1727727539491,2615
-539.5520743866118,2638
-536.9320991905377,2645
-534.3128469861261,2742
-531.6943175936979,2639
-529.0765108334947,2719
-526.4594265256793,2778
-523.8430644903358,2905
-521.2274245474689,3101
-518.612506517005,3065
-515.9983102187913,3081
-513.3848354725959,3019
-510.77208209810846,3014
-508.16004991493924,3051
-505.5487387426199,3221
-502.9381484006032,3271
-500.3282787082628,3401
-497.71912948489364,3329
-495.1107005497117,3381
-492.5029917218539,3199
-489.8960028203786,3063
-487.28973366426493,2997
-484.68418407241325,2878
-482.07935386364494,2932
-479.47524285670266,2820
-476.87185087025,2797
-474.2691777228715,2890
-471.66722323307334,2856
-469.0659872192821,2804
-466.4654694998459,2877
-463.86566989303384,2915
-461.26658821703614,2781
-458.66822428996414,2881
-456.07057792985,2863
-453.4736489546475,2947
-450.877437182231,2854
-448.28194243039627,2859
-445.68716451686,2855
-443.09310325926003,2793
-440.49975847515555,2761
-437.9071299820263,2739
-435.31521759727354,2781
-432.72402113821954,2730
-430.13354042210767,2750
-427.5437752661022,2800
-424.95472548728867,2852
-422.36639090267386,2831
-419.7787713291855,2892
-417.1918665836721,2765
-414.60567648290385,2898
-412.0202008435715,2838
-409.4354394822874,2831
-406.8513922155845,2858
-404.26805885991723,2860
-401.685439231661,2946
-399.103533147112,2910
-396.522340422488,2833
-393.9418608739278,2838
-391.3620943174908,2816
-388.7830405691583,2750
-386.2046994448317,2622
-383.6270707603344,2557
-381.05015433141045,2351
-378.473949973725,2276
-375.8984575028645,2021
-373.32367673433623,1823
-370.74960748356875,1592
-368.1762495659117,1371
-365.60360279663576,1232
-363.03166699093265,1043
-360.4604419639154,889
-357.8899275306178,738
-355.32012350599507,632
-352.7510297049233,597
-350.1826459421999,542
-347.61497203254316,518
-345.04800779059235,532
-342.4817530309082,512
-339.91620756797226,526
-337.35137121618743,501
-334.7872437898774,507
-332.22382510328725,512
-329.66111497058273,536
-327.09911320585127,516
-324.53781962310075,515
-321.9772340362607,513
-319.4173562591816,506
-316.8581861056348,470
-314.2997233893127,496
-311.7419679238294,527
-309.1849195227194,479
-306.62857799943856,515
-304.0729431673641,555
-301.51801483979375,577
-298.963792829947,577
-296.41027695096386,545
-293.85746701590574,597
-291.3053628377552,583
-288.7539642294155,605
-286.2032710037115,582
-283.65328297338897,566
-281.1039999511146,586
-278.5554217494762,615
-276.007548180983,677
-273.4603790580651,663
-270.9139141930734,689
-268.3681533982807,686
-265.8230964858798,689
-263.27874326798565,696
-260.7350935566336,720
-258.1921471637804,681
-255.6499039013039,677
-253.10836358100266,625
-250.56752601459698,632
-248.02739101372765,584
-245.48795838995704,670
-242.94922795476816,727
-240.41119951956557,696
-237.8738728956746,668
-235.33724789434166,712
-232.80132432673452,736
-230.2661020039418,636
-227.73158073697357,633
-225.19776033676033,631
-222.66464061415422,754
-220.1322213799284,743
-217.60050244477725,734
-215.06948361931552,709
-212.53916471408013,710
-210.00954553952818,725
-207.48062590603843,761
-204.9524056239104,776
-202.4248845033651,792
-199.8980623545441,805
-197.37193898751036,794
-194.84651421224817,793
-192.32178783866232,752
-189.79775967657952,820
-187.27442953574644,848
-184.7517972258321,833
-182.2298625564256,813
-179.7086253370378,785
-177.18808537710026,717
-174.66824248596583,734
-172.14909647290835,822
-169.6306471471229,888
-167.11289431772548,905
-164.59583779375328,943
-162.07947738416453,897
-159.5638128978386,925
-157.04884414357605,930
-154.53457093009854,998
-152.02099306604828,969
-149.50811035998936,983
-146.99592262040665,1017
-144.48442965570587,1061
-141.97363127421409,1067
-139.46352728417958,1247
-136.95411749377126,1310
-134.44540171107985,1143
-131.93737974411636,1035
-129.43005140081357,981
-126.92341648902493,1112
-124.41747481652521,1610
-121.91222619101006,2247
-119.40767042009657,2855
-116.90380731132257,2875
-114.40063667214702,2771
-111.8981583099503,2864
-109.3963720320337,2809
-106.89527764561933,2862
-104.39487495785067,3278
-101.89516377579241,3322
-99.39614390642998,3279
-96.89781515667039,3077
-94.40017733334128,2667
-91.90323024319173,4041
-89.40697369289148,7338
-86.91140748903172,10618
-84.41653143812482,11347
-81.92234534660395,10299
-79.42884902082358,6163
-76.93604226705907,4488
-74.4439248915071,7099
-71.95249670028534,13264
-69.46175749943245,18010
-66.97170709490854,20771
-64.48234529259423,19647
-61.99367189829195,16029
-59.50568671772464,10615
-57.01838955653636,7437
-54.53178022029283,7227
-52.045858514480074,7002
-49.560624244506016,7626
-47.07607721569923,9439
-44.59221723330904,10034
-42.10904410250669,9968
-39.62655762838392,11155
-37.14475761595372,11819
-34.66364387015028,12537
-32.18321619582866,11649
-29.70347439776515,11421
-27.224418280657005,11273
-24.74604764912317,10914
-22.26836230770266,14723
-19.7913620608565,26852
-17.315046712966478,49048
-14.83941606833514,64785
-12.36446993118659,65038
-9.89020810566592,65038
-7.416630395839093,65038
-4.94373660569363,65038
-2.471526539137585,65038
-6.821210263296962E-13,65038
2.47084320796705,65038
4.941003281093458,65038
7.410480415786196,65038
9.879274808531363,65038
12.347386655893956,65038
14.814816154518212,65038
17.28156350112681,65038
19.74762889252179,65038
22.21301252558385,65038
24.67771459727237,20991
27.141735304626195,4592
29.605074844762612,3348
32.06773341487792,2892
34.52971121224755,2982
36.99100843422559,2979
39.45162527824516,2622
41.91156194181792,2290
44.370818622535126,1957
46.82939551806646,1418
49.287292826160524,1587
51.74451074464503,1787
54.201049471426245,2504
56.65690920448981,2534
59.112090141899785,1956
61.56659248179983,1455
64.02041642241159,1221
66.4735621620365,1055
68.92602989905402,1186
71.37781983192338,1308
73.82893215918205,1727
76.27936707944684,1814
78.72912479141326,1602
81.17820549385567,1318
83.62660938562783,1242
86.07433666566146,1290
88.5213875329681,1102
90.96776218663751,1064
93.41346082583925,1107
95.85848364982041,1189
98.30283085790859,1460
100.7465026495089,1420
103.18949922410604,1374
105.63182078126385,1252
108.07346752062438,1335
110.51443964190923,1288
112.95473734491827,1198
115.39436082953114,1051
117.83331029570547,1120
120.27158594347827,1336
122.7091879729652,1452
125.1461165843615,1489
127.58237197794062,1496
130.01795435405518,1248
132.4528639131364,1112
134.88710085569494,1116
137.32066538231982,1101
139.75355769367923,1137
142.1857779905207,1108
144.61732647366978,1039
147.04820334403132,989
149.47840880258934,989
151.90794305040674,1144
154.33680628862487,1427
156.76499871846443,1632
159.19252054122433,1832
161.61937195828352,1926
164.04555317109896,2058
166.47106438120693,2398
168.89590579022217,2665
171.320077599839,2992
173.7435800118302,3072
176.16641322804742,3312
178.58857745042144,3605
181.01007288096173,3728
183.43089972175687,3801
185.85105817497413,3838
188.27054844285988,3925
190.6893707277394,4233
193.10752523201643,4532
195.5250121581745,4514
197.9418317087751,4663
200.3579840864594,4583
202.7734694939469,4473
205.18828813403627,4724
207.6024402096051,4809
210.01592592360964,4887
212.42874547908548,4947
214.84089907914665,4741
217.2523869269868,4698
219.66320922587727,4732
222.0733661791695,4777
224.48285799029293,4839
226.8916848627572,4737
229.29984700014882,4903
231.7073446061355,4929
234.11417788446204,4793
236.520347038953,4835
238.92585227351185,4818
241.33069379212054,4960
243.73487179884035,4961
246.1383864978112,4993
248.541238093252,4919
250.9434267894609,5022
253.34495279081432,5010
255.74581630176783,4860
258.1460175268563,4959
260.54555667069314,4941
262.9444339379703,4874
265.3426495334594,4863
267.7402036620107,4747
270.1370965285529,4800
272.53332833809407,4703
274.9288992957214,4724
277.32380960660055,4553
279.718059475976,4603
282.1116491091717,4584
284.5045787115897,4456
286.89684848871195,4608
289.2884586460981,4697
291.67940938938807,4567
294.0697009242996,4659
296.4593334566299,4722
298.84830719225477,4531
301.23662233712923,4569
303.6242790972866,4634
306.01127767884,4603
308.39761828798066,4422
310.78330113097934,4599
313.16832641418534,4591
315.5526943440269,4454
317.9364051270112,4371
320.3194589697242,4458
322.70185607883093,4442
325.0835966610754,4398
327.4646809232805,4414
329.8451090723478,4278
332.2248813152577,4098
334.6039978590701,4426
336.9824589109231,4309
339.36026467803447,4263
341.7374153677,4230
344.113911187295,4325
346.48975234427337,4198
348.8649390461686,4088
351.2394715005918,4282
353.61334991523415,4355
355.9865744978655,4288
358.35914545633375,4284
360.73106299856715,4110
363.10232733257146,4223
365.47293866643247,4184
367.84289720831396,4211
370.2122031664593,4231
372.5808567491905,4241
374.9488581649083,4207
377.31620762209275,4142
379.6829053293021,4030
382.0489514951745,4111
384.4143463284262,4135
386.7790900378528,4133
389.14318283232853,4153
391.50662492080653,4097
393.86941651231916,4071
396.23155781597745,4037
398.5930490409713,4110
400.9538903965696,4128
403.3140820921202,4126
405.6736243370498,4122
408.03251734086336,4157
410.3907613131465,4193
412.74835646356166,4071
415.10530300185144,4061
417.4616011378372,4043
419.81725108141893,3960
422.1722530425758,4024
424.5266072313656,4063
426.880313857925,4125
429.2333731324701,4128
431.58578526529516,4141
433.9375504667738,4081
436.2886689473588,4106
438.63914091758113,4081
440.9889665880513,4061
443.33814616945835,3996
445.68667987257015,3903
448.03456790823395,4008
450.3818104873759,3985
452.72840782100013,3874
455.07436012019105,3946
457.41966759611057,3991
459.7643304600007,4076
462.10834892318155,4119
464.4517231970525,3990
466.79445349309174,4065
469.1365400228566,3961
471.4779829979826,4011
473.81878263018564,4010
476.15893913125876,4070
478.4984527130747,4112
480.8373235875855,3993
483.17555196682144,4190
485.5131380628919,4168
487.8500820879857,4278
490.1863842543697,4366
492.52204477439034,4445
494.8570638604725,4670
497.1914417251204,4912
499.52517858091653,5137
501.85827464052306,5205
504.19073011668036,5354
506.5225452222086,5346
508.85372017000566,5313
511.18425517304956,5159
513.514150444396,5352
515.8434061971808,6201
518.1720226446176,6915
520.4999999999999,7434
522.8273384766991,7055
525.1540382881666,6662
527.480099647932,6265
529.8055227696037,5633
532.1303078668694,4901
534.454455153496,4483
536.777964843328,4124
539.1008371502907,4301
541.4230722883866,4262
543.744670471698,4077
546.0656319143858,4163
548.3859568306899,4123
550.7056454349294,4122
553.0246979415016,4037
555.3431145648834,3998
557.6608955196306,4032
559.978041020377,3988
562.2945512818363,4039
564.6104265188006,4115
566.9256669461412,4127
569.2402727788082,4127
571.5542442318302,4106
573.8675815203156,4153
576.1802848594508,4184
578.4923544645015,4172
580.8037905508126,4109
583.114593333807,4118
585.4247630289875,4133
587.7342998519354,4054
590.0432040183106,4102
592.3514757438526,4167
594.6591152443794,4168
596.9661227357875,4132
599.2724984340531,4048
601.578242555231,4158
603.8833553154542,4109
606.1878369309362,4073
608.4916876179676,4132
610.7949075929192,3976
613.0974970722403,4094
615.3994562724587,4069
617.7007854101818,4127
620.0014847020951,4094
622.3015543649641,4124
624.6009946156324,4143
626.8998056710224,4059
629.1979877481361,4134
631.4955410640538,4121
633.7924658359349,4161
636.0887622810175,4064
638.3844306166192,4242
640.6794710601358,4103
642.9738838290426,4063
645.2676691408932,4094
647.5608272133207,4166
649.853358264037,4205
652.1452625108324,4161
654.4365401715764,4129
656.7271914642178,4215
659.0172166067838,4110
661.3066158173809,4255
663.5953893141935,4131
665.8835373154867,4184
668.1710600396028,4130
670.4579577049639,4212
672.7442305300709,4154
675.0298787335033,4287
677.3149025339197,4162
679.599302150058,4300
681.8830778007342,4079
684.1662297048437,4258
686.4487580813608,4273
688.7306631493387,4222
691.0119451279091,4210
693.2926042362834,4146
695.5726406937516,4216
697.8520547196814,4158
700.1308465335215,4207
702.4090163547982,4260
704.6865644031171,4226
706.9634908981619,4242
709.2397960596965,4148
711.5154801075631,4218
713.7905432616823,4283
716.0649857420548,4262
718.3388077687592,4110
720.612009561953,4217
722.8845913418733,4184
725.1565533288352,4243
727.427895743234,4286
729.6986188055427,4150
731.9687227363137,4132
734.238207756178,4298
736.5070740858458,4119
738.7753219461066,4240
741.0429515578281,4331
743.3099631419569,4222
745.5763569195191,4106
747.8421331116193,4204
750.1072919394409,4103
752.3718336242467,4188
754.6357583873777,4294
756.8990664502545,4226
759.1617580343765,4125
761.423833361321,4224
763.6852926527457,4209
765.9461361303862,4155
768.206364016058,4212
770.4659765316536,4212
772.7249738991469,4284
774.9833563405886,4271
777.2411240781092,4128
779.4982773339183,4232
781.7548163303044,4328
784.010741289634,4339
786.2660524343538,4337
788.5207499869881,4258
790.7748341701416,4369
793.0283052064964,4329
795.2811633188143,4287
797.5334087299362,4203
799.7850416627813,4179
802.0360623403484,4286
804.2864709857143,4415
806.5362678220353,4365
808.7854530725468,4289
811.0340269605625,4306
813.2819897094754,4231
815.5293415427581,4302
817.77608268396,4372
820.0222133567116,4316
822.2677337847211,4481
824.5126441917765,4384
826.7569448017433,4329
829.0006358385675,4407
831.2437175262731,4293
833.4861900889629,4377
835.7280537508192,4216
837.9693087361026,4217
840.2099552691533,4419
842.4499935743896,4270
844.689423876309,4371
846.9282463994886,4235
849.1664613685833,4350
851.4040690083276,4322
853.6410695435349,4380
855.877463199097,4328
858.1132501999847,4294
860.3484307712487,4446
862.5830051380175,4453
864.8169735254988,4353
867.0503361589791,4255
869.2830932638243,4306
871.5152450654786,4319
873.7467917894654,4389
875.9777336613873,4418
878.2080709069252,4447
880.4378037518389,4320
882.666932421968,4427
884.8954571432301,4375
887.1233781416219,4306
889.3506956432192,4405
891.5774098741766,4489
893.803521060728,4545
896.0290294291852,4521
898.2539352059397,4430
900.4782386174619,4475
902.7019398903011,4410
904.925039251085,4503
907.147536926521,4334
909.3694331433943,4361
911.59072812857,4262
913.8114221089921,4344
916.0315153116827,4308
918.2510079637437,4272
920.4699002923547,4356
922.6881925247761,4380
924.905884888345,4320
927.1229776104793,4418
929.3394709186747,4258
931.555365040506,4401
933.7706602036275,4364
935.9853566357709,4246
938.1994545647489,4265
940.4129542184515,4348
942.6258558248488,4389
944.8381596119883,4319
947.0498658079974,4408
949.2609746410825,4391
951.4714863395287,4342
953.6814011316998,4329
955.8907192460387,4256
958.0994409110671,4249
960.3075663553858,4292
962.5150958076741,4274
964.7220294966913,4385
966.928367651274,4255
969.1341105003388,4312
971.3392582728806,4363
973.5438111979742,4296
975.747769504772,4185
977.9511334225061,4460
980.153903180487,4315
982.3560790081052,4274
984.5576611348289,4408
986.7586497902058,4278
988.9590452038618,4298
991.158847605503,4153
993.3580572249133,4211
995.5566742919558,4211
997.7546990365728,4278
999.952131688785,4194
1002.1489724786926,4176
1004.3452216364743,4171
1006.5408793923874,4035
1008.7359459767691,4123
1010.9304216200343,4034
1013.1243065526781,4063
1015.3176010052733,4103
1017.510305208472,4021
1019.7024193930064,3932
1021.8939437896848,3981
1024.0848786293977,3970
1026.2752241431122,4042
1028.4649805618747,4026
1030.6541481168115,4105
1032.842727039127,4055
1035.0307175601051,3999
1037.2181199111074,3988
1039.4049343235752,4018
1041.591161029029,4013
1043.7768002590683,4057
1045.9618522453698,4023
1048.1463172196918,4036
1050.3301954138697,3977
1052.513487059818,4030
1054.69619238953,4145
1056.8783116350783,4065
1059.0598450286152,4086
1061.2407928023704,4085
1063.4211551886528,4082
1065.6009324198508,4030
1067.780124728432,3985
1069.9587323469414,4135
1072.1367555080046,4009
1074.314194444325,4073
1076.4910493886855,4038
1078.667320573947,4116
1080.843008233051,4068
1083.0181125990161,4056
1085.1926339049414,3927
1087.3665723840027,3961
1089.5399282694575,3933
1091.7127017946405,3876
1093.8848931929647,3949
1096.0565026979243,3894
1098.2275305430899,4044
1100.3979769621128,3876
1102.567842188722,3955
1104.737126456726,4001
1106.9058300000124,4072
1109.0739530525475,3887
1111.2414958483764,3987
1113.4084586216231,3904
1115.5748416064907,3991
1117.7406450372605,3980
1119.9058691482942,3963
1122.0705141740304,4034
1124.2345803489884,4008
1126.3980679077658,4050
1128.5609770850388,4050
1130.7233081155623,3999
1132.8850612341707,4020
1135.0462366757774,4062
1137.2068346753745,3836
1139.3668554680326,4019
1141.526299288901,3903
1143.68516637321,4087
1145.8434569562655,4045
1148.001171273455,3984
1150.158309560244,3942
1152.3148720521767,3958
1154.470858984876,3981
1156.626270594044,3882
1158.7811071154629,3984
1160.9353687849912,4098
1163.089055838569,4080
1165.242168512213,3978
1167.3947070420209,4027
1169.5466716641677,3927
1171.6980626149075,3987
1173.8488801305748,3997
1175.9991244475814,3922
1178.1487958024186,4009
1180.2978944316555,3964
1182.4464205719428,4018
1184.5943744600072,4076
1186.7417563326567,4024
1188.8885664267755,3945
1191.0348049793297,3927
1193.1804722273619,3979
1195.325568407995,3942
1197.4700937584303,3985
1199.614048515948,3961
1201.7574329179074,4033
1203.900247201746,4132
1206.042491604982,4057
1208.1841663652099,4092
1210.3252717201053,3959
1212.465807907422,4085
1214.6057751649923,4010
1216.7451737307279,4083
1218.8840038426192,4030
1221.0222657387353,4049
1223.1599596572241,3987
1225.2970858363137,4080
1227.4336445143094,4159
1229.5696359295966,4101
1231.705060320639,4117
1233.8399179259786,4135
1235.9742089842384,4085
1238.107933734118,4082
1240.2410924143974,4110
1242.373685263935,4213
1244.5057125216676,4027
1246.6371744266116,4066
1248.7680712178621,4211
1250.898403134593,4180
1253.028170416058,4087
1255.1573733015875,4166
1257.2860120305932,4052
1259.4140868425648,4062
1261.54159797707,4173
1263.6685456737569,4175
1265.7949301723515,4069
1267.9207517126597,4164
1270.046010534565,4206
1272.1707068780306,4179
1274.2948409830983,4265
1276.4184130898889,4101
1278.541423438603,4230
1280.6638722695184,4297
1282.785759822993,4209
1284.9070863394636,4229
1287.0278520594447,4357
1289.1480572235314,4297
1291.2677020723963,4245
1293.3867868467923,4266
1295.5053117875495,4434
1297.623277135579,4395
1299.740683131868,4206
1301.8575300174857,4312
1303.973818033578,4328
1306.0895474213703,4367
1308.2047184221678,4512
1310.3193312773528,4241
1312.4333862283888,4251
1314.5468835168163,4380
1316.659823384255,4325
1318.7722060724045,4306
1320.8840318230418,4495
1322.9953008780249,4380
1325.1060134792888,4469
1327.2161698688478,4358
1329.3257702887959,4304
1331.4348149813054,4287
1333.5433041886276,4334
1335.6512381530933,4425
1337.7586171171101,4323
1339.8654413231675,4350
1341.9717110138317,4287
1344.0774264317488,4443
1346.1825878196432,4222
1348.2871954203192,4299
1350.3912494766587,4321
1352.4947502316231,4312
1354.5976979282532,4380
1356.7000928096686,4355
1358.8019351190665,4377
1360.9032250997243,4360
1363.0039629949988,4363
1365.1041490483235,4437
1367.2037835032133,4449
1369.3028666032606,4321
1371.401398592137,4413
1373.4993797135926,4351
1375.5968102114575,4288
1377.6936903296396,4384
1379.7900203121262,4337
1381.8858004029835,4464
1383.9810308463561,4413
1386.075711886469,4418
1388.1698437676241,4414
1390.2634267342032,4324
1392.356461030667,4419
1394.4489469015557,4429
1396.5408845914872,4482
1398.6322743451592,4354
1400.7231164073469,4533
1402.813411022907,4399
1404.903158436773,4392
1406.9923588939578,4401
1409.0810126395531,4413
1411.1691199187303,4418
1413.2566809767386,4535
1415.343696058907,4383
1417.4301654106425,4538
1419.5160892774315,4461
1421.6014679048399,4488
1423.6863015385125,4483
1425.7705904241707,4475
1427.8543348076178,4663
1429.9375349347342,4582
1432.0201910514802,4547
1434.102303403894,4417
1436.1838722380944,4518
1438.2648978002767,4571
1440.3453803367174,4495
1442.4253200937692,4595
1444.5047173178677,4554
1446.5835722555234,4613
1448.6618851533285,4706
1450.739656257952,4648
1452.8168858161434,4678
1454.8935740747306,4643
1456.96972128062,4886
1459.045327680797,4727
1461.120393522327,4752
1463.1949190523528,4869
1465.2689045180973,4800
1467.3423501668608,4942
1469.415256246024,4954
1471.4876230030463,4967
1473.559450685465,4997
1475.6307395408976,5058
1477.7014898170391,5022
1479.771701761665,5052
1481.8413756226287,5190
1483.9105116478618,5127
1485.9791100853772,5187
1488.0471711832643,5155
1490.1146951896926,5265
1492.1816823529098,5331
1494.2481329212433,5275
1496.3140471430984,5301
1498.3794252669609,5233
1500.4442675413939,5525
1502.5085742150404,5354
1504.572345536622,5382
1506.6355817549388,5459
1508.6982831188702,5450
1510.7604498773744,5416
1512.8220822794883,5495
1514.8831805743293,5587
1516.9437450110909,5666
1519.003775839048,5584
1521.0632733075522,5662
1523.1222376660367,5567
1525.1806691640113,5729
1527.2385680510652,5798
1529.2959345768668,5775
1531.3527689911643,5731
1533.4090715437833,5938
1535.4648424846291,5927
1537.5200820636855,5966
1539.5747905310159,5968
1541.6289681367616,6129
1543.6826151311434,6005
1545.7357317644614,6165
1547.7883182870937,6259
1549.8403749494987,6111
1551.8919020022113,6105
1553.9428996958477,6308
1555.9933682811015,6290
1558.0433080087469,6378
1560.0927191296346,6440
1562.1416018946961,6504
1564.1899565549415,6389
1566.2377833614592,6327
1568.2850825654164,6325
1570.3318544180606,6234
1572.3780991707158,6219
1574.423817074788,6088
1576.4690083817595,5951
1578.5136733431923,5858
1580.5578122107272,5785
1582.601425236085,5701
1584.6445126710646,5495
1586.6870747675434,5562
1588.7291117774776,5348
1590.7706239529034,5272
1592.8116115459347,5267
1594.8520748087658,5174
1596.8920139936686,5114
1598.9314293529933,5145
1600.9703211391711,5003
1603.008689604711,4874
1605.0465350022005,4933
1607.0838575843068,4943
1609.1206576037753,4876
1611.1569353134305,4785
1613.1926909661765,4772
1615.2279248149953,4861
1617.2626371129481,4845
1619.2968281131757,4689
1621.3304980688963,4711
1623.3636472334088,4678
1625.39627586009,4626
1627.428384202396,4715
1629.459972513861,4781
1631.4910410480993,4634
1633.5215900588028,4639
1635.551619799744,4673
1637.5811305247717,4635
1639.6101224878166,4591
1641.6385959428862,4607
1643.6665511440683,4559
1645.693988345528,4637
1647.7209078015112,4564
1649.7473097663405,4539
1651.7731944944203,4695
1653.7985622402307,4570
1655.823413258333,4561
1657.847747803366,4485
1659.8715661300494,4488
1661.8948684931793,4616
1663.9176551476316,4562
1665.9399263483624,4614
1667.9616823504057,4499
1669.982923408873,4539
1672.0036497789574,4570
1674.0238617159293,4575
1676.043559475138,4501
1678.0627433120121,4543
1680.081413482059,4592
1682.0995702408654,4643
1684.117213844096,4536
1686.134344547495,4478
1688.1509626068864,4516
1690.1670682781705,4544
1692.182661817329,4723
1694.1977434804217,4596
1696.2123135235875,4608
1698.226372203043,4542
1700.2399197750851,4595
1702.2529564960905,4548
1704.2654826225112,4468
1706.277498410882,4586
1708.2890041178139,4542
1710.2999999999988,4568
1712.3104863142066,4411
1714.3204633172854,4549
1716.329931266163,4515
1718.3388904178469,4540
1720.3473410294214,4507
1722.3552833580516,4578
1724.3627176609807,4444
1726.3696441955308,4621
1728.3760632191033,4457
1730.3819749891782,4677
1732.3873797633146,4529
1734.3922777991502,4473
1736.3966693544012,4476
1738.4005546868639,4542
1740.4039340544127,4486
1742.406807715001,4492
1744.4091759266616,4534
1746.4110389475054,4589
1748.4123970357223,4529
1750.413250449582,4458
1752.4135994474318,4579
1754.4134442876993,4501
1756.4127852288902,4571
1758.4116225295893,4545
1760.4099564484595,4615
1762.407787244244,4491
1764.405115175764,4552
1766.4019405019203,4440
1768.3982634816916,4467
1770.3940843741357,4539
1772.3894034383907,4425
1774.3842209336717,4510
1776.378537119274,4573
1778.372352254571,4478
1780.3656665990156,4479
1782.3584804121397,4599
1784.3507939535534,4506
1786.3426074829463,4573
1788.3339212600863,4472
1790.3247355448211,4504
1792.3150505970766,4501
1794.3048666768573,4451
1796.2941840442477,4440
1798.2830029594106,4510
1800.2713236825884,4496
1802.2591464741004,4658
1804.2464715943465,4556
1806.2332993038058,4535
1808.2196298630352,4476
1810.2054635326708,4472
1812.190800573428,4494
1814.175641246101,4575
1816.1599858115628,4548
1818.1438345307652,4643
1820.127187664738,4623
1822.1100454745924,4575
1824.092408221516,4627
1826.0742761667766,4655
1828.055649571721,4575
1830.0365286977735,4603
1832.0169138064398,4540
1833.9968051593014,4573
1835.9762030180214,4469
1837.9551076443408,4607
1839.9335193000788,4638
1841.9114382471344,4589
1843.888864747485,4499
1845.8657990631878,4536
1847.842241456378,4579
1849.8181921892697,4514
1851.7936515241558,4510
1853.7686197234098,4447
1855.7430970494815,4424
1857.7170837649014,4414
1859.6905801322787,4578
1861.6635864143004,4590
1863.6361028737338,4565
1865.608129773424,4583
1867.5796673762961,4610
1869.5507159453537,4538
1871.521275743678,4543
1873.4913470344313,4609
1875.4609300808534,4597
1877.4300251462632,4542
1879.3986324940588,4651
1881.366752387717,4724
1883.3343850907936,4617
1885.3015308669228,4553
1887.268189979819,4604
1889.2343626932739,4583
1891.2000492711595,4597
1893.1652499774254,4591
1895.1299650761011,4686
1897.0941948312952,4634
1899.0579395071945,4615
1901.0211993680641,4718
1902.98397467825,4580
1904.9462657021745,4543
1906.9080727043415,4579
1908.869395949332,4526
1910.8302357018065,4686
1912.790592226504,4557
1914.7504657882428,4656
1916.7098566519212,4605
1918.6687650825133,4698
1920.6271913450764,4734
1922.5851357047422,4634
1924.5425984267245,4647
1926.499579776314,4596
1928.4560800188833,4594
1930.4120994198802,4602
1932.367638244833,4711
1934.32269675935,4512
1936.2772752291175,4601
1938.231373919899,4569
1940.1849930975404,4664
1942.1381330279637,4622
1944.0907939771696,4600
1946.0429762112412,4664
1947.9946799963363,4668
1949.9459055986945,4649
1951.896653284633,4616
1953.8469233205478,4578
1955.7967159729142,4616
1957.7460315082863,4634
1959.6948701932974,4668
1961.6432322946594,4587
1963.5911180791632,4668
1965.5385278136787,4592
1967.4854617651545,4584
1969.4319202006182,4567
1971.377903387176,4732
1973.3234115920136,4854
1975.268445082395,4718
1977.2130041256642,4658
1979.1570889892423,4631
1981.1006999406304,4663
1983.04383724741,4694
1984.986501177238,4655
1986.928691997853,4691
1988.8704099770712,4664
1990.811655382789,4561
1992.7524284829801,4597
1994.692729545698,4685
1996.6325588390755,4703
1998.5719166313224,4599
2000.5108031907307,4596
2002.4492187856677,4524
2004.387163684583,4687
2006.3246381560011,4606
2008.2616424685298,4582
2010.1981768908527,4557
2012.1342416917332,4587
2014.069837140014,4536
2016.0049635046162,4561
2017.9396210545406,4534
2019.8738100588666,4575
2021.8075307867502,4689
2023.740783507431,4550
2025.6735684902228,4597
2027.6058860045214,4603
2029.5377363198004,4595
2031.4691197056118,4612
2033.4000364315875,4625
2035.3304867674374,4679
2037.260470982952,4565
2039.189989347998,4608
2041.1190421325232,4621
2043.047629606554,4553
2044.9757520401945,4645
2046.9034097036288,4502
2048.8306028671195,4619
2050.7573318010086,4581
2052.683596775716,4736
2054.609398061742,4697
2056.5347359296647,4664
2058.4596106501403,4590
2060.384022493906,4540
2062.3079717317764,4646
2064.231458634646,4654
2066.1544834734873,4637
2068.077046519352,4670
2069.99914804337,4696
2071.9207883167524,4619
2073.8419676107865,4732
2075.7626861968406,4689
2077.6829443463607,4575
2079.6027423308715,4708
2081.522080421977,4676
2083.440958891362,4699
2085.359378010786,4667
2087.2773380520907,4774
2089.194839287196,4710
2091.111881988101,4677
2093.0284664268825,4753
2094.9445928756973,4711
2096.86026160678,4727
2098.775472892446,4658
2100.690227005088,4760
2102.604524217178,4693
2104.5183648012676,4668
2106.431749029985,4727
2108.34467717604,4688
2110.2571495122206,4670
2112.169166311393,4703
2114.080727846503,4743
2115.9918343905747,4670
2117.902486216711,4723
2119.8126835980956,4770
2121.722426807987,4608
2123.6317161197285,4844
2125.5405518067364,4712
2127.448934142509,4712
2129.356863400624,4751
2131.264339854737,4786
2133.1713637785815,4806
2135.077935445972,4745
2136.9840551308002,4755
2138.889723107037,4783
2140.7949396487334,4762
2142.699705030018,4849
2144.6040195250994,4709
2146.507883408264,4701
2148.4112969538774,4798
2150.3142604363848,4791
2152.2167741303097,4816
2154.1188383102535,4757
2156.0204532508997,4708
2157.9216192270064,4813
2159.822336513414,4796
2161.7226053850413,4781
2163.622426116884,4765
2165.5217989840185,4912
2167.4207242616,4805
2169.319202224862,4914
2171.2172331491165,4843
2173.1148173097563,4757
2175.0119549822507,4736
2176.90864644215,4812
2178.8048919650823,4824
2180.7006918267534,4853
2182.596046302952,4839
2184.4909556695407,4807
2186.3854202024645,4894
2188.279440177746,4829
2190.173015871487,4770
2192.066147559868,4906
2193.958835519149,4815
2195.851080025667,4720
2197.7428813558417,4824
2199.6342397861667,4764
2201.5251555932186,4864
2203.415629053651,4842
2205.3056604441986,4844
2207.19525004167,4790
2209.084398122958,4859
2210.9731049650327,4803
2212.861370844941,4774
2214.749196039812,4835
2216.636580826851,4870
2218.523525483344,4833
2220.410030286655,4884
2222.296095514226,4802
2224.1817214435805,4837
2226.066908352319,4831
2227.951656518121,4903
2229.835966218746,4908
2231.71983773203,4768
2233.6032713358913,4919
2235.486267308324,4838
2237.3688259274036,4865
2239.2509474712824,4834
2241.132632218193,4757
2243.013880446447,4911
2244.8946924344323,4804
2246.7750684606203,4866
2248.6550088035574,4837
2250.534513741871,4818
2252.413583554265,4785
2254.292218519526,4818
2256.170418916517,4735
2258.0481850241786,4822
2259.925517121534,4678
2261.8024154876825,4833
2263.678880401803,4837
2265.5549121431536,4830
2267.430510991071,4863
2269.305677224971,4796
2271.180411124348,4800
2273.0547129687766,4808
2274.9285830379076,4706
2276.8020216114737,4729
2278.6750289692845,4940
2280.5476053912294,4899
2282.4197511572766,4781
2284.2914665474727,4804
2286.162751841943,4667
2288.0336073208937,4778
2289.904033264608,4860
2291.774029953448,4965
2293.6435976678554,4795
2295.5127366883517,4926
2297.381447295534,4950
2299.2497297700825,4787
2301.1175843927526,4761
2302.9850114443825,4676
2304.852011205885,4626
2306.7185839582553,4564
2308.5847299825664,4596
2310.4504495599676,4582
2312.3157429716925,4689
2314.1806104990483,4547
2316.0450524234247,4674
2317.9090690262888,4597
2319.772660589186,4565
2321.635827393742,4580
2323.498569721661,4661
2325.3608878547248,4555
2327.2227820747967,4510
2329.0842526638157,4552
2330.945299903803,4539
2332.805924076857,4804
2334.6661254651535,4647
2336.525904350951,4576
2338.3852610165827,4660
2340.244195744464,4588
2342.102708817088,4639
2343.9608005170253,4605
2345.8184711269287,4604
2347.675720929526,4597
2349.532550207628,4586
2351.38895924412,4707
2353.24494832197,4539
2355.100517724223,4639
2356.955667734004,4689
2358.810398634514,4522
2360.664710709037,4625
2362.5186042409337,4611
2364.3720795136437,4610
2366.225136810686,4658
2368.0777764156583,4571
2369.929998612237,4587
2371.7818036841777,4690
2373.633191915315,4533
2375.484163589562,4630
2377.3347189909114,4608
2379.184858403434,4665
2381.03458211128,4586
2382.8838903986775,4688
2384.732783549936,4679
2386.5812618494406,4467
2388.4293255816588,4673
2390.2769750311327,4714
2392.1242104824883,4676
2393.971032220427,4670
2395.8174405297295,4610
2397.6634356952563,4599
2399.509018001947,4573
2401.3541877348193,4639
2403.1989451789705,4617
2405.043290619576,4541
2406.8872243418905,4542
2408.730746631247,4596
2410.5738577730594,4667
2412.4165580528183,4624
2414.258847756095,4529
2416.100727168537,4653
2417.9421965758734,4652
2419.783256263912,4698
2421.623906518538,4629
2423.4641476257157,4642
2425.303979871491,4651
2427.143403541984,4707
2428.9824189233977,4660
2430.821026302012,4682
2432.6592259641866,4618
2434.497018196361,4575
2436.33440328505,4737
2438.171381516851,4617
2440.00795317844,4550
2441.844118556569,4641
2443.6798779380724,4578
2445.5152316098606,4659
2447.3501798589255,4698
2449.1847229723357,4565
2451.0188612372403,4704
2452.8525949408663,4626
2454.6859243705203,4624
2456.518849813587,4630
2458.3513715575314,4518
2460.183489889895,4669
2462.015205098301,4749
2463.8465174704493,4551
2465.67742729412,4565
2467.5079348571717,4680
2469.338040447542,4562
2471.1677443532476,4505
2472.9970468623833,4574
2474.825948263123,4688
2476.6544488437207,4687
2478.482548892508,4757
2480.310248697896,4567
2482.137548548374,4661
2483.9644487325118,4639
2485.790949538956,4599
2487.617051256433,4605
2489.44275417375,4558
2491.26805857979,4624
2493.0929647635157,4605
2494.917473013971,4744
2496.741583620276,4754
2498.5652968716304,4648
2500.3886130573137,4645
2502.2115324666834,4732
2504.0340553891765,4667
2505.856182114308,4734
2507.6779129316733,4663
2509.499248130945,4730
2511.3201880018764,4512
2513.140732834298,4682
2514.9608829181198,4697
2516.780638543331,4516
2518.6,4662
2520.418967578273,4770
2522.237541568376,4575
2524.0557222606144,4718
2525.8735099453706,4640
2527.6909049131086,4735
2529.507907454368,4699
2531.32451785977,4703
2533.140736420014,4698
2534.9565634258774,4640
2536.771999168218,4691
2538.5870439379714,4759
2540.4016980261526,4698
2542.2159617238544,4830
2544.02983532225,4764
2545.8433191125914,4825
2547.656413386209,4886
2549.4691184345115,4762
2551.2814345489874,4822
2553.093362021204,4670
2554.904901142808,4717
2556.716052205523,4831
2558.526815501153,4716
2560.3371913215824,4742
2562.147179958771,4849
2563.956781704761,4751
2565.7659968516705,4857
2567.5748256916986,4794
2569.3832685171224,4901
2571.1913256202984,4779
2572.9989972936614,4847
2574.806283829725,4673
2576.613185521084,4766
2578.4197026604074,4871
2580.2258355404483,4911
2582.031584454035,4793
2583.836949694077,4775
2585.6419315535613,4788
2587.4465303255533,4827
2589.2507463032002,4831
2591.0545797797245,4985
2592.8580310484303,4811
2594.6611004026995,4873
2596.463788135992,4798
2598.266094541849,4886
2600.0680199138874,4859
2601.869564545807,4868
2603.670728731383,4809
2605.4715127644704,4979
2607.2719169390048,4903
2609.071941548998,4798
2610.8715868885433,4905
2612.670853251811,4867
2614.469740933052,4778
2616.268250226594,4862
2618.0663814268455,4934
2619.864134828292,4826
2621.6615107255006,4777
2623.458509413115,4821
2625.2551311858597,4801
2627.0513763385347,4825
2628.8472451660223,4853
2630.6427379632833,4740
2632.4378550253564,4787
2634.232596647359,4768
2636.026963124488,4830
2637.8209547520187,4910
2639.6145718253065,4784
2641.407814639785,4721
2643.200683490966,4820
2644.9931786744414,4702
2646.7853004858807,4699
2648.577049221034,4679
2650.3684251757277,4667
2652.1594286458712,4803
2653.9500599274484,4738
2655.740319316525,4775
2657.5302071092437,4674
2659.3197236018286,4619
2661.10886909058,4657
2662.8976438718782,4703
2664.686048242183,4754
2666.4740824980327,4657
2668.2617469360443,4631
2670.0490418529134,4689
2671.8359675454153,4631
2673.622524310403,4714
2675.408712444811,4609
2677.1945322456495,4610
2678.979984010009,4567
2680.76506803506,4696
2682.5497846180497,4496
2684.334134056306,4609
2686.1181166472343,4636
2687.9017326883213,4510
2689.6849824771293,4566
2691.4678663113013,4609
2693.2503844885596,4502
2695.032537306705,4755
2696.8143250636167,4544
2698.5957480572542,4560
2700.3768065856534,4555
2702.1575009469316,4515
2703.937831439283,4623
2705.717798360982,4554
2707.4974020103837,4562
2709.276642685917,4544
2711.055520686095,4442
2712.834036309506,4454
2714.612189854819,4535
2716.389981620782,4533
2718.1674119062204,4491
2719.944481010041,4543
2721.721189231226,4461
2723.4975368688415,4519
2725.273524222027,4424
2727.0491515900053,4456
2728.824419272075,4492
2730.5993275676146,4532
2732.3738767760838,4428
2734.148067197016,4504
2735.921899130031,4473
2737.6953728748194,4426
2739.468488731156,4490
2741.2412469988926,4519
2743.0136479779617,4359
2744.785691968372,4465
2746.5573792702116,4465
2748.3287101836504,4421
2750.099685008934,4466
2751.870304046388,4549
2753.640567596418,4517
2755.4104759595057,4463
2757.1800294362156,4353
2758.949228327187,4449
2760.7180729331412,4353
2762.486563554877,4404
2764.254700493272,4434
2766.022484049284,4379
2767.789914523947,4500
2769.5569922183786,4502
2771.3237174337705,4472
2773.090090471394,4339
2774.8561116326036,4439
2776.6217812188274,4367
2778.3870995315756,4437
2780.1520668724356,4395
2781.9166835430747,4468
2783.6809498452394,4376
2785.444866080754,4423
2787.2084325515225,4391
2788.971649559527,4316
2790.73451740683,4461
2792.4970363955713,4466
2794.2592068279705,4370
2796.0210290063264,4383
2797.7825032330147,4448
2799.543629810493,4425
2801.304409041296,4418
2803.0648412280366,4508
2804.8249266734088,4442
2806.5846656801846,4392
2808.344058551212,4448
2810.1031055894246,4494
2811.8618070978273,4478
2813.6201633795085,4503
2815.378174737636,4518
2817.1358414754536,4408
2818.893163896285,4492
2820.6501423035334,4460
2822.4067770006814,4587
2824.1630682912883,4459
2825.9190164789957,4414
2827.6746218675207,4543
2829.429884760661,4441
2831.184805462294,4352
2832.9393842763743,4371
2834.693621506936,4439
2836.4475174580916,4431
2838.201072434034,4552
2839.954286739034,4445
2841.707160677441,4558
2843.459694553685,4478
2845.2118886722724,4400
2846.96374333779,4541
2848.7152588549034,4474
2850.4664355283567,4461
2852.217273662973,4415
2853.9677735636546,4490
2855.7179355353833,4442
2857.4677598832186,4567
2859.217246912299,4357
2860.9663969278427,4485
2862.715210235146,4549
2864.4636871395846,4380
2866.211827946614,4362
2867.9596329617652,4401
2869.7071024906536,4469
2871.4542368389684,4447
2873.20103631248,4428
2874.947501217038,4344
2876.6936318585695,4394
2878.4394285430812,4493
2880.1848915766604,4334
2881.9300212654707,4421
2883.6748179157553,4315
2885.4192818338374,4283
2887.1634133261173,4453
2888.907212699077,4441
2890.6506802592744,4362
2892.393816313348,4407
2894.1366211680142,4403
2895.8790951300693,4350
2897.621238506388,4407
2899.363051603925,4519
2901.1045347297118,4359
2902.8456881908596,4443
2904.58651229456,4332
2906.327007348081,4351
2908.067173658772,4395
2909.8070115340597,4281
2911.5465212814497,4343
2913.285703208527,4391
2915.0245576229563,4413
2916.7630848324807,4350
2918.5012851449196,4333
2920.2391588681758,4215
2921.976706310227,4343
2923.7139277791334,4313
2925.4508235830313,4436
2927.187394030137,4406
2928.923639428745,4422
2930.6595600872306,4332
2932.395156314046,4446
2934.1304284177218,4457
2935.8653767068713,4320
2937.6000014901815,4431
2939.3343030764227,4324
2941.068281774442,4455
2942.8019378931644,4386
2944.5352717415976,4402
2946.2682836288236,4334
2948.0009738640065,4339
2949.7333427563885,4419
2951.465390615289,4382
2953.1971177501086,4365
2954.9285244703265,4308
2956.6596110855,4306
2958.3903779052657,4278
2960.1208252393385,4373
2961.8509533975125,4311
2963.5807626896617,4249
2965.3102534257378,4408
2967.0394259157715,4226
2968.768280469873,4301
2970.496817398232,4276
2972.2250370111146,4298
2973.952939618869,4374
2975.6805255319196,4393
2977.4077950607707,4261
2979.134748516006,4366
2980.861386208289,4338
2982.587708448359,4369
2984.313715547037,4377
2986.039407815222,4325
2987.764785563891,4422
2989.489849104102,4377
2991.2145987469908,4403
2992.9390348037705,4294
2994.6631575857346,4314
2996.3869674042576,4389
2998.1104645707887,4360
2999.83364939686,4244
3001.5565221940783,4310
3003.2790832741334,4316
3005.0013329487924,4216
3006.7232715298996,4355
3008.4448993293804,4530
3010.166216659239,4358
3011.887223831558,4310
3013.607921158498,4242
3015.3283089522993,4227
3017.0483875252826,4320
3018.7681571898443,4323
3020.4876182584626,4375
3022.2067710436927,4251
3023.9256158581707,4289
3025.644153014609,4317
3027.362382825801,4299
3029.0803056046193,4294
3030.797921664012,4209
3032.5152313170106,4366
3034.2322348767225,4382
3035.9489326563353,4338
3037.665324969115,4321
3039.3814121284063,4261
3041.097194447633,4272
3042.812672240299,4291
3044.5278458199855,4298
3046.2427155003525,4326
3047.9572815951406,4226
3049.671544418167,4300
3051.38550428333,4217
3053.0991615046073,4309
3054.812516396051,4194
3056.5255692717974,4210
3058.2383204460575,4193
3059.9507702331257,4208
3061.662918947372,4212
3063.3747669032446,4247
3065.0863144152736,4350
3066.7975617980674,4307
3068.508509366309,4255
3070.219157434767,4272
3071.9295063182844,4324
3073.639556331785,4228
3075.3493077902704,4348
3077.058761008821,4321
3078.7679163025964,4364
3080.476773986837,4320
3082.1853343768594,4119
3083.89359778806,4292
3085.6015645359153,4169
3087.3092349359786,4231
3089.016609303884,4169
3090.7236879553434,4281
3092.4304712061476,4338
3094.136959372166,4203
3095.843152769349,4219
3097.5490517137237,4279
3099.2546565213966,4258
3100.959967508554,4254
3102.66498499146,4224
3104.3697092864577,4268
3106.0741407099695,4159
3107.778279578498,4320
3109.482126208622,4327
3111.1856809170004,4270
3112.8889440203716,4238
3114.5919158355528,4248
3116.294596679439,4231
3117.996986869006,4307
3119.6990867213062,4370
3121.4008965534726,4336
3123.102416682717,4284
3124.803647426329,4305
3126.5045891016784,4325
3128.205242026213,4247
3129.90560651746,4166
3131.605682893025,4259
3133.3054714705922,4284
3135.0049725679282,4448
3136.7041865028714,4361
3138.4031135933465,4358
3140.101754157353,4367
3141.800108512971,4228
3143.498176978357,4262
3145.1959598717494,4243
3146.8934575114636,4199
3148.5906702158954,4243
3150.2875983035183,4177
3151.9842420928853,4075
3153.680601902627,4178
3155.376678051456,4117
3157.07247085816,4205
3158.767980641609,4119
3160.463207720748,4159
3162.158152414606,4203
3163.8528150422862,4184
3165.5471959229726,4222
3167.2412953759303,4168
3168.9351137204976,4225
3170.628651276098,4234
3172.3219083622307,4298
3174.014885298474,4239
3175.707582404485,4209
3177.4000000000005,4258
3179.092138404835,4244
3180.7839979388846,4214
3182.47557892212,4170
3184.166881674594,4272
3185.8579065164386,4220
3187.5486537678626,4232
3189.2391237491547,4386
3190.9293167806827,4225
3192.6192331828934,4263
3194.3088732763117,4364
3195.998237381542,4309
3197.687325819268,4187
3199.376138910251,4294
3201.064676975334,4292
3202.7529403354347,4272
3204.4409293115523,4230
3206.1286442247647,4266
3207.816085396229,4196
3209.5032531471825,4161
3211.190147798936,4119
3212.8767696728846,4112
3214.5631190905015,4126
3216.2491963733373,4090
3217.9350018430214,4113
3219.6205358212637,4173
3221.305798629851,4000
3222.990790590651,4130
3224.6755120256103,4089
3226.359963256751,4100
3228.0441446061795,4077
3229.7280563960758,4144
3231.411698948703,4163
3233.0950725863995,4022
3234.778177631587,4103
3236.461014406761,4090
3238.1435832345005,4189
3239.8258844374595,4241
3241.507918338374,4115
3243.1896852600576,4209
3244.8711855254023,4266
3246.552419457381,4193
3248.233387379042,4238
3249.914089613516,4152
3251.59452648401,4220
3253.274698313813,4137
3254.95460542629,4154
3256.6342481448855,4092
3258.313626793125,4035
3259.9927416946084,4082
3261.6715931730196,3998
3263.3501815521176,4125
3265.0285071557437,4079
3266.706570307815,4048
3268.3843713323286,3979
3270.0619105533615,4083
3271.739188295068,4148
3273.4162048816834,4098
3275.0929606375184,4061
3276.769455886966,4303
3278.445690954498,4239
3280.1216661646613,4165
3281.797381842087,4251
3283.4728383114807,4108
3285.1480358976296,4127
3286.8229749253996,4118
3288.4976557197333,4054
3290.172078605655,4133
3291.846243908266,4120
3293.5201519527463,4120
3295.193803064357,4176
3296.8671975684374,4111
3298.5403357904024,4030
3300.21321805575,4125
3301.8858446900567,4052
3303.558216018975,4090
3305.23033236824,4230
3306.9021940636603,4151
3308.57380143113,4203
3310.2451547966184,4115
3311.916254486174,4200
3313.5871008259246,4289
3315.2576941420766,4211
3316.9280347609147,4056
3318.5981230088046,4182
3320.2679592121895,4061
3321.9375436975924,4137
3323.606876791612,4066
3325.27595882093,3976
3326.944790112305,4050
3328.6133709925753,4054
3330.2817017886573,4005
3331.949782827547,4134
3333.617614436319,4036
3335.2851969421245,4150
3336.952530672199,4156
3338.619615953853,4142
3340.286453114475,4204
3341.9530424815357,4193
3343.619384382583,4067
3345.2854791452437,4168
3346.951327097224,4304
3348.6169285663073,4366
3350.2822838803577,4166
3351.947393367319,4157
3353.61225735521,4301
3355.2768761721345,4203
3356.9412501462693,4218
3358.605379605873,4097
3360.2692648792827,4050
3361.9329062949146,4189
3363.596304181263,4069
