CollectionTime,7/10/2024 5:00:43 PM
ExposureUsed,3
CalibratedSpectrum
-962.7078968117929,1282
-959.9714848408522,1393
-957.2358232597828,1406
-954.5009119013725,1418
-951.7667505983302,1383
-949.0333391832855,1415
-946.3006774887896,1423
-943.5687653473143,1400
-940.837602591253,1403
-938.1071890529199,1360
-935.3775245645503,1356
-932.6486089583007,1414
-929.9204420662485,1416
-927.1930237203925,1432
-924.4663537526524,1309
-921.7404319948689,1382
-919.0152582788041,1336
-916.2908324361409,1375
-913.5671542984834,1330
-910.8442236973568,1417
-908.1220404642074,1393
-905.4006044304027,1359
-902.679915427231,1366
-899.959973285902,1369
-897.2407778375464,1376
-894.5223289132158,1303
-891.8046263438832,1390
-889.0876699604426,1374
-886.3714595937089,1366
-883.6559950744183,1345
-880.9412762332282,1412
-878.2273029007168,1350
-875.5140749073835,1410
-872.8015920836489,1353
-870.0898542598545,1350
-867.3788612662631,1331
-864.6686129330585,1384
-861.9591090903457,1404
-859.2503495681506,1376
-856.5423341964203,1344
-853.8350628050229,1398
-851.1285352237478,1315
-848.4227512823054,1367
-845.7177108103272,1425
-843.0134136373656,1333
-840.3098595928943,1391
-837.6070485063082,1324
-834.9049802069229,1394
-832.2036545239757,1351
-829.5030712866244,1420
-826.8032303239481,1360
-824.1041314649472,1437
-821.4057745385428,1364
-818.7081593735775,1367
-816.0112857988148,1365
-813.3151536429393,1322
-810.6197627345566,1416
-807.9251129021936,1394
-805.2312039742981,1325
-802.5380357792392,1420
-799.8456081453069,1425
-797.1539209007124,1392
-794.462973873588,1421
-791.772766891987,1430
-789.083299783884,1397
-786.3945723771743,1360
-783.7065844996748,1402
-781.0193359791231,1378
-778.3328266431781,1361
-775.6470563194197,1367
-772.9620248353489,1398
-770.2777320183878,1350
-767.5941776958798,1358
-764.9113616950891,1365
-762.2292838432011,1327
-759.5479439673222,1359
-756.8673418944801,1387
-754.1874774516235,1312
-751.5083504656222,1364
-748.8299607632671,1411
-746.15230817127,1409
-743.475392516264,1355
-740.7992136248035,1386
-738.1237713233636,1413
-735.4490654383407,1380
-732.7750957960521,1405
-730.1018622227365,1436
-727.4293645445534,1427
-724.7576025875837,1327
-722.0865761778291,1418
-719.4162851412126,1471
-716.7467293035781,1411
-714.0779084906909,1462
-711.409822528237,1430
-708.7424712418238,1444
-706.0758544569796,1405
-703.4099719991541,1451
-700.7448236937178,1456
-698.0804093659622,1412
-695.4167288411002,1422
-692.7537819442656,1448
-690.0915685005134,1382
-687.4300883348199,1414
-684.7693412720819,1400
-682.1093271371178,1465
-679.4500457546669,1456
-676.7914969493897,1419
-674.1336805458676,1482
-671.4765963686034,1491
-668.8202442420206,1423
-666.1646239904642,1454
-663.5097354382001,1445
-660.8555784094151,1469
-658.2021527282176,1405
-655.5494582186366,1461
-652.8974947046223,1500
-650.2462620100463,1446
-647.5957599587009,1479
-644.9459883742998,1480
-642.2969470804776,1498
-639.6486359007902,1451
-637.0010546587141,1494
-634.3542031776476,1486
-631.7080812809096,1537
-629.0626887917401,1525
-626.4180255333008,1524
-623.7740913286734,1513
-621.1308860008619,1504
-618.4884093727904,1512
-615.8466612673046,1521
-613.2056415071715,1496
-610.5653499150785,1497
-607.9257863136347,1498
-605.28695052537,1533
-602.6488423727357,1482
-600.0114616781036,1399
-597.3748082637674,1484
-594.7388819519412,1492
-592.1036825647604,1506
-589.4692099242818,1556
-586.8354638524829,1603
-584.2024441712624,1507
-581.5701507024403,1545
-578.9385832677575,1543
-576.3077416888759,1527
-573.6776257873787,1518
-571.0482353847704,1551
-568.4195703024757,1539
-565.7916303618415,1499
-563.164415384135,1518
-560.5379251905453,1535
-557.9121596021815,1479
-555.2871184400748,1495
-552.6628015251767,1581
-550.0392086783606,1498
-547.4163397204204,1484
-544.794194472071,1542
-542.1727727539491,1527
-539.5520743866118,1570
-536.9320991905377,1620
-534.3128469861261,1610
-531.6943175936979,1611
-529.0765108334947,1607
-526.4594265256793,1673
-523.8430644903358,1831
-521.2274245474689,1874
-518.612506517005,2049
-515.9983102187913,1968
-513.3848354725959,1964
-510.77208209810846,1992
-508.16004991493924,2061
-505.5487387426199,2095
-502.9381484006032,2235
-500.3282787082628,2303
-497.71912948489364,2331
-495.1107005497117,2208
-492.5029917218539,2083
-489.8960028203786,2059
-487.28973366426493,1929
-484.68418407241325,1851
-482.07935386364494,1769
-479.47524285670266,1758
-476.87185087025,1738
-474.2691777228715,1705
-471.66722323307334,1789
-469.0659872192821,1739
-466.4654694998459,1712
-463.86566989303384,1781
-461.26658821703614,1763
-458.66822428996414,1716
-456.07057792985,1782
-453.4736489546475,1706
-450.877437182231,1713
-448.28194243039627,1676
-445.68716451686,1673
-443.09310325926003,1676
-440.49975847515555,1692
-437.9071299820263,1687
-435.31521759727354,1643
-432.72402113821954,1662
-430.13354042210767,1696
-427.5437752661022,1751
-424.95472548728867,1738
-422.36639090267386,1772
-419.7787713291855,1746
-417.1918665836721,1809
-414.60567648290385,1776
-412.0202008435715,1742
-409.4354394822874,1753
-406.8513922155845,1797
-404.26805885991723,1788
-401.685439231661,1785
-399.103533147112,1730
-396.522340422488,1711
-393.9418608739278,1713
-391.3620943174908,1697
-388.7830405691583,1742
-386.2046994448317,1640
-383.6270707603344,1508
-381.05015433141045,1425
-378.473949973725,1334
-375.8984575028645,1121
-373.32367673433623,995
-370.74960748356875,939
-368.1762495659117,832
-365.60360279663576,778
-363.03166699093265,714
-360.4604419639154,609
-357.8899275306178,550
-355.32012350599507,515
-352.7510297049233,507
-350.1826459421999,485
-347.61497203254316,470
-345.04800779059235,492
-342.4817530309082,467
-339.91620756797226,485
-337.35137121618743,513
-334.7872437898774,489
-332.22382510328725,503
-329.66111497058273,468
-327.09911320585127,476
-324.53781962310075,484
-321.9772340362607,521
-319.4173562591816,518
-316.8581861056348,491
-314.2997233893127,481
-311.7419679238294,480
-309.1849195227194,465
-306.62857799943856,523
-304.0729431673641,532
-301.51801483979375,524
-298.963792829947,533
-296.41027695096386,549
-293.85746701590574,616
-291.3053628377552,620
-288.7539642294155,548
-286.2032710037115,533
-283.65328297338897,517
-281.1039999511146,537
-278.5554217494762,612
-276.007548180983,654
-273.4603790580651,649
-270.9139141930734,657
-268.3681533982807,677
-265.8230964858798,643
-263.27874326798565,657
-260.7350935566336,689
-258.1921471637804,679
-255.6499039013039,668
-253.10836358100266,605
-250.56752601459698,600
-248.02739101372765,565
-245.48795838995704,623
-242.94922795476816,626
-240.41119951956557,653
-237.8738728956746,647
-235.33724789434166,712
-232.80132432673452,675
-230.2661020039418,590
-227.73158073697357,616
-225.19776033676033,624
-222.66464061415422,711
-220.1322213799284,688
-217.60050244477725,677
-215.06948361931552,689
-212.53916471408013,623
-210.00954553952818,669
-207.48062590603843,730
-204.9524056239104,730
-202.4248845033651,759
-199.8980623545441,725
-197.37193898751036,734
-194.84651421224817,756
-192.32178783866232,748
-189.79775967657952,762
-187.27442953574644,791
-184.7517972258321,801
-182.2298625564256,819
-179.7086253370378,737
-177.18808537710026,731
-174.66824248596583,710
-172.14909647290835,773
-169.6306471471229,851
-167.11289431772548,868
-164.59583779375328,923
-162.07947738416453,918
-159.5638128978386,960
-157.04884414357605,971
-154.53457093009854,975
-152.02099306604828,923
-149.50811035998936,953
-146.99592262040665,934
-144.48442965570587,951
-141.97363127421409,961
-139.46352728417958,1074
-136.95411749377126,1089
-134.44540171107985,948
-131.93737974411636,900
-129.43005140081357,843
-126.92341648902493,1034
-124.41747481652521,1364
-121.91222619101006,1661
-119.40767042009657,1919
-116.90380731132257,2121
-114.40063667214702,2265
-111.8981583099503,2397
-109.3963720320337,2230
-106.89527764561933,1787
-104.39487495785067,1887
-101.89516377579241,2039
-99.39614390642998,3062
-96.89781515667039,3603
-94.40017733334128,3377
-91.90323024319173,2965
-89.40697369289148,2306
-86.91140748903172,2559
-84.41653143812482,3753
-81.92234534660395,5209
-79.42884902082358,6233
-76.93604226705907,7166
-74.4439248915071,10474
-71.95249670028534,16366
-69.46175749943245,20710
-66.97170709490854,23236
-64.48234529259423,22980
-61.99367189829195,19696
-59.50568671772464,12213
-57.01838955653636,6916
-54.53178022029283,6502
-52.045858514480074,7189
-49.560624244506016,7772
-47.07607721569923,8895
-44.59221723330904,9902
-42.10904410250669,9970
-39.62655762838392,10264
-37.14475761595372,10615
-34.66364387015028,11101
-32.18321619582866,11191
-29.70347439776515,10679
-27.224418280657005,10234
-24.74604764912317,10034
-22.26836230770266,13821
-19.7913620608565,26568
-17.315046712966478,48086
-14.83941606833514,64416
-12.36446993118659,65037
-9.89020810566592,65037
-7.416630395839093,65037
-4.94373660569363,65037
-2.471526539137585,65037
-6.821210263296962E-13,65037
2.47084320796705,65037
4.941003281093458,65037
7.410480415786196,65037
9.879274808531363,65037
12.347386655893956,65037
14.814816154518212,65037
17.28156350112681,65037
19.74762889252179,65037
22.21301252558385,65037
24.67771459727237,20937
27.141735304626195,4259
29.605074844762612,2968
32.06773341487792,2839
34.52971121224755,2528
36.99100843422559,2495
39.45162527824516,2493
41.91156194181792,2216
44.370818622535126,1727
46.82939551806646,1424
49.287292826160524,1555
51.74451074464503,1796
54.201049471426245,2332
56.65690920448981,2201
59.112090141899785,1711
61.56659248179983,1345
64.02041642241159,1174
66.4735621620365,1042
68.92602989905402,1087
71.37781983192338,1240
73.82893215918205,1376
76.27936707944684,1501
78.72912479141326,1419
81.17820549385567,1443
83.62660938562783,1116
86.07433666566146,1149
88.5213875329681,1094
90.96776218663751,1066
93.41346082583925,1087
95.85848364982041,1122
98.30283085790859,1426
100.7465026495089,1196
103.18949922410604,1209
105.63182078126385,1209
108.07346752062438,1212
110.51443964190923,1250
112.95473734491827,1054
115.39436082953114,958
117.83331029570547,989
120.27158594347827,1206
122.7091879729652,1407
125.1461165843615,1496
127.58237197794062,1281
130.01795435405518,1090
132.4528639131364,1001
134.88710085569494,1090
137.32066538231982,1010
139.75355769367923,1034
142.1857779905207,1014
144.61732647366978,961
147.04820334403132,935
149.47840880258934,951
151.90794305040674,1014
154.33680628862487,1325
156.76499871846443,1546
159.19252054122433,1811
161.61937195828352,1890
164.04555317109896,1980
166.47106438120693,2235
168.89590579022217,2587
171.320077599839,2894
173.7435800118302,2868
176.16641322804742,3124
178.58857745042144,3439
181.01007288096173,3491
183.43089972175687,3437
185.85105817497413,3356
188.27054844285988,3427
190.6893707277394,3472
193.10752523201643,3627
195.5250121581745,3843
197.9418317087751,3895
200.3579840864594,3803
202.7734694939469,3926
205.18828813403627,3893
207.6024402096051,4113
210.01592592360964,3980
212.42874547908548,4062
214.84089907914665,4095
217.2523869269868,4093
219.66320922587727,4053
222.0733661791695,4049
224.48285799029293,4130
226.8916848627572,4084
229.29984700014882,3975
231.7073446061355,4126
234.11417788446204,3972
236.520347038953,3983
238.92585227351185,4135
241.33069379212054,4239
243.73487179884035,4189
246.1383864978112,4255
248.541238093252,4296
250.9434267894609,4261
253.34495279081432,4234
255.74581630176783,4278
258.1460175268563,4249
260.54555667069314,4243
262.9444339379703,4271
265.3426495334594,4083
267.7402036620107,4199
270.1370965285529,4119
272.53332833809407,4172
274.9288992957214,3967
277.32380960660055,4028
279.718059475976,3902
282.1116491091717,3937
284.5045787115897,3959
286.89684848871195,3883
289.2884586460981,3975
291.67940938938807,4012
294.0697009242996,3992
296.4593334566299,3950
298.84830719225477,3861
301.23662233712923,3787
303.6242790972866,3866
306.01127767884,3873
308.39761828798066,3763
310.78330113097934,3783
313.16832641418534,3865
315.5526943440269,3706
317.9364051270112,3737
320.3194589697242,3645
322.70185607883093,3684
325.0835966610754,3669
327.4646809232805,3641
329.8451090723478,3598
332.2248813152577,3653
334.6039978590701,3577
336.9824589109231,3581
339.36026467803447,3600
341.7374153677,3564
344.113911187295,3628
346.48975234427337,3630
348.8649390461686,3660
351.2394715005918,3577
353.61334991523415,3531
355.9865744978655,3635
358.35914545633375,3571
360.73106299856715,3709
363.10232733257146,3662
365.47293866643247,3623
367.84289720831396,3518
370.2122031664593,3565
372.5808567491905,3622
374.9488581649083,3517
377.31620762209275,3463
379.6829053293021,3506
382.0489514951745,3518
384.4143463284262,3394
386.7790900378528,3484
389.14318283232853,3548
391.50662492080653,3424
393.86941651231916,3476
396.23155781597745,3528
398.5930490409713,3495
400.9538903965696,3551
403.3140820921202,3449
405.6736243370498,3453
408.03251734086336,3494
410.3907613131465,3438
412.74835646356166,3487
415.10530300185144,3473
417.4616011378372,3505
419.81725108141893,3440
422.1722530425758,3450
424.5266072313656,3493
426.880313857925,3481
429.2333731324701,3473
431.58578526529516,3532
433.9375504667738,3486
436.2886689473588,3402
438.63914091758113,3459
440.9889665880513,3411
443.33814616945835,3486
445.68667987257015,3481
448.03456790823395,3460
450.3818104873759,3437
452.72840782100013,3479
455.07436012019105,3373
457.41966759611057,3426
459.7643304600007,3410
462.10834892318155,3442
464.4517231970525,3548
466.79445349309174,3471
469.1365400228566,3504
471.4779829979826,3526
473.81878263018564,3549
476.15893913125876,3507
478.4984527130747,3534
480.8373235875855,3683
483.17555196682144,3683
485.5131380628919,3614
487.8500820879857,3686
490.1863842543697,3826
492.52204477439034,3921
494.8570638604725,4186
497.1914417251204,4448
499.52517858091653,4621
501.85827464052306,4866
504.19073011668036,5080
506.5225452222086,4878
508.85372017000566,4925
511.18425517304956,4848
513.514150444396,5004
515.8434061971808,5589
518.1720226446176,6725
520.4999999999999,6883
522.8273384766991,6780
525.1540382881666,6379
527.480099647932,5725
529.8055227696037,5210
532.1303078668694,4349
534.454455153496,3983
536.777964843328,3919
539.1008371502907,3719
541.4230722883866,3706
543.744670471698,3674
546.0656319143858,3576
548.3859568306899,3687
550.7056454349294,3573
553.0246979415016,3732
555.3431145648834,3594
557.6608955196306,3627
559.978041020377,3646
562.2945512818363,3612
564.6104265188006,3702
566.9256669461412,3627
569.2402727788082,3658
571.5542442318302,3700
573.8675815203156,3616
576.1802848594508,3615
578.4923544645015,3703
580.8037905508126,3790
583.114593333807,3749
585.4247630289875,3748
587.7342998519354,3680
590.0432040183106,3656
592.3514757438526,3678
594.6591152443794,3764
596.9661227357875,3706
599.2724984340531,3705
601.578242555231,3730
603.8833553154542,3775
606.1878369309362,3705
608.4916876179676,3780
610.7949075929192,3683
613.0974970722403,3703
615.3994562724587,3733
617.7007854101818,3782
620.0014847020951,3620
622.3015543649641,3862
624.6009946156324,3801
626.8998056710224,3910
629.1979877481361,3857
631.4955410640538,3746
633.7924658359349,3814
636.0887622810175,3812
638.3844306166192,3765
640.6794710601358,3780
642.9738838290426,3788
645.2676691408932,3792
647.5608272133207,3866
649.853358264037,3935
652.1452625108324,3902
654.4365401715764,3945
656.7271914642178,3858
659.0172166067838,3865
661.3066158173809,3855
663.5953893141935,3871
665.8835373154867,3893
668.1710600396028,3941
670.4579577049639,3926
672.7442305300709,3954
675.0298787335033,3951
677.3149025339197,3946
679.599302150058,3883
681.8830778007342,3881
684.1662297048437,3880
686.4487580813608,3983
688.7306631493387,3962
691.0119451279091,3955
693.2926042362834,4021
695.5726406937516,3858
697.8520547196814,3836
700.1308465335215,3957
702.4090163547982,4041
704.6865644031171,3881
706.9634908981619,3841
709.2397960596965,3872
711.5154801075631,3904
713.7905432616823,3893
716.0649857420548,4032
718.3388077687592,4016
720.612009561953,3967
722.8845913418733,3993
725.1565533288352,3961
727.427895743234,3905
729.6986188055427,3898
731.9687227363137,4033
734.238207756178,3997
736.5070740858458,3993
738.7753219461066,4032
741.0429515578281,3916
743.3099631419569,4035
745.5763569195191,4046
747.8421331116193,3975
750.1072919394409,3977
752.3718336242467,4041
754.6357583873777,3974
756.8990664502545,3957
759.1617580343765,4091
761.423833361321,4098
763.6852926527457,3959
765.9461361303862,4061
768.206364016058,4042
770.4659765316536,4147
772.7249738991469,4098
774.9833563405886,4146
777.2411240781092,4107
779.4982773339183,3977
781.7548163303044,4064
784.010741289634,4082
786.2660524343538,4224
788.5207499869881,4162
790.7748341701416,4101
793.0283052064964,4082
795.2811633188143,4125
797.5334087299362,4071
799.7850416627813,4128
802.0360623403484,4109
804.2864709857143,4157
806.5362678220353,4123
808.7854530725468,4079
811.0340269605625,4176
813.2819897094754,4103
815.5293415427581,4122
817.77608268396,4128
820.0222133567116,4338
822.2677337847211,4269
824.5126441917765,4164
826.7569448017433,4187
829.0006358385675,4182
831.2437175262731,4073
833.4861900889629,4118
835.7280537508192,4118
837.9693087361026,4241
840.2099552691533,4153
842.4499935743896,4183
844.689423876309,4155
846.9282463994886,4216
849.1664613685833,4083
851.4040690083276,4252
853.6410695435349,4182
855.877463199097,4187
858.1132501999847,4290
860.3484307712487,4278
862.5830051380175,4149
864.8169735254988,4248
867.0503361589791,4184
869.2830932638243,4259
871.5152450654786,4364
873.7467917894654,4248
875.9777336613873,4253
878.2080709069252,4338
880.4378037518389,4281
882.666932421968,4308
884.8954571432301,4320
887.1233781416219,4277
889.3506956432192,4336
891.5774098741766,4423
893.803521060728,4334
896.0290294291852,4320
898.2539352059397,4345
900.4782386174619,4220
902.7019398903011,4339
904.925039251085,4417
907.147536926521,4330
909.3694331433943,4448
911.59072812857,4253
913.8114221089921,4229
916.0315153116827,4277
918.2510079637437,4184
920.4699002923547,4298
922.6881925247761,4199
924.905884888345,4221
927.1229776104793,4240
929.3394709186747,4271
931.555365040506,4219
933.7706602036275,4291
935.9853566357709,4284
938.1994545647489,4445
940.4129542184515,4357
942.6258558248488,4153
944.8381596119883,4295
947.0498658079974,4246
949.2609746410825,4284
951.4714863395287,4331
953.6814011316998,4307
955.8907192460387,4317
958.0994409110671,4345
960.3075663553858,4298
962.5150958076741,4393
964.7220294966913,4329
966.928367651274,4350
969.1341105003388,4350
971.3392582728806,4281
973.5438111979742,4337
975.747769504772,4338
977.9511334225061,4341
980.153903180487,4377
982.3560790081052,4183
984.5576611348289,4349
986.7586497902058,4293
988.9590452038618,4261
991.158847605503,4317
993.3580572249133,4224
995.5566742919558,4149
997.7546990365728,4164
999.952131688785,4284
1002.1489724786926,4165
1004.3452216364743,4196
1006.5408793923874,4231
1008.7359459767691,4181
1010.9304216200343,4179
1013.1243065526781,4143
1015.3176010052733,4160
1017.510305208472,4044
1019.7024193930064,4100
1021.8939437896848,4073
1024.0848786293977,4137
1026.2752241431122,4137
1028.4649805618747,4133
1030.6541481168115,4094
1032.842727039127,4043
1035.0307175601051,4036
1037.2181199111074,4063
1039.4049343235752,3982
1041.591161029029,4003
1043.7768002590683,4114
1045.9618522453698,4075
1048.1463172196918,4077
1050.3301954138697,4189
1052.513487059818,4117
1054.69619238953,4201
1056.8783116350783,4053
1059.0598450286152,4180
1061.2407928023704,4070
1063.4211551886528,4089
1065.6009324198508,4214
1067.780124728432,4082
1069.9587323469414,4230
1072.1367555080046,4198
1074.314194444325,4170
1076.4910493886855,4140
1078.667320573947,4094
1080.843008233051,4111
1083.0181125990161,4061
1085.1926339049414,4069
1087.3665723840027,4064
1089.5399282694575,4081
1091.7127017946405,4067
1093.8848931929647,4129
1096.0565026979243,4106
1098.2275305430899,4085
1100.3979769621128,4175
1102.567842188722,4098
1104.737126456726,4145
1106.9058300000124,4006
1109.0739530525475,4071
1111.2414958483764,4033
1113.4084586216231,4165
1115.5748416064907,4064
1117.7406450372605,4093
1119.9058691482942,4100
1122.0705141740304,4087
1124.2345803489884,4105
1126.3980679077658,4158
1128.5609770850388,4160
1130.7233081155623,4099
1132.8850612341707,4091
1135.0462366757774,4093
1137.2068346753745,4046
1139.3668554680326,4155
1141.526299288901,4179
1143.68516637321,4094
1145.8434569562655,4081
1148.001171273455,4090
1150.158309560244,4152
1152.3148720521767,4198
1154.470858984876,4100
1156.626270594044,4067
1158.7811071154629,4137
1160.9353687849912,4186
1163.089055838569,4084
1165.242168512213,4053
1167.3947070420209,4055
1169.5466716641677,4125
1171.6980626149075,4129
1173.8488801305748,4158
1175.9991244475814,4040
1178.1487958024186,4106
1180.2978944316555,4142
1182.4464205719428,4118
1184.5943744600072,4114
1186.7417563326567,4137
1188.8885664267755,4124
1191.0348049793297,4150
1193.1804722273619,4185
1195.325568407995,4144
1197.4700937584303,4153
1199.614048515948,4156
1201.7574329179074,4203
1203.900247201746,4272
1206.042491604982,4151
1208.1841663652099,4157
1210.3252717201053,4209
1212.465807907422,4274
1214.6057751649923,4271
1216.7451737307279,4275
1218.8840038426192,4249
1221.0222657387353,4225
1223.1599596572241,4309
1225.2970858363137,4163
1227.4336445143094,4299
1229.5696359295966,4157
1231.705060320639,4435
1233.8399179259786,4225
1235.9742089842384,4207
1238.107933734118,4334
1240.2410924143974,4343
1242.373685263935,4266
1244.5057125216676,4222
1246.6371744266116,4326
1248.7680712178621,4326
1250.898403134593,4235
1253.028170416058,4321
1255.1573733015875,4327
1257.2860120305932,4359
1259.4140868425648,4365
1261.54159797707,4379
1263.6685456737569,4329
1265.7949301723515,4331
1267.9207517126597,4350
1270.046010534565,4390
1272.1707068780306,4387
1274.2948409830983,4369
1276.4184130898889,4351
1278.541423438603,4464
1280.6638722695184,4343
1282.785759822993,4472
1284.9070863394636,4452
1287.0278520594447,4339
1289.1480572235314,4492
1291.2677020723963,4437
1293.3867868467923,4493
1295.5053117875495,4514
1297.623277135579,4501
1299.740683131868,4578
1301.8575300174857,4515
1303.973818033578,4566
1306.0895474213703,4550
1308.2047184221678,4629
1310.3193312773528,4505
1312.4333862283888,4584
1314.5468835168163,4537
1316.659823384255,4568
1318.7722060724045,4473
1320.8840318230418,4577
1322.9953008780249,4588
1325.1060134792888,4598
1327.2161698688478,4595
1329.3257702887959,4700
1331.4348149813054,4598
1333.5433041886276,4629
1335.6512381530933,4603
1337.7586171171101,4660
1339.8654413231675,4561
1341.9717110138317,4591
1344.0774264317488,4626
1346.1825878196432,4613
1348.2871954203192,4502
1350.3912494766587,4579
1352.4947502316231,4615
1354.5976979282532,4564
1356.7000928096686,4662
1358.8019351190665,4485
1360.9032250997243,4558
1363.0039629949988,4659
1365.1041490483235,4544
1367.2037835032133,4667
1369.3028666032606,4635
1371.401398592137,4578
1373.4993797135926,4713
1375.5968102114575,4714
1377.6936903296396,4590
1379.7900203121262,4746
1381.8858004029835,4588
1383.9810308463561,4664
1386.075711886469,4728
1388.1698437676241,4706
1390.2634267342032,4745
1392.356461030667,4731
1394.4489469015557,4758
1396.5408845914872,4613
1398.6322743451592,4658
1400.7231164073469,4734
1402.813411022907,4809
1404.903158436773,4707
1406.9923588939578,4739
1409.0810126395531,4801
1411.1691199187303,4724
1413.2566809767386,4860
1415.343696058907,4748
1417.4301654106425,4763
1419.5160892774315,4761
1421.6014679048399,4848
1423.6863015385125,4830
1425.7705904241707,4811
1427.8543348076178,4822
1429.9375349347342,4893
1432.0201910514802,4777
1434.102303403894,4917
1436.1838722380944,4951
1438.2648978002767,4897
1440.3453803367174,4893
1442.4253200937692,4809
1444.5047173178677,4930
1446.5835722555234,5062
1448.6618851533285,5123
1450.739656257952,5123
1452.8168858161434,5061
1454.8935740747306,5139
1456.96972128062,5105
1459.045327680797,5291
1461.120393522327,5149
1463.1949190523528,5321
1465.2689045180973,5342
1467.3423501668608,5278
1469.415256246024,5279
1471.4876230030463,5443
1473.559450685465,5515
1475.6307395408976,5529
1477.7014898170391,5512
1479.771701761665,5611
1481.8413756226287,5499
1483.9105116478618,5566
1485.9791100853772,5648
1488.0471711832643,5647
1490.1146951896926,5743
1492.1816823529098,5708
1494.2481329212433,5798
1496.3140471430984,5853
1498.3794252669609,5876
1500.4442675413939,5861
1502.5085742150404,5889
1504.572345536622,5838
1506.6355817549388,5893
1508.6982831188702,5895
1510.7604498773744,5984
1512.8220822794883,5963
1514.8831805743293,6075
1516.9437450110909,6082
1519.003775839048,5900
1521.0632733075522,6099
1523.1222376660367,5953
1525.1806691640113,6158
1527.2385680510652,6341
1529.2959345768668,6196
1531.3527689911643,6310
1533.4090715437833,6275
1535.4648424846291,6340
1537.5200820636855,6413
1539.5747905310159,6422
1541.6289681367616,6406
1543.6826151311434,6433
1545.7357317644614,6585
1547.7883182870937,6605
1549.8403749494987,6655
1551.8919020022113,6598
1553.9428996958477,6817
1555.9933682811015,6767
1558.0433080087469,6661
1560.0927191296346,6894
1562.1416018946961,6910
1564.1899565549415,6762
1566.2377833614592,6863
1568.2850825654164,6802
1570.3318544180606,6741
1572.3780991707158,6626
1574.423817074788,6557
1576.4690083817595,6484
1578.5136733431923,6229
1580.5578122107272,6134
1582.601425236085,5995
1584.6445126710646,6033
1586.6870747675434,5891
1588.7291117774776,5776
1590.7706239529034,5500
1592.8116115459347,5649
1594.8520748087658,5440
1596.8920139936686,5407
1598.9314293529933,5471
1600.9703211391711,5358
1603.008689604711,5259
1605.0465350022005,5287
1607.0838575843068,5264
1609.1206576037753,5296
1611.1569353134305,5129
1613.1926909661765,5134
1615.2279248149953,5085
1617.2626371129481,5169
1619.2968281131757,5114
1621.3304980688963,4997
1623.3636472334088,5102
1625.39627586009,5104
1627.428384202396,4991
1629.459972513861,5001
1631.4910410480993,5026
1633.5215900588028,5004
1635.551619799744,4948
1637.5811305247717,4993
1639.6101224878166,5017
1641.6385959428862,4932
1643.6665511440683,4994
1645.693988345528,4900
1647.7209078015112,4951
1649.7473097663405,4939
1651.7731944944203,4912
1653.7985622402307,4982
1655.823413258333,4944
1657.847747803366,4821
1659.8715661300494,4971
1661.8948684931793,4888
1663.9176551476316,4946
1665.9399263483624,4972
1667.9616823504057,4999
1669.982923408873,4883
1672.0036497789574,4865
1674.0238617159293,4737
1676.043559475138,4816
1678.0627433120121,4875
1680.081413482059,4911
1682.0995702408654,4866
1684.117213844096,4865
1686.134344547495,4946
1688.1509626068864,4842
1690.1670682781705,4948
1692.182661817329,4884
1694.1977434804217,4891
1696.2123135235875,4824
1698.226372203043,4828
1700.2399197750851,4869
1702.2529564960905,4838
1704.2654826225112,4988
1706.277498410882,4819
1708.2890041178139,4921
1710.2999999999988,4824
1712.3104863142066,4894
1714.3204633172854,4729
1716.329931266163,4903
1718.3388904178469,4794
1720.3473410294214,4909
1722.3552833580516,4956
1724.3627176609807,4895
1726.3696441955308,4842
1728.3760632191033,4797
1730.3819749891782,4922
1732.3873797633146,4928
1734.3922777991502,4724
1736.3966693544012,4779
1738.4005546868639,4898
1740.4039340544127,4760
1742.406807715001,4809
1744.4091759266616,4858
1746.4110389475054,4747
1748.4123970357223,4784
1750.413250449582,4789
1752.4135994474318,4952
1754.4134442876993,4682
1756.4127852288902,4819
1758.4116225295893,4806
1760.4099564484595,4876
1762.407787244244,4806
1764.405115175764,4838
1766.4019405019203,4758
1768.3982634816916,4702
1770.3940843741357,4771
1772.3894034383907,4742
1774.3842209336717,4815
1776.378537119274,4757
1778.372352254571,4690
1780.3656665990156,4783
1782.3584804121397,4858
1784.3507939535534,4812
1786.3426074829463,4711
1788.3339212600863,4811
1790.3247355448211,4801
1792.3150505970766,4770
1794.3048666768573,4868
1796.2941840442477,4844
1798.2830029594106,4793
1800.2713236825884,4866
1802.2591464741004,4837
1804.2464715943465,4800
1806.2332993038058,4835
1808.2196298630352,4796
1810.2054635326708,4808
1812.190800573428,4747
1814.175641246101,4810
1816.1599858115628,4886
1818.1438345307652,4814
1820.127187664738,4858
1822.1100454745924,4841
1824.092408221516,4860
1826.0742761667766,4843
1828.055649571721,4888
1830.0365286977735,4828
1832.0169138064398,4869
1833.9968051593014,4857
1835.9762030180214,4866
1837.9551076443408,4911
1839.9335193000788,4821
1841.9114382471344,4804
1843.888864747485,4769
1845.8657990631878,4864
1847.842241456378,4865
1849.8181921892697,4807
1851.7936515241558,4763
1853.7686197234098,4872
1855.7430970494815,4760
1857.7170837649014,4726
1859.6905801322787,4994
1861.6635864143004,4827
1863.6361028737338,4854
1865.608129773424,4836
1867.5796673762961,4819
1869.5507159453537,4720
1871.521275743678,4894
1873.4913470344313,4875
1875.4609300808534,4867
1877.4300251462632,4830
1879.3986324940588,4788
1881.366752387717,4943
1883.3343850907936,4940
1885.3015308669228,4912
1887.268189979819,4929
1889.2343626932739,4897
1891.2000492711595,4902
1893.1652499774254,4879
1895.1299650761011,4796
1897.0941948312952,4909
1899.0579395071945,4809
1901.0211993680641,4963
1902.98397467825,4836
1904.9462657021745,4830
1906.9080727043415,4841
1908.869395949332,4933
1910.8302357018065,4937
1912.790592226504,4957
1914.7504657882428,4969
1916.7098566519212,4909
1918.6687650825133,4806
1920.6271913450764,4846
1922.5851357047422,4886
1924.5425984267245,4931
1926.499579776314,4816
1928.4560800188833,4758
1930.4120994198802,4791
1932.367638244833,4709
1934.32269675935,4951
1936.2772752291175,4885
1938.231373919899,4814
1940.1849930975404,4833
1942.1381330279637,4983
1944.0907939771696,4823
1946.0429762112412,4801
1947.9946799963363,4875
1949.9459055986945,4902
1951.896653284633,4904
1953.8469233205478,4798
1955.7967159729142,4888
1957.7460315082863,4791
1959.6948701932974,4904
1961.6432322946594,4838
1963.5911180791632,4838
1965.5385278136787,4911
1967.4854617651545,5045
1969.4319202006182,4915
1971.377903387176,4859
1973.3234115920136,4862
1975.268445082395,4897
1977.2130041256642,4905
1979.1570889892423,4881
1981.1006999406304,4893
1983.04383724741,4928
1984.986501177238,4967
1986.928691997853,4931
1988.8704099770712,4830
1990.811655382789,4888
1992.7524284829801,4968
1994.692729545698,4836
1996.6325588390755,4933
1998.5719166313224,4829
2000.5108031907307,4883
2002.4492187856677,4856
2004.387163684583,4798
2006.3246381560011,4871
2008.2616424685298,4897
2010.1981768908527,4772
2012.1342416917332,4879
2014.069837140014,4799
2016.0049635046162,4811
2017.9396210545406,4925
2019.8738100588666,4743
2021.8075307867502,4905
2023.740783507431,4861
2025.6735684902228,4932
2027.6058860045214,4797
2029.5377363198004,4955
2031.4691197056118,4817
2033.4000364315875,4819
2035.3304867674374,4735
2037.260470982952,4794
2039.189989347998,4841
2041.1190421325232,4914
2043.047629606554,4822
2044.9757520401945,4858
2046.9034097036288,4916
2048.8306028671195,4881
2050.7573318010086,4840
2052.683596775716,4858
2054.609398061742,4853
2056.5347359296647,4838
2058.4596106501403,4829
2060.384022493906,4775
2062.3079717317764,4814
2064.231458634646,4912
2066.1544834734873,4961
2068.077046519352,4917
2069.99914804337,4906
2071.9207883167524,4943
2073.8419676107865,4928
2075.7626861968406,4889
2077.6829443463607,4933
2079.6027423308715,4833
2081.522080421977,4879
2083.440958891362,4901
2085.359378010786,4731
2087.2773380520907,4895
2089.194839287196,4854
2091.111881988101,4967
2093.0284664268825,4820
2094.9445928756973,4900
2096.86026160678,4841
2098.775472892446,4823
2100.690227005088,4846
2102.604524217178,4876
2104.5183648012676,4951
2106.431749029985,4898
2108.34467717604,4777
2110.2571495122206,4852
2112.169166311393,4856
2114.080727846503,4930
2115.9918343905747,4933
2117.902486216711,4950
2119.8126835980956,4897
2121.722426807987,4861
2123.6317161197285,4920
2125.5405518067364,5021
2127.448934142509,4974
2129.356863400624,4888
2131.264339854737,4951
2133.1713637785815,4872
2135.077935445972,4957
2136.9840551308002,5002
2138.889723107037,4871
2140.7949396487334,4960
2142.699705030018,4876
2144.6040195250994,4892
2146.507883408264,4997
2148.4112969538774,4992
2150.3142604363848,4949
2152.2167741303097,4920
2154.1188383102535,4969
2156.0204532508997,5018
2157.9216192270064,5018
2159.822336513414,4976
2161.7226053850413,4974
2163.622426116884,4804
2165.5217989840185,4940
2167.4207242616,4938
2169.319202224862,4990
2171.2172331491165,4896
2173.1148173097563,4926
2175.0119549822507,4867
2176.90864644215,4967
2178.8048919650823,5026
2180.7006918267534,5009
2182.596046302952,5025
2184.4909556695407,5084
2186.3854202024645,4925
2188.279440177746,4921
2190.173015871487,5012
2192.066147559868,5048
2193.958835519149,4923
2195.851080025667,4943
2197.7428813558417,4921
2199.6342397861667,4948
2201.5251555932186,5016
2203.415629053651,4964
2205.3056604441986,5129
2207.19525004167,4993
2209.084398122958,5095
2210.9731049650327,5098
2212.861370844941,4923
2214.749196039812,5058
2216.636580826851,5032
2218.523525483344,4974
2220.410030286655,5036
2222.296095514226,5023
2224.1817214435805,4904
2226.066908352319,5125
2227.951656518121,4985
2229.835966218746,4933
2231.71983773203,4945
2233.6032713358913,4997
2235.486267308324,5050
2237.3688259274036,4947
2239.2509474712824,5074
2241.132632218193,4894
2243.013880446447,4980
2244.8946924344323,4938
2246.7750684606203,4968
2248.6550088035574,4976
2250.534513741871,4971
2252.413583554265,4954
2254.292218519526,4886
2256.170418916517,5072
2258.0481850241786,4956
2259.925517121534,5021
2261.8024154876825,4978
2263.678880401803,4957
2265.5549121431536,4976
2267.430510991071,4989
2269.305677224971,4979
2271.180411124348,4942
2273.0547129687766,4882
2274.9285830379076,4941
2276.8020216114737,5035
2278.6750289692845,4997
2280.5476053912294,5052
2282.4197511572766,4924
2284.2914665474727,4920
2286.162751841943,5007
2288.0336073208937,4948
2289.904033264608,5085
2291.774029953448,4966
2293.6435976678554,4923
2295.5127366883517,5002
2297.381447295534,4908
2299.2497297700825,4966
2301.1175843927526,4900
2302.9850114443825,4809
2304.852011205885,4877
2306.7185839582553,4869
2308.5847299825664,4805
2310.4504495599676,4883
2312.3157429716925,4693
2314.1806104990483,4735
2316.0450524234247,4840
2317.9090690262888,4771
2319.772660589186,4853
2321.635827393742,4827
2323.498569721661,5027
2325.3608878547248,4894
2327.2227820747967,4803
2329.0842526638157,4881
2330.945299903803,4930
2332.805924076857,4828
2334.6661254651535,4779
2336.525904350951,4843
2338.3852610165827,4807
2340.244195744464,4765
2342.102708817088,4807
2343.9608005170253,4701
2345.8184711269287,4801
2347.675720929526,4751
2349.532550207628,4826
2351.38895924412,4790
2353.24494832197,4795
2355.100517724223,4790
2356.955667734004,4714
2358.810398634514,4708
2360.664710709037,4835
2362.5186042409337,4843
2364.3720795136437,4847
2366.225136810686,4857
2368.0777764156583,4737
2369.929998612237,4835
2371.7818036841777,4879
2373.633191915315,4862
2375.484163589562,4725
2377.3347189909114,4797
2379.184858403434,4741
2381.03458211128,4763
2382.8838903986775,4821
2384.732783549936,4768
2386.5812618494406,4737
2388.4293255816588,4728
2390.2769750311327,4751
2392.1242104824883,4794
2393.971032220427,4717
2395.8174405297295,4760
2397.6634356952563,4753
2399.509018001947,4740
2401.3541877348193,4764
2403.1989451789705,4782
2405.043290619576,4753
2406.8872243418905,4776
2408.730746631247,4784
2410.5738577730594,4669
2412.4165580528183,4874
2414.258847756095,4770
2416.100727168537,4708
2417.9421965758734,4854
2419.783256263912,4734
2421.623906518538,4796
2423.4641476257157,4740
2425.303979871491,4767
2427.143403541984,4787
2428.9824189233977,4715
2430.821026302012,4661
2432.6592259641866,4758
2434.497018196361,4657
2436.33440328505,4655
2438.171381516851,4784
2440.00795317844,4781
2441.844118556569,4622
2443.6798779380724,4864
2445.5152316098606,4790
2447.3501798589255,4712
2449.1847229723357,4673
2451.0188612372403,4685
2452.8525949408663,4713
2454.6859243705203,4752
2456.518849813587,4721
2458.3513715575314,4671
2460.183489889895,4684
2462.015205098301,4760
2463.8465174704493,4696
2465.67742729412,4750
2467.5079348571717,4797
2469.338040447542,4753
2471.1677443532476,4799
2472.9970468623833,4597
2474.825948263123,4773
2476.6544488437207,4762
2478.482548892508,4699
2480.310248697896,4780
2482.137548548374,4862
2483.9644487325118,4740
2485.790949538956,4659
2487.617051256433,4719
2489.44275417375,4669
2491.26805857979,4785
2493.0929647635157,4770
2494.917473013971,4748
2496.741583620276,4787
2498.5652968716304,4864
2500.3886130573137,4686
2502.2115324666834,4691
2504.0340553891765,4701
2505.856182114308,4663
2507.6779129316733,4743
2509.499248130945,4681
2511.3201880018764,4692
2513.140732834298,4691
2514.9608829181198,4788
2516.780638543331,4643
2518.6,4775
2520.418967578273,4829
2522.237541568376,4729
2524.0557222606144,4617
2525.8735099453706,4821
2527.6909049131086,4786
2529.507907454368,4777
2531.32451785977,4694
2533.140736420014,4811
2534.9565634258774,4859
2536.771999168218,4850
2538.5870439379714,4761
2540.4016980261526,4774
2542.2159617238544,4817
2544.02983532225,4722
2545.8433191125914,4862
2547.656413386209,4850
2549.4691184345115,4802
2551.2814345489874,4834
2553.093362021204,4771
2554.904901142808,4764
2556.716052205523,4792
2558.526815501153,4743
2560.3371913215824,4777
2562.147179958771,4803
2563.956781704761,4863
2565.7659968516705,4897
2567.5748256916986,4944
2569.3832685171224,4723
2571.1913256202984,4788
2572.9989972936614,4962
2574.806283829725,4761
2576.613185521084,4976
2578.4197026604074,4914
2580.2258355404483,4908
2582.031584454035,4933
2583.836949694077,4888
2585.6419315535613,4977
2587.4465303255533,4856
2589.2507463032002,4932
2591.0545797797245,4875
2592.8580310484303,4869
2594.6611004026995,4888
2596.463788135992,4884
2598.266094541849,4825
2600.0680199138874,4826
2601.869564545807,4849
2603.670728731383,5013
2605.4715127644704,4962
2607.2719169390048,4829
2609.071941548998,4887
2610.8715868885433,4876
2612.670853251811,4961
2614.469740933052,4799
2616.268250226594,4796
2618.0663814268455,4908
2619.864134828292,4820
2621.6615107255006,4850
2623.458509413115,4794
2625.2551311858597,4767
2627.0513763385347,4809
2628.8472451660223,4744
2630.6427379632833,4764
2632.4378550253564,4746
2634.232596647359,4916
2636.026963124488,4821
2637.8209547520187,4718
2639.6145718253065,4864
2641.407814639785,4824
2643.200683490966,4640
2644.9931786744414,4755
2646.7853004858807,4753
2648.577049221034,4675
2650.3684251757277,4620
2652.1594286458712,4598
2653.9500599274484,4714
2655.740319316525,4691
2657.5302071092437,4558
2659.3197236018286,4659
2661.10886909058,4571
2662.8976438718782,4626
2664.686048242183,4699
2666.4740824980327,4567
2668.2617469360443,4620
2670.0490418529134,4606
2671.8359675454153,4667
2673.622524310403,4486
2675.408712444811,4544
2677.1945322456495,4498
2678.979984010009,4535
2680.76506803506,4561
2682.5497846180497,4516
2684.334134056306,4526
2686.1181166472343,4591
2687.9017326883213,4533
2689.6849824771293,4502
2691.4678663113013,4509
2693.2503844885596,4679
2695.032537306705,4541
2696.8143250636167,4411
2698.5957480572542,4504
2700.3768065856534,4477
2702.1575009469316,4357
2703.937831439283,4326
2705.717798360982,4406
2707.4974020103837,4381
2709.276642685917,4466
2711.055520686095,4410
2712.834036309506,4489
2714.612189854819,4497
2716.389981620782,4449
2718.1674119062204,4258
2719.944481010041,4402
2721.721189231226,4264
2723.4975368688415,4308
2725.273524222027,4332
2727.0491515900053,4439
2728.824419272075,4335
2730.5993275676146,4467
2732.3738767760838,4254
2734.148067197016,4401
2735.921899130031,4429
2737.6953728748194,4296
2739.468488731156,4302
2741.2412469988926,4342
2743.0136479779617,4418
2744.785691968372,4347
2746.5573792702116,4332
2748.3287101836504,4344
2750.099685008934,4305
2751.870304046388,4235
2753.640567596418,4283
2755.4104759595057,4249
2757.1800294362156,4309
2758.949228327187,4300
2760.7180729331412,4229
2762.486563554877,4251
2764.254700493272,4300
2766.022484049284,4283
2767.789914523947,4353
2769.5569922183786,4324
2771.3237174337705,4253
2773.090090471394,4192
2774.8561116326036,4278
2776.6217812188274,4249
2778.3870995315756,4374
2780.1520668724356,4151
2781.9166835430747,4303
2783.6809498452394,4292
2785.444866080754,4285
2787.2084325515225,4333
2788.971649559527,4230
2790.73451740683,4201
2792.4970363955713,4254
2794.2592068279705,4319
2796.0210290063264,4206
2797.7825032330147,4170
2799.543629810493,4225
2801.304409041296,4260
2803.0648412280366,4233
2804.8249266734088,4171
2806.5846656801846,4268
2808.344058551212,4176
2810.1031055894246,4337
2811.8618070978273,4261
2813.6201633795085,4335
2815.378174737636,4273
2817.1358414754536,4209
2818.893163896285,4385
2820.6501423035334,4230
2822.4067770006814,4236
2824.1630682912883,4212
2825.9190164789957,4188
2827.6746218675207,4169
2829.429884760661,4206
2831.184805462294,4241
2832.9393842763743,4192
2834.693621506936,4090
2836.4475174580916,4264
2838.201072434034,4192
2839.954286739034,4243
2841.707160677441,4210
2843.459694553685,4255
2845.2118886722724,4337
2846.96374333779,4245
2848.7152588549034,4189
2850.4664355283567,4331
2852.217273662973,4119
2853.9677735636546,4224
2855.7179355353833,4204
2857.4677598832186,4145
2859.217246912299,4145
2860.9663969278427,4168
2862.715210235146,4153
2864.4636871395846,4113
2866.211827946614,4196
2867.9596329617652,4178
2869.7071024906536,4171
2871.4542368389684,4094
2873.20103631248,4081
2874.947501217038,4158
2876.6936318585695,4119
2878.4394285430812,4079
2880.1848915766604,4166
2881.9300212654707,4071
2883.6748179157553,4113
2885.4192818338374,4084
2887.1634133261173,4150
2888.907212699077,4035
2890.6506802592744,4074
2892.393816313348,4077
2894.1366211680142,4156
2895.8790951300693,4138
2897.621238506388,4186
2899.363051603925,4148
2901.1045347297118,4125
2902.8456881908596,4076
2904.58651229456,4110
2906.327007348081,4016
2908.067173658772,4015
2909.8070115340597,4004
2911.5465212814497,4014
2913.285703208527,3998
2915.0245576229563,3907
2916.7630848324807,3969
2918.5012851449196,4010
2920.2391588681758,3953
2921.976706310227,4102
2923.7139277791334,4006
2925.4508235830313,3955
2927.187394030137,3978
2928.923639428745,3982
2930.6595600872306,4074
2932.395156314046,4014
2934.1304284177218,4060
2935.8653767068713,4041
2937.6000014901815,4116
2939.3343030764227,4036
2941.068281774442,4069
2942.8019378931644,4119
2944.5352717415976,3921
2946.2682836288236,3957
2948.0009738640065,4039
2949.7333427563885,4111
2951.465390615289,4061
2953.1971177501086,4030
2954.9285244703265,3976
2956.6596110855,4003
2958.3903779052657,4017
2960.1208252393385,4129
2961.8509533975125,3987
2963.5807626896617,3953
2965.3102534257378,4021
2967.0394259157715,3860
2968.768280469873,3975
2970.496817398232,3928
2972.2250370111146,3988
2973.952939618869,3955
2975.6805255319196,4057
2977.4077950607707,3926
2979.134748516006,4011
2980.861386208289,4097
2982.587708448359,4076
2984.313715547037,3912
2986.039407815222,3932
2987.764785563891,3962
2989.489849104102,3965
2991.2145987469908,3931
2992.9390348037705,3963
2994.6631575857346,3894
2996.3869674042576,3887
2998.1104645707887,3948
2999.83364939686,3869
3001.5565221940783,3937
3003.2790832741334,3835
3005.0013329487924,3952
3006.7232715298996,3822
3008.4448993293804,3949
3010.166216659239,3889
3011.887223831558,3823
3013.607921158498,3935
3015.3283089522993,3836
3017.0483875252826,3956
3018.7681571898443,3894
3020.4876182584626,3865
3022.2067710436927,3935
3023.9256158581707,3791
3025.644153014609,3745
3027.362382825801,3945
3029.0803056046193,3856
3030.797921664012,3821
3032.5152313170106,3829
3034.2322348767225,3841
3035.9489326563353,3874
3037.665324969115,3805
3039.3814121284063,3963
3041.097194447633,3797
3042.812672240299,3911
3044.5278458199855,3819
3046.2427155003525,4015
3047.9572815951406,3854
3049.671544418167,3768
3051.38550428333,3832
3053.0991615046073,3831
3054.812516396051,3788
3056.5255692717974,3839
3058.2383204460575,3721
3059.9507702331257,3792
3061.662918947372,3822
3063.3747669032446,3846
3065.0863144152736,3834
3066.7975617980674,3777
3068.508509366309,3801
3070.219157434767,3837
3071.9295063182844,3837
3073.639556331785,3791
3075.3493077902704,3755
3077.058761008821,3811
3078.7679163025964,3787
3080.476773986837,3773
3082.1853343768594,3943
3083.89359778806,3885
3085.6015645359153,3787
3087.3092349359786,3762
3089.016609303884,3938
3090.7236879553434,3861
3092.4304712061476,3776
3094.136959372166,3755
3095.843152769349,3721
3097.5490517137237,3729
3099.2546565213966,3708
3100.959967508554,3752
3102.66498499146,3770
3104.3697092864577,3737
3106.0741407099695,3778
3107.778279578498,3782
3109.482126208622,3636
3111.1856809170004,3718
3112.8889440203716,3846
3114.5919158355528,3796
3116.294596679439,3741
3117.996986869006,3788
3119.6990867213062,3695
3121.4008965534726,3862
3123.102416682717,3743
3124.803647426329,3847
3126.5045891016784,3688
3128.205242026213,3819
3129.90560651746,3677
3131.605682893025,3785
3133.3054714705922,3767
3135.0049725679282,3665
3136.7041865028714,3785
3138.4031135933465,3783
3140.101754157353,3710
3141.800108512971,3756
3143.498176978357,3705
3145.1959598717494,3753
3146.8934575114636,3749
3148.5906702158954,3753
3150.2875983035183,3635
3151.9842420928853,3713
3153.680601902627,3587
3155.376678051456,3645
3157.07247085816,3663
3158.767980641609,3708
3160.463207720748,3665
3162.158152414606,3658
3163.8528150422862,3675
3165.5471959229726,3685
3167.2412953759303,3722
3168.9351137204976,3750
3170.628651276098,3730
3172.3219083622307,3598
3174.014885298474,3680
3175.707582404485,3658
3177.4000000000005,3674
3179.092138404835,3669
3180.7839979388846,3752
3182.47557892212,3673
3184.166881674594,3689
3185.8579065164386,3781
3187.5486537678626,3605
3189.2391237491547,3707
3190.9293167806827,3713
3192.6192331828934,3722
3194.3088732763117,3622
3195.998237381542,3660
3197.687325819268,3590
3199.376138910251,3691
3201.064676975334,3590
3202.7529403354347,3662
3204.4409293115523,3609
3206.1286442247647,3611
3207.816085396229,3577
3209.5032531471825,3651
3211.190147798936,3570
3212.8767696728846,3551
3214.5631190905015,3621
3216.2491963733373,3603
3217.9350018430214,3567
3219.6205358212637,3513
3221.305798629851,3581
3222.990790590651,3545
3224.6755120256103,3600
3226.359963256751,3435
3228.0441446061795,3513
3229.7280563960758,3609
3231.411698948703,3645
3233.0950725863995,3556
3234.778177631587,3532
3236.461014406761,3657
3238.1435832345005,3598
3239.8258844374595,3575
3241.507918338374,3540
3243.1896852600576,3527
3244.8711855254023,3577
3246.552419457381,3511
3248.233387379042,3609
3249.914089613516,3486
3251.59452648401,3512
3253.274698313813,3602
3254.95460542629,3532
3256.6342481448855,3478
3258.313626793125,3511
3259.9927416946084,3516
3261.6715931730196,3477
3263.3501815521176,3417
3265.0285071557437,3506
3266.706570307815,3546
3268.3843713323286,3503
3270.0619105533615,3418
3271.739188295068,3535
3273.4162048816834,3456
3275.0929606375184,3410
3276.769455886966,3515
3278.445690954498,3520
3280.1216661646613,3539
3281.797381842087,3486
3283.4728383114807,3610
3285.1480358976296,3491
3286.8229749253996,3417
3288.4976557197333,3407
3290.172078605655,3511
3291.846243908266,3372
3293.5201519527463,3378
3295.193803064357,3396
3296.8671975684374,3393
3298.5403357904024,3491
3300.21321805575,3441
3301.8858446900567,3447
3303.558216018975,3461
3305.23033236824,3451
3306.9021940636603,3455
3308.57380143113,3489
3310.2451547966184,3444
3311.916254486174,3491
3313.5871008259246,3404
3315.2576941420766,3354
3316.9280347609147,3505
3318.5981230088046,3356
3320.2679592121895,3309
3321.9375436975924,3262
3323.606876791612,3309
3325.27595882093,3367
3326.944790112305,3345
3328.6133709925753,3345
3330.2817017886573,3349
3331.949782827547,3378
3333.617614436319,3478
3335.2851969421245,3478
3336.952530672199,3549
3338.619615953853,3459
3340.286453114475,3479
3341.9530424815357,3471
3343.619384382583,3427
3345.2854791452437,3414
3346.951327097224,3453
3348.6169285663073,3405
3350.2822838803577,3435
3351.947393367319,3321
3353.61225735521,3411
3355.2768761721345,3479
3356.9412501462693,3374
3358.605379605873,3466
3360.2692648792827,3383
3361.9329062949146,3344
3363.596304181263,3310
