CollectionTime,7/10/2024 5:02:12 PM
ExposureUsed,3
CalibratedSpectrum
-962.7078968117929,838
-959.9714848408522,871
-957.2358232597828,886
-954.5009119013725,873
-951.7667505983302,886
-949.0333391832855,898
-946.3006774887896,898
-943.5687653473143,933
-940.837602591253,904
-938.1071890529199,904
-935.3775245645503,884
-932.6486089583007,935
-929.9204420662485,898
-927.1930237203925,929
-924.4663537526524,936
-921.7404319948689,897
-919.0152582788041,913
-916.2908324361409,940
-913.5671542984834,884
-910.8442236973568,899
-908.1220404642074,914
-905.4006044304027,958
-902.679915427231,916
-899.959973285902,918
-897.2407778375464,921
-894.5223289132158,915
-891.8046263438832,950
-889.0876699604426,906
-886.3714595937089,908
-883.6559950744183,919
-880.9412762332282,908
-878.2273029007168,891
-875.5140749073835,948
-872.8015920836489,875
-870.0898542598545,932
-867.3788612662631,910
-864.6686129330585,928
-861.9591090903457,889
-859.2503495681506,931
-856.5423341964203,912
-853.8350628050229,891
-851.1285352237478,916
-848.4227512823054,890
-845.7177108103272,905
-843.0134136373656,915
-840.3098595928943,927
-837.6070485063082,939
-834.9049802069229,941
-832.2036545239757,891
-829.5030712866244,927
-826.8032303239481,967
-824.1041314649472,940
-821.4057745385428,971
-818.7081593735775,987
-816.0112857988148,948
-813.3151536429393,948
-810.6197627345566,976
-807.9251129021936,947
-805.2312039742981,928
-802.5380357792392,937
-799.8456081453069,971
-797.1539209007124,966
-794.462973873588,975
-791.772766891987,1033
-789.083299783884,990
-786.3945723771743,945
-783.7065844996748,934
-781.0193359791231,967
-778.3328266431781,956
-775.6470563194197,952
-772.9620248353489,968
-770.2777320183878,969
-767.5941776958798,993
-764.9113616950891,972
-762.2292838432011,976
-759.5479439673222,994
-756.8673418944801,1001
-754.1874774516235,952
-751.5083504656222,1015
-748.8299607632671,992
-746.15230817127,985
-743.475392516264,967
-740.7992136248035,988
-738.1237713233636,957
-735.4490654383407,992
-732.7750957960521,1000
-730.1018622227365,1054
-727.4293645445534,1031
-724.7576025875837,984
-722.0865761778291,1003
-719.4162851412126,1007
-716.7467293035781,1060
-714.0779084906909,1027
-711.409822528237,1016
-708.7424712418238,1042
-706.0758544569796,1058
-703.4099719991541,1025
-700.7448236937178,1079
-698.0804093659622,1044
-695.4167288411002,1061
-692.7537819442656,1012
-690.0915685005134,1029
-687.4300883348199,1014
-684.7693412720819,1088
-682.1093271371178,1062
-679.4500457546669,1023
-676.7914969493897,1046
-674.1336805458676,1056
-671.4765963686034,1051
-668.8202442420206,1099
-666.1646239904642,1089
-663.5097354382001,1029
-660.8555784094151,1032
-658.2021527282176,1082
-655.5494582186366,1110
-652.8974947046223,1032
-650.2462620100463,1090
-647.5957599587009,1092
-644.9459883742998,1136
-642.2969470804776,1101
-639.6486359007902,1078
-637.0010546587141,1110
-634.3542031776476,1126
-631.7080812809096,1147
-629.0626887917401,1082
-626.4180255333008,1098
-623.7740913286734,1116
-621.1308860008619,1158
-618.4884093727904,1149
-615.8466612673046,1157
-613.2056415071715,1121
-610.5653499150785,1100
-607.9257863136347,1064
-605.28695052537,1141
-602.6488423727357,1119
-600.0114616781036,1161
-597.3748082637674,1166
-594.7388819519412,1133
-592.1036825647604,1153
-589.4692099242818,1133
-586.8354638524829,1157
-584.2024441712624,1136
-581.5701507024403,1182
-578.9385832677575,1179
-576.3077416888759,1183
-573.6776257873787,1197
-571.0482353847704,1135
-568.4195703024757,1148
-565.7916303618415,1149
-563.164415384135,1150
-560.5379251905453,1157
-557.9121596021815,1193
-555.2871184400748,1168
-552.6628015251767,1173
-550.0392086783606,1182
-547.4163397204204,1176
-544.794194472071,1215
-542.1727727539491,1223
-539.5520743866118,1279
-536.9320991905377,1291
-534.3128469861261,1300
-531.6943175936979,1272
-529.0765108334947,1274
-526.4594265256793,1318
-523.8430644903358,1458
-521.2274245474689,1607
-518.612506517005,1653
-515.9983102187913,1660
-513.3848354725959,1602
-510.77208209810846,1563
-508.16004991493924,1589
-505.5487387426199,1728
-502.9381484006032,1792
-500.3282787082628,1872
-497.71912948489364,1878
-495.1107005497117,1830
-492.5029917218539,1728
-489.8960028203786,1661
-487.28973366426493,1612
-484.68418407241325,1482
-482.07935386364494,1390
-479.47524285670266,1404
-476.87185087025,1375
-474.2691777228715,1414
-471.66722323307334,1451
-469.0659872192821,1415
-466.4654694998459,1424
-463.86566989303384,1403
-461.26658821703614,1397
-458.66822428996414,1379
-456.07057792985,1349
-453.4736489546475,1384
-450.877437182231,1415
-448.28194243039627,1362
-445.68716451686,1314
-443.09310325926003,1366
-440.49975847515555,1375
-437.9071299820263,1320
-435.31521759727354,1312
-432.72402113821954,1344
-430.13354042210767,1402
-427.5437752661022,1383
-424.95472548728867,1426
-422.36639090267386,1459
-419.7787713291855,1470
-417.1918665836721,1476
-414.60567648290385,1502
-412.0202008435715,1510
-409.4354394822874,1468
-406.8513922155845,1489
-404.26805885991723,1449
-401.685439231661,1514
-399.103533147112,1509
-396.522340422488,1497
-393.9418608739278,1420
-391.3620943174908,1439
-388.7830405691583,1432
-386.2046994448317,1365
-383.6270707603344,1243
-381.05015433141045,1189
-378.473949973725,1151
-375.8984575028645,1103
-373.32367673433623,1019
-370.74960748356875,891
-368.1762495659117,834
-365.60360279663576,799
-363.03166699093265,731
-360.4604419639154,625
-357.8899275306178,584
-355.32012350599507,556
-352.7510297049233,513
-350.1826459421999,527
-347.61497203254316,510
-345.04800779059235,549
-342.4817530309082,522
-339.91620756797226,520
-337.35137121618743,529
-334.7872437898774,557
-332.22382510328725,567
-329.66111497058273,520
-327.09911320585127,535
-324.53781962310075,538
-321.9772340362607,499
-319.4173562591816,508
-316.8581861056348,461
-314.2997233893127,483
-311.7419679238294,482
-309.1849195227194,466
-306.62857799943856,517
-304.0729431673641,550
-301.51801483979375,565
-298.963792829947,531
-296.41027695096386,527
-293.85746701590574,567
-291.3053628377552,609
-288.7539642294155,599
-286.2032710037115,568
-283.65328297338897,577
-281.1039999511146,630
-278.5554217494762,703
-276.007548180983,665
-273.4603790580651,617
-270.9139141930734,591
-268.3681533982807,697
-265.8230964858798,657
-263.27874326798565,627
-260.7350935566336,656
-258.1921471637804,616
-255.6499039013039,674
-253.10836358100266,659
-250.56752601459698,662
-248.02739101372765,612
-245.48795838995704,745
-242.94922795476816,707
-240.41119951956557,646
-237.8738728956746,673
-235.33724789434166,672
-232.80132432673452,677
-230.2661020039418,658
-227.73158073697357,621
-225.19776033676033,668
-222.66464061415422,705
-220.1322213799284,742
-217.60050244477725,673
-215.06948361931552,673
-212.53916471408013,684
-210.00954553952818,741
-207.48062590603843,738
-204.9524056239104,744
-202.4248845033651,764
-199.8980623545441,783
-197.37193898751036,771
-194.84651421224817,765
-192.32178783866232,801
-189.79775967657952,758
-187.27442953574644,885
-184.7517972258321,893
-182.2298625564256,875
-179.7086253370378,825
-177.18808537710026,807
-174.66824248596583,770
-172.14909647290835,843
-169.6306471471229,857
-167.11289431772548,853
-164.59583779375328,926
-162.07947738416453,864
-159.5638128978386,942
-157.04884414357605,1076
-154.53457093009854,1090
-152.02099306604828,1120
-149.50811035998936,997
-146.99592262040665,926
-144.48442965570587,925
-141.97363127421409,1066
-139.46352728417958,1153
-136.95411749377126,1166
-134.44540171107985,1045
-131.93737974411636,940
-129.43005140081357,968
-126.92341648902493,1295
-124.41747481652521,1710
-121.91222619101006,2091
-119.40767042009657,2452
-116.90380731132257,2690
-114.40063667214702,2810
-111.8981583099503,2291
-109.3963720320337,1737
-106.89527764561933,1492
-104.39487495785067,2123
-101.89516377579241,3397
-99.39614390642998,4697
-96.89781515667039,5335
-94.40017733334128,5549
-91.90323024319173,7490
-89.40697369289148,10897
-86.91140748903172,12729
-84.41653143812482,11422
-81.92234534660395,8456
-79.42884902082358,5662
-76.93604226705907,8204
-74.4439248915071,15044
-71.95249670028534,23409
-69.46175749943245,28263
-66.97170709490854,28720
-64.48234529259423,25176
-61.99367189829195,19205
-59.50568671772464,11904
-57.01838955653636,8284
-54.53178022029283,7956
-52.045858514480074,8219
-49.560624244506016,9042
-47.07607721569923,9903
-44.59221723330904,10642
-42.10904410250669,10606
-39.62655762838392,10790
-37.14475761595372,11211
-34.66364387015028,11463
-32.18321619582866,10729
-29.70347439776515,10584
-27.224418280657005,10804
-24.74604764912317,11115
-22.26836230770266,15803
-19.7913620608565,31019
-17.315046712966478,55669
-14.83941606833514,65038
-12.36446993118659,65038
-9.89020810566592,65038
-7.416630395839093,65038
-4.94373660569363,65038
-2.471526539137585,65038
-6.821210263296962E-13,65038
2.47084320796705,65038
4.941003281093458,65038
7.410480415786196,65038
9.879274808531363,65038
12.347386655893956,65038
14.814816154518212,65038
17.28156350112681,65038
19.74762889252179,65038
22.21301252558385,65038
24.67771459727237,21071
27.141735304626195,4490
29.605074844762612,3397
32.06773341487792,3234
34.52971121224755,3695
36.99100843422559,3445
39.45162527824516,2792
41.91156194181792,2208
44.370818622535126,1876
46.82939551806646,1415
49.287292826160524,1613
51.74451074464503,2255
54.201049471426245,2828
56.65690920448981,2420
59.112090141899785,1817
61.56659248179983,1494
64.02041642241159,1419
66.4735621620365,1235
68.92602989905402,1181
71.37781983192338,1488
73.82893215918205,1949
76.27936707944684,1908
78.72912479141326,1530
81.17820549385567,1375
83.62660938562783,1452
86.07433666566146,1392
88.5213875329681,1135
90.96776218663751,1109
93.41346082583925,1268
95.85848364982041,1314
98.30283085790859,1790
100.7465026495089,1596
103.18949922410604,1278
105.63182078126385,1222
108.07346752062438,1243
110.51443964190923,1247
112.95473734491827,1054
115.39436082953114,1067
117.83331029570547,1088
120.27158594347827,1207
122.7091879729652,1243
125.1461165843615,1311
127.58237197794062,1285
130.01795435405518,1080
132.4528639131364,1058
134.88710085569494,1066
137.32066538231982,1013
139.75355769367923,1045
142.1857779905207,1042
144.61732647366978,993
147.04820334403132,894
149.47840880258934,1074
151.90794305040674,1043
154.33680628862487,1258
156.76499871846443,1496
159.19252054122433,1623
161.61937195828352,1623
164.04555317109896,1709
166.47106438120693,2012
168.89590579022217,2260
171.320077599839,2452
173.7435800118302,2607
176.16641322804742,2696
178.58857745042144,2935
181.01007288096173,2918
183.43089972175687,2967
185.85105817497413,2946
188.27054844285988,3031
190.6893707277394,3089
193.10752523201643,3210
195.5250121581745,3350
197.9418317087751,3357
200.3579840864594,3366
202.7734694939469,3354
205.18828813403627,3372
207.6024402096051,3655
210.01592592360964,3627
212.42874547908548,3513
214.84089907914665,3651
217.2523869269868,3506
219.66320922587727,3443
222.0733661791695,3513
224.48285799029293,3549
226.8916848627572,3350
229.29984700014882,3455
231.7073446061355,3468
234.11417788446204,3556
236.520347038953,3468
238.92585227351185,3631
241.33069379212054,3511
243.73487179884035,3584
246.1383864978112,3612
248.541238093252,3678
250.9434267894609,3633
253.34495279081432,3592
255.74581630176783,3692
258.1460175268563,3627
260.54555667069314,3623
262.9444339379703,3528
265.3426495334594,3468
267.7402036620107,3600
270.1370965285529,3649
272.53332833809407,3421
274.9288992957214,3401
277.32380960660055,3343
279.718059475976,3367
282.1116491091717,3359
284.5045787115897,3418
286.89684848871195,3306
289.2884586460981,3236
291.67940938938807,3306
294.0697009242996,3358
296.4593334566299,3338
298.84830719225477,3410
301.23662233712923,3329
303.6242790972866,3297
306.01127767884,3175
308.39761828798066,3168
310.78330113097934,3185
313.16832641418534,3300
315.5526943440269,3248
317.9364051270112,3242
320.3194589697242,3092
322.70185607883093,3122
325.0835966610754,3143
327.4646809232805,3180
329.8451090723478,3076
332.2248813152577,3083
334.6039978590701,3102
336.9824589109231,3066
339.36026467803447,3055
341.7374153677,2989
344.113911187295,2997
346.48975234427337,3019
348.8649390461686,2963
351.2394715005918,3022
353.61334991523415,2946
355.9865744978655,2942
358.35914545633375,3017
360.73106299856715,2996
363.10232733257146,3006
365.47293866643247,2958
367.84289720831396,2909
370.2122031664593,2945
372.5808567491905,2945
374.9488581649083,2962
377.31620762209275,2903
379.6829053293021,2962
382.0489514951745,2885
384.4143463284262,2793
386.7790900378528,2803
389.14318283232853,2927
391.50662492080653,2840
393.86941651231916,2818
396.23155781597745,2817
398.5930490409713,2866
400.9538903965696,2851
403.3140820921202,3024
405.6736243370498,2857
408.03251734086336,2843
410.3907613131465,2804
412.74835646356166,2696
415.10530300185144,2782
417.4616011378372,2813
419.81725108141893,2807
422.1722530425758,2837
424.5266072313656,2828
426.880313857925,2856
429.2333731324701,2804
431.58578526529516,2806
433.9375504667738,2807
436.2886689473588,2814
438.63914091758113,2885
440.9889665880513,2780
443.33814616945835,2792
445.68667987257015,2688
448.03456790823395,2716
450.3818104873759,2746
452.72840782100013,2834
455.07436012019105,2743
457.41966759611057,2838
459.7643304600007,2740
462.10834892318155,2756
464.4517231970525,2731
466.79445349309174,2735
469.1365400228566,2771
471.4779829979826,2741
473.81878263018564,2792
476.15893913125876,2800
478.4984527130747,2854
480.8373235875855,2879
483.17555196682144,2888
485.5131380628919,2864
487.8500820879857,2954
490.1863842543697,3073
492.52204477439034,3129
494.8570638604725,3359
497.1914417251204,3558
499.52517858091653,3853
501.85827464052306,4051
504.19073011668036,4064
506.5225452222086,3984
508.85372017000566,4003
511.18425517304956,3933
513.514150444396,4179
515.8434061971808,4806
518.1720226446176,5775
520.4999999999999,6281
522.8273384766991,5921
525.1540382881666,5533
527.480099647932,5138
529.8055227696037,4394
532.1303078668694,3736
534.454455153496,3242
536.777964843328,2995
539.1008371502907,3031
541.4230722883866,2921
543.744670471698,2892
546.0656319143858,2866
548.3859568306899,2916
550.7056454349294,2849
553.0246979415016,2820
555.3431145648834,2787
557.6608955196306,2887
559.978041020377,2875
562.2945512818363,2782
564.6104265188006,2883
566.9256669461412,2868
569.2402727788082,2922
571.5542442318302,2855
573.8675815203156,2926
576.1802848594508,2871
578.4923544645015,2892
580.8037905508126,2937
583.114593333807,2868
585.4247630289875,2846
587.7342998519354,2854
590.0432040183106,2805
592.3514757438526,2915
594.6591152443794,2928
596.9661227357875,2859
599.2724984340531,2881
601.578242555231,2876
603.8833553154542,2911
606.1878369309362,2874
608.4916876179676,2847
610.7949075929192,2792
613.0974970722403,2872
615.3994562724587,2849
617.7007854101818,2903
620.0014847020951,2915
622.3015543649641,2911
624.6009946156324,2936
626.8998056710224,2846
629.1979877481361,2858
631.4955410640538,2831
633.7924658359349,2946
636.0887622810175,2852
638.3844306166192,2828
640.6794710601358,2794
642.9738838290426,2941
645.2676691408932,2866
647.5608272133207,2950
649.853358264037,2991
652.1452625108324,2902
654.4365401715764,2888
656.7271914642178,2918
659.0172166067838,2942
661.3066158173809,2873
663.5953893141935,3041
665.8835373154867,2861
668.1710600396028,2931
670.4579577049639,3000
672.7442305300709,2988
675.0298787335033,3022
677.3149025339197,2999
679.599302150058,2888
681.8830778007342,2919
684.1662297048437,2930
686.4487580813608,3043
688.7306631493387,2982
691.0119451279091,3017
693.2926042362834,3024
695.5726406937516,2964
697.8520547196814,2974
700.1308465335215,3127
702.4090163547982,3056
704.6865644031171,2929
706.9634908981619,2931
709.2397960596965,2929
711.5154801075631,2938
713.7905432616823,2967
716.0649857420548,2895
718.3388077687592,2889
720.612009561953,2950
722.8845913418733,2869
725.1565533288352,2988
727.427895743234,2922
729.6986188055427,3032
731.9687227363137,2909
734.238207756178,2928
736.5070740858458,2969
738.7753219461066,2959
741.0429515578281,2934
743.3099631419569,3011
745.5763569195191,2999
747.8421331116193,3018
750.1072919394409,2995
752.3718336242467,3019
754.6357583873777,2975
756.8990664502545,3051
759.1617580343765,2982
761.423833361321,2952
763.6852926527457,2905
765.9461361303862,3004
768.206364016058,3027
770.4659765316536,2992
772.7249738991469,2987
774.9833563405886,2910
777.2411240781092,3056
779.4982773339183,2978
781.7548163303044,3070
784.010741289634,3067
786.2660524343538,3135
788.5207499869881,3007
790.7748341701416,2996
793.0283052064964,3091
795.2811633188143,3070
797.5334087299362,3069
799.7850416627813,3128
802.0360623403484,3064
804.2864709857143,3012
806.5362678220353,3037
808.7854530725468,3060
811.0340269605625,3033
813.2819897094754,3124
815.5293415427581,3051
817.77608268396,3029
820.0222133567116,3037
822.2677337847211,3018
824.5126441917765,3057
826.7569448017433,3019
829.0006358385675,3004
831.2437175262731,3058
833.4861900889629,3041
835.7280537508192,3089
837.9693087361026,2911
840.2099552691533,2964
842.4499935743896,3038
844.689423876309,3006
846.9282463994886,3058
849.1664613685833,2916
851.4040690083276,3107
853.6410695435349,3010
855.877463199097,3000
858.1132501999847,3015
860.3484307712487,3081
862.5830051380175,3113
864.8169735254988,2997
867.0503361589791,3087
869.2830932638243,3028
871.5152450654786,3137
873.7467917894654,3047
875.9777336613873,3164
878.2080709069252,3079
880.4378037518389,3145
882.666932421968,3120
884.8954571432301,3124
887.1233781416219,3071
889.3506956432192,3120
891.5774098741766,2994
893.803521060728,3159
896.0290294291852,3095
898.2539352059397,3091
900.4782386174619,3023
902.7019398903011,2984
904.925039251085,3098
907.147536926521,3024
909.3694331433943,3018
911.59072812857,3119
913.8114221089921,3001
916.0315153116827,2962
918.2510079637437,3044
920.4699002923547,3016
922.6881925247761,2964
924.905884888345,3031
927.1229776104793,2958
929.3394709186747,3047
931.555365040506,2965
933.7706602036275,3025
935.9853566357709,3006
938.1994545647489,3098
940.4129542184515,3059
942.6258558248488,3095
944.8381596119883,2991
947.0498658079974,2953
949.2609746410825,3002
951.4714863395287,2979
953.6814011316998,3024
955.8907192460387,3047
958.0994409110671,3001
960.3075663553858,2915
962.5150958076741,2919
964.7220294966913,2953
966.928367651274,3005
969.1341105003388,2896
971.3392582728806,2875
973.5438111979742,3030
975.747769504772,2951
977.9511334225061,3063
980.153903180487,2987
982.3560790081052,2961
984.5576611348289,2953
986.7586497902058,2994
988.9590452038618,2970
991.158847605503,2969
993.3580572249133,2824
995.5566742919558,2889
997.7546990365728,2849
999.952131688785,2752
1002.1489724786926,2793
1004.3452216364743,2833
1006.5408793923874,2816
1008.7359459767691,2715
1010.9304216200343,2741
1013.1243065526781,2739
1015.3176010052733,2836
1017.510305208472,2713
1019.7024193930064,2653
1021.8939437896848,2682
1024.0848786293977,2729
1026.2752241431122,2609
1028.4649805618747,2616
1030.6541481168115,2717
1032.842727039127,2583
1035.0307175601051,2735
1037.2181199111074,2644
1039.4049343235752,2684
1041.591161029029,2622
1043.7768002590683,2633
1045.9618522453698,2751
1048.1463172196918,2686
1050.3301954138697,2629
1052.513487059818,2730
1054.69619238953,2605
1056.8783116350783,2768
1059.0598450286152,2622
1061.2407928023704,2683
1063.4211551886528,2691
1065.6009324198508,2677
1067.780124728432,2694
1069.9587323469414,2648
1072.1367555080046,2753
1074.314194444325,2653
1076.4910493886855,2624
1078.667320573947,2713
1080.843008233051,2669
1083.0181125990161,2671
1085.1926339049414,2519
1087.3665723840027,2664
1089.5399282694575,2638
1091.7127017946405,2607
1093.8848931929647,2594
1096.0565026979243,2693
1098.2275305430899,2625
1100.3979769621128,2528
1102.567842188722,2747
1104.737126456726,2525
1106.9058300000124,2562
1109.0739530525475,2511
1111.2414958483764,2652
1113.4084586216231,2549
1115.5748416064907,2625
1117.7406450372605,2573
1119.9058691482942,2594
1122.0705141740304,2556
1124.2345803489884,2582
1126.3980679077658,2622
1128.5609770850388,2573
1130.7233081155623,2568
1132.8850612341707,2550
1135.0462366757774,2622
1137.2068346753745,2502
1139.3668554680326,2585
1141.526299288901,2560
1143.68516637321,2618
1145.8434569562655,2563
1148.001171273455,2545
1150.158309560244,2570
1152.3148720521767,2527
1154.470858984876,2552
1156.626270594044,2599
1158.7811071154629,2559
1160.9353687849912,2577
1163.089055838569,2565
1165.242168512213,2519
1167.3947070420209,2649
1169.5466716641677,2558
1171.6980626149075,2520
1173.8488801305748,2572
1175.9991244475814,2553
1178.1487958024186,2658
1180.2978944316555,2576
1182.4464205719428,2544
1184.5943744600072,2527
1186.7417563326567,2547
1188.8885664267755,2447
1191.0348049793297,2510
1193.1804722273619,2492
1195.325568407995,2470
1197.4700937584303,2558
1199.614048515948,2511
1201.7574329179074,2593
1203.900247201746,2588
1206.042491604982,2565
1208.1841663652099,2510
1210.3252717201053,2609
1212.465807907422,2561
1214.6057751649923,2612
1216.7451737307279,2529
1218.8840038426192,2626
1221.0222657387353,2694
1223.1599596572241,2634
1225.2970858363137,2610
1227.4336445143094,2582
1229.5696359295966,2566
1231.705060320639,2568
1233.8399179259786,2625
1235.9742089842384,2553
1238.107933734118,2634
1240.2410924143974,2610
1242.373685263935,2630
1244.5057125216676,2660
1246.6371744266116,2559
1248.7680712178621,2635
1250.898403134593,2707
1253.028170416058,2594
1255.1573733015875,2610
1257.2860120305932,2679
1259.4140868425648,2641
1261.54159797707,2607
1263.6685456737569,2665
1265.7949301723515,2627
1267.9207517126597,2750
1270.046010534565,2762
1272.1707068780306,2636
1274.2948409830983,2664
1276.4184130898889,2636
1278.541423438603,2713
1280.6638722695184,2546
1282.785759822993,2728
1284.9070863394636,2691
1287.0278520594447,2650
1289.1480572235314,2754
1291.2677020723963,2706
1293.3867868467923,2712
1295.5053117875495,2712
1297.623277135579,2766
1299.740683131868,2812
1301.8575300174857,2778
1303.973818033578,2847
1306.0895474213703,2809
1308.2047184221678,2764
1310.3193312773528,2899
1312.4333862283888,2848
1314.5468835168163,2794
1316.659823384255,2772
1318.7722060724045,2832
1320.8840318230418,2887
1322.9953008780249,2719
1325.1060134792888,2742
1327.2161698688478,2807
1329.3257702887959,2828
1331.4348149813054,2803
1333.5433041886276,2805
1335.6512381530933,2791
1337.7586171171101,2808
1339.8654413231675,2811
1341.9717110138317,2762
1344.0774264317488,2876
1346.1825878196432,2810
1348.2871954203192,2815
1350.3912494766587,2784
1352.4947502316231,2769
1354.5976979282532,2773
1356.7000928096686,2779
1358.8019351190665,2746
1360.9032250997243,2761
1363.0039629949988,2736
1365.1041490483235,2772
1367.2037835032133,2779
1369.3028666032606,2754
1371.401398592137,2693
1373.4993797135926,2764
1375.5968102114575,2846
1377.6936903296396,2737
1379.7900203121262,2871
1381.8858004029835,2786
1383.9810308463561,2782
1386.075711886469,2747
1388.1698437676241,2747
1390.2634267342032,2747
1392.356461030667,2828
1394.4489469015557,2718
1396.5408845914872,2800
1398.6322743451592,2744
1400.7231164073469,2810
1402.813411022907,2749
1404.903158436773,2821
1406.9923588939578,2809
1409.0810126395531,2908
1411.1691199187303,2769
1413.2566809767386,2761
1415.343696058907,2893
1417.4301654106425,2925
1419.5160892774315,2789
1421.6014679048399,2861
1423.6863015385125,2867
1425.7705904241707,2942
1427.8543348076178,2882
1429.9375349347342,2861
1432.0201910514802,2891
1434.102303403894,2975
1436.1838722380944,2978
1438.2648978002767,2936
1440.3453803367174,2937
1442.4253200937692,3004
1444.5047173178677,3031
1446.5835722555234,3018
1448.6618851533285,3097
1450.739656257952,3111
1452.8168858161434,3023
1454.8935740747306,3174
1456.96972128062,3094
1459.045327680797,3132
1461.120393522327,3133
1463.1949190523528,3186
1465.2689045180973,3231
1467.3423501668608,3201
1469.415256246024,3342
1471.4876230030463,3297
1473.559450685465,3332
1475.6307395408976,3324
1477.7014898170391,3399
1479.771701761665,3385
1481.8413756226287,3384
1483.9105116478618,3449
1485.9791100853772,3496
1488.0471711832643,3513
1490.1146951896926,3536
1492.1816823529098,3575
1494.2481329212433,3636
1496.3140471430984,3461
1498.3794252669609,3569
1500.4442675413939,3660
1502.5085742150404,3729
1504.572345536622,3737
1506.6355817549388,3742
1508.6982831188702,3838
1510.7604498773744,3892
1512.8220822794883,3827
1514.8831805743293,3915
1516.9437450110909,3805
1519.003775839048,3811
1521.0632733075522,3884
1523.1222376660367,3914
1525.1806691640113,4039
1527.2385680510652,4040
1529.2959345768668,4142
1531.3527689911643,4154
1533.4090715437833,4104
1535.4648424846291,4069
1537.5200820636855,4134
1539.5747905310159,4206
1541.6289681367616,4295
1543.6826151311434,4286
1545.7357317644614,4367
1547.7883182870937,4375
1549.8403749494987,4392
1551.8919020022113,4408
1553.9428996958477,4529
1555.9933682811015,4605
1558.0433080087469,4632
1560.0927191296346,4690
1562.1416018946961,4566
1564.1899565549415,4633
1566.2377833614592,4578
1568.2850825654164,4583
1570.3318544180606,4471
1572.3780991707158,4397
1574.423817074788,4245
1576.4690083817595,4184
1578.5136733431923,4071
1580.5578122107272,3913
1582.601425236085,3996
1584.6445126710646,3873
1586.6870747675434,3659
1588.7291117774776,3605
1590.7706239529034,3401
1592.8116115459347,3487
1594.8520748087658,3437
1596.8920139936686,3393
1598.9314293529933,3264
1600.9703211391711,3285
1603.008689604711,3209
1605.0465350022005,3081
1607.0838575843068,3129
1609.1206576037753,3052
1611.1569353134305,3063
1613.1926909661765,3060
1615.2279248149953,2942
1617.2626371129481,2950
1619.2968281131757,2982
1621.3304980688963,2917
1623.3636472334088,2849
1625.39627586009,2893
1627.428384202396,2907
1629.459972513861,2854
1631.4910410480993,2865
1633.5215900588028,2814
1635.551619799744,2903
1637.5811305247717,2804
1639.6101224878166,2922
1641.6385959428862,2796
1643.6665511440683,2733
1645.693988345528,2777
1647.7209078015112,2837
1649.7473097663405,2814
1651.7731944944203,2774
1653.7985622402307,2760
1655.823413258333,2812
1657.847747803366,2805
1659.8715661300494,2809
1661.8948684931793,2790
1663.9176551476316,2875
1665.9399263483624,2639
1667.9616823504057,2676
1669.982923408873,2730
1672.0036497789574,2742
1674.0238617159293,2762
1676.043559475138,2809
1678.0627433120121,2677
1680.081413482059,2669
1682.0995702408654,2757
1684.117213844096,2746
1686.134344547495,2771
1688.1509626068864,2697
1690.1670682781705,2748
1692.182661817329,2750
1694.1977434804217,2666
1696.2123135235875,2667
1698.226372203043,2674
1700.2399197750851,2787
1702.2529564960905,2720
1704.2654826225112,2810
1706.277498410882,2691
1708.2890041178139,2731
1710.2999999999988,2741
1712.3104863142066,2732
1714.3204633172854,2708
1716.329931266163,2665
1718.3388904178469,2684
1720.3473410294214,2653
1722.3552833580516,2772
1724.3627176609807,2728
1726.3696441955308,2687
1728.3760632191033,2778
1730.3819749891782,2718
1732.3873797633146,2669
1734.3922777991502,2614
1736.3966693544012,2762
1738.4005546868639,2715
1740.4039340544127,2749
1742.406807715001,2736
1744.4091759266616,2740
1746.4110389475054,2660
1748.4123970357223,2628
1750.413250449582,2732
1752.4135994474318,2624
1754.4134442876993,2653
1756.4127852288902,2712
1758.4116225295893,2692
1760.4099564484595,2626
1762.407787244244,2695
1764.405115175764,2694
1766.4019405019203,2680
1768.3982634816916,2686
1770.3940843741357,2606
1772.3894034383907,2609
1774.3842209336717,2568
1776.378537119274,2721
1778.372352254571,2686
1780.3656665990156,2655
1782.3584804121397,2640
1784.3507939535534,2721
1786.3426074829463,2578
1788.3339212600863,2686
1790.3247355448211,2736
1792.3150505970766,2677
1794.3048666768573,2658
1796.2941840442477,2614
1798.2830029594106,2612
1800.2713236825884,2686
1802.2591464741004,2671
1804.2464715943465,2653
1806.2332993038058,2671
1808.2196298630352,2735
1810.2054635326708,2669
1812.190800573428,2683
1814.175641246101,2655
1816.1599858115628,2717
1818.1438345307652,2723
1820.127187664738,2765
1822.1100454745924,2637
1824.092408221516,2755
1826.0742761667766,2727
1828.055649571721,2646
1830.0365286977735,2677
1832.0169138064398,2632
1833.9968051593014,2719
1835.9762030180214,2668
1837.9551076443408,2722
1839.9335193000788,2736
1841.9114382471344,2625
1843.888864747485,2677
1845.8657990631878,2676
1847.842241456378,2674
1849.8181921892697,2671
1851.7936515241558,2607
1853.7686197234098,2635
1855.7430970494815,2678
1857.7170837649014,2562
1859.6905801322787,2632
1861.6635864143004,2694
1863.6361028737338,2745
1865.608129773424,2658
1867.5796673762961,2620
1869.5507159453537,2655
1871.521275743678,2730
1873.4913470344313,2748
1875.4609300808534,2758
1877.4300251462632,2772
1879.3986324940588,2617
1881.366752387717,2766
1883.3343850907936,2738
1885.3015308669228,2750
1887.268189979819,2617
1889.2343626932739,2708
1891.2000492711595,2615
1893.1652499774254,2719
1895.1299650761011,2740
1897.0941948312952,2737
1899.0579395071945,2708
1901.0211993680641,2753
1902.98397467825,2754
1904.9462657021745,2676
1906.9080727043415,2680
1908.869395949332,2777
1910.8302357018065,2751
1912.790592226504,2686
1914.7504657882428,2686
1916.7098566519212,2669
1918.6687650825133,2596
1920.6271913450764,2730
1922.5851357047422,2763
1924.5425984267245,2718
1926.499579776314,2690
1928.4560800188833,2686
1930.4120994198802,2735
1932.367638244833,2675
1934.32269675935,2720
1936.2772752291175,2729
1938.231373919899,2658
1940.1849930975404,2654
1942.1381330279637,2689
1944.0907939771696,2585
1946.0429762112412,2676
1947.9946799963363,2747
1949.9459055986945,2705
1951.896653284633,2711
1953.8469233205478,2710
1955.7967159729142,2709
1957.7460315082863,2649
1959.6948701932974,2725
1961.6432322946594,2686
1963.5911180791632,2709
1965.5385278136787,2648
1967.4854617651545,2690
1969.4319202006182,2730
1971.377903387176,2731
1973.3234115920136,2778
1975.268445082395,2673
1977.2130041256642,2622
1979.1570889892423,2703
1981.1006999406304,2725
1983.04383724741,2681
1984.986501177238,2717
1986.928691997853,2700
1988.8704099770712,2671
1990.811655382789,2705
1992.7524284829801,2674
1994.692729545698,2687
1996.6325588390755,2785
1998.5719166313224,2809
2000.5108031907307,2632
2002.4492187856677,2768
2004.387163684583,2766
2006.3246381560011,2786
2008.2616424685298,2676
2010.1981768908527,2594
2012.1342416917332,2667
2014.069837140014,2688
2016.0049635046162,2592
2017.9396210545406,2703
2019.8738100588666,2646
2021.8075307867502,2685
2023.740783507431,2747
2025.6735684902228,2613
2027.6058860045214,2634
2029.5377363198004,2626
2031.4691197056118,2715
2033.4000364315875,2682
2035.3304867674374,2712
2037.260470982952,2642
2039.189989347998,2733
2041.1190421325232,2688
2043.047629606554,2812
2044.9757520401945,2744
2046.9034097036288,2589
2048.8306028671195,2642
2050.7573318010086,2637
2052.683596775716,2750
2054.609398061742,2738
2056.5347359296647,2713
2058.4596106501403,2691
2060.384022493906,2683
2062.3079717317764,2694
2064.231458634646,2753
2066.1544834734873,2703
2068.077046519352,2759
2069.99914804337,2763
2071.9207883167524,2772
2073.8419676107865,2782
2075.7626861968406,2816
2077.6829443463607,2693
2079.6027423308715,2728
2081.522080421977,2627
2083.440958891362,2737
2085.359378010786,2799
2087.2773380520907,2781
2089.194839287196,2711
2091.111881988101,2675
2093.0284664268825,2606
2094.9445928756973,2747
2096.86026160678,2668
2098.775472892446,2623
2100.690227005088,2735
2102.604524217178,2705
2104.5183648012676,2725
2106.431749029985,2710
2108.34467717604,2808
2110.2571495122206,2704
2112.169166311393,2659
2114.080727846503,2778
2115.9918343905747,2709
2117.902486216711,2811
2119.8126835980956,2685
2121.722426807987,2729
2123.6317161197285,2769
2125.5405518067364,2687
2127.448934142509,2720
2129.356863400624,2760
2131.264339854737,2789
2133.1713637785815,2745
2135.077935445972,2741
2136.9840551308002,2884
2138.889723107037,2801
2140.7949396487334,2818
2142.699705030018,2832
2144.6040195250994,2802
2146.507883408264,2810
2148.4112969538774,2865
2150.3142604363848,2816
2152.2167741303097,2815
2154.1188383102535,2853
2156.0204532508997,2733
2157.9216192270064,2873
2159.822336513414,2877
2161.7226053850413,2719
2163.622426116884,2810
2165.5217989840185,2842
2167.4207242616,2831
2169.319202224862,2979
2171.2172331491165,2806
2173.1148173097563,2809
2175.0119549822507,2906
2176.90864644215,2844
2178.8048919650823,2896
2180.7006918267534,2873
2182.596046302952,2897
2184.4909556695407,2889
2186.3854202024645,2817
2188.279440177746,2895
2190.173015871487,2876
2192.066147559868,2835
2193.958835519149,2836
2195.851080025667,2822
2197.7428813558417,2738
2199.6342397861667,2858
2201.5251555932186,2819
2203.415629053651,2903
2205.3056604441986,2936
2207.19525004167,2936
2209.084398122958,2874
2210.9731049650327,2916
2212.861370844941,2836
2214.749196039812,2882
2216.636580826851,2926
2218.523525483344,2837
2220.410030286655,2827
2222.296095514226,2909
2224.1817214435805,2892
2226.066908352319,2883
2227.951656518121,2825
2229.835966218746,2953
2231.71983773203,2825
2233.6032713358913,2949
2235.486267308324,2916
2237.3688259274036,2872
2239.2509474712824,2873
2241.132632218193,2906
2243.013880446447,2928
2244.8946924344323,2893
2246.7750684606203,2906
2248.6550088035574,2922
2250.534513741871,2924
2252.413583554265,2869
2254.292218519526,2938
2256.170418916517,2933
2258.0481850241786,2825
2259.925517121534,2974
2261.8024154876825,2818
2263.678880401803,2894
2265.5549121431536,2900
2267.430510991071,2888
2269.305677224971,2896
2271.180411124348,2845
2273.0547129687766,2795
2274.9285830379076,2822
2276.8020216114737,2925
2278.6750289692845,2908
2280.5476053912294,2852
2282.4197511572766,2902
2284.2914665474727,2943
2286.162751841943,3065
2288.0336073208937,3018
2289.904033264608,2993
2291.774029953448,2920
2293.6435976678554,2940
2295.5127366883517,2945
2297.381447295534,2888
2299.2497297700825,2845
2301.1175843927526,2853
2302.9850114443825,2858
2304.852011205885,2867
2306.7185839582553,2752
2308.5847299825664,2835
2310.4504495599676,2767
2312.3157429716925,2821
2314.1806104990483,2735
2316.0450524234247,2698
2317.9090690262888,2837
2319.772660589186,2854
2321.635827393742,2769
2323.498569721661,2877
2325.3608878547248,2757
2327.2227820747967,2774
2329.0842526638157,2818
2330.945299903803,2733
2332.805924076857,2772
2334.6661254651535,2802
2336.525904350951,2890
2338.3852610165827,2850
2340.244195744464,2818
2342.102708817088,2779
2343.9608005170253,2754
2345.8184711269287,2645
2347.675720929526,2807
2349.532550207628,2775
2351.38895924412,2818
2353.24494832197,2715
2355.100517724223,2779
2356.955667734004,2787
2358.810398634514,2856
2360.664710709037,2711
2362.5186042409337,2795
2364.3720795136437,2762
2366.225136810686,2824
2368.0777764156583,2795
2369.929998612237,2748
2371.7818036841777,2907
2373.633191915315,2863
2375.484163589562,2767
2377.3347189909114,2826
2379.184858403434,2808
2381.03458211128,2869
2382.8838903986775,2859
2384.732783549936,2747
2386.5812618494406,2907
2388.4293255816588,2755
2390.2769750311327,2857
2392.1242104824883,2816
2393.971032220427,2761
2395.8174405297295,2770
2397.6634356952563,2923
2399.509018001947,2805
2401.3541877348193,2744
2403.1989451789705,2849
2405.043290619576,2803
2406.8872243418905,2858
2408.730746631247,2777
2410.5738577730594,2791
2412.4165580528183,2802
2414.258847756095,2818
2416.100727168537,2804
2417.9421965758734,2863
2419.783256263912,2768
2421.623906518538,2838
2423.4641476257157,2826
2425.303979871491,2855
2427.143403541984,2890
2428.9824189233977,2866
2430.821026302012,2828
2432.6592259641866,2837
2434.497018196361,2895
2436.33440328505,2852
2438.171381516851,2837
2440.00795317844,2832
2441.844118556569,2919
2443.6798779380724,2811
2445.5152316098606,2829
2447.3501798589255,2882
2449.1847229723357,2892
2451.0188612372403,2804
2452.8525949408663,2886
2454.6859243705203,2904
2456.518849813587,2846
2458.3513715575314,2812
2460.183489889895,2895
2462.015205098301,2798
2463.8465174704493,2849
2465.67742729412,2785
2467.5079348571717,2822
2469.338040447542,2897
2471.1677443532476,2828
2472.9970468623833,2844
2474.825948263123,2768
2476.6544488437207,2853
2478.482548892508,2878
2480.310248697896,2872
2482.137548548374,2870
2483.9644487325118,2824
2485.790949538956,2918
2487.617051256433,2908
2489.44275417375,2955
2491.26805857979,2841
2493.0929647635157,2824
2494.917473013971,2929
2496.741583620276,2931
2498.5652968716304,2890
2500.3886130573137,2858
2502.2115324666834,2900
2504.0340553891765,2944
2505.856182114308,2902
2507.6779129316733,2853
2509.499248130945,2934
2511.3201880018764,2851
2513.140732834298,2987
2514.9608829181198,2902
2516.780638543331,2960
2518.6,3020
2520.418967578273,2967
2522.237541568376,2908
2524.0557222606144,2960
2525.8735099453706,2988
2527.6909049131086,2951
2529.507907454368,2922
2531.32451785977,2990
2533.140736420014,2950
2534.9565634258774,3003
2536.771999168218,2908
2538.5870439379714,2989
2540.4016980261526,3018
2542.2159617238544,3141
2544.02983532225,3027
2545.8433191125914,3071
2547.656413386209,3052
2549.4691184345115,2984
2551.2814345489874,2988
2553.093362021204,3062
2554.904901142808,2964
2556.716052205523,3056
2558.526815501153,3078
2560.3371913215824,3137
2562.147179958771,3117
2563.956781704761,3012
2565.7659968516705,3124
2567.5748256916986,3101
2569.3832685171224,3049
2571.1913256202984,3131
2572.9989972936614,3101
2574.806283829725,3119
2576.613185521084,3175
2578.4197026604074,3117
2580.2258355404483,3172
2582.031584454035,3233
2583.836949694077,3110
2585.6419315535613,3176
2587.4465303255533,3209
2589.2507463032002,3151
2591.0545797797245,3230
2592.8580310484303,3152
2594.6611004026995,3251
2596.463788135992,3171
2598.266094541849,3112
2600.0680199138874,3166
2601.869564545807,3226
2603.670728731383,3161
2605.4715127644704,3294
2607.2719169390048,3259
2609.071941548998,3249
2610.8715868885433,3226
2612.670853251811,3169
2614.469740933052,3232
2616.268250226594,3232
2618.0663814268455,3206
2619.864134828292,3143
2621.6615107255006,3268
2623.458509413115,3266
2625.2551311858597,3279
2627.0513763385347,3230
2628.8472451660223,3192
2630.6427379632833,3120
2632.4378550253564,3150
2634.232596647359,3205
2636.026963124488,3143
2637.8209547520187,3189
2639.6145718253065,3196
2641.407814639785,3227
2643.200683490966,3097
2644.9931786744414,3115
2646.7853004858807,3173
2648.577049221034,3204
2650.3684251757277,3122
2652.1594286458712,3066
2653.9500599274484,3065
2655.740319316525,3046
2657.5302071092437,3003
2659.3197236018286,3103
2661.10886909058,3034
2662.8976438718782,3077
2664.686048242183,3120
2666.4740824980327,2998
2668.2617469360443,3051
2670.0490418529134,3058
2671.8359675454153,3129
2673.622524310403,2975
2675.408712444811,3075
2677.1945322456495,3050
2678.979984010009,3048
2680.76506803506,3104
2682.5497846180497,3017
2684.334134056306,3002
2686.1181166472343,2989
2687.9017326883213,2982
2689.6849824771293,2941
2691.4678663113013,3046
2693.2503844885596,2960
2695.032537306705,3000
2696.8143250636167,2928
2698.5957480572542,2943
2700.3768065856534,3014
2702.1575009469316,2967
2703.937831439283,2913
2705.717798360982,2968
2707.4974020103837,2983
2709.276642685917,2993
2711.055520686095,2983
2712.834036309506,2970
2714.612189854819,2976
2716.389981620782,2957
2718.1674119062204,2918
2719.944481010041,2948
2721.721189231226,3079
2723.4975368688415,2903
2725.273524222027,2966
2727.0491515900053,2861
2728.824419272075,2958
2730.5993275676146,2962
2732.3738767760838,2895
2734.148067197016,3015
2735.921899130031,2996
2737.6953728748194,2938
2739.468488731156,2851
2741.2412469988926,2972
2743.0136479779617,2862
2744.785691968372,2929
2746.5573792702116,2921
2748.3287101836504,2910
2750.099685008934,2892
2751.870304046388,2973
2753.640567596418,2961
2755.4104759595057,2906
2757.1800294362156,2916
2758.949228327187,2895
2760.7180729331412,2937
2762.486563554877,2947
2764.254700493272,2874
2766.022484049284,2959
2767.789914523947,2932
2769.5569922183786,2914
2771.3237174337705,3036
2773.090090471394,3009
2774.8561116326036,2969
2776.6217812188274,2927
2778.3870995315756,2939
2780.1520668724356,2963
2781.9166835430747,2886
2783.6809498452394,2930
2785.444866080754,3006
2787.2084325515225,2920
2788.971649559527,2910
2790.73451740683,2974
2792.4970363955713,2949
2794.2592068279705,2892
2796.0210290063264,2883
2797.7825032330147,2961
2799.543629810493,3008
2801.304409041296,2944
2803.0648412280366,2932
2804.8249266734088,2966
2806.5846656801846,2989
2808.344058551212,2974
2810.1031055894246,2971
2811.8618070978273,2973
2813.6201633795085,2971
2815.378174737636,3024
2817.1358414754536,3087
2818.893163896285,2966
2820.6501423035334,3030
2822.4067770006814,2939
2824.1630682912883,2953
2825.9190164789957,2889
2827.6746218675207,3054
2829.429884760661,2977
2831.184805462294,3079
2832.9393842763743,3007
2834.693621506936,2988
2836.4475174580916,2998
2838.201072434034,2977
2839.954286739034,2928
2841.707160677441,2919
2843.459694553685,2979
2845.2118886722724,2945
2846.96374333779,2976
2848.7152588549034,2942
2850.4664355283567,3008
2852.217273662973,3061
2853.9677735636546,2962
2855.7179355353833,2956
2857.4677598832186,2957
2859.217246912299,2996
2860.9663969278427,3033
2862.715210235146,3034
2864.4636871395846,2946
2866.211827946614,3007
2867.9596329617652,3037
2869.7071024906536,2947
2871.4542368389684,3027
2873.20103631248,2930
2874.947501217038,2956
2876.6936318585695,2928
2878.4394285430812,2866
2880.1848915766604,2913
2881.9300212654707,2963
2883.6748179157553,3026
2885.4192818338374,2999
2887.1634133261173,3010
2888.907212699077,2974
2890.6506802592744,2857
2892.393816313348,2884
2894.1366211680142,3046
2895.8790951300693,3067
2897.621238506388,3029
2899.363051603925,3002
2901.1045347297118,2933
2902.8456881908596,2928
2904.58651229456,2931
2906.327007348081,3073
2908.067173658772,3049
2909.8070115340597,3002
2911.5465212814497,2944
2913.285703208527,2874
2915.0245576229563,2878
2916.7630848324807,2980
2918.5012851449196,2955
2920.2391588681758,3046
2921.976706310227,3022
2923.7139277791334,3025
2925.4508235830313,2993
2927.187394030137,2916
2928.923639428745,3132
2930.6595600872306,3025
2932.395156314046,3060
2934.1304284177218,3045
2935.8653767068713,3012
2937.6000014901815,3032
2939.3343030764227,3031
2941.068281774442,3163
2942.8019378931644,3054
2944.5352717415976,3056
2946.2682836288236,3026
2948.0009738640065,3063
2949.7333427563885,3056
2951.465390615289,3042
2953.1971177501086,3117
2954.9285244703265,2988
2956.6596110855,3153
2958.3903779052657,3048
2960.1208252393385,2995
2961.8509533975125,3114
2963.5807626896617,3006
2965.3102534257378,3015
2967.0394259157715,3059
2968.768280469873,3127
2970.496817398232,3064
2972.2250370111146,3085
2973.952939618869,3018
2975.6805255319196,2974
2977.4077950607707,3090
2979.134748516006,3048
2980.861386208289,3125
2982.587708448359,3065
2984.313715547037,3038
2986.039407815222,3119
2987.764785563891,3078
2989.489849104102,3104
2991.2145987469908,3044
2992.9390348037705,3057
2994.6631575857346,3152
2996.3869674042576,3089
2998.1104645707887,3052
2999.83364939686,2988
3001.5565221940783,3134
3003.2790832741334,3056
3005.0013329487924,3048
3006.7232715298996,3067
3008.4448993293804,3069
3010.166216659239,3056
3011.887223831558,3068
3013.607921158498,2989
3015.3283089522993,3134
3017.0483875252826,3010
3018.7681571898443,3024
3020.4876182584626,3026
3022.2067710436927,3045
3023.9256158581707,3015
3025.644153014609,3128
3027.362382825801,3073
3029.0803056046193,3133
3030.797921664012,3114
3032.5152313170106,3103
3034.2322348767225,2984
3035.9489326563353,3042
3037.665324969115,3125
3039.3814121284063,3006
3041.097194447633,3049
3042.812672240299,3067
3044.5278458199855,3063
3046.2427155003525,3129
3047.9572815951406,3030
3049.671544418167,3133
3051.38550428333,3014
3053.0991615046073,3036
3054.812516396051,3028
3056.5255692717974,3046
3058.2383204460575,3116
3059.9507702331257,3062
3061.662918947372,3057
3063.3747669032446,3096
3065.0863144152736,3029
3066.7975617980674,3172
3068.508509366309,3083
3070.219157434767,3046
3071.9295063182844,3071
3073.639556331785,3148
3075.3493077902704,3098
3077.058761008821,3191
3078.7679163025964,3077
3080.476773986837,3080
3082.1853343768594,3050
3083.89359778806,3125
3085.6015645359153,3035
3087.3092349359786,3078
3089.016609303884,3113
3090.7236879553434,3017
3092.4304712061476,3089
3094.136959372166,3091
3095.843152769349,3102
3097.5490517137237,3159
3099.2546565213966,3120
3100.959967508554,3133
3102.66498499146,3095
3104.3697092864577,3191
3106.0741407099695,3029
3107.778279578498,3110
3109.482126208622,3060
3111.1856809170004,3136
3112.8889440203716,3075
3114.5919158355528,3094
3116.294596679439,3026
3117.996986869006,3007
3119.6990867213062,3129
3121.4008965534726,3101
3123.102416682717,3158
3124.803647426329,3196
3126.5045891016784,3099
3128.205242026213,3153
3129.90560651746,3177
3131.605682893025,3152
3133.3054714705922,3183
3135.0049725679282,3111
3136.7041865028714,3098
3138.4031135933465,3176
3140.101754157353,3130
3141.800108512971,3092
3143.498176978357,3191
3145.1959598717494,3153
3146.8934575114636,3098
3148.5906702158954,3002
3150.2875983035183,3110
3151.9842420928853,3076
3153.680601902627,3113
3155.376678051456,3006
3157.07247085816,3069
3158.767980641609,3172
3160.463207720748,3104
3162.158152414606,3054
3163.8528150422862,3118
3165.5471959229726,3175
3167.2412953759303,3119
3168.9351137204976,3044
3170.628651276098,3156
3172.3219083622307,3077
3174.014885298474,3106
3175.707582404485,3145
3177.4000000000005,3166
3179.092138404835,3190
3180.7839979388846,3151
3182.47557892212,3152
3184.166881674594,3130
3185.8579065164386,3195
3187.5486537678626,3218
3189.2391237491547,3144
3190.9293167806827,3157
3192.6192331828934,3146
3194.3088732763117,3109
3195.998237381542,3052
3197.687325819268,3116
3199.376138910251,3175
3201.064676975334,3141
3202.7529403354347,3097
3204.4409293115523,3138
3206.1286442247647,3191
3207.816085396229,3075
3209.5032531471825,3086
3211.190147798936,3113
3212.8767696728846,3053
3214.5631190905015,3132
3216.2491963733373,3136
3217.9350018430214,3066
3219.6205358212637,3126
3221.305798629851,3087
3222.990790590651,3089
3224.6755120256103,3018
3226.359963256751,3079
3228.0441446061795,3128
3229.7280563960758,3040
3231.411698948703,3071
3233.0950725863995,3068
3234.778177631587,3151
3236.461014406761,3171
3238.1435832345005,3113
3239.8258844374595,3162
3241.507918338374,3157
3243.1896852600576,3159
3244.8711855254023,3175
3246.552419457381,3070
3248.233387379042,3088
3249.914089613516,3175
3251.59452648401,3114
3253.274698313813,3128
3254.95460542629,3134
3256.6342481448855,3122
3258.313626793125,3146
3259.9927416946084,3059
3261.6715931730196,3138
3263.3501815521176,3009
3265.0285071557437,3133
3266.706570307815,3103
3268.3843713323286,3025
3270.0619105533615,3177
3271.739188295068,3157
3273.4162048816834,3178
3275.0929606375184,3154
3276.769455886966,3183
3278.445690954498,3158
3280.1216661646613,3173
3281.797381842087,3190
3283.4728383114807,3170
3285.1480358976296,3155
3286.8229749253996,3185
3288.4976557197333,3179
3290.172078605655,3167
3291.846243908266,3122
3293.5201519527463,3061
3295.193803064357,3119
3296.8671975684374,3158
3298.5403357904024,3135
3300.21321805575,3120
3301.8858446900567,3221
3303.558216018975,3149
3305.23033236824,3155
3306.9021940636603,3139
3308.57380143113,3099
3310.2451547966184,3152
3311.916254486174,3127
3313.5871008259246,3155
3315.2576941420766,3109
3316.9280347609147,3142
3318.5981230088046,3107
3320.2679592121895,3251
3321.9375436975924,3140
3323.606876791612,3106
3325.27595882093,3100
3326.944790112305,3146
3328.6133709925753,3122
3330.2817017886573,3122
3331.949782827547,3115
3333.617614436319,3310
3335.2851969421245,3200
3336.952530672199,3198
3338.619615953853,3183
3340.286453114475,3231
3341.9530424815357,3267
3343.619384382583,3258
3345.2854791452437,3248
3346.951327097224,3235
3348.6169285663073,3192
3350.2822838803577,3144
3351.947393367319,3264
3353.61225735521,3200
3355.2768761721345,3219
3356.9412501462693,3156
3358.605379605873,3107
3360.2692648792827,3105
3361.9329062949146,3134
3363.596304181263,3236
