CollectionTime,7/10/2024 3:50:51 PM
ExposureUsed,3
CalibratedSpectrum
-962.7078968117929,589
-959.9714848408522,605
-957.2358232597828,636
-954.5009119013725,651
-951.7667505983302,642
-949.0333391832855,607
-946.3006774887896,640
-943.5687653473143,636
-940.837602591253,661
-938.1071890529199,637
-935.3775245645503,636
-932.6486089583007,646
-929.9204420662485,711
-927.1930237203925,679
-924.4663537526524,689
-921.7404319948689,667
-919.0152582788041,663
-916.2908324361409,710
-913.5671542984834,662
-910.8442236973568,620
-908.1220404642074,624
-905.4006044304027,662
-902.679915427231,651
-899.959973285902,651
-897.2407778375464,666
-894.5223289132158,625
-891.8046263438832,658
-889.0876699604426,699
-886.3714595937089,681
-883.6559950744183,644
-880.9412762332282,663
-878.2273029007168,618
-875.5140749073835,605
-872.8015920836489,604
-870.0898542598545,607
-867.3788612662631,615
-864.6686129330585,617
-861.9591090903457,614
-859.2503495681506,637
-856.5423341964203,626
-853.8350628050229,628
-851.1285352237478,628
-848.4227512823054,651
-845.7177108103272,648
-843.0134136373656,668
-840.3098595928943,648
-837.6070485063082,674
-834.9049802069229,667
-832.2036545239757,666
-829.5030712866244,658
-826.8032303239481,646
-824.1041314649472,686
-821.4057745385428,637
-818.7081593735775,634
-816.0112857988148,648
-813.3151536429393,655
-810.6197627345566,673
-807.9251129021936,679
-805.2312039742981,662
-802.5380357792392,686
-799.8456081453069,657
-797.1539209007124,669
-794.462973873588,646
-791.772766891987,662
-789.083299783884,665
-786.3945723771743,668
-783.7065844996748,711
-781.0193359791231,652
-778.3328266431781,687
-775.6470563194197,686
-772.9620248353489,656
-770.2777320183878,684
-767.5941776958798,683
-764.9113616950891,707
-762.2292838432011,679
-759.5479439673222,678
-756.8673418944801,658
-754.1874774516235,665
-751.5083504656222,692
-748.8299607632671,691
-746.15230817127,719
-743.475392516264,717
-740.7992136248035,710
-738.1237713233636,716
-735.4490654383407,705
-732.7750957960521,716
-730.1018622227365,718
-727.4293645445534,754
-724.7576025875837,723
-722.0865761778291,682
-719.4162851412126,719
-716.7467293035781,730
-714.0779084906909,732
-711.409822528237,750
-708.7424712418238,741
-706.0758544569796,749
-703.4099719991541,717
-700.7448236937178,770
-698.0804093659622,776
-695.4167288411002,728
-692.7537819442656,720
-690.0915685005134,724
-687.4300883348199,750
-684.7693412720819,728
-682.1093271371178,756
-679.4500457546669,776
-676.7914969493897,729
-674.1336805458676,754
-671.4765963686034,738
-668.8202442420206,777
-666.1646239904642,789
-663.5097354382001,728
-660.8555784094151,751
-658.2021527282176,746
-655.5494582186366,747
-652.8974947046223,781
-650.2462620100463,773
-647.5957599587009,820
-644.9459883742998,782
-642.2969470804776,787
-639.6486359007902,805
-637.0010546587141,795
-634.3542031776476,773
-631.7080812809096,768
-629.0626887917401,779
-626.4180255333008,803
-623.7740913286734,762
-621.1308860008619,822
-618.4884093727904,814
-615.8466612673046,816
-613.2056415071715,881
-610.5653499150785,793
-607.9257863136347,794
-605.28695052537,836
-602.6488423727357,798
-600.0114616781036,781
-597.3748082637674,855
-594.7388819519412,797
-592.1036825647604,839
-589.4692099242818,836
-586.8354638524829,856
-584.2024441712624,853
-581.5701507024403,847
-578.9385832677575,829
-576.3077416888759,861
-573.6776257873787,847
-571.0482353847704,821
-568.4195703024757,863
-565.7916303618415,843
-563.164415384135,803
-560.5379251905453,861
-557.9121596021815,839
-555.2871184400748,795
-552.6628015251767,866
-550.0392086783606,868
-547.4163397204204,852
-544.794194472071,870
-542.1727727539491,811
-539.5520743866118,890
-536.9320991905377,914
-534.3128469861261,939
-531.6943175936979,943
-529.0765108334947,969
-526.4594265256793,1026
-523.8430644903358,1070
-521.2274245474689,1262
-518.612506517005,1322
-515.9983102187913,1275
-513.3848354725959,1309
-510.77208209810846,1326
-508.16004991493924,1341
-505.5487387426199,1506
-502.9381484006032,1685
-500.3282787082628,1777
-497.71912948489364,1818
-495.1107005497117,1769
-492.5029917218539,1689
-489.8960028203786,1503
-487.28973366426493,1449
-484.68418407241325,1221
-482.07935386364494,1124
-479.47524285670266,1152
-476.87185087025,1123
-474.2691777228715,1062
-471.66722323307334,1105
-469.0659872192821,1100
-466.4654694998459,1081
-463.86566989303384,1141
-461.26658821703614,1124
-458.66822428996414,1065
-456.07057792985,1041
-453.4736489546475,1039
-450.877437182231,1033
-448.28194243039627,1058
-445.68716451686,1034
-443.09310325926003,1000
-440.49975847515555,977
-437.9071299820263,1047
-435.31521759727354,1057
-432.72402113821954,1081
-430.13354042210767,1035
-427.5437752661022,1063
-424.95472548728867,1103
-422.36639090267386,1106
-419.7787713291855,1091
-417.1918665836721,1119
-414.60567648290385,1168
-412.0202008435715,1145
-409.4354394822874,1144
-406.8513922155845,1180
-404.26805885991723,1190
-401.685439231661,1156
-399.103533147112,1112
-396.522340422488,1137
-393.9418608739278,1125
-391.3620943174908,1110
-388.7830405691583,1071
-386.2046994448317,1040
-383.6270707603344,964
-381.05015433141045,986
-378.473949973725,908
-375.8984575028645,832
-373.32367673433623,780
-370.74960748356875,723
-368.1762495659117,733
-365.60360279663576,707
-363.03166699093265,582
-360.4604419639154,558
-357.8899275306178,557
-355.32012350599507,525
-352.7510297049233,510
-350.1826459421999,477
-347.61497203254316,477
-345.04800779059235,470
-342.4817530309082,457
-339.91620756797226,457
-337.35137121618743,467
-334.7872437898774,506
-332.22382510328725,538
-329.66111497058273,541
-327.09911320585127,527
-324.53781962310075,486
-321.9772340362607,496
-319.4173562591816,483
-316.8581861056348,500
-314.2997233893127,496
-311.7419679238294,480
-309.1849195227194,543
-306.62857799943856,551
-304.0729431673641,539
-301.51801483979375,544
-298.963792829947,512
-296.41027695096386,522
-293.85746701590574,519
-291.3053628377552,569
-288.7539642294155,560
-286.2032710037115,553
-283.65328297338897,586
-281.1039999511146,560
-278.5554217494762,604
-276.007548180983,596
-273.4603790580651,555
-270.9139141930734,538
-268.3681533982807,559
-265.8230964858798,587
-263.27874326798565,589
-260.7350935566336,586
-258.1921471637804,614
-255.6499039013039,579
-253.10836358100266,546
-250.56752601459698,590
-248.02739101372765,609
-245.48795838995704,585
-242.94922795476816,608
-240.41119951956557,603
-237.8738728956746,590
-235.33724789434166,694
-232.80132432673452,669
-230.2661020039418,676
-227.73158073697357,660
-225.19776033676033,699
-222.66464061415422,680
-220.1322213799284,686
-217.60050244477725,657
-215.06948361931552,619
-212.53916471408013,660
-210.00954553952818,725
-207.48062590603843,780
-204.9524056239104,730
-202.4248845033651,732
-199.8980623545441,773
-197.37193898751036,760
-194.84651421224817,785
-192.32178783866232,804
-189.79775967657952,777
-187.27442953574644,812
-184.7517972258321,880
-182.2298625564256,852
-179.7086253370378,784
-177.18808537710026,784
-174.66824248596583,855
-172.14909647290835,774
-169.6306471471229,820
-167.11289431772548,865
-164.59583779375328,809
-162.07947738416453,833
-159.5638128978386,840
-157.04884414357605,913
-154.53457093009854,927
-152.02099306604828,874
-149.50811035998936,773
-146.99592262040665,743
-144.48442965570587,797
-141.97363127421409,916
-139.46352728417958,946
-136.95411749377126,950
-134.44540171107985,849
-131.93737974411636,849
-129.43005140081357,958
-126.92341648902493,1273
-124.41747481652521,1622
-121.91222619101006,1980
-119.40767042009657,2167
-116.90380731132257,2433
-114.40063667214702,2624
-111.8981583099503,2496
-109.3963720320337,1987
-106.89527764561933,1614
-104.39487495785067,1541
-101.89516377579241,2294
-99.39614390642998,3457
-96.89781515667039,4343
-94.40017733334128,4076
-91.90323024319173,3005
-89.40697369289148,2852
-86.91140748903172,4011
-84.41653143812482,4940
-81.92234534660395,4625
-79.42884902082358,4718
-76.93604226705907,6152
-74.4439248915071,10030
-71.95249670028534,16112
-69.46175749943245,20660
-66.97170709490854,21415
-64.48234529259423,17898
-61.99367189829195,14508
-59.50568671772464,11449
-57.01838955653636,7987
-54.53178022029283,5950
-52.045858514480074,7287
-49.560624244506016,9327
-47.07607721569923,10184
-44.59221723330904,10474
-42.10904410250669,11144
-39.62655762838392,11561
-37.14475761595372,11297
-34.66364387015028,12170
-32.18321619582866,12649
-29.70347439776515,11897
-27.224418280657005,12186
-24.74604764912317,14994
-22.26836230770266,19418
-19.7913620608565,28197
-17.315046712966478,45553
-14.83941606833514,62202
-12.36446993118659,65037
-9.89020810566592,65037
-7.416630395839093,65037
-4.94373660569363,65037
-2.471526539137585,65037
-6.821210263296962E-13,65037
2.47084320796705,65037
4.941003281093458,65037
7.410480415786196,65037
9.879274808531363,65037
12.347386655893956,65037
14.814816154518212,65037
17.28156350112681,65037
19.74762889252179,65037
22.21301252558385,65037
24.67771459727237,21999
27.141735304626195,4802
29.605074844762612,2913
32.06773341487792,2708
34.52971121224755,2521
36.99100843422559,2685
39.45162527824516,2634
41.91156194181792,1738
44.370818622535126,1639
46.82939551806646,1548
49.287292826160524,1687
51.74451074464503,2158
54.201049471426245,1800
56.65690920448981,1480
59.112090141899785,1457
61.56659248179983,1349
64.02041642241159,1160
66.4735621620365,1081
68.92602989905402,1158
71.37781983192338,1221
73.82893215918205,1368
76.27936707944684,1448
78.72912479141326,1455
81.17820549385567,1228
83.62660938562783,1284
86.07433666566146,1442
88.5213875329681,1195
90.96776218663751,1018
93.41346082583925,1033
95.85848364982041,1064
98.30283085790859,1041
100.7465026495089,1091
103.18949922410604,1095
105.63182078126385,1064
108.07346752062438,1101
110.51443964190923,1132
112.95473734491827,986
115.39436082953114,970
117.83331029570547,942
120.27158594347827,980
122.7091879729652,1054
125.1461165843615,1008
127.58237197794062,898
130.01795435405518,848
132.4528639131364,889
134.88710085569494,1032
137.32066538231982,946
139.75355769367923,951
142.1857779905207,876
144.61732647366978,900
147.04820334403132,859
149.47840880258934,880
151.90794305040674,949
154.33680628862487,1107
156.76499871846443,1265
159.19252054122433,1423
161.61937195828352,1645
164.04555317109896,1731
166.47106438120693,2004
168.89590579022217,2063
171.320077599839,2184
173.7435800118302,2354
176.16641322804742,2590
178.58857745042144,2712
181.01007288096173,2958
183.43089972175687,2882
185.85105817497413,2912
188.27054844285988,2880
190.6893707277394,2853
193.10752523201643,2836
195.5250121581745,2883
197.9418317087751,3091
200.3579840864594,3058
202.7734694939469,3050
205.18828813403627,3123
207.6024402096051,3298
210.01592592360964,3139
212.42874547908548,3270
214.84089907914665,3171
217.2523869269868,3152
219.66320922587727,3098
222.0733661791695,3134
224.48285799029293,3106
226.8916848627572,3087
229.29984700014882,3088
231.7073446061355,3147
234.11417788446204,3091
236.520347038953,3168
238.92585227351185,3103
241.33069379212054,3089
243.73487179884035,3251
246.1383864978112,3177
248.541238093252,3103
250.9434267894609,3087
253.34495279081432,3100
255.74581630176783,3205
258.1460175268563,3191
260.54555667069314,3185
262.9444339379703,3213
265.3426495334594,3177
267.7402036620107,3125
270.1370965285529,3045
272.53332833809407,3114
274.9288992957214,2960
277.32380960660055,3024
279.718059475976,2888
282.1116491091717,2953
284.5045787115897,2975
286.89684848871195,2864
289.2884586460981,3015
291.67940938938807,3030
294.0697009242996,3058
296.4593334566299,2986
298.84830719225477,2941
301.23662233712923,2966
303.6242790972866,2865
306.01127767884,2787
308.39761828798066,2980
310.78330113097934,2839
313.16832641418534,2776
315.5526943440269,2739
317.9364051270112,2753
320.3194589697242,2659
322.70185607883093,2771
325.0835966610754,2724
327.4646809232805,2755
329.8451090723478,2631
332.2248813152577,2659
334.6039978590701,2662
336.9824589109231,2602
339.36026467803447,2603
341.7374153677,2626
344.113911187295,2615
346.48975234427337,2592
348.8649390461686,2598
351.2394715005918,2533
353.61334991523415,2522
355.9865744978655,2485
358.35914545633375,2560
360.73106299856715,2457
363.10232733257146,2585
365.47293866643247,2538
367.84289720831396,2488
370.2122031664593,2450
372.5808567491905,2540
374.9488581649083,2482
377.31620762209275,2530
379.6829053293021,2496
382.0489514951745,2465
384.4143463284262,2418
386.7790900378528,2412
389.14318283232853,2499
391.50662492080653,2442
393.86941651231916,2422
396.23155781597745,2463
398.5930490409713,2463
400.9538903965696,2457
403.3140820921202,2423
405.6736243370498,2332
408.03251734086336,2465
410.3907613131465,2408
412.74835646356166,2377
415.10530300185144,2378
417.4616011378372,2389
419.81725108141893,2343
422.1722530425758,2313
424.5266072313656,2312
426.880313857925,2404
429.2333731324701,2390
431.58578526529516,2300
433.9375504667738,2374
436.2886689473588,2345
438.63914091758113,2379
440.9889665880513,2317
443.33814616945835,2346
445.68667987257015,2306
448.03456790823395,2376
450.3818104873759,2346
452.72840782100013,2271
455.07436012019105,2298
457.41966759611057,2322
459.7643304600007,2314
462.10834892318155,2429
464.4517231970525,2357
466.79445349309174,2359
469.1365400228566,2293
471.4779829979826,2374
473.81878263018564,2388
476.15893913125876,2344
478.4984527130747,2425
480.8373235875855,2461
483.17555196682144,2563
485.5131380628919,2588
487.8500820879857,2641
490.1863842543697,2830
492.52204477439034,3032
494.8570638604725,3342
497.1914417251204,3549
499.52517858091653,3786
501.85827464052306,3939
504.19073011668036,3871
506.5225452222086,3789
508.85372017000566,3730
511.18425517304956,3600
513.514150444396,3555
515.8434061971808,4140
518.1720226446176,5061
520.4999999999999,5387
522.8273384766991,5219
525.1540382881666,4856
527.480099647932,4285
529.8055227696037,3762
532.1303078668694,3111
534.454455153496,2848
536.777964843328,2596
539.1008371502907,2584
541.4230722883866,2612
543.744670471698,2523
546.0656319143858,2581
548.3859568306899,2603
550.7056454349294,2568
553.0246979415016,2470
555.3431145648834,2483
557.6608955196306,2388
559.978041020377,2470
562.2945512818363,2536
564.6104265188006,2482
566.9256669461412,2515
569.2402727788082,2538
571.5542442318302,2541
573.8675815203156,2575
576.1802848594508,2548
578.4923544645015,2586
580.8037905508126,2606
583.114593333807,2612
585.4247630289875,2583
587.7342998519354,2588
590.0432040183106,2521
592.3514757438526,2563
594.6591152443794,2565
596.9661227357875,2607
599.2724984340531,2490
601.578242555231,2528
603.8833553154542,2601
606.1878369309362,2554
608.4916876179676,2525
610.7949075929192,2547
613.0974970722403,2577
615.3994562724587,2546
617.7007854101818,2485
620.0014847020951,2506
622.3015543649641,2485
624.6009946156324,2459
626.8998056710224,2497
629.1979877481361,2510
631.4955410640538,2531
633.7924658359349,2466
636.0887622810175,2522
638.3844306166192,2483
640.6794710601358,2520
642.9738838290426,2472
645.2676691408932,2537
647.5608272133207,2510
649.853358264037,2522
652.1452625108324,2418
654.4365401715764,2511
656.7271914642178,2443
659.0172166067838,2574
661.3066158173809,2420
663.5953893141935,2484
665.8835373154867,2604
668.1710600396028,2480
670.4579577049639,2412
672.7442305300709,2528
675.0298787335033,2506
677.3149025339197,2418
679.599302150058,2553
681.8830778007342,2562
684.1662297048437,2441
686.4487580813608,2513
688.7306631493387,2571
691.0119451279091,2481
693.2926042362834,2518
695.5726406937516,2524
697.8520547196814,2643
700.1308465335215,2455
702.4090163547982,2490
704.6865644031171,2497
706.9634908981619,2443
709.2397960596965,2436
711.5154801075631,2470
713.7905432616823,2473
716.0649857420548,2467
718.3388077687592,2463
720.612009561953,2476
722.8845913418733,2523
725.1565533288352,2542
727.427895743234,2474
729.6986188055427,2454
731.9687227363137,2527
734.238207756178,2631
736.5070740858458,2542
738.7753219461066,2455
741.0429515578281,2475
743.3099631419569,2523
745.5763569195191,2482
747.8421331116193,2426
750.1072919394409,2490
752.3718336242467,2422
754.6357583873777,2479
756.8990664502545,2436
759.1617580343765,2459
761.423833361321,2468
763.6852926527457,2482
765.9461361303862,2465
768.206364016058,2491
770.4659765316536,2545
772.7249738991469,2528
774.9833563405886,2503
777.2411240781092,2467
779.4982773339183,2537
781.7548163303044,2475
784.010741289634,2567
786.2660524343538,2610
788.5207499869881,2548
790.7748341701416,2609
793.0283052064964,2526
795.2811633188143,2518
797.5334087299362,2492
799.7850416627813,2547
802.0360623403484,2565
804.2864709857143,2584
806.5362678220353,2646
808.7854530725468,2568
811.0340269605625,2588
813.2819897094754,2527
815.5293415427581,2471
817.77608268396,2483
820.0222133567116,2427
822.2677337847211,2494
824.5126441917765,2547
826.7569448017433,2501
829.0006358385675,2464
831.2437175262731,2512
833.4861900889629,2538
835.7280537508192,2504
837.9693087361026,2481
840.2099552691533,2550
842.4499935743896,2495
844.689423876309,2575
846.9282463994886,2532
849.1664613685833,2504
851.4040690083276,2462
853.6410695435349,2532
855.877463199097,2515
858.1132501999847,2481
860.3484307712487,2590
862.5830051380175,2506
864.8169735254988,2559
867.0503361589791,2571
869.2830932638243,2610
871.5152450654786,2533
873.7467917894654,2524
875.9777336613873,2592
878.2080709069252,2633
880.4378037518389,2622
882.666932421968,2609
884.8954571432301,2555
887.1233781416219,2598
889.3506956432192,2580
891.5774098741766,2646
893.803521060728,2561
896.0290294291852,2644
898.2539352059397,2628
900.4782386174619,2570
902.7019398903011,2542
904.925039251085,2657
907.147536926521,2598
909.3694331433943,2498
911.59072812857,2553
913.8114221089921,2490
916.0315153116827,2491
918.2510079637437,2561
920.4699002923547,2513
922.6881925247761,2480
924.905884888345,2534
927.1229776104793,2518
929.3394709186747,2409
931.555365040506,2427
933.7706602036275,2573
935.9853566357709,2473
938.1994545647489,2516
940.4129542184515,2518
942.6258558248488,2508
944.8381596119883,2532
947.0498658079974,2524
949.2609746410825,2485
951.4714863395287,2430
953.6814011316998,2374
955.8907192460387,2513
958.0994409110671,2441
960.3075663553858,2448
962.5150958076741,2436
964.7220294966913,2412
966.928367651274,2424
969.1341105003388,2389
971.3392582728806,2417
973.5438111979742,2364
975.747769504772,2433
977.9511334225061,2393
980.153903180487,2388
982.3560790081052,2368
984.5576611348289,2329
986.7586497902058,2474
988.9590452038618,2432
991.158847605503,2360
993.3580572249133,2354
995.5566742919558,2270
997.7546990365728,2277
999.952131688785,2206
1002.1489724786926,2228
1004.3452216364743,2251
1006.5408793923874,2212
1008.7359459767691,2231
1010.9304216200343,2108
1013.1243065526781,2164
1015.3176010052733,2213
1017.510305208472,2179
1019.7024193930064,2172
1021.8939437896848,2118
1024.0848786293977,2221
1026.2752241431122,2063
1028.4649805618747,2147
1030.6541481168115,2098
1032.842727039127,2098
1035.0307175601051,2038
1037.2181199111074,2043
1039.4049343235752,2092
1041.591161029029,2073
1043.7768002590683,2074
1045.9618522453698,2109
1048.1463172196918,2103
1050.3301954138697,2120
1052.513487059818,2041
1054.69619238953,2093
1056.8783116350783,2083
1059.0598450286152,2063
1061.2407928023704,2092
1063.4211551886528,2085
1065.6009324198508,2031
1067.780124728432,2117
1069.9587323469414,2028
1072.1367555080046,2148
1074.314194444325,2118
1076.4910493886855,1993
1078.667320573947,2055
1080.843008233051,2088
1083.0181125990161,2079
1085.1926339049414,2079
1087.3665723840027,2059
1089.5399282694575,2073
1091.7127017946405,2096
1093.8848931929647,2043
1096.0565026979243,1934
1098.2275305430899,1990
1100.3979769621128,2038
1102.567842188722,2014
1104.737126456726,2003
1106.9058300000124,1994
1109.0739530525475,2059
1111.2414958483764,2044
1113.4084586216231,2015
1115.5748416064907,2031
1117.7406450372605,1984
1119.9058691482942,2019
1122.0705141740304,2041
1124.2345803489884,1953
1126.3980679077658,1960
1128.5609770850388,1989
1130.7233081155623,1993
1132.8850612341707,1971
1135.0462366757774,1939
1137.2068346753745,1939
1139.3668554680326,2004
1141.526299288901,2033
1143.68516637321,2017
1145.8434569562655,1992
1148.001171273455,1995
1150.158309560244,1947
1152.3148720521767,1940
1154.470858984876,1884
1156.626270594044,1956
1158.7811071154629,1983
1160.9353687849912,1970
1163.089055838569,1883
1165.242168512213,1942
1167.3947070420209,1944
1169.5466716641677,1911
1171.6980626149075,1893
1173.8488801305748,1927
1175.9991244475814,1896
1178.1487958024186,1916
1180.2978944316555,1957
1182.4464205719428,1852
1184.5943744600072,1874
1186.7417563326567,1861
1188.8885664267755,1960
1191.0348049793297,1922
1193.1804722273619,1903
1195.325568407995,1982
1197.4700937584303,1911
1199.614048515948,1932
1201.7574329179074,1916
1203.900247201746,1891
1206.042491604982,1853
1208.1841663652099,1961
1210.3252717201053,1921
1212.465807907422,1941
1214.6057751649923,1964
1216.7451737307279,1963
1218.8840038426192,1910
1221.0222657387353,1909
1223.1599596572241,1898
1225.2970858363137,1941
1227.4336445143094,1941
1229.5696359295966,1981
1231.705060320639,2011
1233.8399179259786,1990
1235.9742089842384,1909
1238.107933734118,1911
1240.2410924143974,1893
1242.373685263935,1915
1244.5057125216676,1958
1246.6371744266116,1982
1248.7680712178621,2057
1250.898403134593,1936
1253.028170416058,2032
1255.1573733015875,2008
1257.2860120305932,1936
1259.4140868425648,1919
1261.54159797707,2047
1263.6685456737569,2030
1265.7949301723515,1949
1267.9207517126597,1947
1270.046010534565,1984
1272.1707068780306,2022
1274.2948409830983,1981
1276.4184130898889,1953
1278.541423438603,2030
1280.6638722695184,1986
1282.785759822993,2058
1284.9070863394636,2108
1287.0278520594447,2039
1289.1480572235314,2021
1291.2677020723963,2001
1293.3867868467923,2077
1295.5053117875495,2138
1297.623277135579,2078
1299.740683131868,2107
1301.8575300174857,2095
1303.973818033578,2111
1306.0895474213703,2141
1308.2047184221678,2101
1310.3193312773528,2122
1312.4333862283888,2105
1314.5468835168163,2093
1316.659823384255,2089
1318.7722060724045,2150
1320.8840318230418,2105
1322.9953008780249,2067
1325.1060134792888,2018
1327.2161698688478,2073
1329.3257702887959,2115
1331.4348149813054,2074
1333.5433041886276,2112
1335.6512381530933,2034
1337.7586171171101,2134
1339.8654413231675,2033
1341.9717110138317,2077
1344.0774264317488,2077
1346.1825878196432,2097
1348.2871954203192,2034
1350.3912494766587,2021
1352.4947502316231,2034
1354.5976979282532,2052
1356.7000928096686,2068
1358.8019351190665,2062
1360.9032250997243,2066
1363.0039629949988,2063
1365.1041490483235,2031
1367.2037835032133,2032
1369.3028666032606,2082
1371.401398592137,2057
1373.4993797135926,2018
1375.5968102114575,2041
1377.6936903296396,2077
1379.7900203121262,2017
1381.8858004029835,2118
1383.9810308463561,2047
1386.075711886469,2048
1388.1698437676241,2047
1390.2634267342032,1992
1392.356461030667,2159
1394.4489469015557,2088
1396.5408845914872,2116
1398.6322743451592,2119
1400.7231164073469,2115
1402.813411022907,2115
1404.903158436773,2122
1406.9923588939578,2028
1409.0810126395531,2125
1411.1691199187303,2144
1413.2566809767386,2084
1415.343696058907,2166
1417.4301654106425,2161
1419.5160892774315,2145
1421.6014679048399,2226
1423.6863015385125,2176
1425.7705904241707,2191
1427.8543348076178,2155
1429.9375349347342,2182
1432.0201910514802,2160
1434.102303403894,2264
1436.1838722380944,2214
1438.2648978002767,2237
1440.3453803367174,2279
1442.4253200937692,2268
1444.5047173178677,2256
1446.5835722555234,2338
1448.6618851533285,2221
1450.739656257952,2336
1452.8168858161434,2360
1454.8935740747306,2320
1456.96972128062,2403
1459.045327680797,2403
1461.120393522327,2427
1463.1949190523528,2442
1465.2689045180973,2440
1467.3423501668608,2497
1469.415256246024,2479
1471.4876230030463,2474
1473.559450685465,2508
1475.6307395408976,2611
1477.7014898170391,2584
1479.771701761665,2642
1481.8413756226287,2628
1483.9105116478618,2674
1485.9791100853772,2625
1488.0471711832643,2703
1490.1146951896926,2737
1492.1816823529098,2797
1494.2481329212433,2766
1496.3140471430984,2897
1498.3794252669609,2803
1500.4442675413939,2822
1502.5085742150404,2816
1504.572345536622,2892
1506.6355817549388,2904
1508.6982831188702,2926
1510.7604498773744,2933
1512.8220822794883,3048
1514.8831805743293,3038
1516.9437450110909,3101
1519.003775839048,3143
1521.0632733075522,3081
1523.1222376660367,3186
1525.1806691640113,3211
1527.2385680510652,3318
1529.2959345768668,3391
1531.3527689911643,3421
1533.4090715437833,3403
1535.4648424846291,3678
1537.5200820636855,3562
1539.5747905310159,3531
1541.6289681367616,3667
1543.6826151311434,3601
1545.7357317644614,3757
1547.7883182870937,3795
1549.8403749494987,3744
1551.8919020022113,3920
1553.9428996958477,3921
1555.9933682811015,3945
1558.0433080087469,3994
1560.0927191296346,4012
1562.1416018946961,4132
1564.1899565549415,4119
1566.2377833614592,4041
1568.2850825654164,4075
1570.3318544180606,3951
1572.3780991707158,3799
1574.423817074788,3791
1576.4690083817595,3581
1578.5136733431923,3455
1580.5578122107272,3337
1582.601425236085,3250
1584.6445126710646,3129
1586.6870747675434,3000
1588.7291117774776,2900
1590.7706239529034,2817
1592.8116115459347,2753
1594.8520748087658,2662
1596.8920139936686,2530
1598.9314293529933,2523
1600.9703211391711,2427
1603.008689604711,2444
1605.0465350022005,2341
1607.0838575843068,2330
1609.1206576037753,2398
1611.1569353134305,2202
1613.1926909661765,2212
1615.2279248149953,2216
1617.2626371129481,2221
1619.2968281131757,2200
1621.3304980688963,2113
1623.3636472334088,2158
1625.39627586009,2133
1627.428384202396,2189
1629.459972513861,2116
1631.4910410480993,2161
1633.5215900588028,2107
1635.551619799744,2086
1637.5811305247717,2021
1639.6101224878166,2026
1641.6385959428862,2037
1643.6665511440683,2029
1645.693988345528,1990
1647.7209078015112,1995
1649.7473097663405,2093
1651.7731944944203,2061
1653.7985622402307,2080
1655.823413258333,2092
1657.847747803366,2056
1659.8715661300494,2058
1661.8948684931793,2020
1663.9176551476316,1927
1665.9399263483624,1940
1667.9616823504057,2046
1669.982923408873,1998
1672.0036497789574,2072
1674.0238617159293,2065
1676.043559475138,2032
1678.0627433120121,2025
1680.081413482059,1984
1682.0995702408654,1979
1684.117213844096,1935
1686.134344547495,1918
1688.1509626068864,2023
1690.1670682781705,2013
1692.182661817329,1996
1694.1977434804217,2042
1696.2123135235875,2085
1698.226372203043,1949
1700.2399197750851,1970
1702.2529564960905,2017
1704.2654826225112,1971
1706.277498410882,1960
1708.2890041178139,1928
1710.2999999999988,1997
1712.3104863142066,1953
1714.3204633172854,2003
1716.329931266163,1923
1718.3388904178469,2011
1720.3473410294214,1986
1722.3552833580516,1988
1724.3627176609807,1967
1726.3696441955308,1964
1728.3760632191033,1944
1730.3819749891782,1985
1732.3873797633146,1950
1734.3922777991502,1895
1736.3966693544012,1875
1738.4005546868639,1921
1740.4039340544127,1870
1742.406807715001,1975
1744.4091759266616,1894
1746.4110389475054,1924
1748.4123970357223,1888
1750.413250449582,1913
1752.4135994474318,2001
1754.4134442876993,1929
1756.4127852288902,1896
1758.4116225295893,1872
1760.4099564484595,1843
1762.407787244244,1885
1764.405115175764,1886
1766.4019405019203,1864
1768.3982634816916,1868
1770.3940843741357,1839
1772.3894034383907,1921
1774.3842209336717,1909
1776.378537119274,1936
1778.372352254571,1944
1780.3656665990156,1831
1782.3584804121397,1884
1784.3507939535534,1829
1786.3426074829463,1874
1788.3339212600863,1936
1790.3247355448211,1852
1792.3150505970766,1879
1794.3048666768573,1915
1796.2941840442477,1919
1798.2830029594106,1851
1800.2713236825884,1856
1802.2591464741004,1865
1804.2464715943465,1890
1806.2332993038058,1895
1808.2196298630352,1878
1810.2054635326708,1899
1812.190800573428,1883
1814.175641246101,1829
1816.1599858115628,1919
1818.1438345307652,1809
1820.127187664738,1855
1822.1100454745924,1890
1824.092408221516,1882
1826.0742761667766,1892
1828.055649571721,1824
1830.0365286977735,1891
1832.0169138064398,1886
1833.9968051593014,1902
1835.9762030180214,1865
1837.9551076443408,1925
1839.9335193000788,1934
1841.9114382471344,1833
1843.888864747485,1851
1845.8657990631878,1815
1847.842241456378,1869
1849.8181921892697,1842
1851.7936515241558,1860
1853.7686197234098,1797
1855.7430970494815,1872
1857.7170837649014,1822
1859.6905801322787,1838
1861.6635864143004,1850
1863.6361028737338,1747
1865.608129773424,1803
1867.5796673762961,1837
1869.5507159453537,1801
1871.521275743678,1878
1873.4913470344313,1846
1875.4609300808534,1785
1877.4300251462632,1842
1879.3986324940588,1859
1881.366752387717,1801
1883.3343850907936,1813
1885.3015308669228,1792
1887.268189979819,1805
1889.2343626932739,1837
1891.2000492711595,1809
1893.1652499774254,1911
1895.1299650761011,1897
1897.0941948312952,1832
1899.0579395071945,1845
1901.0211993680641,1869
1902.98397467825,1881
1904.9462657021745,1849
1906.9080727043415,1858
1908.869395949332,1810
1910.8302357018065,1836
1912.790592226504,1820
1914.7504657882428,1807
1916.7098566519212,1802
1918.6687650825133,1825
1920.6271913450764,1883
1922.5851357047422,1850
1924.5425984267245,1919
1926.499579776314,1804
1928.4560800188833,1850
1930.4120994198802,1784
1932.367638244833,1815
1934.32269675935,1896
1936.2772752291175,1910
1938.231373919899,1815
1940.1849930975404,1815
1942.1381330279637,1802
1944.0907939771696,1778
1946.0429762112412,1814
1947.9946799963363,1889
1949.9459055986945,1829
1951.896653284633,1823
1953.8469233205478,1735
1955.7967159729142,1828
1957.7460315082863,1799
1959.6948701932974,1835
1961.6432322946594,1812
1963.5911180791632,1801
1965.5385278136787,1829
1967.4854617651545,1856
1969.4319202006182,1743
1971.377903387176,1830
1973.3234115920136,1817
1975.268445082395,1709
1977.2130041256642,1807
1979.1570889892423,1920
1981.1006999406304,1845
1983.04383724741,1816
1984.986501177238,1822
1986.928691997853,1811
1988.8704099770712,1876
1990.811655382789,1820
1992.7524284829801,1740
1994.692729545698,1786
1996.6325588390755,1782
1998.5719166313224,1763
2000.5108031907307,1821
2002.4492187856677,1869
2004.387163684583,1804
2006.3246381560011,1782
2008.2616424685298,1765
2010.1981768908527,1781
2012.1342416917332,1827
2014.069837140014,1752
2016.0049635046162,1768
2017.9396210545406,1800
2019.8738100588666,1797
2021.8075307867502,1798
2023.740783507431,1757
2025.6735684902228,1838
2027.6058860045214,1770
2029.5377363198004,1684
2031.4691197056118,1789
2033.4000364315875,1784
2035.3304867674374,1785
2037.260470982952,1743
2039.189989347998,1785
2041.1190421325232,1735
2043.047629606554,1746
2044.9757520401945,1743
2046.9034097036288,1805
2048.8306028671195,1775
2050.7573318010086,1738
2052.683596775716,1799
2054.609398061742,1748
2056.5347359296647,1719
2058.4596106501403,1825
2060.384022493906,1792
2062.3079717317764,1758
2064.231458634646,1771
2066.1544834734873,1707
2068.077046519352,1812
2069.99914804337,1797
2071.9207883167524,1780
2073.8419676107865,1777
2075.7626861968406,1723
2077.6829443463607,1789
2079.6027423308715,1749
2081.522080421977,1729
2083.440958891362,1781
2085.359378010786,1782
2087.2773380520907,1718
2089.194839287196,1754
2091.111881988101,1727
2093.0284664268825,1690
2094.9445928756973,1759
2096.86026160678,1804
2098.775472892446,1739
2100.690227005088,1766
2102.604524217178,1739
2104.5183648012676,1724
2106.431749029985,1746
2108.34467717604,1761
2110.2571495122206,1757
2112.169166311393,1717
2114.080727846503,1773
2115.9918343905747,1787
2117.902486216711,1801
2119.8126835980956,1794
2121.722426807987,1828
2123.6317161197285,1822
2125.5405518067364,1804
2127.448934142509,1807
2129.356863400624,1815
2131.264339854737,1803
2133.1713637785815,1780
2135.077935445972,1854
2136.9840551308002,1792
2138.889723107037,1791
2140.7949396487334,1821
2142.699705030018,1769
2144.6040195250994,1848
2146.507883408264,1801
2148.4112969538774,1750
2150.3142604363848,1851
2152.2167741303097,1854
2154.1188383102535,1844
2156.0204532508997,1764
2157.9216192270064,1781
2159.822336513414,1877
2161.7226053850413,1817
2163.622426116884,1829
2165.5217989840185,1827
2167.4207242616,1763
2169.319202224862,1871
2171.2172331491165,1873
2173.1148173097563,1864
2175.0119549822507,1791
2176.90864644215,1910
2178.8048919650823,1935
2180.7006918267534,1880
2182.596046302952,1878
2184.4909556695407,1871
2186.3854202024645,1888
2188.279440177746,1884
2190.173015871487,1855
2192.066147559868,1823
2193.958835519149,1846
2195.851080025667,1840
2197.7428813558417,1938
2199.6342397861667,1841
2201.5251555932186,1875
2203.415629053651,1898
2205.3056604441986,1903
2207.19525004167,1887
2209.084398122958,1910
2210.9731049650327,1886
2212.861370844941,1936
2214.749196039812,1844
2216.636580826851,1855
2218.523525483344,1906
2220.410030286655,1951
2222.296095514226,1916
2224.1817214435805,1910
2226.066908352319,1954
2227.951656518121,1938
2229.835966218746,1859
2231.71983773203,1920
2233.6032713358913,1964
2235.486267308324,1889
2237.3688259274036,1867
2239.2509474712824,1915
2241.132632218193,1962
2243.013880446447,1873
2244.8946924344323,1927
2246.7750684606203,1920
2248.6550088035574,1882
2250.534513741871,1945
2252.413583554265,1916
2254.292218519526,1915
2256.170418916517,1904
2258.0481850241786,1880
2259.925517121534,1929
2261.8024154876825,1925
2263.678880401803,1952
2265.5549121431536,1881
2267.430510991071,1948
2269.305677224971,1860
2271.180411124348,1892
2273.0547129687766,1839
2274.9285830379076,1868
2276.8020216114737,1804
2278.6750289692845,1853
2280.5476053912294,1899
2282.4197511572766,1877
2284.2914665474727,1915
2286.162751841943,1974
2288.0336073208937,1945
2289.904033264608,1943
2291.774029953448,1905
2293.6435976678554,1832
2295.5127366883517,1816
2297.381447295534,1857
2299.2497297700825,1767
2301.1175843927526,1820
2302.9850114443825,1753
2304.852011205885,1692
2306.7185839582553,1761
2308.5847299825664,1688
2310.4504495599676,1654
2312.3157429716925,1684
2314.1806104990483,1670
2316.0450524234247,1606
2317.9090690262888,1615
2319.772660589186,1646
2321.635827393742,1719
2323.498569721661,1646
2325.3608878547248,1693
2327.2227820747967,1645
2329.0842526638157,1686
2330.945299903803,1643
2332.805924076857,1624
2334.6661254651535,1623
2336.525904350951,1640
2338.3852610165827,1663
2340.244195744464,1668
2342.102708817088,1624
2343.9608005170253,1563
2345.8184711269287,1590
2347.675720929526,1663
2349.532550207628,1632
2351.38895924412,1610
2353.24494832197,1605
2355.100517724223,1592
2356.955667734004,1627
2358.810398634514,1605
2360.664710709037,1639
2362.5186042409337,1650
2364.3720795136437,1657
2366.225136810686,1611
2368.0777764156583,1654
2369.929998612237,1669
2371.7818036841777,1609
2373.633191915315,1619
2375.484163589562,1597
2377.3347189909114,1680
2379.184858403434,1638
2381.03458211128,1679
2382.8838903986775,1623
2384.732783549936,1585
2386.5812618494406,1648
2388.4293255816588,1653
2390.2769750311327,1625
2392.1242104824883,1656
2393.971032220427,1644
2395.8174405297295,1664
2397.6634356952563,1670
2399.509018001947,1615
2401.3541877348193,1609
2403.1989451789705,1680
2405.043290619576,1639
2406.8872243418905,1612
2408.730746631247,1692
2410.5738577730594,1658
2412.4165580528183,1698
2414.258847756095,1658
2416.100727168537,1611
2417.9421965758734,1697
2419.783256263912,1646
2421.623906518538,1694
2423.4641476257157,1651
2425.303979871491,1631
2427.143403541984,1634
2428.9824189233977,1655
2430.821026302012,1682
2432.6592259641866,1596
2434.497018196361,1669
2436.33440328505,1674
2438.171381516851,1643
2440.00795317844,1662
2441.844118556569,1693
2443.6798779380724,1628
2445.5152316098606,1690
2447.3501798589255,1689
2449.1847229723357,1618
2451.0188612372403,1671
2452.8525949408663,1628
2454.6859243705203,1658
2456.518849813587,1637
2458.3513715575314,1600
2460.183489889895,1630
2462.015205098301,1643
2463.8465174704493,1660
2465.67742729412,1603
2467.5079348571717,1709
2469.338040447542,1662
2471.1677443532476,1668
2472.9970468623833,1693
2474.825948263123,1662
2476.6544488437207,1708
2478.482548892508,1629
2480.310248697896,1611
2482.137548548374,1693
2483.9644487325118,1691
2485.790949538956,1689
2487.617051256433,1724
2489.44275417375,1642
2491.26805857979,1661
2493.0929647635157,1678
2494.917473013971,1685
2496.741583620276,1681
2498.5652968716304,1683
2500.3886130573137,1661
2502.2115324666834,1706
2504.0340553891765,1670
2505.856182114308,1719
2507.6779129316733,1669
2509.499248130945,1687
2511.3201880018764,1710
2513.140732834298,1696
2514.9608829181198,1733
2516.780638543331,1656
2518.6,1675
2520.418967578273,1618
2522.237541568376,1679
2524.0557222606144,1730
2525.8735099453706,1817
2527.6909049131086,1667
2529.507907454368,1745
2531.32451785977,1766
2533.140736420014,1793
2534.9565634258774,1749
2536.771999168218,1682
2538.5870439379714,1751
2540.4016980261526,1758
2542.2159617238544,1798
2544.02983532225,1808
2545.8433191125914,1790
2547.656413386209,1805
2549.4691184345115,1813
2551.2814345489874,1789
2553.093362021204,1765
2554.904901142808,1772
2556.716052205523,1828
2558.526815501153,1796
2560.3371913215824,1826
2562.147179958771,1844
2563.956781704761,1854
2565.7659968516705,1823
2567.5748256916986,1803
2569.3832685171224,1873
2571.1913256202984,1846
2572.9989972936614,1884
2574.806283829725,1823
2576.613185521084,1907
2578.4197026604074,1870
2580.2258355404483,1905
2582.031584454035,1889
2583.836949694077,1877
2585.6419315535613,1975
2587.4465303255533,1934
2589.2507463032002,1917
2591.0545797797245,1902
2592.8580310484303,1948
2594.6611004026995,1963
2596.463788135992,2046
2598.266094541849,1964
2600.0680199138874,1987
2601.869564545807,1895
2603.670728731383,1877
2605.4715127644704,1930
2607.2719169390048,1960
2609.071941548998,1883
2610.8715868885433,1942
2612.670853251811,1939
2614.469740933052,1952
2616.268250226594,1947
2618.0663814268455,1955
2619.864134828292,1996
2621.6615107255006,1941
2623.458509413115,2022
2625.2551311858597,1935
2627.0513763385347,1992
2628.8472451660223,1957
2630.6427379632833,1922
2632.4378550253564,1899
2634.232596647359,1853
2636.026963124488,1898
2637.8209547520187,1914
2639.6145718253065,1856
2641.407814639785,1836
2643.200683490966,1865
2644.9931786744414,1885
2646.7853004858807,1857
2648.577049221034,1834
2650.3684251757277,1895
2652.1594286458712,1833
2653.9500599274484,1856
2655.740319316525,1845
2657.5302071092437,1748
2659.3197236018286,1791
2661.10886909058,1778
2662.8976438718782,1808
2664.686048242183,1815
2666.4740824980327,1807
2668.2617469360443,1732
2670.0490418529134,1750
2671.8359675454153,1795
2673.622524310403,1801
2675.408712444811,1719
2677.1945322456495,1734
2678.979984010009,1738
2680.76506803506,1703
2682.5497846180497,1757
2684.334134056306,1716
2686.1181166472343,1707
2687.9017326883213,1679
2689.6849824771293,1697
2691.4678663113013,1716
2693.2503844885596,1733
2695.032537306705,1752
2696.8143250636167,1762
2698.5957480572542,1756
2700.3768065856534,1708
2702.1575009469316,1695
2703.937831439283,1661
2705.717798360982,1692
2707.4974020103837,1717
2709.276642685917,1680
2711.055520686095,1653
2712.834036309506,1631
2714.612189854819,1647
2716.389981620782,1648
2718.1674119062204,1674
2719.944481010041,1585
2721.721189231226,1703
2723.4975368688415,1649
2725.273524222027,1680
2727.0491515900053,1695
2728.824419272075,1658
2730.5993275676146,1620
2732.3738767760838,1652
2734.148067197016,1664
2735.921899130031,1646
2737.6953728748194,1619
2739.468488731156,1666
2741.2412469988926,1637
2743.0136479779617,1630
2744.785691968372,1655
2746.5573792702116,1609
2748.3287101836504,1619
2750.099685008934,1616
2751.870304046388,1638
2753.640567596418,1625
2755.4104759595057,1625
2757.1800294362156,1616
2758.949228327187,1653
2760.7180729331412,1631
2762.486563554877,1635
2764.254700493272,1664
2766.022484049284,1616
2767.789914523947,1651
2769.5569922183786,1667
2771.3237174337705,1651
2773.090090471394,1650
2774.8561116326036,1641
2776.6217812188274,1597
2778.3870995315756,1661
2780.1520668724356,1657
2781.9166835430747,1634
2783.6809498452394,1606
2785.444866080754,1625
2787.2084325515225,1640
2788.971649559527,1656
2790.73451740683,1598
2792.4970363955713,1625
2794.2592068279705,1593
2796.0210290063264,1566
2797.7825032330147,1585
2799.543629810493,1592
2801.304409041296,1607
2803.0648412280366,1625
2804.8249266734088,1638
2806.5846656801846,1663
2808.344058551212,1687
2810.1031055894246,1595
2811.8618070978273,1620
2813.6201633795085,1632
2815.378174737636,1601
2817.1358414754536,1558
2818.893163896285,1629
2820.6501423035334,1657
2822.4067770006814,1629
2824.1630682912883,1609
2825.9190164789957,1567
2827.6746218675207,1590
2829.429884760661,1606
2831.184805462294,1639
2832.9393842763743,1617
2834.693621506936,1629
2836.4475174580916,1676
2838.201072434034,1665
2839.954286739034,1615
2841.707160677441,1624
2843.459694553685,1662
2845.2118886722724,1644
2846.96374333779,1660
2848.7152588549034,1630
2850.4664355283567,1636
2852.217273662973,1623
2853.9677735636546,1613
2855.7179355353833,1594
2857.4677598832186,1636
2859.217246912299,1666
2860.9663969278427,1608
2862.715210235146,1605
2864.4636871395846,1610
2866.211827946614,1641
2867.9596329617652,1605
2869.7071024906536,1709
2871.4542368389684,1579
2873.20103631248,1608
2874.947501217038,1641
2876.6936318585695,1656
2878.4394285430812,1562
2880.1848915766604,1618
2881.9300212654707,1605
2883.6748179157553,1621
2885.4192818338374,1613
2887.1634133261173,1584
2888.907212699077,1537
2890.6506802592744,1587
2892.393816313348,1660
2894.1366211680142,1629
2895.8790951300693,1630
2897.621238506388,1597
2899.363051603925,1591
2901.1045347297118,1646
2902.8456881908596,1629
2904.58651229456,1632
2906.327007348081,1600
2908.067173658772,1589
2909.8070115340597,1617
2911.5465212814497,1577
2913.285703208527,1628
2915.0245576229563,1624
2916.7630848324807,1579
2918.5012851449196,1616
2920.2391588681758,1628
2921.976706310227,1593
2923.7139277791334,1626
2925.4508235830313,1630
2927.187394030137,1510
2928.923639428745,1605
2930.6595600872306,1610
2932.395156314046,1685
2934.1304284177218,1634
2935.8653767068713,1610
2937.6000014901815,1610
2939.3343030764227,1677
2941.068281774442,1623
2942.8019378931644,1642
2944.5352717415976,1598
2946.2682836288236,1612
2948.0009738640065,1660
2949.7333427563885,1662
2951.465390615289,1619
2953.1971177501086,1674
2954.9285244703265,1586
2956.6596110855,1630
2958.3903779052657,1628
2960.1208252393385,1626
2961.8509533975125,1629
2963.5807626896617,1591
2965.3102534257378,1623
2967.0394259157715,1585
2968.768280469873,1616
2970.496817398232,1609
2972.2250370111146,1609
2973.952939618869,1666
2975.6805255319196,1633
2977.4077950607707,1599
2979.134748516006,1611
2980.861386208289,1615
2982.587708448359,1649
2984.313715547037,1619
2986.039407815222,1625
2987.764785563891,1634
2989.489849104102,1621
2991.2145987469908,1629
2992.9390348037705,1598
2994.6631575857346,1637
2996.3869674042576,1623
2998.1104645707887,1556
2999.83364939686,1636
3001.5565221940783,1599
3003.2790832741334,1626
3005.0013329487924,1623
3006.7232715298996,1612
3008.4448993293804,1596
3010.166216659239,1537
3011.887223831558,1591
3013.607921158498,1555
3015.3283089522993,1532
3017.0483875252826,1535
3018.7681571898443,1623
3020.4876182584626,1619
3022.2067710436927,1575
3023.9256158581707,1613
3025.644153014609,1595
3027.362382825801,1554
3029.0803056046193,1595
3030.797921664012,1621
3032.5152313170106,1591
3034.2322348767225,1596
3035.9489326563353,1665
3037.665324969115,1680
3039.3814121284063,1626
3041.097194447633,1594
3042.812672240299,1567
3044.5278458199855,1576
3046.2427155003525,1626
3047.9572815951406,1572
3049.671544418167,1635
3051.38550428333,1613
3053.0991615046073,1609
3054.812516396051,1589
3056.5255692717974,1596
3058.2383204460575,1589
3059.9507702331257,1605
3061.662918947372,1625
3063.3747669032446,1611
3065.0863144152736,1590
3066.7975617980674,1570
3068.508509366309,1602
3070.219157434767,1625
3071.9295063182844,1659
3073.639556331785,1605
3075.3493077902704,1604
3077.058761008821,1604
3078.7679163025964,1628
3080.476773986837,1626
3082.1853343768594,1635
3083.89359778806,1562
3085.6015645359153,1596
3087.3092349359786,1660
3089.016609303884,1629
3090.7236879553434,1591
3092.4304712061476,1578
3094.136959372166,1691
3095.843152769349,1654
3097.5490517137237,1679
3099.2546565213966,1607
3100.959967508554,1629
3102.66498499146,1673
3104.3697092864577,1625
3106.0741407099695,1671
3107.778279578498,1670
3109.482126208622,1663
3111.1856809170004,1601
3112.8889440203716,1625
3114.5919158355528,1649
3116.294596679439,1623
3117.996986869006,1606
3119.6990867213062,1702
3121.4008965534726,1724
3123.102416682717,1634
3124.803647426329,1615
3126.5045891016784,1614
3128.205242026213,1658
3129.90560651746,1655
3131.605682893025,1703
3133.3054714705922,1691
3135.0049725679282,1601
3136.7041865028714,1575
3138.4031135933465,1589
3140.101754157353,1592
3141.800108512971,1620
3143.498176978357,1613
3145.1959598717494,1652
3146.8934575114636,1611
3148.5906702158954,1595
3150.2875983035183,1603
3151.9842420928853,1608
3153.680601902627,1630
3155.376678051456,1624
3157.07247085816,1593
3158.767980641609,1575
3160.463207720748,1624
3162.158152414606,1572
3163.8528150422862,1686
3165.5471959229726,1672
3167.2412953759303,1683
3168.9351137204976,1662
3170.628651276098,1594
3172.3219083622307,1702
3174.014885298474,1627
3175.707582404485,1583
3177.4000000000005,1628
3179.092138404835,1637
3180.7839979388846,1633
3182.47557892212,1638
3184.166881674594,1641
3185.8579065164386,1586
3187.5486537678626,1624
3189.2391237491547,1589
3190.9293167806827,1640
3192.6192331828934,1624
3194.3088732763117,1604
3195.998237381542,1630
3197.687325819268,1581
3199.376138910251,1585
3201.064676975334,1593
3202.7529403354347,1615
3204.4409293115523,1601
3206.1286442247647,1569
3207.816085396229,1550
3209.5032531471825,1654
3211.190147798936,1561
3212.8767696728846,1560
3214.5631190905015,1641
3216.2491963733373,1580
3217.9350018430214,1607
3219.6205358212637,1584
3221.305798629851,1569
3222.990790590651,1605
3224.6755120256103,1577
3226.359963256751,1632
3228.0441446061795,1552
3229.7280563960758,1546
3231.411698948703,1588
3233.0950725863995,1591
3234.778177631587,1602
3236.461014406761,1614
3238.1435832345005,1601
3239.8258844374595,1613
3241.507918338374,1655
3243.1896852600576,1629
3244.8711855254023,1613
3246.552419457381,1593
3248.233387379042,1584
3249.914089613516,1629
3251.59452648401,1659
3253.274698313813,1579
3254.95460542629,1620
3256.6342481448855,1669
3258.313626793125,1646
3259.9927416946084,1533
3261.6715931730196,1578
3263.3501815521176,1520
3265.0285071557437,1587
3266.706570307815,1572
3268.3843713323286,1627
3270.0619105533615,1601
3271.739188295068,1615
3273.4162048816834,1591
3275.0929606375184,1628
3276.769455886966,1619
3278.445690954498,1618
3280.1216661646613,1697
3281.797381842087,1692
3283.4728383114807,1598
3285.1480358976296,1632
3286.8229749253996,1558
3288.4976557197333,1556
3290.172078605655,1574
3291.846243908266,1631
3293.5201519527463,1615
3295.193803064357,1556
3296.8671975684374,1544
3298.5403357904024,1652
3300.21321805575,1603
3301.8858446900567,1560
3303.558216018975,1611
3305.23033236824,1672
3306.9021940636603,1601
3308.57380143113,1620
3310.2451547966184,1658
3311.916254486174,1649
3313.5871008259246,1610
3315.2576941420766,1640
3316.9280347609147,1582
3318.5981230088046,1619
3320.2679592121895,1597
3321.9375436975924,1566
3323.606876791612,1597
3325.27595882093,1529
3326.944790112305,1576
3328.6133709925753,1570
3330.2817017886573,1585
3331.949782827547,1551
3333.617614436319,1522
3335.2851969421245,1588
3336.952530672199,1575
3338.619615953853,1614
3340.286453114475,1592
3341.9530424815357,1585
3343.619384382583,1619
3345.2854791452437,1572
3346.951327097224,1549
3348.6169285663073,1600
3350.2822838803577,1628
3351.947393367319,1534
3353.61225735521,1596
3355.2768761721345,1638
3356.9412501462693,1557
3358.605379605873,1601
3360.2692648792827,1643
3361.9329062949146,1562
3363.596304181263,1557
