CollectionTime,7/10/2024 3:50:18 PM
ExposureUsed,3
CalibratedSpectrum
-962.7078968117929,730
-959.9714848408522,735
-957.2358232597828,789
-954.5009119013725,738
-951.7667505983302,770
-949.0333391832855,810
-946.3006774887896,786
-943.5687653473143,786
-940.837602591253,772
-938.1071890529199,748
-935.3775245645503,779
-932.6486089583007,766
-929.9204420662485,763
-927.1930237203925,775
-924.4663537526524,797
-921.7404319948689,760
-919.0152582788041,781
-916.2908324361409,802
-913.5671542984834,839
-910.8442236973568,793
-908.1220404642074,758
-905.4006044304027,817
-902.679915427231,786
-899.959973285902,787
-897.2407778375464,782
-894.5223289132158,794
-891.8046263438832,743
-889.0876699604426,804
-886.3714595937089,789
-883.6559950744183,779
-880.9412762332282,792
-878.2273029007168,809
-875.5140749073835,755
-872.8015920836489,724
-870.0898542598545,746
-867.3788612662631,713
-864.6686129330585,741
-861.9591090903457,765
-859.2503495681506,783
-856.5423341964203,762
-853.8350628050229,773
-851.1285352237478,763
-848.4227512823054,801
-845.7177108103272,790
-843.0134136373656,788
-840.3098595928943,814
-837.6070485063082,806
-834.9049802069229,787
-832.2036545239757,774
-829.5030712866244,786
-826.8032303239481,756
-824.1041314649472,769
-821.4057745385428,771
-818.7081593735775,780
-816.0112857988148,797
-813.3151536429393,796
-810.6197627345566,751
-807.9251129021936,805
-805.2312039742981,785
-802.5380357792392,763
-799.8456081453069,766
-797.1539209007124,811
-794.462973873588,862
-791.772766891987,883
-789.083299783884,799
-786.3945723771743,790
-783.7065844996748,812
-781.0193359791231,845
-778.3328266431781,773
-775.6470563194197,805
-772.9620248353489,784
-770.2777320183878,762
-767.5941776958798,829
-764.9113616950891,819
-762.2292838432011,802
-759.5479439673222,804
-756.8673418944801,795
-754.1874774516235,771
-751.5083504656222,833
-748.8299607632671,872
-746.15230817127,825
-743.475392516264,876
-740.7992136248035,870
-738.1237713233636,855
-735.4490654383407,845
-732.7750957960521,818
-730.1018622227365,857
-727.4293645445534,883
-724.7576025875837,851
-722.0865761778291,865
-719.4162851412126,859
-716.7467293035781,860
-714.0779084906909,877
-711.409822528237,886
-708.7424712418238,842
-706.0758544569796,856
-703.4099719991541,884
-700.7448236937178,873
-698.0804093659622,910
-695.4167288411002,900
-692.7537819442656,866
-690.0915685005134,871
-687.4300883348199,925
-684.7693412720819,899
-682.1093271371178,878
-679.4500457546669,892
-676.7914969493897,822
-674.1336805458676,899
-671.4765963686034,868
-668.8202442420206,897
-666.1646239904642,926
-663.5097354382001,896
-660.8555784094151,917
-658.2021527282176,881
-655.5494582186366,872
-652.8974947046223,874
-650.2462620100463,915
-647.5957599587009,912
-644.9459883742998,934
-642.2969470804776,918
-639.6486359007902,920
-637.0010546587141,995
-634.3542031776476,931
-631.7080812809096,938
-629.0626887917401,893
-626.4180255333008,908
-623.7740913286734,935
-621.1308860008619,916
-618.4884093727904,858
-615.8466612673046,906
-613.2056415071715,956
-610.5653499150785,931
-607.9257863136347,971
-605.28695052537,943
-602.6488423727357,958
-600.0114616781036,965
-597.3748082637674,981
-594.7388819519412,990
-592.1036825647604,1023
-589.4692099242818,1024
-586.8354638524829,1036
-584.2024441712624,956
-581.5701507024403,1020
-578.9385832677575,990
-576.3077416888759,983
-573.6776257873787,988
-571.0482353847704,973
-568.4195703024757,956
-565.7916303618415,973
-563.164415384135,983
-560.5379251905453,992
-557.9121596021815,982
-555.2871184400748,988
-552.6628015251767,1010
-550.0392086783606,983
-547.4163397204204,1030
-544.794194472071,1004
-542.1727727539491,1008
-539.5520743866118,952
-536.9320991905377,1077
-534.3128469861261,1106
-531.6943175936979,1140
-529.0765108334947,1086
-526.4594265256793,1160
-523.8430644903358,1239
-521.2274245474689,1426
-518.612506517005,1399
-515.9983102187913,1444
-513.3848354725959,1458
-510.77208209810846,1454
-508.16004991493924,1447
-505.5487387426199,1687
-502.9381484006032,1828
-500.3282787082628,1972
-497.71912948489364,1966
-495.1107005497117,1907
-492.5029917218539,1803
-489.8960028203786,1600
-487.28973366426493,1480
-484.68418407241325,1365
-482.07935386364494,1318
-479.47524285670266,1218
-476.87185087025,1266
-474.2691777228715,1234
-471.66722323307334,1243
-469.0659872192821,1211
-466.4654694998459,1227
-463.86566989303384,1227
-461.26658821703614,1256
-458.66822428996414,1207
-456.07057792985,1155
-453.4736489546475,1195
-450.877437182231,1150
-448.28194243039627,1195
-445.68716451686,1141
-443.09310325926003,1157
-440.49975847515555,1147
-437.9071299820263,1139
-435.31521759727354,1104
-432.72402113821954,1199
-430.13354042210767,1258
-427.5437752661022,1201
-424.95472548728867,1188
-422.36639090267386,1241
-419.7787713291855,1241
-417.1918665836721,1245
-414.60567648290385,1301
-412.0202008435715,1323
-409.4354394822874,1290
-406.8513922155845,1334
-404.26805885991723,1343
-401.685439231661,1339
-399.103533147112,1299
-396.522340422488,1283
-393.9418608739278,1307
-391.3620943174908,1230
-388.7830405691583,1237
-386.2046994448317,1146
-383.6270707603344,1142
-381.05015433141045,1033
-378.473949973725,960
-375.8984575028645,920
-373.32367673433623,838
-370.74960748356875,788
-368.1762495659117,759
-365.60360279663576,714
-363.03166699093265,650
-360.4604419639154,592
-357.8899275306178,577
-355.32012350599507,559
-352.7510297049233,517
-350.1826459421999,473
-347.61497203254316,472
-345.04800779059235,498
-342.4817530309082,478
-339.91620756797226,491
-337.35137121618743,530
-334.7872437898774,525
-332.22382510328725,580
-329.66111497058273,527
-327.09911320585127,546
-324.53781962310075,509
-321.9772340362607,522
-319.4173562591816,490
-316.8581861056348,469
-314.2997233893127,485
-311.7419679238294,510
-309.1849195227194,543
-306.62857799943856,571
-304.0729431673641,562
-301.51801483979375,603
-298.963792829947,552
-296.41027695096386,554
-293.85746701590574,578
-291.3053628377552,617
-288.7539642294155,564
-286.2032710037115,575
-283.65328297338897,577
-281.1039999511146,572
-278.5554217494762,579
-276.007548180983,634
-273.4603790580651,641
-270.9139141930734,553
-268.3681533982807,546
-265.8230964858798,602
-263.27874326798565,678
-260.7350935566336,625
-258.1921471637804,598
-255.6499039013039,665
-253.10836358100266,623
-250.56752601459698,638
-248.02739101372765,606
-245.48795838995704,671
-242.94922795476816,658
-240.41119951956557,653
-237.8738728956746,668
-235.33724789434166,720
-232.80132432673452,668
-230.2661020039418,653
-227.73158073697357,660
-225.19776033676033,694
-222.66464061415422,658
-220.1322213799284,675
-217.60050244477725,659
-215.06948361931552,688
-212.53916471408013,685
-210.00954553952818,791
-207.48062590603843,793
-204.9524056239104,711
-202.4248845033651,673
-199.8980623545441,690
-197.37193898751036,775
-194.84651421224817,764
-192.32178783866232,793
-189.79775967657952,813
-187.27442953574644,873
-184.7517972258321,887
-182.2298625564256,893
-179.7086253370378,797
-177.18808537710026,854
-174.66824248596583,852
-172.14909647290835,780
-169.6306471471229,782
-167.11289431772548,890
-164.59583779375328,874
-162.07947738416453,830
-159.5638128978386,880
-157.04884414357605,978
-154.53457093009854,1011
-152.02099306604828,1014
-149.50811035998936,854
-146.99592262040665,828
-144.48442965570587,909
-141.97363127421409,1113
-139.46352728417958,1119
-136.95411749377126,1062
-134.44540171107985,1034
-131.93737974411636,1010
-129.43005140081357,981
-126.92341648902493,1298
-124.41747481652521,1773
-121.91222619101006,2090
-119.40767042009657,2255
-116.90380731132257,2494
-114.40063667214702,2687
-111.8981583099503,2652
-109.3963720320337,2226
-106.89527764561933,1807
-104.39487495785067,1704
-101.89516377579241,2338
-99.39614390642998,3341
-96.89781515667039,4312
-94.40017733334128,4195
-91.90323024319173,3228
-89.40697369289148,2908
-86.91140748903172,4336
-84.41653143812482,5428
-81.92234534660395,5017
-79.42884902082358,4865
-76.93604226705907,5869
-74.4439248915071,10062
-71.95249670028534,16124
-69.46175749943245,21863
-66.97170709490854,23081
-64.48234529259423,19849
-61.99367189829195,16076
-59.50568671772464,13166
-57.01838955653636,9545
-54.53178022029283,7621
-52.045858514480074,8729
-49.560624244506016,9747
-47.07607721569923,9801
-44.59221723330904,10662
-42.10904410250669,11463
-39.62655762838392,10910
-37.14475761595372,10808
-34.66364387015028,12657
-32.18321619582866,13650
-29.70347439776515,12220
-27.224418280657005,12162
-24.74604764912317,13275
-22.26836230770266,15495
-19.7913620608565,23306
-17.315046712966478,39837
-14.83941606833514,55464
-12.36446993118659,65038
-9.89020810566592,65038
-7.416630395839093,65038
-4.94373660569363,65038
-2.471526539137585,65038
-6.821210263296962E-13,65038
2.47084320796705,65038
4.941003281093458,65038
7.410480415786196,65038
9.879274808531363,65038
12.347386655893956,65038
14.814816154518212,65038
17.28156350112681,65038
19.74762889252179,65038
22.21301252558385,65038
24.67771459727237,21940
27.141735304626195,5270
29.605074844762612,3572
32.06773341487792,3090
34.52971121224755,2739
36.99100843422559,2986
39.45162527824516,3333
41.91156194181792,2428
44.370818622535126,1888
46.82939551806646,1716
49.287292826160524,1760
51.74451074464503,2248
54.201049471426245,2125
56.65690920448981,1942
59.112090141899785,1507
61.56659248179983,1405
64.02041642241159,1158
66.4735621620365,1193
68.92602989905402,1215
71.37781983192338,1277
73.82893215918205,1519
76.27936707944684,1773
78.72912479141326,1653
81.17820549385567,1470
83.62660938562783,1349
86.07433666566146,1501
88.5213875329681,1337
90.96776218663751,1106
93.41346082583925,1118
95.85848364982041,1085
98.30283085790859,1174
100.7465026495089,1291
103.18949922410604,1399
105.63182078126385,1216
108.07346752062438,1117
110.51443964190923,1229
112.95473734491827,1158
115.39436082953114,1147
117.83331029570547,1242
120.27158594347827,1248
122.7091879729652,1221
125.1461165843615,1171
127.58237197794062,1106
130.01795435405518,1110
132.4528639131364,1054
134.88710085569494,1170
137.32066538231982,1151
139.75355769367923,1067
142.1857779905207,902
144.61732647366978,916
147.04820334403132,957
149.47840880258934,958
151.90794305040674,1050
154.33680628862487,1143
156.76499871846443,1336
159.19252054122433,1498
161.61937195828352,1716
164.04555317109896,1823
166.47106438120693,2082
168.89590579022217,2282
171.320077599839,2323
173.7435800118302,2511
176.16641322804742,2837
178.58857745042144,2843
181.01007288096173,3036
183.43089972175687,3161
185.85105817497413,2988
188.27054844285988,3099
190.6893707277394,2981
193.10752523201643,3032
195.5250121581745,3091
197.9418317087751,3050
200.3579840864594,3114
202.7734694939469,3221
205.18828813403627,3229
207.6024402096051,3428
210.01592592360964,3468
212.42874547908548,3291
214.84089907914665,3366
217.2523869269868,3192
219.66320922587727,3186
222.0733661791695,3296
224.48285799029293,3292
226.8916848627572,3204
229.29984700014882,3242
231.7073446061355,3253
234.11417788446204,3251
236.520347038953,3158
238.92585227351185,3280
241.33069379212054,3361
243.73487179884035,3266
246.1383864978112,3383
248.541238093252,3389
250.9434267894609,3358
253.34495279081432,3341
255.74581630176783,3394
258.1460175268563,3304
260.54555667069314,3369
262.9444339379703,3397
265.3426495334594,3389
267.7402036620107,3217
270.1370965285529,3201
272.53332833809407,3279
274.9288992957214,3236
277.32380960660055,3029
279.718059475976,2999
282.1116491091717,3033
284.5045787115897,3098
286.89684848871195,3051
289.2884586460981,3082
291.67940938938807,3088
294.0697009242996,3176
296.4593334566299,3137
298.84830719225477,3002
301.23662233712923,3024
303.6242790972866,3049
306.01127767884,2933
308.39761828798066,2940
310.78330113097934,3008
313.16832641418534,2873
315.5526943440269,2851
317.9364051270112,2827
320.3194589697242,2845
322.70185607883093,2859
325.0835966610754,2812
327.4646809232805,2867
329.8451090723478,2761
332.2248813152577,2741
334.6039978590701,2823
336.9824589109231,2861
339.36026467803447,2803
341.7374153677,2716
344.113911187295,2663
346.48975234427337,2683
348.8649390461686,2642
351.2394715005918,2659
353.61334991523415,2634
355.9865744978655,2653
358.35914545633375,2653
360.73106299856715,2669
363.10232733257146,2672
365.47293866643247,2652
367.84289720831396,2607
370.2122031664593,2593
372.5808567491905,2654
374.9488581649083,2645
377.31620762209275,2601
379.6829053293021,2524
382.0489514951745,2474
384.4143463284262,2547
386.7790900378528,2575
389.14318283232853,2515
391.50662492080653,2534
393.86941651231916,2542
396.23155781597745,2544
398.5930490409713,2553
400.9538903965696,2545
403.3140820921202,2530
405.6736243370498,2542
408.03251734086336,2534
410.3907613131465,2531
412.74835646356166,2506
415.10530300185144,2463
417.4616011378372,2495
419.81725108141893,2507
422.1722530425758,2512
424.5266072313656,2552
426.880313857925,2452
429.2333731324701,2481
431.58578526529516,2453
433.9375504667738,2462
436.2886689473588,2564
438.63914091758113,2446
440.9889665880513,2435
443.33814616945835,2358
445.68667987257015,2443
448.03456790823395,2422
450.3818104873759,2378
452.72840782100013,2450
455.07436012019105,2451
457.41966759611057,2497
459.7643304600007,2435
462.10834892318155,2525
464.4517231970525,2457
466.79445349309174,2502
469.1365400228566,2421
471.4779829979826,2464
473.81878263018564,2447
476.15893913125876,2476
478.4984527130747,2511
480.8373235875855,2579
483.17555196682144,2606
485.5131380628919,2631
487.8500820879857,2757
490.1863842543697,2806
492.52204477439034,3025
494.8570638604725,3267
497.1914417251204,3478
499.52517858091653,3934
501.85827464052306,4094
504.19073011668036,4040
506.5225452222086,3926
508.85372017000566,3824
511.18425517304956,3752
513.514150444396,3861
515.8434061971808,4336
518.1720226446176,5205
520.4999999999999,5413
522.8273384766991,5093
525.1540382881666,5103
527.480099647932,4460
529.8055227696037,3771
532.1303078668694,3261
534.454455153496,2895
536.777964843328,2754
539.1008371502907,2672
541.4230722883866,2550
543.744670471698,2614
546.0656319143858,2568
548.3859568306899,2649
550.7056454349294,2587
553.0246979415016,2589
555.3431145648834,2501
557.6608955196306,2501
559.978041020377,2477
562.2945512818363,2557
564.6104265188006,2592
566.9256669461412,2699
569.2402727788082,2594
571.5542442318302,2635
573.8675815203156,2597
576.1802848594508,2677
578.4923544645015,2693
580.8037905508126,2599
583.114593333807,2676
585.4247630289875,2637
587.7342998519354,2656
590.0432040183106,2667
592.3514757438526,2593
594.6591152443794,2714
596.9661227357875,2615
599.2724984340531,2592
601.578242555231,2674
603.8833553154542,2676
606.1878369309362,2642
608.4916876179676,2621
610.7949075929192,2607
613.0974970722403,2542
615.3994562724587,2593
617.7007854101818,2563
620.0014847020951,2585
622.3015543649641,2659
624.6009946156324,2640
626.8998056710224,2593
629.1979877481361,2510
631.4955410640538,2555
633.7924658359349,2579
636.0887622810175,2678
638.3844306166192,2591
640.6794710601358,2559
642.9738838290426,2562
645.2676691408932,2580
647.5608272133207,2617
649.853358264037,2593
652.1452625108324,2643
654.4365401715764,2593
656.7271914642178,2633
659.0172166067838,2643
661.3066158173809,2586
663.5953893141935,2556
665.8835373154867,2564
668.1710600396028,2612
670.4579577049639,2610
672.7442305300709,2610
675.0298787335033,2659
677.3149025339197,2506
679.599302150058,2541
681.8830778007342,2619
684.1662297048437,2553
686.4487580813608,2658
688.7306631493387,2596
691.0119451279091,2623
693.2926042362834,2621
695.5726406937516,2621
697.8520547196814,2551
700.1308465335215,2631
702.4090163547982,2609
704.6865644031171,2608
706.9634908981619,2504
709.2397960596965,2489
711.5154801075631,2574
713.7905432616823,2531
716.0649857420548,2610
718.3388077687592,2616
720.612009561953,2586
722.8845913418733,2553
725.1565533288352,2568
727.427895743234,2590
729.6986188055427,2621
731.9687227363137,2547
734.238207756178,2604
736.5070740858458,2585
738.7753219461066,2582
741.0429515578281,2597
743.3099631419569,2631
745.5763569195191,2541
747.8421331116193,2593
750.1072919394409,2507
752.3718336242467,2585
754.6357583873777,2567
756.8990664502545,2631
759.1617580343765,2630
761.423833361321,2565
763.6852926527457,2700
765.9461361303862,2610
768.206364016058,2701
770.4659765316536,2681
772.7249738991469,2664
774.9833563405886,2643
777.2411240781092,2605
779.4982773339183,2551
781.7548163303044,2563
784.010741289634,2631
786.2660524343538,2759
788.5207499869881,2652
790.7748341701416,2634
793.0283052064964,2677
795.2811633188143,2600
797.5334087299362,2548
799.7850416627813,2646
802.0360623403484,2706
804.2864709857143,2575
806.5362678220353,2563
808.7854530725468,2635
811.0340269605625,2646
813.2819897094754,2673
815.5293415427581,2672
817.77608268396,2693
820.0222133567116,2612
822.2677337847211,2578
824.5126441917765,2688
826.7569448017433,2671
829.0006358385675,2665
831.2437175262731,2581
833.4861900889629,2575
835.7280537508192,2632
837.9693087361026,2683
840.2099552691533,2622
842.4499935743896,2629
844.689423876309,2657
846.9282463994886,2560
849.1664613685833,2648
851.4040690083276,2614
853.6410695435349,2633
855.877463199097,2624
858.1132501999847,2621
860.3484307712487,2614
862.5830051380175,2610
864.8169735254988,2599
867.0503361589791,2662
869.2830932638243,2566
871.5152450654786,2578
873.7467917894654,2672
875.9777336613873,2724
878.2080709069252,2634
880.4378037518389,2704
882.666932421968,2690
884.8954571432301,2676
887.1233781416219,2715
889.3506956432192,2705
891.5774098741766,2692
893.803521060728,2666
896.0290294291852,2803
898.2539352059397,2753
900.4782386174619,2702
902.7019398903011,2677
904.925039251085,2705
907.147536926521,2708
909.3694331433943,2612
911.59072812857,2607
913.8114221089921,2655
916.0315153116827,2564
918.2510079637437,2598
920.4699002923547,2615
922.6881925247761,2586
924.905884888345,2626
927.1229776104793,2587
929.3394709186747,2613
931.555365040506,2597
933.7706602036275,2578
935.9853566357709,2497
938.1994545647489,2664
940.4129542184515,2597
942.6258558248488,2598
944.8381596119883,2585
947.0498658079974,2616
949.2609746410825,2569
951.4714863395287,2596
953.6814011316998,2510
955.8907192460387,2538
958.0994409110671,2551
960.3075663553858,2527
962.5150958076741,2541
964.7220294966913,2496
966.928367651274,2516
969.1341105003388,2545
971.3392582728806,2557
973.5438111979742,2488
975.747769504772,2490
977.9511334225061,2487
980.153903180487,2484
982.3560790081052,2477
984.5576611348289,2449
986.7586497902058,2393
988.9590452038618,2366
991.158847605503,2462
993.3580572249133,2475
995.5566742919558,2383
997.7546990365728,2291
999.952131688785,2310
1002.1489724786926,2322
1004.3452216364743,2278
1006.5408793923874,2219
1008.7359459767691,2226
1010.9304216200343,2245
1013.1243065526781,2195
1015.3176010052733,2178
1017.510305208472,2214
1019.7024193930064,2178
1021.8939437896848,2238
1024.0848786293977,2279
1026.2752241431122,2123
1028.4649805618747,2200
1030.6541481168115,2187
1032.842727039127,2163
1035.0307175601051,2157
1037.2181199111074,2110
1039.4049343235752,2148
1041.591161029029,2197
1043.7768002590683,2172
1045.9618522453698,2181
1048.1463172196918,2125
1050.3301954138697,2198
1052.513487059818,2223
1054.69619238953,2218
1056.8783116350783,2190
1059.0598450286152,2167
1061.2407928023704,2176
1063.4211551886528,2186
1065.6009324198508,2239
1067.780124728432,2166
1069.9587323469414,2183
1072.1367555080046,2202
1074.314194444325,2169
1076.4910493886855,2154
1078.667320573947,2141
1080.843008233051,2083
1083.0181125990161,2078
1085.1926339049414,2112
1087.3665723840027,2133
1089.5399282694575,2115
1091.7127017946405,2111
1093.8848931929647,2086
1096.0565026979243,2101
1098.2275305430899,2058
1100.3979769621128,2088
1102.567842188722,2035
1104.737126456726,2050
1106.9058300000124,2047
1109.0739530525475,2022
1111.2414958483764,2005
1113.4084586216231,2098
1115.5748416064907,2053
1117.7406450372605,2105
1119.9058691482942,2100
1122.0705141740304,2047
1124.2345803489884,2016
1126.3980679077658,2062
1128.5609770850388,2039
1130.7233081155623,2072
1132.8850612341707,2074
1135.0462366757774,2108
1137.2068346753745,2085
1139.3668554680326,2009
1141.526299288901,1964
1143.68516637321,1984
1145.8434569562655,2055
1148.001171273455,2021
1150.158309560244,2074
1152.3148720521767,2010
1154.470858984876,2018
1156.626270594044,2026
1158.7811071154629,2057
1160.9353687849912,2006
1163.089055838569,2050
1165.242168512213,2043
1167.3947070420209,1995
1169.5466716641677,1981
1171.6980626149075,1962
1173.8488801305748,2029
1175.9991244475814,2006
1178.1487958024186,2039
1180.2978944316555,2005
1182.4464205719428,1933
1184.5943744600072,2030
1186.7417563326567,1940
1188.8885664267755,1959
1191.0348049793297,1952
1193.1804722273619,2058
1195.325568407995,2014
1197.4700937584303,2014
1199.614048515948,2030
1201.7574329179074,1972
1203.900247201746,2037
1206.042491604982,2007
1208.1841663652099,1985
1210.3252717201053,2045
1212.465807907422,1973
1214.6057751649923,2017
1216.7451737307279,2027
1218.8840038426192,2044
1221.0222657387353,1954
1223.1599596572241,1984
1225.2970858363137,2042
1227.4336445143094,2005
1229.5696359295966,2018
1231.705060320639,2096
1233.8399179259786,2046
1235.9742089842384,2039
1238.107933734118,2023
1240.2410924143974,2044
1242.373685263935,2067
1244.5057125216676,2054
1246.6371744266116,2047
1248.7680712178621,2043
1250.898403134593,2016
1253.028170416058,2148
1255.1573733015875,2081
1257.2860120305932,2047
1259.4140868425648,2004
1261.54159797707,2064
1263.6685456737569,2089
1265.7949301723515,2033
1267.9207517126597,2053
1270.046010534565,2058
1272.1707068780306,2174
1274.2948409830983,2019
1276.4184130898889,2102
1278.541423438603,2125
1280.6638722695184,2130
1282.785759822993,2115
1284.9070863394636,2101
1287.0278520594447,2124
1289.1480572235314,2156
1291.2677020723963,2097
1293.3867868467923,2142
1295.5053117875495,2065
1297.623277135579,2050
1299.740683131868,2044
1301.8575300174857,2141
1303.973818033578,2050
1306.0895474213703,2149
1308.2047184221678,2175
1310.3193312773528,2202
1312.4333862283888,2215
1314.5468835168163,2120
1316.659823384255,2142
1318.7722060724045,2119
1320.8840318230418,2140
1322.9953008780249,2186
1325.1060134792888,2115
1327.2161698688478,2147
1329.3257702887959,2188
1331.4348149813054,2147
1333.5433041886276,2115
1335.6512381530933,2206
1337.7586171171101,2150
1339.8654413231675,2161
1341.9717110138317,2111
1344.0774264317488,2145
1346.1825878196432,2182
1348.2871954203192,2193
1350.3912494766587,2122
1352.4947502316231,2152
1354.5976979282532,2139
1356.7000928096686,2138
1358.8019351190665,2186
1360.9032250997243,2152
1363.0039629949988,2073
1365.1041490483235,2103
1367.2037835032133,2015
1369.3028666032606,2107
1371.401398592137,2117
1373.4993797135926,2103
1375.5968102114575,2165
1377.6936903296396,2123
1379.7900203121262,2142
1381.8858004029835,2118
1383.9810308463561,2103
1386.075711886469,2219
1388.1698437676241,2157
1390.2634267342032,2123
1392.356461030667,2133
1394.4489469015557,2204
1396.5408845914872,2170
1398.6322743451592,2149
1400.7231164073469,2192
1402.813411022907,2166
1404.903158436773,2235
1406.9923588939578,2180
1409.0810126395531,2179
1411.1691199187303,2164
1413.2566809767386,2270
1415.343696058907,2228
1417.4301654106425,2174
1419.5160892774315,2130
1421.6014679048399,2220
1423.6863015385125,2313
1425.7705904241707,2224
1427.8543348076178,2248
1429.9375349347342,2262
1432.0201910514802,2242
1434.102303403894,2307
1436.1838722380944,2299
1438.2648978002767,2339
1440.3453803367174,2309
1442.4253200937692,2336
1444.5047173178677,2403
1446.5835722555234,2357
1448.6618851533285,2405
1450.739656257952,2424
1452.8168858161434,2325
1454.8935740747306,2418
1456.96972128062,2466
1459.045327680797,2476
1461.120393522327,2449
1463.1949190523528,2470
1465.2689045180973,2535
1467.3423501668608,2525
1469.415256246024,2615
1471.4876230030463,2585
1473.559450685465,2674
1475.6307395408976,2588
1477.7014898170391,2649
1479.771701761665,2693
1481.8413756226287,2671
1483.9105116478618,2746
1485.9791100853772,2724
1488.0471711832643,2783
1490.1146951896926,2691
1492.1816823529098,2786
1494.2481329212433,2896
1496.3140471430984,2897
1498.3794252669609,2921
1500.4442675413939,2942
1502.5085742150404,2932
1504.572345536622,2983
1506.6355817549388,2987
1508.6982831188702,2907
1510.7604498773744,3121
1512.8220822794883,3013
1514.8831805743293,3034
1516.9437450110909,3107
1519.003775839048,3206
1521.0632733075522,3200
1523.1222376660367,3252
1525.1806691640113,3213
1527.2385680510652,3306
1529.2959345768668,3418
1531.3527689911643,3432
1533.4090715437833,3417
1535.4648424846291,3408
1537.5200820636855,3588
1539.5747905310159,3643
1541.6289681367616,3604
1543.6826151311434,3723
1545.7357317644614,3748
1547.7883182870937,3770
1549.8403749494987,3768
1551.8919020022113,3960
1553.9428996958477,3882
1555.9933682811015,3902
1558.0433080087469,4011
1560.0927191296346,4018
1562.1416018946961,4178
1564.1899565549415,4195
1566.2377833614592,4197
1568.2850825654164,4088
1570.3318544180606,4001
1572.3780991707158,4010
1574.423817074788,3801
1576.4690083817595,3778
1578.5136733431923,3572
1580.5578122107272,3517
1582.601425236085,3270
1584.6445126710646,3182
1586.6870747675434,3037
1588.7291117774776,3037
1590.7706239529034,2936
1592.8116115459347,2827
1594.8520748087658,2744
1596.8920139936686,2629
1598.9314293529933,2609
1600.9703211391711,2591
1603.008689604711,2467
1605.0465350022005,2529
1607.0838575843068,2444
1609.1206576037753,2384
1611.1569353134305,2461
1613.1926909661765,2306
1615.2279248149953,2305
1617.2626371129481,2224
1619.2968281131757,2212
1621.3304980688963,2227
1623.3636472334088,2301
1625.39627586009,2283
1627.428384202396,2178
1629.459972513861,2224
1631.4910410480993,2142
1633.5215900588028,2085
1635.551619799744,2200
1637.5811305247717,2208
1639.6101224878166,2215
1641.6385959428862,2155
1643.6665511440683,2157
1645.693988345528,2065
1647.7209078015112,2132
1649.7473097663405,2080
1651.7731944944203,2153
1653.7985622402307,2138
1655.823413258333,2082
1657.847747803366,2088
1659.8715661300494,2101
1661.8948684931793,2041
1663.9176551476316,2041
1665.9399263483624,2050
1667.9616823504057,2125
1669.982923408873,2033
1672.0036497789574,2104
1674.0238617159293,2124
1676.043559475138,2083
1678.0627433120121,2078
1680.081413482059,2002
1682.0995702408654,2039
1684.117213844096,2055
1686.134344547495,2068
1688.1509626068864,2064
1690.1670682781705,2027
1692.182661817329,1992
1694.1977434804217,2036
1696.2123135235875,2066
1698.226372203043,1997
1700.2399197750851,2006
1702.2529564960905,2067
1704.2654826225112,2037
1706.277498410882,1985
1708.2890041178139,1997
1710.2999999999988,2070
1712.3104863142066,2074
1714.3204633172854,2046
1716.329931266163,1985
1718.3388904178469,2017
1720.3473410294214,2038
1722.3552833580516,2048
1724.3627176609807,2067
1726.3696441955308,2057
1728.3760632191033,2064
1730.3819749891782,1964
1732.3873797633146,2023
1734.3922777991502,2057
1736.3966693544012,1967
1738.4005546868639,1918
1740.4039340544127,2024
1742.406807715001,2049
1744.4091759266616,2050
1746.4110389475054,1984
1748.4123970357223,2006
1750.413250449582,2056
1752.4135994474318,1985
1754.4134442876993,1977
1756.4127852288902,2038
1758.4116225295893,2027
1760.4099564484595,1998
1762.407787244244,1963
1764.405115175764,1975
1766.4019405019203,1965
1768.3982634816916,1963
1770.3940843741357,2018
1772.3894034383907,1922
1774.3842209336717,1937
1776.378537119274,1934
1778.372352254571,1941
1780.3656665990156,1936
1782.3584804121397,1942
1784.3507939535534,1956
1786.3426074829463,1872
1788.3339212600863,2015
1790.3247355448211,1982
1792.3150505970766,1886
1794.3048666768573,1980
1796.2941840442477,1945
1798.2830029594106,2018
1800.2713236825884,1909
1802.2591464741004,2011
1804.2464715943465,1982
1806.2332993038058,1941
1808.2196298630352,1961
1810.2054635326708,1924
1812.190800573428,1976
1814.175641246101,1980
1816.1599858115628,2011
1818.1438345307652,1968
1820.127187664738,2025
1822.1100454745924,1999
1824.092408221516,2012
1826.0742761667766,2033
1828.055649571721,1974
1830.0365286977735,1938
1832.0169138064398,1904
1833.9968051593014,1895
1835.9762030180214,1955
1837.9551076443408,1947
1839.9335193000788,1958
1841.9114382471344,1931
1843.888864747485,1958
1845.8657990631878,1989
1847.842241456378,1977
1849.8181921892697,2003
1851.7936515241558,1953
1853.7686197234098,1918
1855.7430970494815,1939
1857.7170837649014,1970
1859.6905801322787,1935
1861.6635864143004,1908
1863.6361028737338,1919
1865.608129773424,1954
1867.5796673762961,1939
1869.5507159453537,2008
1871.521275743678,2039
1873.4913470344313,2032
1875.4609300808534,2001
1877.4300251462632,1999
1879.3986324940588,1970
1881.366752387717,1954
1883.3343850907936,1942
1885.3015308669228,1937
1887.268189979819,1913
1889.2343626932739,1957
1891.2000492711595,2003
1893.1652499774254,1959
1895.1299650761011,1940
1897.0941948312952,1902
1899.0579395071945,1935
1901.0211993680641,1922
1902.98397467825,1949
1904.9462657021745,2000
1906.9080727043415,1962
1908.869395949332,1979
1910.8302357018065,1900
1912.790592226504,1926
1914.7504657882428,1879
1916.7098566519212,1900
1918.6687650825133,1963
1920.6271913450764,1942
1922.5851357047422,1950
1924.5425984267245,1942
1926.499579776314,1946
1928.4560800188833,1839
1930.4120994198802,1872
1932.367638244833,1909
1934.32269675935,1888
1936.2772752291175,1975
1938.231373919899,1944
1940.1849930975404,1899
1942.1381330279637,1925
1944.0907939771696,1937
1946.0429762112412,1887
1947.9946799963363,1921
1949.9459055986945,1881
1951.896653284633,1957
1953.8469233205478,1890
1955.7967159729142,1903
1957.7460315082863,1904
1959.6948701932974,1947
1961.6432322946594,1932
1963.5911180791632,1830
1965.5385278136787,1952
1967.4854617651545,1869
1969.4319202006182,1937
1971.377903387176,1866
1973.3234115920136,1856
1975.268445082395,1925
1977.2130041256642,1871
1979.1570889892423,1941
1981.1006999406304,1892
1983.04383724741,1880
1984.986501177238,1936
1986.928691997853,1841
1988.8704099770712,1913
1990.811655382789,1870
1992.7524284829801,1863
1994.692729545698,1835
1996.6325588390755,1847
1998.5719166313224,1803
2000.5108031907307,1882
2002.4492187856677,1860
2004.387163684583,1904
2006.3246381560011,1854
2008.2616424685298,1868
2010.1981768908527,1889
2012.1342416917332,1875
2014.069837140014,1850
2016.0049635046162,1825
2017.9396210545406,1869
2019.8738100588666,1851
2021.8075307867502,1894
2023.740783507431,1817
2025.6735684902228,1869
2027.6058860045214,1812
2029.5377363198004,1882
2031.4691197056118,1841
2033.4000364315875,1855
2035.3304867674374,1901
2037.260470982952,1845
2039.189989347998,1864
2041.1190421325232,1875
2043.047629606554,1938
2044.9757520401945,1834
2046.9034097036288,1834
2048.8306028671195,1800
2050.7573318010086,1930
2052.683596775716,1786
2054.609398061742,1845
2056.5347359296647,1861
2058.4596106501403,1840
2060.384022493906,1922
2062.3079717317764,1832
2064.231458634646,1830
2066.1544834734873,1778
2068.077046519352,1849
2069.99914804337,1864
2071.9207883167524,1863
2073.8419676107865,1770
2075.7626861968406,1770
2077.6829443463607,1868
2079.6027423308715,1768
2081.522080421977,1829
2083.440958891362,1814
2085.359378010786,1847
2087.2773380520907,1858
2089.194839287196,1836
2091.111881988101,1906
2093.0284664268825,1863
2094.9445928756973,1815
2096.86026160678,1828
2098.775472892446,1902
2100.690227005088,1861
2102.604524217178,1812
2104.5183648012676,1840
2106.431749029985,1872
2108.34467717604,1816
2110.2571495122206,1890
2112.169166311393,1895
2114.080727846503,1897
2115.9918343905747,1944
2117.902486216711,1877
2119.8126835980956,1869
2121.722426807987,1940
2123.6317161197285,1821
2125.5405518067364,1860
2127.448934142509,1839
2129.356863400624,1919
2131.264339854737,1978
2133.1713637785815,1848
2135.077935445972,1845
2136.9840551308002,1859
2138.889723107037,1837
2140.7949396487334,1981
2142.699705030018,1919
2144.6040195250994,1929
2146.507883408264,1948
2148.4112969538774,1944
2150.3142604363848,1898
2152.2167741303097,1832
2154.1188383102535,1888
2156.0204532508997,1979
2157.9216192270064,1927
2159.822336513414,1932
2161.7226053850413,1888
2163.622426116884,1966
2165.5217989840185,1910
2167.4207242616,1931
2169.319202224862,1971
2171.2172331491165,1967
2173.1148173097563,2072
2175.0119549822507,1936
2176.90864644215,1993
2178.8048919650823,1939
2180.7006918267534,1962
2182.596046302952,2018
2184.4909556695407,1991
2186.3854202024645,2002
2188.279440177746,1957
2190.173015871487,1939
2192.066147559868,1964
2193.958835519149,2011
2195.851080025667,1990
2197.7428813558417,1988
2199.6342397861667,1879
2201.5251555932186,1954
2203.415629053651,1950
2205.3056604441986,1999
2207.19525004167,1971
2209.084398122958,1981
2210.9731049650327,2023
2212.861370844941,2020
2214.749196039812,1994
2216.636580826851,1900
2218.523525483344,2039
2220.410030286655,2063
2222.296095514226,1984
2224.1817214435805,2029
2226.066908352319,1932
2227.951656518121,2032
2229.835966218746,1967
2231.71983773203,1962
2233.6032713358913,2047
2235.486267308324,2002
2237.3688259274036,1920
2239.2509474712824,1945
2241.132632218193,1950
2243.013880446447,2040
2244.8946924344323,1963
2246.7750684606203,1994
2248.6550088035574,1995
2250.534513741871,1991
2252.413583554265,1968
2254.292218519526,1963
2256.170418916517,1864
2258.0481850241786,1965
2259.925517121534,1972
2261.8024154876825,1924
2263.678880401803,1962
2265.5549121431536,1902
2267.430510991071,1978
2269.305677224971,1957
2271.180411124348,1901
2273.0547129687766,1915
2274.9285830379076,2002
2276.8020216114737,1889
2278.6750289692845,1877
2280.5476053912294,1897
2282.4197511572766,1981
2284.2914665474727,1946
2286.162751841943,1969
2288.0336073208937,2082
2289.904033264608,2012
2291.774029953448,2006
2293.6435976678554,1930
2295.5127366883517,1955
2297.381447295534,1995
2299.2497297700825,1905
2301.1175843927526,1845
2302.9850114443825,1815
2304.852011205885,1751
2306.7185839582553,1760
2308.5847299825664,1759
2310.4504495599676,1748
2312.3157429716925,1769
2314.1806104990483,1651
2316.0450524234247,1806
2317.9090690262888,1740
2319.772660589186,1689
2321.635827393742,1734
2323.498569721661,1735
2325.3608878547248,1718
2327.2227820747967,1729
2329.0842526638157,1653
2330.945299903803,1799
2332.805924076857,1732
2334.6661254651535,1765
2336.525904350951,1789
2338.3852610165827,1704
2340.244195744464,1650
2342.102708817088,1648
2343.9608005170253,1616
2345.8184711269287,1702
2347.675720929526,1760
2349.532550207628,1702
2351.38895924412,1692
2353.24494832197,1734
2355.100517724223,1705
2356.955667734004,1702
2358.810398634514,1654
2360.664710709037,1650
2362.5186042409337,1703
2364.3720795136437,1719
2366.225136810686,1708
2368.0777764156583,1784
2369.929998612237,1710
2371.7818036841777,1731
2373.633191915315,1711
2375.484163589562,1698
2377.3347189909114,1681
2379.184858403434,1712
2381.03458211128,1690
2382.8838903986775,1726
2384.732783549936,1809
2386.5812618494406,1710
2388.4293255816588,1775
2390.2769750311327,1723
2392.1242104824883,1738
2393.971032220427,1725
2395.8174405297295,1732
2397.6634356952563,1762
2399.509018001947,1796
2401.3541877348193,1743
2403.1989451789705,1759
2405.043290619576,1761
2406.8872243418905,1698
2408.730746631247,1668
2410.5738577730594,1722
2412.4165580528183,1705
2414.258847756095,1693
2416.100727168537,1747
2417.9421965758734,1716
2419.783256263912,1712
2421.623906518538,1695
2423.4641476257157,1794
2425.303979871491,1707
2427.143403541984,1747
2428.9824189233977,1756
2430.821026302012,1692
2432.6592259641866,1709
2434.497018196361,1752
2436.33440328505,1775
2438.171381516851,1724
2440.00795317844,1754
2441.844118556569,1765
2443.6798779380724,1672
2445.5152316098606,1782
2447.3501798589255,1738
2449.1847229723357,1762
2451.0188612372403,1704
2452.8525949408663,1677
2454.6859243705203,1762
2456.518849813587,1761
2458.3513715575314,1722
2460.183489889895,1702
2462.015205098301,1746
2463.8465174704493,1740
2465.67742729412,1669
2467.5079348571717,1738
2469.338040447542,1745
2471.1677443532476,1745
2472.9970468623833,1722
2474.825948263123,1744
2476.6544488437207,1732
2478.482548892508,1760
2480.310248697896,1682
2482.137548548374,1764
2483.9644487325118,1737
2485.790949538956,1813
2487.617051256433,1759
2489.44275417375,1793
2491.26805857979,1774
2493.0929647635157,1751
2494.917473013971,1873
2496.741583620276,1753
2498.5652968716304,1787
2500.3886130573137,1777
2502.2115324666834,1792
2504.0340553891765,1756
2505.856182114308,1780
2507.6779129316733,1813
2509.499248130945,1834
2511.3201880018764,1790
2513.140732834298,1814
2514.9608829181198,1796
2516.780638543331,1836
2518.6,1801
2520.418967578273,1802
2522.237541568376,1807
2524.0557222606144,1792
2525.8735099453706,1816
2527.6909049131086,1737
2529.507907454368,1839
2531.32451785977,1795
2533.140736420014,1828
2534.9565634258774,1821
2536.771999168218,1806
2538.5870439379714,1903
2540.4016980261526,1922
2542.2159617238544,1843
2544.02983532225,1938
2545.8433191125914,1859
2547.656413386209,1829
2549.4691184345115,1798
2551.2814345489874,1816
2553.093362021204,1925
2554.904901142808,1959
2556.716052205523,1910
2558.526815501153,1932
2560.3371913215824,1864
2562.147179958771,1926
2563.956781704761,1920
2565.7659968516705,1915
2567.5748256916986,1921
2569.3832685171224,1945
2571.1913256202984,1977
2572.9989972936614,1889
2574.806283829725,1924
2576.613185521084,1981
2578.4197026604074,2001
2580.2258355404483,1926
2582.031584454035,2034
2583.836949694077,1985
2585.6419315535613,1972
2587.4465303255533,2036
2589.2507463032002,2067
2591.0545797797245,2080
2592.8580310484303,2036
2594.6611004026995,2091
2596.463788135992,2019
2598.266094541849,2088
2600.0680199138874,2107
2601.869564545807,2045
2603.670728731383,2029
2605.4715127644704,1982
2607.2719169390048,2090
2609.071941548998,2145
2610.8715868885433,2061
2612.670853251811,2113
2614.469740933052,2117
2616.268250226594,2082
2618.0663814268455,2070
2619.864134828292,2083
2621.6615107255006,2054
2623.458509413115,1981
2625.2551311858597,2035
2627.0513763385347,2000
2628.8472451660223,1976
2630.6427379632833,1986
2632.4378550253564,2063
2634.232596647359,2071
2636.026963124488,1920
2637.8209547520187,1969
2639.6145718253065,1987
2641.407814639785,1975
2643.200683490966,1978
2644.9931786744414,1981
2646.7853004858807,1940
2648.577049221034,1997
2650.3684251757277,1936
2652.1594286458712,1998
2653.9500599274484,1918
2655.740319316525,1929
2657.5302071092437,1955
2659.3197236018286,1911
2661.10886909058,1859
2662.8976438718782,1867
2664.686048242183,1890
2666.4740824980327,1866
2668.2617469360443,1844
2670.0490418529134,1809
2671.8359675454153,1797
2673.622524310403,1844
2675.408712444811,1815
2677.1945322456495,1829
2678.979984010009,1841
2680.76506803506,1849
2682.5497846180497,1781
2684.334134056306,1770
2686.1181166472343,1804
2687.9017326883213,1766
2689.6849824771293,1767
2691.4678663113013,1839
2693.2503844885596,1780
2695.032537306705,1792
2696.8143250636167,1744
2698.5957480572542,1696
2700.3768065856534,1793
2702.1575009469316,1857
2703.937831439283,1829
2705.717798360982,1689
2707.4974020103837,1753
2709.276642685917,1748
2711.055520686095,1753
2712.834036309506,1794
2714.612189854819,1707
2716.389981620782,1747
2718.1674119062204,1737
2719.944481010041,1704
2721.721189231226,1683
2723.4975368688415,1682
2725.273524222027,1777
2727.0491515900053,1704
2728.824419272075,1763
2730.5993275676146,1762
2732.3738767760838,1677
2734.148067197016,1700
2735.921899130031,1705
2737.6953728748194,1730
2739.468488731156,1697
2741.2412469988926,1696
2743.0136479779617,1706
2744.785691968372,1741
2746.5573792702116,1650
2748.3287101836504,1691
2750.099685008934,1755
2751.870304046388,1690
2753.640567596418,1698
2755.4104759595057,1657
2757.1800294362156,1703
2758.949228327187,1746
2760.7180729331412,1715
2762.486563554877,1712
2764.254700493272,1740
2766.022484049284,1729
2767.789914523947,1754
2769.5569922183786,1755
2771.3237174337705,1705
2773.090090471394,1720
2774.8561116326036,1642
2776.6217812188274,1692
2778.3870995315756,1680
2780.1520668724356,1671
2781.9166835430747,1698
2783.6809498452394,1743
2785.444866080754,1656
2787.2084325515225,1705
2788.971649559527,1738
2790.73451740683,1730
2792.4970363955713,1692
2794.2592068279705,1702
2796.0210290063264,1687
2797.7825032330147,1684
2799.543629810493,1700
2801.304409041296,1762
2803.0648412280366,1729
2804.8249266734088,1694
2806.5846656801846,1725
2808.344058551212,1675
2810.1031055894246,1704
2811.8618070978273,1738
2813.6201633795085,1717
2815.378174737636,1694
2817.1358414754536,1679
2818.893163896285,1680
2820.6501423035334,1770
2822.4067770006814,1650
2824.1630682912883,1708
2825.9190164789957,1645
2827.6746218675207,1670
2829.429884760661,1754
2831.184805462294,1682
2832.9393842763743,1698
2834.693621506936,1718
2836.4475174580916,1748
2838.201072434034,1719
2839.954286739034,1733
2841.707160677441,1718
2843.459694553685,1690
2845.2118886722724,1694
2846.96374333779,1715
2848.7152588549034,1709
2850.4664355283567,1739
2852.217273662973,1647
2853.9677735636546,1691
2855.7179355353833,1731
2857.4677598832186,1743
2859.217246912299,1675
2860.9663969278427,1638
2862.715210235146,1677
2864.4636871395846,1714
2866.211827946614,1666
2867.9596329617652,1667
2869.7071024906536,1659
2871.4542368389684,1750
2873.20103631248,1628
2874.947501217038,1623
2876.6936318585695,1714
2878.4394285430812,1690
2880.1848915766604,1704
2881.9300212654707,1734
2883.6748179157553,1669
2885.4192818338374,1736
2887.1634133261173,1658
2888.907212699077,1705
2890.6506802592744,1658
2892.393816313348,1790
2894.1366211680142,1730
2895.8790951300693,1692
2897.621238506388,1698
2899.363051603925,1638
2901.1045347297118,1753
2902.8456881908596,1777
2904.58651229456,1710
2906.327007348081,1653
2908.067173658772,1678
2909.8070115340597,1718
2911.5465212814497,1773
2913.285703208527,1694
2915.0245576229563,1664
2916.7630848324807,1699
2918.5012851449196,1617
2920.2391588681758,1696
2921.976706310227,1670
2923.7139277791334,1640
2925.4508235830313,1748
2927.187394030137,1631
2928.923639428745,1742
2930.6595600872306,1706
2932.395156314046,1710
2934.1304284177218,1726
2935.8653767068713,1698
2937.6000014901815,1718
2939.3343030764227,1682
2941.068281774442,1687
2942.8019378931644,1731
2944.5352717415976,1685
2946.2682836288236,1712
2948.0009738640065,1665
2949.7333427563885,1712
2951.465390615289,1766
2953.1971177501086,1718
2954.9285244703265,1706
2956.6596110855,1702
2958.3903779052657,1735
2960.1208252393385,1766
2961.8509533975125,1753
2963.5807626896617,1763
2965.3102534257378,1673
2967.0394259157715,1726
2968.768280469873,1682
2970.496817398232,1746
2972.2250370111146,1689
2973.952939618869,1728
2975.6805255319196,1714
2977.4077950607707,1719
2979.134748516006,1797
2980.861386208289,1697
2982.587708448359,1736
2984.313715547037,1741
2986.039407815222,1712
2987.764785563891,1672
2989.489849104102,1712
2991.2145987469908,1686
2992.9390348037705,1694
2994.6631575857346,1651
2996.3869674042576,1726
2998.1104645707887,1664
2999.83364939686,1685
3001.5565221940783,1669
3003.2790832741334,1742
3005.0013329487924,1655
3006.7232715298996,1609
3008.4448993293804,1690
3010.166216659239,1698
3011.887223831558,1711
3013.607921158498,1679
3015.3283089522993,1717
3017.0483875252826,1703
3018.7681571898443,1659
3020.4876182584626,1630
3022.2067710436927,1691
3023.9256158581707,1711
3025.644153014609,1710
3027.362382825801,1661
3029.0803056046193,1636
3030.797921664012,1758
3032.5152313170106,1634
3034.2322348767225,1677
3035.9489326563353,1699
3037.665324969115,1669
3039.3814121284063,1666
3041.097194447633,1699
3042.812672240299,1668
3044.5278458199855,1755
3046.2427155003525,1614
3047.9572815951406,1757
3049.671544418167,1722
3051.38550428333,1707
3053.0991615046073,1678
3054.812516396051,1715
3056.5255692717974,1681
3058.2383204460575,1692
3059.9507702331257,1746
3061.662918947372,1713
3063.3747669032446,1693
3065.0863144152736,1668
3066.7975617980674,1659
3068.508509366309,1669
3070.219157434767,1710
3071.9295063182844,1666
3073.639556331785,1686
3075.3493077902704,1669
3077.058761008821,1629
3078.7679163025964,1682
3080.476773986837,1700
3082.1853343768594,1739
3083.89359778806,1712
3085.6015645359153,1691
3087.3092349359786,1652
3089.016609303884,1709
3090.7236879553434,1645
3092.4304712061476,1717
3094.136959372166,1670
3095.843152769349,1637
3097.5490517137237,1689
3099.2546565213966,1720
3100.959967508554,1705
3102.66498499146,1728
3104.3697092864577,1691
3106.0741407099695,1699
3107.778279578498,1691
3109.482126208622,1692
3111.1856809170004,1700
3112.8889440203716,1703
3114.5919158355528,1656
3116.294596679439,1683
3117.996986869006,1697
3119.6990867213062,1655
3121.4008965534726,1732
3123.102416682717,1709
3124.803647426329,1730
3126.5045891016784,1710
3128.205242026213,1742
3129.90560651746,1705
3131.605682893025,1698
3133.3054714705922,1705
3135.0049725679282,1765
3136.7041865028714,1714
3138.4031135933465,1690
3140.101754157353,1729
3141.800108512971,1718
3143.498176978357,1684
3145.1959598717494,1703
3146.8934575114636,1647
3148.5906702158954,1681
3150.2875983035183,1704
3151.9842420928853,1646
3153.680601902627,1655
3155.376678051456,1660
3157.07247085816,1659
3158.767980641609,1625
3160.463207720748,1704
3162.158152414606,1736
3163.8528150422862,1709
3165.5471959229726,1644
3167.2412953759303,1721
3168.9351137204976,1651
3170.628651276098,1645
3172.3219083622307,1657
3174.014885298474,1723
3175.707582404485,1750
3177.4000000000005,1712
3179.092138404835,1637
3180.7839979388846,1642
3182.47557892212,1684
3184.166881674594,1729
3185.8579065164386,1736
3187.5486537678626,1754
3189.2391237491547,1740
3190.9293167806827,1712
3192.6192331828934,1742
3194.3088732763117,1721
3195.998237381542,1729
3197.687325819268,1683
3199.376138910251,1657
3201.064676975334,1651
3202.7529403354347,1612
3204.4409293115523,1647
3206.1286442247647,1633
3207.816085396229,1704
3209.5032531471825,1593
3211.190147798936,1644
3212.8767696728846,1584
3214.5631190905015,1634
3216.2491963733373,1613
3217.9350018430214,1653
3219.6205358212637,1689
3221.305798629851,1694
3222.990790590651,1604
3224.6755120256103,1623
3226.359963256751,1630
3228.0441446061795,1551
3229.7280563960758,1635
3231.411698948703,1659
3233.0950725863995,1609
3234.778177631587,1642
3236.461014406761,1658
3238.1435832345005,1674
3239.8258844374595,1712
3241.507918338374,1707
3243.1896852600576,1653
3244.8711855254023,1630
3246.552419457381,1679
3248.233387379042,1676
3249.914089613516,1703
3251.59452648401,1656
3253.274698313813,1718
3254.95460542629,1731
3256.6342481448855,1656
3258.313626793125,1680
3259.9927416946084,1633
3261.6715931730196,1635
3263.3501815521176,1677
3265.0285071557437,1639
3266.706570307815,1628
3268.3843713323286,1643
3270.0619105533615,1686
3271.739188295068,1683
3273.4162048816834,1649
3275.0929606375184,1674
3276.769455886966,1679
3278.445690954498,1689
3280.1216661646613,1727
3281.797381842087,1681
3283.4728383114807,1689
3285.1480358976296,1689
3286.8229749253996,1648
3288.4976557197333,1674
3290.172078605655,1660
3291.846243908266,1674
3293.5201519527463,1677
3295.193803064357,1666
3296.8671975684374,1669
3298.5403357904024,1684
3300.21321805575,1666
3301.8858446900567,1689
3303.558216018975,1675
3305.23033236824,1668
3306.9021940636603,1663
3308.57380143113,1713
3310.2451547966184,1650
3311.916254486174,1738
3313.5871008259246,1676
3315.2576941420766,1631
3316.9280347609147,1707
3318.5981230088046,1681
3320.2679592121895,1640
3321.9375436975924,1629
3323.606876791612,1678
3325.27595882093,1674
3326.944790112305,1615
3328.6133709925753,1623
3330.2817017886573,1620
3331.949782827547,1660
3333.617614436319,1604
3335.2851969421245,1628
3336.952530672199,1669
3338.619615953853,1650
3340.286453114475,1654
3341.9530424815357,1662
3343.619384382583,1638
3345.2854791452437,1671
3346.951327097224,1695
3348.6169285663073,1703
3350.2822838803577,1628
3351.947393367319,1695
3353.61225735521,1665
3355.2768761721345,1622
3356.9412501462693,1655
3358.605379605873,1688
3360.2692648792827,1649
3361.9329062949146,1653
3363.596304181263,1555
